# Temperatura_=_20.0
# Concentracion g/m^3_=_9000.0
# C_Vs_to_Am_M_A/Vsm_=_65563218390.804596
# pendiente_HvsI_1/m_=_3716.3
# ordenada_HvsI_A/m_=_1297.0
# frecuencia_Hz_=_212982.62078247924

Tiempo_(s)	Campo_(V.s)	Magnetizacion_(V.s)	Campo_(kA/m)	Magnetizacion_(A/m)
0.000000e+00	-8.058055e-06	-5.010800e-09	-5.692448e+01	-3.279598e+02
1.000000e-08	-8.057157e-06	-5.007322e-09	-5.691814e+01	-3.279204e+02
2.000000e-08	-8.054646e-06	-5.012630e-09	-5.690040e+01	-3.278708e+02
3.000000e-08	-8.050703e-06	-5.014011e-09	-5.687255e+01	-3.278102e+02
4.000000e-08	-8.045663e-06	-5.012120e-09	-5.683695e+01	-3.277376e+02
5.000000e-08	-8.039340e-06	-5.007771e-09	-5.679228e+01	-3.276521e+02
6.000000e-08	-8.031747e-06	-5.001920e-09	-5.673863e+01	-3.275534e+02
7.000000e-08	-8.022917e-06	-4.997927e-09	-5.667626e+01	-3.274415e+02
8.000000e-08	-8.012377e-06	-4.987837e-09	-5.660180e+01	-3.273170e+02
9.000000e-08	-8.000026e-06	-4.982723e-09	-5.651455e+01	-3.271813e+02
1.000000e-07	-7.985926e-06	-5.056429e-09	-5.641494e+01	-3.270362e+02
1.100000e-07	-7.969771e-06	-5.076922e-09	-5.630082e+01	-3.268842e+02
1.200000e-07	-7.951969e-06	-5.026653e-09	-5.617506e+01	-3.267277e+02
1.300000e-07	-7.932990e-06	-4.980649e-09	-5.604098e+01	-3.265694e+02
1.400000e-07	-7.913099e-06	-4.880931e-09	-5.590047e+01	-3.264115e+02
1.500000e-07	-7.892308e-06	-4.954914e-09	-5.575360e+01	-3.262555e+02
1.600000e-07	-7.870292e-06	-5.149662e-09	-5.559807e+01	-3.261022e+02
1.700000e-07	-7.847094e-06	-4.971122e-09	-5.543419e+01	-3.259513e+02
1.800000e-07	-7.822545e-06	-4.927008e-09	-5.526077e+01	-3.258008e+02
1.900000e-07	-7.796145e-06	-4.990799e-09	-5.507427e+01	-3.256480e+02
2.000000e-07	-7.768389e-06	-4.907920e-09	-5.487820e+01	-3.254883e+02
2.100000e-07	-7.739736e-06	-5.109019e-09	-5.467578e+01	-3.253164e+02
2.200000e-07	-7.709670e-06	-5.047361e-09	-5.446339e+01	-3.251258e+02
2.300000e-07	-7.678273e-06	-4.824412e-09	-5.424159e+01	-3.249098e+02
2.400000e-07	-7.645693e-06	-4.956481e-09	-5.401144e+01	-3.246612e+02
2.500000e-07	-7.611607e-06	-5.061655e-09	-5.377064e+01	-3.243734e+02
2.600000e-07	-7.576048e-06	-5.003545e-09	-5.351944e+01	-3.240404e+02
2.700000e-07	-7.539047e-06	-4.921697e-09	-5.325806e+01	-3.236575e+02
2.800000e-07	-7.500628e-06	-4.846116e-09	-5.298665e+01	-3.232215e+02
2.900000e-07	-7.460981e-06	-4.939611e-09	-5.270658e+01	-3.227310e+02
3.000000e-07	-7.420003e-06	-4.993007e-09	-5.241709e+01	-3.221864e+02
3.100000e-07	-7.377484e-06	-4.917512e-09	-5.211673e+01	-3.215900e+02
3.200000e-07	-7.333550e-06	-4.846664e-09	-5.180637e+01	-3.209460e+02
3.300000e-07	-7.288252e-06	-4.855793e-09	-5.148637e+01	-3.202600e+02
3.400000e-07	-7.241590e-06	-4.912862e-09	-5.115674e+01	-3.195388e+02
3.500000e-07	-7.193727e-06	-4.888117e-09	-5.081862e+01	-3.187896e+02
3.600000e-07	-7.144310e-06	-4.854484e-09	-5.046952e+01	-3.180199e+02
3.700000e-07	-7.092989e-06	-4.779804e-09	-5.010697e+01	-3.172367e+02
3.800000e-07	-7.040127e-06	-4.795246e-09	-4.973354e+01	-3.164462e+02
3.900000e-07	-6.986047e-06	-4.885164e-09	-4.935150e+01	-3.156532e+02
4.000000e-07	-6.930757e-06	-4.814477e-09	-4.896092e+01	-3.148606e+02
4.100000e-07	-6.874360e-06	-4.739024e-09	-4.856251e+01	-3.140697e+02
4.200000e-07	-6.816759e-06	-4.762216e-09	-4.815560e+01	-3.132797e+02
4.300000e-07	-6.757750e-06	-4.814813e-09	-4.773875e+01	-3.124878e+02
4.400000e-07	-6.697491e-06	-4.776257e-09	-4.731306e+01	-3.116898e+02
4.500000e-07	-6.636110e-06	-4.709912e-09	-4.687944e+01	-3.108800e+02
4.600000e-07	-6.573606e-06	-4.708470e-09	-4.643790e+01	-3.100519e+02
4.700000e-07	-6.510092e-06	-4.708429e-09	-4.598921e+01	-3.091989e+02
4.800000e-07	-6.445480e-06	-4.704587e-09	-4.553278e+01	-3.083143e+02
4.900000e-07	-6.379637e-06	-4.673259e-09	-4.506764e+01	-3.073923e+02
5.000000e-07	-6.312552e-06	-4.645938e-09	-4.459373e+01	-3.064284e+02
5.100000e-07	-6.244419e-06	-4.640200e-09	-4.411242e+01	-3.054193e+02
5.200000e-07	-6.175346e-06	-4.638299e-09	-4.362447e+01	-3.043638e+02
5.300000e-07	-6.105232e-06	-4.617503e-09	-4.312916e+01	-3.032622e+02
5.400000e-07	-6.034066e-06	-4.580500e-09	-4.262643e+01	-3.021167e+02
5.500000e-07	-5.961894e-06	-4.567123e-09	-4.211658e+01	-3.009309e+02
5.600000e-07	-5.888750e-06	-4.562908e-09	-4.159987e+01	-2.997097e+02
5.700000e-07	-5.814428e-06	-4.549786e-09	-4.107484e+01	-2.984583e+02
5.800000e-07	-5.738706e-06	-4.511004e-09	-4.053992e+01	-2.971824e+02
5.900000e-07	-5.661736e-06	-4.480918e-09	-3.999618e+01	-2.958870e+02
6.000000e-07	-5.583745e-06	-4.481667e-09	-3.944522e+01	-2.945764e+02
6.100000e-07	-5.504769e-06	-4.466383e-09	-3.888732e+01	-2.932532e+02
6.200000e-07	-5.424530e-06	-4.424584e-09	-3.832049e+01	-2.919188e+02
6.300000e-07	-5.343083e-06	-4.391798e-09	-3.774512e+01	-2.905722e+02
6.400000e-07	-5.260831e-06	-4.389366e-09	-3.716406e+01	-2.892109e+02
6.500000e-07	-5.177794e-06	-4.375239e-09	-3.657747e+01	-2.878304e+02
6.600000e-07	-5.093889e-06	-4.338200e-09	-3.598474e+01	-2.864246e+02
6.700000e-07	-5.009125e-06	-4.308110e-09	-3.538594e+01	-2.849867e+02
6.800000e-07	-4.923538e-06	-4.292277e-09	-3.478133e+01	-2.835090e+02
6.900000e-07	-4.837229e-06	-4.278383e-09	-3.417162e+01	-2.819839e+02
7.000000e-07	-4.750114e-06	-4.250331e-09	-3.355621e+01	-2.804043e+02
7.100000e-07	-4.661988e-06	-4.213947e-09	-3.293366e+01	-2.787645e+02
7.200000e-07	-4.572973e-06	-4.184588e-09	-3.230483e+01	-2.770599e+02
7.300000e-07	-4.483225e-06	-4.167189e-09	-3.167082e+01	-2.752879e+02
7.400000e-07	-4.392682e-06	-4.147395e-09	-3.103120e+01	-2.734480e+02
7.500000e-07	-4.301184e-06	-4.109628e-09	-3.038484e+01	-2.715415e+02
7.600000e-07	-4.208754e-06	-4.071089e-09	-2.973188e+01	-2.695712e+02
7.700000e-07	-4.115671e-06	-4.050197e-09	-2.907432e+01	-2.675415e+02
7.800000e-07	-4.022100e-06	-4.030928e-09	-2.841331e+01	-2.654574e+02
7.900000e-07	-3.927901e-06	-3.995847e-09	-2.774786e+01	-2.633240e+02
8.000000e-07	-3.832898e-06	-3.950657e-09	-2.707672e+01	-2.611460e+02
8.100000e-07	-3.737015e-06	-3.918647e-09	-2.639938e+01	-2.589267e+02
8.200000e-07	-3.640462e-06	-3.897152e-09	-2.571730e+01	-2.566679e+02
8.300000e-07	-3.543415e-06	-3.862173e-09	-2.503173e+01	-2.543689e+02
8.400000e-07	-3.445874e-06	-3.814715e-09	-2.434267e+01	-2.520267e+02
8.500000e-07	-3.347717e-06	-3.771409e-09	-2.364927e+01	-2.496355e+02
8.600000e-07	-3.248903e-06	-3.738510e-09	-2.295121e+01	-2.471870e+02
8.700000e-07	-3.149497e-06	-3.702214e-09	-2.224898e+01	-2.446709e+02
8.800000e-07	-3.049500e-06	-3.655265e-09	-2.154257e+01	-2.420749e+02
8.900000e-07	-2.948997e-06	-3.605564e-09	-2.083258e+01	-2.393860e+02
9.000000e-07	-2.848036e-06	-3.561853e-09	-2.011937e+01	-2.365908e+02
9.100000e-07	-2.746693e-06	-3.524476e-09	-1.940345e+01	-2.336765e+02
9.200000e-07	-2.645019e-06	-3.479855e-09	-1.868520e+01	-2.306315e+02
9.300000e-07	-2.542966e-06	-3.422781e-09	-1.796427e+01	-2.274461e+02
9.400000e-07	-2.440476e-06	-3.366864e-09	-1.724025e+01	-2.241128e+02
9.500000e-07	-2.337517e-06	-3.316987e-09	-1.651291e+01	-2.206266e+02
9.600000e-07	-2.234040e-06	-3.266364e-09	-1.578192e+01	-2.169847e+02
9.700000e-07	-2.130091e-06	-3.206051e-09	-1.504759e+01	-2.131861e+02
9.800000e-07	-2.025733e-06	-3.141094e-09	-1.431038e+01	-2.092313e+02
9.900000e-07	-1.920949e-06	-3.082572e-09	-1.357015e+01	-2.051204e+02
1.000000e-06	-1.815811e-06	-3.023081e-09	-1.282742e+01	-2.008528e+02
1.010000e-06	-1.710428e-06	-2.954443e-09	-1.208297e+01	-1.964253e+02
1.020000e-06	-1.604813e-06	-2.878211e-09	-1.133687e+01	-1.918310e+02
1.030000e-06	-1.498900e-06	-2.802220e-09	-1.058867e+01	-1.870580e+02
1.040000e-06	-1.392621e-06	-2.728189e-09	-9.837889e+00	-1.820882e+02
1.050000e-06	-1.285977e-06	-2.647896e-09	-9.084520e+00	-1.768966e+02
1.060000e-06	-1.179010e-06	-2.558739e-09	-8.328874e+00	-1.714513e+02
1.070000e-06	-1.071719e-06	-2.465379e-09	-7.570942e+00	-1.657127e+02
1.080000e-06	-9.641864e-07	-2.372071e-09	-6.811297e+00	-1.596354e+02
1.090000e-06	-8.564785e-07	-2.276018e-09	-6.050417e+00	-1.531683e+02
1.100000e-06	-7.485601e-07	-2.170053e-09	-5.288050e+00	-1.462571e+02
1.110000e-06	-6.404323e-07	-2.051106e-09	-4.524203e+00	-1.388461e+02
1.120000e-06	-5.321619e-07	-1.924246e-09	-3.759349e+00	-1.308810e+02
1.130000e-06	-4.238205e-07	-1.795160e-09	-2.993993e+00	-1.223117e+02
1.140000e-06	-3.154439e-07	-1.656502e-09	-2.228389e+00	-1.130955e+02
1.150000e-06	-2.070355e-07	-1.501607e-09	-1.462560e+00	-1.031997e+02
1.160000e-06	-9.855968e-08	-1.335819e-09	-6.962547e-01	-9.260483e+01
1.170000e-06	9.987200e-09	-1.164935e-09	7.055253e-02	-8.130651e+01
1.180000e-06	1.185276e-07	-9.862984e-10	8.373143e-01	-6.931766e+01
1.190000e-06	2.269640e-07	-7.966971e-10	1.603341e+00	-5.666952e+01
1.200000e-06	3.352708e-07	-5.950890e-10	2.368452e+00	-4.341211e+01
1.210000e-06	4.434924e-07	-3.841854e-10	3.132962e+00	-2.961381e+01
1.220000e-06	5.516481e-07	-1.696010e-10	3.897005e+00	-1.536010e+01
1.230000e-06	6.596323e-07	5.073265e-11	4.659838e+00	-7.515851e-01
1.240000e-06	7.673725e-07	2.786208e-10	5.420946e+00	1.409883e+01
1.250000e-06	8.748766e-07	5.138048e-10	6.180387e+00	2.906928e+01
1.260000e-06	9.821841e-07	7.468307e-10	6.938439e+00	4.403274e+01
1.270000e-06	1.089234e-06	9.754237e-10	7.694674e+00	5.886115e+01
1.280000e-06	1.196001e-06	1.203275e-09	8.448906e+00	7.342952e+01
1.290000e-06	1.302503e-06	1.425531e-09	9.201266e+00	8.762002e+01
1.300000e-06	1.408770e-06	1.637142e-09	9.951968e+00	1.013257e+02
1.310000e-06	1.514787e-06	1.832810e-09	1.070090e+01	1.144535e+02
1.320000e-06	1.620478e-06	2.019788e-09	1.144754e+01	1.269272e+02
1.330000e-06	1.725946e-06	2.197057e-09	1.219260e+01	1.386887e+02
1.340000e-06	1.831202e-06	2.361830e-09	1.293615e+01	1.496997e+02
1.350000e-06	1.936216e-06	2.513457e-09	1.367800e+01	1.599409e+02
1.360000e-06	2.040938e-06	2.653268e-09	1.441779e+01	1.694121e+02
1.370000e-06	2.145211e-06	2.784318e-09	1.515441e+01	1.781302e+02
1.380000e-06	2.248992e-06	2.902972e-09	1.588755e+01	1.861274e+02
1.390000e-06	2.352358e-06	3.008642e-09	1.661776e+01	1.934483e+02
1.400000e-06	2.455349e-06	3.107248e-09	1.734531e+01	2.001470e+02
1.410000e-06	2.557891e-06	3.202979e-09	1.806970e+01	2.062839e+02
1.420000e-06	2.659967e-06	3.290926e-09	1.879079e+01	2.119225e+02
1.430000e-06	2.761612e-06	3.369785e-09	1.950884e+01	2.171266e+02
1.440000e-06	2.862923e-06	3.443943e-09	2.022454e+01	2.219571e+02
1.450000e-06	2.963844e-06	3.515579e-09	2.093747e+01	2.264702e+02
1.460000e-06	3.064257e-06	3.583540e-09	2.164681e+01	2.307155e+02
1.470000e-06	3.164158e-06	3.646482e-09	2.235255e+01	2.347347e+02
1.480000e-06	3.263431e-06	3.705140e-09	2.305384e+01	2.385614e+02
1.490000e-06	3.361953e-06	3.763775e-09	2.374983e+01	2.422207e+02
1.500000e-06	3.459783e-06	3.821525e-09	2.444093e+01	2.457299e+02
1.510000e-06	3.557039e-06	3.874018e-09	2.512798e+01	2.490997e+02
1.520000e-06	3.653732e-06	3.920222e-09	2.581104e+01	2.523348e+02
1.530000e-06	3.749708e-06	3.965660e-09	2.648905e+01	2.554361e+02
1.540000e-06	3.844886e-06	4.013758e-09	2.716141e+01	2.584020e+02
1.550000e-06	3.939349e-06	4.057175e-09	2.782873e+01	2.612297e+02
1.560000e-06	4.033158e-06	4.091401e-09	2.849142e+01	2.639167e+02
1.570000e-06	4.126364e-06	4.125107e-09	2.914986e+01	2.664620e+02
1.580000e-06	4.218951e-06	4.163084e-09	2.980392e+01	2.688671e+02
1.590000e-06	4.310770e-06	4.200132e-09	3.045256e+01	2.711361e+02
1.600000e-06	4.401653e-06	4.232468e-09	3.109458e+01	2.732759e+02
1.610000e-06	4.491634e-06	4.260895e-09	3.173023e+01	2.752965e+02
1.620000e-06	4.580827e-06	4.291530e-09	3.236032e+01	2.772101e+02
1.630000e-06	4.669174e-06	4.324250e-09	3.298442e+01	2.790305e+02
1.640000e-06	4.756545e-06	4.351238e-09	3.360164e+01	2.807724e+02
1.650000e-06	4.843058e-06	4.372698e-09	3.421280e+01	2.824504e+02
1.660000e-06	4.928848e-06	4.395212e-09	3.481884e+01	2.840782e+02
1.670000e-06	5.013884e-06	4.419646e-09	3.541956e+01	2.856677e+02
1.680000e-06	5.098145e-06	4.442978e-09	3.601480e+01	2.872284e+02
1.690000e-06	5.181577e-06	4.465245e-09	3.660419e+01	2.887671e+02
1.700000e-06	5.264101e-06	4.488826e-09	3.718716e+01	2.902873e+02
1.710000e-06	5.345732e-06	4.511907e-09	3.776383e+01	2.917898e+02
1.720000e-06	5.426478e-06	4.533048e-09	3.833424e+01	2.932726e+02
1.730000e-06	5.506176e-06	4.553019e-09	3.889725e+01	2.947311e+02
1.740000e-06	5.584856e-06	4.572237e-09	3.945308e+01	2.961595e+02
1.750000e-06	5.662583e-06	4.590150e-09	4.000216e+01	2.975506e+02
1.760000e-06	5.739319e-06	4.607172e-09	4.054425e+01	2.988973e+02
1.770000e-06	5.815071e-06	4.623000e-09	4.107938e+01	3.001929e+02
1.780000e-06	5.889647e-06	4.638880e-09	4.160621e+01	3.014319e+02
1.790000e-06	5.963041e-06	4.656219e-09	4.212468e+01	3.026104e+02
1.800000e-06	6.035260e-06	4.671980e-09	4.263486e+01	3.037268e+02
1.810000e-06	6.106316e-06	4.686843e-09	4.313682e+01	3.047815e+02
1.820000e-06	6.176404e-06	4.702578e-09	4.363195e+01	3.057773e+02
1.830000e-06	6.245529e-06	4.720116e-09	4.412026e+01	3.067189e+02
1.840000e-06	6.313641e-06	4.736281e-09	4.460142e+01	3.076126e+02
1.850000e-06	6.380625e-06	4.749753e-09	4.507462e+01	3.084660e+02
1.860000e-06	6.446379e-06	4.761715e-09	4.553913e+01	3.092871e+02
1.870000e-06	6.510962e-06	4.774183e-09	4.599536e+01	3.100841e+02
1.880000e-06	6.574390e-06	4.788109e-09	4.644343e+01	3.108644e+02
1.890000e-06	6.636683e-06	4.800278e-09	4.688349e+01	3.116344e+02
1.900000e-06	6.697906e-06	4.810834e-09	4.731599e+01	3.123988e+02
1.910000e-06	6.758068e-06	4.823239e-09	4.774099e+01	3.131606e+02
1.920000e-06	6.817060e-06	4.836523e-09	4.815773e+01	3.139211e+02
1.930000e-06	6.874672e-06	4.847091e-09	4.856472e+01	3.146793e+02
1.940000e-06	6.930858e-06	4.855208e-09	4.896163e+01	3.154329e+02
1.950000e-06	6.985811e-06	4.865517e-09	4.934984e+01	3.161779e+02
1.960000e-06	7.039576e-06	4.879063e-09	4.972964e+01	3.169096e+02
1.970000e-06	7.091976e-06	4.889517e-09	5.009982e+01	3.176227e+02
1.980000e-06	7.142803e-06	4.896205e-09	5.045887e+01	3.183120e+02
1.990000e-06	7.192018e-06	4.905454e-09	5.080654e+01	3.189726e+02
2.000000e-06	7.239825e-06	4.917902e-09	5.114427e+01	3.196007e+02
2.010000e-06	7.286359e-06	4.929271e-09	5.147299e+01	3.201937e+02
2.020000e-06	7.331661e-06	4.938757e-09	5.179302e+01	3.207502e+02
2.030000e-06	7.375824e-06	4.948069e-09	5.210500e+01	3.212706e+02
2.040000e-06	7.418706e-06	4.957636e-09	5.240793e+01	3.217565e+02
2.050000e-06	7.460088e-06	4.966806e-09	5.270027e+01	3.222109e+02
2.060000e-06	7.500124e-06	4.975415e-09	5.298310e+01	3.226379e+02
2.070000e-06	7.538933e-06	4.982450e-09	5.325725e+01	3.230419e+02
2.080000e-06	7.576478e-06	4.990118e-09	5.352248e+01	3.234278e+02
2.090000e-06	7.612848e-06	4.999764e-09	5.377941e+01	3.238004e+02
2.100000e-06	7.648017e-06	5.008067e-09	5.402786e+01	3.241637e+02
2.110000e-06	7.681696e-06	5.013775e-09	5.426577e+01	3.245210e+02
2.120000e-06	7.713885e-06	5.020093e-09	5.449316e+01	3.248745e+02
2.130000e-06	7.744847e-06	5.026691e-09	5.471189e+01	3.252252e+02
2.140000e-06	7.774563e-06	5.031979e-09	5.492181e+01	3.255728e+02
2.150000e-06	7.803065e-06	5.039175e-09	5.512316e+01	3.259157e+02
2.160000e-06	7.830345e-06	5.046843e-09	5.531587e+01	3.262515e+02
2.170000e-06	7.855987e-06	5.052754e-09	5.549701e+01	3.265769e+02
2.180000e-06	7.880064e-06	5.056280e-09	5.566710e+01	3.268882e+02
2.190000e-06	7.902886e-06	5.058533e-09	5.582832e+01	3.271816e+02
2.200000e-06	7.924361e-06	5.062793e-09	5.598003e+01	3.274534e+02
2.210000e-06	7.944587e-06	5.067678e-09	5.612291e+01	3.277004e+02
2.220000e-06	7.963655e-06	5.070840e-09	5.625762e+01	3.279205e+02
2.230000e-06	7.981279e-06	5.072947e-09	5.638212e+01	3.281120e+02
2.240000e-06	7.997323e-06	5.076532e-09	5.649546e+01	3.282745e+02
2.250000e-06	8.011860e-06	5.081448e-09	5.659815e+01	3.284085e+02
2.260000e-06	8.024943e-06	5.085379e-09	5.669057e+01	3.285154e+02
2.270000e-06	8.036544e-06	5.088606e-09	5.677252e+01	3.285973e+02
2.280000e-06	8.046313e-06	5.091701e-09	5.684154e+01	3.286568e+02
2.290000e-06	8.054388e-06	5.095754e-09	5.689858e+01	3.286968e+02
2.300000e-06	8.061143e-06	5.099815e-09	5.694629e+01	3.287200e+02
2.310000e-06	8.066581e-06	5.100391e-09	5.698472e+01	3.287291e+02
2.320000e-06	8.070733e-06	5.099401e-09	5.701404e+01	3.287261e+02
2.330000e-06	8.073517e-06	5.098940e-09	5.703371e+01	3.287127e+02
2.340000e-06	8.074620e-06	5.099248e-09	5.704150e+01	3.286897e+02
2.350000e-06	8.074197e-06	5.101158e-09	5.703851e+01	3.286574e+02
2.360000e-06	8.072534e-06	5.099902e-09	5.702677e+01	3.286155e+02
2.370000e-06	8.069587e-06	5.093605e-09	5.700595e+01	3.285632e+02
2.380000e-06	8.065484e-06	5.093050e-09	5.697696e+01	3.284996e+02
2.390000e-06	8.059967e-06	5.093132e-09	5.693799e+01	3.284238e+02
2.400000e-06	8.052786e-06	5.093876e-09	5.688726e+01	3.283349e+02
2.410000e-06	8.044363e-06	5.097123e-09	5.682776e+01	3.282328e+02
2.420000e-06	8.034850e-06	5.105343e-09	5.676055e+01	3.281176e+02
2.430000e-06	8.024101e-06	5.118955e-09	5.668462e+01	3.279901e+02
2.440000e-06	8.011793e-06	5.009968e-09	5.659768e+01	3.278518e+02
2.450000e-06	7.997211e-06	4.968224e-09	5.649466e+01	3.277047e+02
2.460000e-06	7.980395e-06	5.005538e-09	5.637587e+01	3.275512e+02
2.470000e-06	7.962117e-06	5.053716e-09	5.624675e+01	3.273940e+02
2.480000e-06	7.943031e-06	5.237408e-09	5.611192e+01	3.272355e+02
2.490000e-06	7.923385e-06	5.096690e-09	5.597314e+01	3.270779e+02
2.500000e-06	7.902414e-06	4.920955e-09	5.582499e+01	3.269225e+02
2.510000e-06	7.879469e-06	5.185092e-09	5.566290e+01	3.267698e+02
2.520000e-06	7.855371e-06	5.129312e-09	5.549266e+01	3.266191e+02
2.530000e-06	7.830171e-06	5.144109e-09	5.531465e+01	3.264683e+02
2.540000e-06	7.803310e-06	5.242794e-09	5.512489e+01	3.263142e+02
2.550000e-06	7.775333e-06	4.873044e-09	5.492725e+01	3.261519e+02
2.560000e-06	7.746233e-06	4.942942e-09	5.472168e+01	3.259759e+02
2.570000e-06	7.715507e-06	5.080184e-09	5.450462e+01	3.257795e+02
2.580000e-06	7.683229e-06	4.782692e-09	5.427660e+01	3.255559e+02
2.590000e-06	7.649586e-06	4.783808e-09	5.403894e+01	3.252981e+02
2.600000e-06	7.614830e-06	4.809884e-09	5.379341e+01	3.249994e+02
2.610000e-06	7.578868e-06	4.869943e-09	5.353936e+01	3.246543e+02
2.620000e-06	7.541326e-06	4.970278e-09	5.327415e+01	3.242583e+02
2.630000e-06	7.502202e-06	4.742150e-09	5.299777e+01	3.238087e+02
2.640000e-06	7.461704e-06	4.806810e-09	5.271169e+01	3.233044e+02
2.650000e-06	7.419992e-06	4.821324e-09	5.241702e+01	3.227465e+02
2.660000e-06	7.376977e-06	4.795879e-09	5.211315e+01	3.221377e+02
2.670000e-06	7.332781e-06	4.892984e-09	5.180094e+01	3.214826e+02
2.680000e-06	7.287317e-06	4.741702e-09	5.147976e+01	3.207871e+02
2.690000e-06	7.240270e-06	4.751648e-09	5.114741e+01	3.200580e+02
2.700000e-06	7.192037e-06	4.767537e-09	5.080668e+01	3.193029e+02
2.710000e-06	7.142547e-06	4.839536e-09	5.045706e+01	3.185292e+02
2.720000e-06	7.091465e-06	4.805884e-09	5.009621e+01	3.177436e+02
2.730000e-06	7.038980e-06	4.628727e-09	4.972544e+01	3.169520e+02
2.740000e-06	6.985018e-06	4.775275e-09	4.934423e+01	3.161588e+02
2.750000e-06	6.929596e-06	4.767162e-09	4.895271e+01	3.153666e+02
2.760000e-06	6.872794e-06	4.712010e-09	4.855145e+01	3.145760e+02
2.770000e-06	6.814793e-06	4.668303e-09	4.814171e+01	3.137857e+02
2.780000e-06	6.755785e-06	4.660695e-09	4.772486e+01	3.129927e+02
2.790000e-06	6.695715e-06	4.728680e-09	4.730051e+01	3.121922e+02
2.800000e-06	6.634397e-06	4.641716e-09	4.686734e+01	3.113784e+02
2.810000e-06	6.571700e-06	4.661447e-09	4.642443e+01	3.105447e+02
2.820000e-06	6.507829e-06	4.637708e-09	4.597323e+01	3.096843e+02
2.830000e-06	6.442896e-06	4.626735e-09	4.551452e+01	3.087908e+02
2.840000e-06	6.376885e-06	4.617049e-09	4.504820e+01	3.078587e+02
2.850000e-06	6.309805e-06	4.590910e-09	4.457433e+01	3.068836e+02
2.860000e-06	6.241676e-06	4.590738e-09	4.409305e+01	3.058629e+02
2.870000e-06	6.172492e-06	4.535591e-09	4.360431e+01	3.047956e+02
2.880000e-06	6.102123e-06	4.557168e-09	4.310720e+01	3.036827e+02
2.890000e-06	6.030507e-06	4.537284e-09	4.260128e+01	3.025267e+02
2.900000e-06	5.957779e-06	4.509739e-09	4.208751e+01	3.013315e+02
2.910000e-06	5.884138e-06	4.485250e-09	4.156729e+01	3.001022e+02
2.920000e-06	5.809483e-06	4.496338e-09	4.103991e+01	2.988441e+02
2.930000e-06	5.733630e-06	4.489688e-09	4.050406e+01	2.975628e+02
2.940000e-06	5.656594e-06	4.430648e-09	3.995985e+01	2.962632e+02
2.950000e-06	5.578390e-06	4.426371e-09	3.940740e+01	2.949491e+02
