# Temperatura_=_20.0
# Concentracion g/m^3_=_12600.0
# C_Vs_to_Am_M_A/Vsm_=_65563218390.804596
# pendiente_HvsI_1/m_=_3716.3
# ordenada_HvsI_A/m_=_1297.0
# frecuencia_Hz_=_302275.8119920593

Tiempo_(s)	Campo_(V.s)	Magnetizacion_(V.s)	Campo_(kA/m)	Magnetizacion_(A/m)
0.000000e+00	-8.118784e-06	-2.186514e-08	-5.694631e+01	-1.432986e+03
1.000000e-08	-8.115265e-06	-2.186060e-08	-5.692163e+01	-1.432455e+03
2.000000e-08	-8.109094e-06	-2.185018e-08	-5.687834e+01	-1.431734e+03
3.000000e-08	-8.100205e-06	-2.183778e-08	-5.681600e+01	-1.430842e+03
4.000000e-08	-8.088400e-06	-2.182395e-08	-5.673319e+01	-1.429799e+03
5.000000e-08	-8.073628e-06	-2.180814e-08	-5.662957e+01	-1.428619e+03
6.000000e-08	-8.056082e-06	-2.179108e-08	-5.650651e+01	-1.427314e+03
7.000000e-08	-8.036176e-06	-2.177019e-08	-5.636689e+01	-1.425888e+03
8.000000e-08	-8.013842e-06	-2.175546e-08	-5.621023e+01	-1.424339e+03
9.000000e-08	-7.988471e-06	-2.176723e-08	-5.603228e+01	-1.422661e+03
1.000000e-07	-7.959885e-06	-2.173358e-08	-5.583177e+01	-1.420844e+03
1.100000e-07	-7.928265e-06	-2.165807e-08	-5.560998e+01	-1.418877e+03
1.200000e-07	-7.893721e-06	-2.159915e-08	-5.536769e+01	-1.416752e+03
1.300000e-07	-7.856527e-06	-2.157602e-08	-5.510680e+01	-1.414461e+03
1.400000e-07	-7.817048e-06	-2.155114e-08	-5.482989e+01	-1.412001e+03
1.500000e-07	-7.775305e-06	-2.148630e-08	-5.453710e+01	-1.409370e+03
1.600000e-07	-7.730906e-06	-2.146800e-08	-5.422568e+01	-1.406571e+03
1.700000e-07	-7.683663e-06	-2.137979e-08	-5.389431e+01	-1.403603e+03
1.800000e-07	-7.633610e-06	-2.135230e-08	-5.354323e+01	-1.400467e+03
1.900000e-07	-7.580568e-06	-2.135601e-08	-5.317119e+01	-1.397157e+03
2.000000e-07	-7.524647e-06	-2.121918e-08	-5.277895e+01	-1.393664e+03
2.100000e-07	-7.466005e-06	-2.116070e-08	-5.236762e+01	-1.389974e+03
2.200000e-07	-7.404701e-06	-2.113991e-08	-5.193763e+01	-1.386068e+03
2.300000e-07	-7.340801e-06	-2.109707e-08	-5.148942e+01	-1.381924e+03
2.400000e-07	-7.274098e-06	-2.099310e-08	-5.102156e+01	-1.377522e+03
2.500000e-07	-7.204531e-06	-2.086046e-08	-5.053361e+01	-1.372842e+03
2.600000e-07	-7.132142e-06	-2.081754e-08	-5.002586e+01	-1.367871e+03
2.700000e-07	-7.056934e-06	-2.079161e-08	-4.949834e+01	-1.362603e+03
2.800000e-07	-6.978996e-06	-2.071034e-08	-4.895167e+01	-1.357040e+03
2.900000e-07	-6.898317e-06	-2.055459e-08	-4.838578e+01	-1.351194e+03
3.000000e-07	-6.815091e-06	-2.044551e-08	-4.780202e+01	-1.345080e+03
3.100000e-07	-6.729564e-06	-2.041077e-08	-4.720212e+01	-1.338718e+03
3.200000e-07	-6.641680e-06	-2.033520e-08	-4.658569e+01	-1.332127e+03
3.300000e-07	-6.551369e-06	-2.021168e-08	-4.595224e+01	-1.325324e+03
3.400000e-07	-6.458658e-06	-2.006461e-08	-4.530195e+01	-1.318315e+03
3.500000e-07	-6.363635e-06	-1.997172e-08	-4.463544e+01	-1.311099e+03
3.600000e-07	-6.266365e-06	-1.989904e-08	-4.395318e+01	-1.303662e+03
3.700000e-07	-6.166757e-06	-1.977637e-08	-4.325451e+01	-1.295980e+03
3.800000e-07	-6.064865e-06	-1.961197e-08	-4.253983e+01	-1.288023e+03
3.900000e-07	-5.960841e-06	-1.947162e-08	-4.181019e+01	-1.279755e+03
4.000000e-07	-5.854729e-06	-1.938266e-08	-4.106591e+01	-1.271141e+03
4.100000e-07	-5.746596e-06	-1.926251e-08	-4.030745e+01	-1.262151e+03
4.200000e-07	-5.636412e-06	-1.908824e-08	-3.953459e+01	-1.252761e+03
4.300000e-07	-5.524151e-06	-1.890337e-08	-3.874719e+01	-1.242961e+03
4.400000e-07	-5.409759e-06	-1.877034e-08	-3.794482e+01	-1.232749e+03
4.500000e-07	-5.293275e-06	-1.864876e-08	-3.712778e+01	-1.222136e+03
4.600000e-07	-5.174854e-06	-1.847849e-08	-3.629716e+01	-1.211138e+03
4.700000e-07	-5.054609e-06	-1.827301e-08	-3.545375e+01	-1.199773e+03
4.800000e-07	-4.932559e-06	-1.808958e-08	-3.459767e+01	-1.188059e+03
4.900000e-07	-4.808697e-06	-1.793681e-08	-3.372889e+01	-1.176003e+03
5.000000e-07	-4.683072e-06	-1.776123e-08	-3.284774e+01	-1.163603e+03
5.100000e-07	-4.555744e-06	-1.754694e-08	-3.195464e+01	-1.150843e+03
5.200000e-07	-4.426822e-06	-1.732285e-08	-3.105036e+01	-1.137693e+03
5.300000e-07	-4.296252e-06	-1.712358e-08	-3.013453e+01	-1.124111e+03
5.400000e-07	-4.163947e-06	-1.692692e-08	-2.920652e+01	-1.110050e+03
5.500000e-07	-4.030052e-06	-1.670033e-08	-2.826736e+01	-1.095457e+03
5.600000e-07	-3.894675e-06	-1.644679e-08	-2.731781e+01	-1.080286e+03
5.700000e-07	-3.757874e-06	-1.619966e-08	-2.635826e+01	-1.064499e+03
5.800000e-07	-3.619650e-06	-1.596550e-08	-2.538874e+01	-1.048072e+03
5.900000e-07	-3.479872e-06	-1.571491e-08	-2.440832e+01	-1.030994e+03
6.000000e-07	-3.338624e-06	-1.543680e-08	-2.341759e+01	-1.013268e+03
6.100000e-07	-3.196081e-06	-1.514860e-08	-2.241777e+01	-9.949091e+02
6.200000e-07	-3.052291e-06	-1.486820e-08	-2.140920e+01	-9.759337e+02
6.300000e-07	-2.907306e-06	-1.458314e-08	-2.039226e+01	-9.563576e+02
6.400000e-07	-2.761222e-06	-1.427952e-08	-1.936760e+01	-9.361867e+02
6.500000e-07	-2.614161e-06	-1.395445e-08	-1.833610e+01	-9.154108e+02
6.600000e-07	-2.466292e-06	-1.362140e-08	-1.729892e+01	-8.940002e+02
6.700000e-07	-2.317652e-06	-1.328672e-08	-1.625634e+01	-8.719038e+02
6.800000e-07	-2.168217e-06	-1.293992e-08	-1.520819e+01	-8.490520e+02
6.900000e-07	-2.018026e-06	-1.257070e-08	-1.415472e+01	-8.253610e+02
7.000000e-07	-1.867137e-06	-1.218126e-08	-1.309637e+01	-8.007410e+02
7.100000e-07	-1.715675e-06	-1.178775e-08	-1.203399e+01	-7.751049e+02
7.200000e-07	-1.563677e-06	-1.138711e-08	-1.096785e+01	-7.483771e+02
7.300000e-07	-1.411205e-06	-1.096721e-08	-9.898396e+00	-7.205006e+02
7.400000e-07	-1.258302e-06	-1.052320e-08	-8.825908e+00	-6.914411e+02
7.500000e-07	-1.104918e-06	-1.005987e-08	-7.750052e+00	-6.611869e+02
7.600000e-07	-9.510996e-07	-9.585149e-09	-6.671148e+00	-6.297454e+02
7.700000e-07	-7.969781e-07	-9.099584e-09	-5.590118e+00	-5.971338e+02
7.800000e-07	-6.426251e-07	-8.592362e-09	-4.507464e+00	-5.633685e+02
7.900000e-07	-4.879826e-07	-8.054001e-09	-3.422780e+00	-5.284518e+02
8.000000e-07	-3.331411e-07	-7.493408e-09	-2.336699e+00	-4.923595e+02
8.100000e-07	-1.781833e-07	-6.921223e-09	-1.249803e+00	-4.550316e+02
8.200000e-07	-2.314063e-08	-6.334443e-09	-1.623117e-01	-4.163664e+02
8.300000e-07	1.319680e-07	-5.716124e-09	9.256426e-01	-3.762224e+02
8.400000e-07	2.871244e-07	-5.061976e-09	2.013932e+00	-3.344259e+02
8.500000e-07	4.421720e-07	-4.387930e-09	3.101458e+00	-2.907863e+02
8.600000e-07	5.969967e-07	-3.701555e-09	4.187420e+00	-2.451169e+02
8.700000e-07	7.516280e-07	-2.987412e-09	5.272026e+00	-1.972599e+02
8.800000e-07	9.060739e-07	-2.225766e-09	6.355331e+00	-1.471125e+02
8.900000e-07	1.060199e-06	-1.422247e-09	7.436384e+00	-9.465196e+01
9.000000e-07	1.213891e-06	-5.946442e-10	8.514407e+00	-3.995522e+01
9.100000e-07	1.367132e-06	2.549694e-10	9.589262e+00	1.678806e+01
9.200000e-07	1.519927e-06	1.143398e-09	1.066099e+01	7.527218e+01
9.300000e-07	1.672197e-06	2.070898e-09	1.172903e+01	1.350822e+02
9.400000e-07	1.823906e-06	3.012722e-09	1.279314e+01	1.957109e+02
9.500000e-07	1.974993e-06	3.945334e-09	1.385289e+01	2.565848e+02
9.600000e-07	2.125322e-06	4.864667e-09	1.490731e+01	3.170963e+02
9.700000e-07	2.274851e-06	5.777544e-09	1.595613e+01	3.766399e+02
9.800000e-07	2.423569e-06	6.672532e-09	1.699926e+01	4.346483e+02
9.900000e-07	2.571411e-06	7.524532e-09	1.803624e+01	4.906245e+02
1.000000e-06	2.718221e-06	8.320720e-09	1.906599e+01	5.441686e+02
1.010000e-06	2.863887e-06	9.075064e-09	2.008771e+01	5.949942e+02
1.020000e-06	3.008470e-06	9.800052e-09	2.110184e+01	6.429362e+02
1.030000e-06	3.152010e-06	1.048610e-08	2.210865e+01	6.879471e+02
1.040000e-06	3.294349e-06	1.111943e-08	2.310703e+01	7.300847e+02
1.050000e-06	3.435382e-06	1.170912e-08	2.409626e+01	7.694916e+02
1.060000e-06	3.575096e-06	1.227486e-08	2.507623e+01	8.063711e+02
1.070000e-06	3.713373e-06	1.281722e-08	2.604613e+01	8.409597e+02
1.080000e-06	3.850244e-06	1.332434e-08	2.700616e+01	8.735018e+02
1.090000e-06	3.985693e-06	1.379073e-08	2.795622e+01	9.042280e+02
1.100000e-06	4.119654e-06	1.422951e-08	2.889584e+01	9.333389e+02
1.110000e-06	4.252226e-06	1.465260e-08	2.982572e+01	9.609951e+02
1.120000e-06	4.383255e-06	1.505830e-08	3.074478e+01	9.873154e+02
1.130000e-06	4.512683e-06	1.543649e-08	3.165260e+01	1.012379e+03
1.140000e-06	4.640660e-06	1.578737e-08	3.255025e+01	1.036236e+03
1.150000e-06	4.767055e-06	1.612520e-08	3.343681e+01	1.058916e+03
1.160000e-06	4.891802e-06	1.645477e-08	3.431180e+01	1.080440e+03
1.170000e-06	5.014855e-06	1.676739e-08	3.517491e+01	1.100834e+03
1.180000e-06	5.136080e-06	1.705855e-08	3.602520e+01	1.120133e+03
1.190000e-06	5.255428e-06	1.733361e-08	3.686232e+01	1.138387e+03
1.200000e-06	5.372859e-06	1.759866e-08	3.768600e+01	1.155662e+03
1.210000e-06	5.488252e-06	1.785494e-08	3.849538e+01	1.172037e+03
1.220000e-06	5.601476e-06	1.809717e-08	3.928955e+01	1.187596e+03
1.230000e-06	5.712595e-06	1.832272e-08	4.006895e+01	1.202422e+03
1.240000e-06	5.821702e-06	1.853544e-08	4.083425e+01	1.216591e+03
1.250000e-06	5.928717e-06	1.874127e-08	4.158487e+01	1.230163e+03
1.260000e-06	6.033515e-06	1.893942e-08	4.231993e+01	1.243180e+03
1.270000e-06	6.136144e-06	1.912718e-08	4.303979e+01	1.255665e+03
1.280000e-06	6.236592e-06	1.930567e-08	4.374435e+01	1.267621e+03
1.290000e-06	6.334639e-06	1.947748e-08	4.443206e+01	1.279042e+03
1.300000e-06	6.430289e-06	1.964403e-08	4.510296e+01	1.289910e+03
1.310000e-06	6.523706e-06	1.980322e-08	4.575821e+01	1.300210e+03
1.320000e-06	6.614850e-06	1.995184e-08	4.639750e+01	1.309933e+03
1.330000e-06	6.703536e-06	2.008946e-08	4.701956e+01	1.319079e+03
1.340000e-06	6.789783e-06	2.022058e-08	4.762451e+01	1.327664e+03
1.350000e-06	6.873746e-06	2.034710e-08	4.821343e+01	1.335718e+03
1.360000e-06	6.955283e-06	2.046640e-08	4.878535e+01	1.343283e+03
1.370000e-06	7.034261e-06	2.057747e-08	4.933931e+01	1.350409e+03
1.380000e-06	7.110673e-06	2.068208e-08	4.987527e+01	1.357149e+03
1.390000e-06	7.184330e-06	2.078183e-08	5.039192e+01	1.363552e+03
1.400000e-06	7.255332e-06	2.087739e-08	5.088993e+01	1.369659e+03
1.410000e-06	7.323896e-06	2.096802e-08	5.137085e+01	1.375500e+03
1.420000e-06	7.389801e-06	2.105148e-08	5.183312e+01	1.381089e+03
1.430000e-06	7.453019e-06	2.112861e-08	5.227654e+01	1.386427e+03
1.440000e-06	7.513758e-06	2.120291e-08	5.270257e+01	1.391503e+03
1.450000e-06	7.571874e-06	2.127449e-08	5.311021e+01	1.396298e+03
1.460000e-06	7.627302e-06	2.134123e-08	5.349898e+01	1.400790e+03
1.470000e-06	7.679927e-06	2.140285e-08	5.386810e+01	1.404960e+03
1.480000e-06	7.729408e-06	2.146072e-08	5.421517e+01	1.408792e+03
1.490000e-06	7.775873e-06	2.151576e-08	5.454109e+01	1.412284e+03
1.500000e-06	7.819633e-06	2.156623e-08	5.484802e+01	1.415440e+03
1.510000e-06	7.860544e-06	2.161136e-08	5.513498e+01	1.418277e+03
1.520000e-06	7.898583e-06	2.165249e-08	5.540179e+01	1.420818e+03
1.530000e-06	7.933939e-06	2.169022e-08	5.564978e+01	1.423092e+03
1.540000e-06	7.966480e-06	2.172267e-08	5.587803e+01	1.425128e+03
1.550000e-06	7.996207e-06	2.174905e-08	5.608653e+01	1.426951e+03
1.560000e-06	8.023143e-06	2.177251e-08	5.627547e+01	1.428581e+03
1.570000e-06	8.047064e-06	2.179369e-08	5.644326e+01	1.430029e+03
1.580000e-06	8.068108e-06	2.181225e-08	5.659086e+01	1.431298e+03
1.590000e-06	8.086373e-06	2.182904e-08	5.671897e+01	1.432382e+03
1.600000e-06	8.101650e-06	2.184299e-08	5.682613e+01	1.433270e+03
1.610000e-06	8.113871e-06	2.185297e-08	5.691185e+01	1.433950e+03
1.620000e-06	8.122916e-06	2.185949e-08	5.697529e+01	1.434410e+03
1.630000e-06	8.128910e-06	2.186429e-08	5.701734e+01	1.434640e+03
1.640000e-06	8.132072e-06	2.186552e-08	5.703951e+01	1.434640e+03
1.650000e-06	8.132355e-06	2.186265e-08	5.704150e+01	1.434412e+03
1.660000e-06	8.129863e-06	2.185331e-08	5.702402e+01	1.433969e+03
1.670000e-06	8.124703e-06	2.184253e-08	5.698783e+01	1.433327e+03
1.680000e-06	8.116812e-06	2.183304e-08	5.693247e+01	1.432505e+03
1.690000e-06	8.106176e-06	2.182166e-08	5.685787e+01	1.431524e+03
1.700000e-06	8.092703e-06	2.180889e-08	5.676337e+01	1.430401e+03
1.710000e-06	8.076488e-06	2.179397e-08	5.664964e+01	1.429149e+03
1.720000e-06	8.057893e-06	2.177601e-08	5.651921e+01	1.427774e+03
1.730000e-06	8.036908e-06	2.173407e-08	5.637202e+01	1.426278e+03
1.740000e-06	8.012869e-06	2.166201e-08	5.620340e+01	1.424656e+03
1.750000e-06	7.985142e-06	2.164607e-08	5.600892e+01	1.422899e+03
1.760000e-06	7.953830e-06	2.164935e-08	5.578930e+01	1.420998e+03
1.770000e-06	7.919673e-06	2.162842e-08	5.554971e+01	1.418941e+03
1.780000e-06	7.883216e-06	2.159219e-08	5.529400e+01	1.416721e+03
1.790000e-06	7.844490e-06	2.157222e-08	5.502237e+01	1.414334e+03
1.800000e-06	7.803678e-06	2.147732e-08	5.473611e+01	1.411776e+03
1.810000e-06	7.760519e-06	2.145804e-08	5.443339e+01	1.409048e+03
1.820000e-06	7.714618e-06	2.148932e-08	5.411143e+01	1.406153e+03
1.830000e-06	7.665970e-06	2.139067e-08	5.377021e+01	1.403088e+03
1.840000e-06	7.614327e-06	2.140566e-08	5.340798e+01	1.399853e+03
1.850000e-06	7.559703e-06	2.133482e-08	5.302484e+01	1.396440e+03
1.860000e-06	7.502294e-06	2.125291e-08	5.262216e+01	1.392836e+03
1.870000e-06	7.442232e-06	2.119691e-08	5.220088e+01	1.389025e+03
1.880000e-06	7.379512e-06	2.110256e-08	5.176095e+01	1.384986e+03
1.890000e-06	7.313832e-06	2.112094e-08	5.130026e+01	1.380696e+03
1.900000e-06	7.245273e-06	2.103127e-08	5.081938e+01	1.376137e+03
1.910000e-06	7.173904e-06	2.092752e-08	5.031878e+01	1.371292e+03
1.920000e-06	7.099724e-06	2.082011e-08	4.979848e+01	1.366151e+03
1.930000e-06	7.022796e-06	2.073481e-08	4.925889e+01	1.360714e+03
1.940000e-06	6.943095e-06	2.072463e-08	4.869986e+01	1.354987e+03
1.950000e-06	6.860845e-06	2.062368e-08	4.812294e+01	1.348985e+03
1.960000e-06	6.776098e-06	2.051563e-08	4.752851e+01	1.342726e+03
1.970000e-06	6.688829e-06	2.036550e-08	4.691640e+01	1.336231e+03
1.980000e-06	6.599073e-06	2.027075e-08	4.628684e+01	1.329517e+03
1.990000e-06	6.506976e-06	2.021860e-08	4.564086e+01	1.322596e+03
2.000000e-06	6.412659e-06	2.011122e-08	4.497931e+01	1.315469e+03
2.010000e-06	6.316037e-06	1.997524e-08	4.430159e+01	1.308129e+03
2.020000e-06	6.217160e-06	1.982356e-08	4.360804e+01	1.300555e+03
2.030000e-06	6.116058e-06	1.973605e-08	4.289890e+01	1.292720e+03
2.040000e-06	6.012781e-06	1.963232e-08	4.217450e+01	1.284589e+03
2.050000e-06	5.907389e-06	1.948621e-08	4.143527e+01	1.276128e+03
2.060000e-06	5.799986e-06	1.931071e-08	4.068193e+01	1.267301e+03
2.070000e-06	5.690602e-06	1.917269e-08	3.991469e+01	1.258085e+03
2.080000e-06	5.579129e-06	1.906669e-08	3.913281e+01	1.248461e+03
2.090000e-06	5.465502e-06	1.892365e-08	3.833581e+01	1.238424e+03
2.100000e-06	5.349785e-06	1.874091e-08	3.752415e+01	1.227981e+03
2.110000e-06	5.232105e-06	1.855370e-08	3.669873e+01	1.217145e+03
2.120000e-06	5.112435e-06	1.840417e-08	3.585935e+01	1.205935e+03
2.130000e-06	4.990830e-06	1.825853e-08	3.500639e+01	1.194369e+03
2.140000e-06	4.867392e-06	1.808132e-08	3.414058e+01	1.182459e+03
2.150000e-06	4.742249e-06	1.786346e-08	3.326281e+01	1.170208e+03
2.160000e-06	4.615386e-06	1.765420e-08	3.237297e+01	1.157605e+03
2.170000e-06	4.486779e-06	1.746855e-08	3.147091e+01	1.144626e+03
2.180000e-06	4.356567e-06	1.728154e-08	3.055758e+01	1.131234e+03
2.190000e-06	4.224797e-06	1.706012e-08	2.963333e+01	1.117384e+03
2.200000e-06	4.091504e-06	1.682304e-08	2.869839e+01	1.103025e+03
2.210000e-06	3.956741e-06	1.659779e-08	2.775315e+01	1.088106e+03
2.220000e-06	3.820409e-06	1.637545e-08	2.679689e+01	1.072587e+03
2.230000e-06	3.682451e-06	1.613356e-08	2.582923e+01	1.056436e+03
2.240000e-06	3.543077e-06	1.586664e-08	2.485165e+01	1.039637e+03
2.250000e-06	3.402455e-06	1.559792e-08	2.386531e+01	1.022188e+03
2.260000e-06	3.260539e-06	1.533336e-08	2.286988e+01	1.004098e+03
2.270000e-06	3.117334e-06	1.506065e-08	2.186543e+01	9.853840e+02
2.280000e-06	2.972959e-06	1.476099e-08	2.085276e+01	9.660637e+02
2.290000e-06	2.827454e-06	1.444733e-08	1.983217e+01	9.461476e+02
2.300000e-06	2.680917e-06	1.413672e-08	1.880433e+01	9.256331e+02
2.310000e-06	2.533430e-06	1.382673e-08	1.776984e+01	9.044992e+02
2.320000e-06	2.385097e-06	1.349379e-08	1.672941e+01	8.827040e+02
2.330000e-06	2.236036e-06	1.313269e-08	1.568387e+01	8.601852e+02
2.340000e-06	2.086218e-06	1.276468e-08	1.463303e+01	8.368644e+02
2.350000e-06	1.935687e-06	1.240030e-08	1.357719e+01	8.126533e+02
2.360000e-06	1.784521e-06	1.202667e-08	1.251689e+01	7.874625e+02
2.370000e-06	1.632823e-06	1.162277e-08	1.145285e+01	7.612105e+02
2.380000e-06	1.480685e-06	1.119372e-08	1.038573e+01	7.338316e+02
2.390000e-06	1.327986e-06	1.075980e-08	9.314683e+00	7.052814e+02
2.400000e-06	1.174667e-06	1.032658e-08	8.239281e+00	6.755390e+02
2.410000e-06	1.020913e-06	9.872871e-09	7.160833e+00	6.446043e+02
2.420000e-06	8.668476e-07	9.379356e-09	6.080193e+00	6.124915e+02
2.430000e-06	7.124617e-07	8.859210e-09	4.997308e+00	5.792190e+02
2.440000e-06	5.578187e-07	8.336757e-09	3.912620e+00	5.447966e+02
2.450000e-06	4.029962e-07	7.808480e-09	2.826673e+00	5.092130e+02
2.460000e-06	2.479958e-07	7.247426e-09	1.739478e+00	4.724243e+02
2.470000e-06	9.283803e-08	6.644971e-09	6.511792e-01	4.343470e+02
2.480000e-06	-6.240848e-08	6.023554e-09	-4.377420e-01	3.948561e+02
2.490000e-06	-2.176546e-07	5.398383e-09	-1.526660e+00	3.537903e+02
2.500000e-06	-3.728148e-07	4.753379e-09	-2.614976e+00	3.109640e+02
2.510000e-06	-5.278571e-07	4.067112e-09	-3.702465e+00	2.661858e+02
2.520000e-06	-6.827524e-07	3.340581e-09	-4.788923e+00	2.192824e+02
2.530000e-06	-8.374008e-07	2.594810e-09	-5.873649e+00	1.701243e+02
2.540000e-06	-9.917106e-07	1.834098e-09	-6.955999e+00	1.186516e+02
2.550000e-06	-1.145623e-06	1.036824e-09	-8.035566e+00	6.489651e+01
2.560000e-06	-1.299062e-06	1.876077e-10	-9.111806e+00	8.999315e+00
2.570000e-06	-1.451985e-06	-7.009944e-10	-1.018443e+01	-4.878375e+01
2.580000e-06	-1.604456e-06	-1.605887e-09	-1.125388e+01	-1.080830e+02
2.590000e-06	-1.756385e-06	-2.523370e-09	-1.231953e+01	-1.684282e+02
2.600000e-06	-1.907583e-06	-3.462889e-09	-1.338006e+01	-2.292705e+02
2.610000e-06	-2.058033e-06	-4.415795e-09	-1.443533e+01	-2.900127e+02
2.620000e-06	-2.207666e-06	-5.350605e-09	-1.548488e+01	-3.500439e+02
2.630000e-06	-2.356485e-06	-6.245339e-09	-1.652872e+01	-4.087762e+02
2.640000e-06	-2.504576e-06	-7.102299e-09	-1.756745e+01	-4.656788e+02
2.650000e-06	-2.651676e-06	-7.932967e-09	-1.859923e+01	-5.203075e+02
2.660000e-06	-2.797691e-06	-8.731527e-09	-1.962341e+01	-5.723258e+02
2.670000e-06	-2.942777e-06	-9.477318e-09	-2.064106e+01	-6.215164e+02
2.680000e-06	-3.086748e-06	-1.016756e-08	-2.165089e+01	-6.677824e+02
2.690000e-06	-3.229385e-06	-1.082025e-08	-2.265137e+01	-7.111387e+02
2.700000e-06	-3.370715e-06	-1.144794e-08	-2.364268e+01	-7.516942e+02
2.710000e-06	-3.510869e-06	-1.204340e-08	-2.462573e+01	-7.896296e+02
2.720000e-06	-3.649731e-06	-1.259294e-08	-2.559973e+01	-8.251702e+02
2.730000e-06	-3.787196e-06	-1.310205e-08	-2.656393e+01	-8.585602e+02
2.740000e-06	-3.923304e-06	-1.358820e-08	-2.751861e+01	-8.900384e+02
2.750000e-06	-4.057915e-06	-1.405668e-08	-2.846279e+01	-9.198197e+02
2.760000e-06	-4.191040e-06	-1.449593e-08	-2.939656e+01	-9.480827e+02
2.770000e-06	-4.322769e-06	-1.490060e-08	-3.032052e+01	-9.749639e+02
2.780000e-06	-4.452962e-06	-1.528277e-08	-3.123371e+01	-1.000559e+03
2.790000e-06	-4.581646e-06	-1.565268e-08	-3.213632e+01	-1.024929e+03
2.800000e-06	-4.708757e-06	-1.600877e-08	-3.302789e+01	-1.048111e+03
2.810000e-06	-4.834240e-06	-1.634091e-08	-3.390805e+01	-1.070128e+03
2.820000e-06	-4.958155e-06	-1.664975e-08	-3.477720e+01	-1.091003e+03
2.830000e-06	-5.080277e-06	-1.694581e-08	-3.563378e+01	-1.110766e+03
2.840000e-06	-5.200507e-06	-1.723445e-08	-3.647710e+01	-1.129461e+03
2.850000e-06	-5.318733e-06	-1.751261e-08	-3.730635e+01	-1.147147e+03
2.860000e-06	-5.434792e-06	-1.777092e-08	-3.812041e+01	-1.163898e+03
2.870000e-06	-5.548604e-06	-1.801122e-08	-3.891870e+01	-1.179796e+03
2.880000e-06	-5.660200e-06	-1.824534e-08	-3.970145e+01	-1.194927e+03
2.890000e-06	-5.769751e-06	-1.847579e-08	-4.046985e+01	-1.209370e+03
2.900000e-06	-5.877351e-06	-1.869615e-08	-4.122458e+01	-1.223191e+03
2.910000e-06	-5.982937e-06	-1.889859e-08	-4.196517e+01	-1.236443e+03
2.920000e-06	-6.086234e-06	-1.908720e-08	-4.268972e+01	-1.249154e+03
2.930000e-06	-6.187217e-06	-1.927123e-08	-4.339802e+01	-1.261338e+03
2.940000e-06	-6.286009e-06	-1.944902e-08	-4.409097e+01	-1.272990e+03
