# Temperatura_=_20.0
# Concentracion g/m^3_=_12600.0
# C_Vs_to_Am_M_A/Vsm_=_65563218390.804596
# pendiente_HvsI_1/m_=_3716.3
# ordenada_HvsI_A/m_=_1297.0
# frecuencia_Hz_=_302280.2722758094

Tiempo_(s)	Campo_(V.s)	Magnetizacion_(V.s)	Campo_(kA/m)	Magnetizacion_(A/m)
0.000000e+00	-8.141752e-06	-1.585088e-08	-5.694070e+01	-1.038986e+03
1.000000e-08	-8.138556e-06	-1.585170e-08	-5.691835e+01	-1.038644e+03
2.000000e-08	-8.132706e-06	-1.584446e-08	-5.687743e+01	-1.038123e+03
3.000000e-08	-8.124127e-06	-1.583365e-08	-5.681743e+01	-1.037434e+03
4.000000e-08	-8.112693e-06	-1.582113e-08	-5.673747e+01	-1.036592e+03
5.000000e-08	-8.098235e-06	-1.580739e-08	-5.663635e+01	-1.035614e+03
6.000000e-08	-8.080885e-06	-1.579137e-08	-5.651502e+01	-1.034516e+03
7.000000e-08	-8.061229e-06	-1.576899e-08	-5.637754e+01	-1.033313e+03
8.000000e-08	-8.039221e-06	-1.575895e-08	-5.622363e+01	-1.032015e+03
9.000000e-08	-8.014225e-06	-1.580463e-08	-5.604881e+01	-1.030629e+03
1.000000e-07	-7.985939e-06	-1.577547e-08	-5.585099e+01	-1.029158e+03
1.100000e-07	-7.954621e-06	-1.568716e-08	-5.563197e+01	-1.027599e+03
1.200000e-07	-7.920360e-06	-1.563024e-08	-5.539236e+01	-1.025944e+03
1.300000e-07	-7.883348e-06	-1.561607e-08	-5.513350e+01	-1.024185e+03
1.400000e-07	-7.844140e-06	-1.561213e-08	-5.485930e+01	-1.022312e+03
1.500000e-07	-7.802605e-06	-1.555688e-08	-5.456882e+01	-1.020312e+03
1.600000e-07	-7.758373e-06	-1.555951e-08	-5.425947e+01	-1.018174e+03
1.700000e-07	-7.711426e-06	-1.544944e-08	-5.393114e+01	-1.015888e+03
1.800000e-07	-7.661591e-06	-1.543464e-08	-5.358261e+01	-1.013445e+03
1.900000e-07	-7.608732e-06	-1.549842e-08	-5.321293e+01	-1.010835e+03
2.000000e-07	-7.553023e-06	-1.534636e-08	-5.282332e+01	-1.008052e+03
2.100000e-07	-7.494578e-06	-1.527250e-08	-5.241457e+01	-1.005088e+03
2.200000e-07	-7.433464e-06	-1.525638e-08	-5.198717e+01	-1.001938e+03
2.300000e-07	-7.369735e-06	-1.526178e-08	-5.154147e+01	-9.985953e+02
2.400000e-07	-7.303230e-06	-1.520173e-08	-5.107636e+01	-9.950546e+02
2.500000e-07	-7.233885e-06	-1.505073e-08	-5.059138e+01	-9.913119e+02
2.600000e-07	-7.161633e-06	-1.500537e-08	-5.008607e+01	-9.873644e+02
2.700000e-07	-7.086516e-06	-1.499251e-08	-4.956073e+01	-9.832108e+02
2.800000e-07	-7.008602e-06	-1.495913e-08	-4.901582e+01	-9.788516e+02
2.900000e-07	-6.927922e-06	-1.483195e-08	-4.845157e+01	-9.742892e+02
3.000000e-07	-6.844802e-06	-1.472941e-08	-4.787026e+01	-9.695271e+02
3.100000e-07	-6.759419e-06	-1.469788e-08	-4.727312e+01	-9.645695e+02
3.200000e-07	-6.671621e-06	-1.463711e-08	-4.665909e+01	-9.594200e+02
3.300000e-07	-6.581333e-06	-1.456605e-08	-4.602764e+01	-9.540809e+02
3.400000e-07	-6.488652e-06	-1.444112e-08	-4.537947e+01	-9.485522e+02
3.500000e-07	-6.393677e-06	-1.435445e-08	-4.471524e+01	-9.428303e+02
3.600000e-07	-6.296312e-06	-1.429514e-08	-4.403430e+01	-9.369086e+02
3.700000e-07	-6.196654e-06	-1.421900e-08	-4.333733e+01	-9.307766e+02
3.800000e-07	-6.094864e-06	-1.409706e-08	-4.262545e+01	-9.244215e+02
3.900000e-07	-5.990799e-06	-1.396477e-08	-4.189765e+01	-9.178286e+02
4.000000e-07	-5.884554e-06	-1.388215e-08	-4.115461e+01	-9.109831e+02
4.100000e-07	-5.776332e-06	-1.379426e-08	-4.039773e+01	-9.038717e+02
4.200000e-07	-5.666197e-06	-1.368085e-08	-3.962749e+01	-8.964833e+02
4.300000e-07	-5.553961e-06	-1.353274e-08	-3.884255e+01	-8.888107e+02
4.400000e-07	-5.439452e-06	-1.341213e-08	-3.804171e+01	-8.808503e+02
4.500000e-07	-5.322893e-06	-1.330677e-08	-3.722654e+01	-8.726023e+02
4.600000e-07	-5.204466e-06	-1.318697e-08	-3.639830e+01	-8.640691e+02
4.700000e-07	-5.084118e-06	-1.304080e-08	-3.555662e+01	-8.552543e+02
4.800000e-07	-4.961901e-06	-1.289574e-08	-3.470188e+01	-8.461603e+02
4.900000e-07	-4.837899e-06	-1.276323e-08	-3.383465e+01	-8.367869e+02
5.000000e-07	-4.712203e-06	-1.262174e-08	-3.295557e+01	-8.271293e+02
5.100000e-07	-4.584832e-06	-1.246773e-08	-3.206478e+01	-8.171771e+02
5.200000e-07	-4.455681e-06	-1.229870e-08	-3.116154e+01	-8.069145e+02
5.300000e-07	-4.324872e-06	-1.213653e-08	-3.024671e+01	-7.963205e+02
5.400000e-07	-4.192450e-06	-1.197300e-08	-2.932060e+01	-7.853708e+02
5.500000e-07	-4.058522e-06	-1.180262e-08	-2.838395e+01	-7.740393e+02
5.600000e-07	-3.923024e-06	-1.161641e-08	-2.743632e+01	-7.623013e+02
5.700000e-07	-3.785868e-06	-1.142515e-08	-2.647710e+01	-7.501354e+02
5.800000e-07	-3.647302e-06	-1.123530e-08	-2.550802e+01	-7.375252e+02
5.900000e-07	-3.507282e-06	-1.104041e-08	-2.452876e+01	-7.244610e+02
6.000000e-07	-3.365691e-06	-1.083500e-08	-2.353852e+01	-7.109390e+02
6.100000e-07	-3.222649e-06	-1.061879e-08	-2.253813e+01	-6.969609e+02
6.200000e-07	-3.078405e-06	-1.039884e-08	-2.152934e+01	-6.825309e+02
6.300000e-07	-2.933124e-06	-1.017415e-08	-2.051329e+01	-6.676540e+02
6.400000e-07	-2.786855e-06	-9.946771e-09	-1.949034e+01	-6.523318e+02
6.500000e-07	-2.639643e-06	-9.705971e-09	-1.846078e+01	-6.365601e+02
6.600000e-07	-2.491593e-06	-9.453873e-09	-1.742537e+01	-6.203267e+02
6.700000e-07	-2.342731e-06	-9.198634e-09	-1.638428e+01	-6.036103e+02
6.800000e-07	-2.193069e-06	-8.940838e-09	-1.533759e+01	-5.863811e+02
6.900000e-07	-2.042757e-06	-8.671129e-09	-1.428636e+01	-5.686021e+02
7.000000e-07	-1.891789e-06	-8.379883e-09	-1.323054e+01	-5.502328e+02
7.100000e-07	-1.740008e-06	-8.082829e-09	-1.216904e+01	-5.312328e+02
7.200000e-07	-1.587493e-06	-7.786211e-09	-1.110240e+01	-5.115660e+02
7.300000e-07	-1.434460e-06	-7.483072e-09	-1.003214e+01	-4.912044e+02
7.400000e-07	-1.280967e-06	-7.161684e-09	-8.958653e+00	-4.701306e+02
7.500000e-07	-1.127045e-06	-6.820611e-09	-7.882174e+00	-4.483389e+02
7.600000e-07	-9.727703e-07	-6.474271e-09	-6.803231e+00	-4.258341e+02
7.700000e-07	-8.181807e-07	-6.131783e-09	-5.722083e+00	-4.026284e+02
7.800000e-07	-6.633004e-07	-5.779215e-09	-4.638902e+00	-3.787365e+02
7.900000e-07	-5.081809e-07	-5.399418e-09	-3.554048e+00	-3.541697e+02
8.000000e-07	-3.529150e-07	-5.000655e-09	-2.468170e+00	-3.289292e+02
8.100000e-07	-1.975314e-07	-4.602343e-09	-1.381469e+00	-3.030007e+02
8.200000e-07	-4.203600e-08	-4.206621e-09	-2.939857e-01	-2.763501e+02
8.300000e-07	1.135210e-07	-3.789104e-09	7.939279e-01	-2.489225e+02
8.400000e-07	2.691186e-07	-3.340675e-09	1.882126e+00	-2.206434e+02
8.500000e-07	4.246745e-07	-2.880993e-09	2.970032e+00	-1.914246e+02
8.600000e-07	5.800894e-07	-2.429091e-09	4.056951e+00	-1.611721e+02
8.700000e-07	7.352847e-07	-1.969172e-09	5.142336e+00	-1.297977e+02
8.800000e-07	8.902238e-07	-1.471498e-09	6.225928e+00	-9.723149e+01
8.900000e-07	1.044893e-06	-9.421873e-10	7.307632e+00	-6.343491e+01
9.000000e-07	1.199230e-06	-4.072129e-10	8.387012e+00	-2.841256e+01
9.100000e-07	1.353143e-06	1.265130e-10	9.463431e+00	7.778645e+00
9.200000e-07	1.506592e-06	6.826804e-10	1.053660e+01	4.502416e+01
9.300000e-07	1.659613e-06	1.276260e-09	1.160678e+01	8.315118e+01
9.400000e-07	1.812041e-06	1.885582e-09	1.267281e+01	1.219331e+02
9.500000e-07	1.963664e-06	2.481398e-09	1.373321e+01	1.610989e+02
9.600000e-07	2.114437e-06	3.064707e-09	1.478766e+01	2.003464e+02
9.700000e-07	2.264360e-06	3.657947e-09	1.583618e+01	2.393588e+02
9.800000e-07	2.413394e-06	4.258794e-09	1.687848e+01	2.778224e+02
9.900000e-07	2.561546e-06	4.840238e-09	1.791460e+01	3.154442e+02
1.000000e-06	2.708779e-06	5.383246e-09	1.894429e+01	3.519673e+02
1.010000e-06	2.855023e-06	5.902578e-09	1.996708e+01	3.871833e+02
1.020000e-06	3.000306e-06	6.416356e-09	2.098314e+01	4.209402e+02
1.030000e-06	3.144478e-06	6.916830e-09	2.199143e+01	4.531453e+02
1.040000e-06	3.287361e-06	7.381438e-09	2.299071e+01	4.837632e+02
1.050000e-06	3.428945e-06	7.809529e-09	2.398090e+01	5.128095e+02
1.060000e-06	3.569175e-06	8.222912e-09	2.496162e+01	5.403409e+02
1.070000e-06	3.708019e-06	8.629524e-09	2.593265e+01	5.664438e+02
1.080000e-06	3.845501e-06	9.018491e-09	2.689415e+01	5.912210e+02
1.090000e-06	3.981493e-06	9.378246e-09	2.784523e+01	6.147804e+02
1.100000e-06	4.115999e-06	9.715158e-09	2.878592e+01	6.372247e+02
1.110000e-06	4.249105e-06	1.004296e-08	2.971682e+01	6.586438e+02
1.120000e-06	4.380684e-06	1.036390e-08	3.063704e+01	6.791109e+02
1.130000e-06	4.510707e-06	1.066575e-08	3.154638e+01	6.986813e+02
1.140000e-06	4.639219e-06	1.094250e-08	3.244515e+01	7.173940e+02
1.150000e-06	4.766093e-06	1.120538e-08	3.333246e+01	7.352755e+02
1.160000e-06	4.891339e-06	1.146518e-08	3.420839e+01	7.523450e+02
1.170000e-06	5.014908e-06	1.171586e-08	3.507259e+01	7.686189e+02
1.180000e-06	5.136745e-06	1.195073e-08	3.592468e+01	7.841159e+02
1.190000e-06	5.256748e-06	1.217028e-08	3.676394e+01	7.988597e+02
1.200000e-06	5.374794e-06	1.238029e-08	3.758952e+01	8.128811e+02
1.210000e-06	5.490796e-06	1.258517e-08	3.840079e+01	8.262174e+02
1.220000e-06	5.604655e-06	1.278280e-08	3.919709e+01	8.389106e+02
1.230000e-06	5.716337e-06	1.296885e-08	3.997815e+01	8.510048e+02
1.240000e-06	5.825896e-06	1.314328e-08	4.074437e+01	8.625426e+02
1.250000e-06	5.933395e-06	1.331157e-08	4.149618e+01	8.735623e+02
1.260000e-06	6.038817e-06	1.347541e-08	4.223347e+01	8.840950e+02
1.270000e-06	6.142065e-06	1.363187e-08	4.295555e+01	8.941634e+02
1.280000e-06	6.242993e-06	1.377824e-08	4.366141e+01	9.037819e+02
1.290000e-06	6.341619e-06	1.391522e-08	4.435117e+01	9.129580e+02
1.300000e-06	6.437816e-06	1.404792e-08	4.502394e+01	9.216942e+02
1.310000e-06	6.531669e-06	1.417782e-08	4.568031e+01	9.299915e+02
1.320000e-06	6.623290e-06	1.430113e-08	4.632108e+01	9.378522e+02
1.330000e-06	6.712560e-06	1.441268e-08	4.694540e+01	9.452828e+02
1.340000e-06	6.799419e-06	1.451475e-08	4.755287e+01	9.522954e+02
1.350000e-06	6.883898e-06	1.461348e-08	4.814368e+01	9.589092e+02
1.360000e-06	6.965956e-06	1.470999e-08	4.871757e+01	9.651493e+02
1.370000e-06	7.045473e-06	1.480157e-08	4.927368e+01	9.710450e+02
1.380000e-06	7.122437e-06	1.488513e-08	4.981194e+01	9.766277e+02
1.390000e-06	7.196679e-06	1.496424e-08	5.033117e+01	9.819277e+02
1.400000e-06	7.268183e-06	1.504244e-08	5.083124e+01	9.869710e+02
1.410000e-06	7.337135e-06	1.511934e-08	5.131347e+01	9.917773e+02
1.420000e-06	7.403517e-06	1.519032e-08	5.177772e+01	9.963581e+02
1.430000e-06	7.467217e-06	1.525426e-08	5.222322e+01	1.000717e+03
1.440000e-06	7.528364e-06	1.531490e-08	5.265086e+01	1.004849e+03
1.450000e-06	7.586973e-06	1.537498e-08	5.306076e+01	1.008745e+03
1.460000e-06	7.642882e-06	1.543135e-08	5.345176e+01	1.012391e+03
1.470000e-06	7.695999e-06	1.547986e-08	5.382325e+01	1.015775e+03
1.480000e-06	7.746033e-06	1.552309e-08	5.417317e+01	1.018887e+03
1.490000e-06	7.792958e-06	1.556594e-08	5.450135e+01	1.021723e+03
1.500000e-06	7.837137e-06	1.560750e-08	5.481032e+01	1.024285e+03
1.510000e-06	7.878550e-06	1.564303e-08	5.509995e+01	1.026583e+03
1.520000e-06	7.917104e-06	1.567323e-08	5.536958e+01	1.028634e+03
1.530000e-06	7.952955e-06	1.570195e-08	5.562031e+01	1.030458e+03
1.540000e-06	7.985952e-06	1.572969e-08	5.585108e+01	1.032081e+03
1.550000e-06	8.016035e-06	1.575323e-08	5.606148e+01	1.033526e+03
1.560000e-06	8.043376e-06	1.577280e-08	5.625269e+01	1.034813e+03
1.570000e-06	8.067803e-06	1.578977e-08	5.642352e+01	1.035959e+03
1.580000e-06	8.089273e-06	1.580510e-08	5.657368e+01	1.036973e+03
1.590000e-06	8.107965e-06	1.581937e-08	5.670440e+01	1.037858e+03
1.600000e-06	8.123711e-06	1.583080e-08	5.681452e+01	1.038609e+03
1.610000e-06	8.136304e-06	1.583798e-08	5.690259e+01	1.039216e+03
1.620000e-06	8.145706e-06	1.584322e-08	5.696835e+01	1.039669e+03
1.630000e-06	8.152053e-06	1.584900e-08	5.701274e+01	1.039955e+03
1.640000e-06	8.155553e-06	1.585182e-08	5.703722e+01	1.040063e+03
1.650000e-06	8.156166e-06	1.585204e-08	5.704150e+01	1.039986e+03
1.660000e-06	8.154000e-06	1.584462e-08	5.702635e+01	1.039722e+03
1.670000e-06	8.149160e-06	1.583568e-08	5.699251e+01	1.039277e+03
1.680000e-06	8.141533e-06	1.582942e-08	5.693916e+01	1.038658e+03
1.690000e-06	8.131225e-06	1.582023e-08	5.686707e+01	1.037879e+03
1.700000e-06	8.118117e-06	1.580965e-08	5.677540e+01	1.036957e+03
1.710000e-06	8.102170e-06	1.580074e-08	5.666387e+01	1.035909e+03
1.720000e-06	8.083759e-06	1.579414e-08	5.653511e+01	1.034749e+03
1.730000e-06	8.062972e-06	1.574919e-08	5.638974e+01	1.033490e+03
1.740000e-06	8.039207e-06	1.564840e-08	5.622353e+01	1.032142e+03
1.750000e-06	8.011766e-06	1.565385e-08	5.603161e+01	1.030707e+03
1.760000e-06	7.980703e-06	1.568305e-08	5.581437e+01	1.029186e+03
1.770000e-06	7.946724e-06	1.567181e-08	5.557674e+01	1.027573e+03
1.780000e-06	7.910452e-06	1.564205e-08	5.532306e+01	1.025860e+03
1.790000e-06	7.871868e-06	1.563994e-08	5.505322e+01	1.024037e+03
1.800000e-06	7.831152e-06	1.551822e-08	5.476847e+01	1.022092e+03
1.810000e-06	7.788185e-06	1.551138e-08	5.446797e+01	1.020015e+03
1.820000e-06	7.742493e-06	1.559213e-08	5.414841e+01	1.017794e+03
1.830000e-06	7.694103e-06	1.543865e-08	5.380999e+01	1.015419e+03
1.840000e-06	7.642663e-06	1.548578e-08	5.345023e+01	1.012881e+03
1.850000e-06	7.588139e-06	1.542410e-08	5.306891e+01	1.010173e+03
1.860000e-06	7.530868e-06	1.539671e-08	5.266837e+01	1.007287e+03
1.870000e-06	7.470923e-06	1.536898e-08	5.224914e+01	1.004218e+03
1.880000e-06	7.408271e-06	1.519710e-08	5.181098e+01	1.000958e+03
1.890000e-06	7.342680e-06	1.525239e-08	5.135225e+01	9.975025e+02
1.900000e-06	7.274240e-06	1.517618e-08	5.087361e+01	9.938467e+02
1.910000e-06	7.202963e-06	1.513940e-08	5.037512e+01	9.899871e+02
1.920000e-06	7.128870e-06	1.505504e-08	4.985694e+01	9.859216e+02
1.930000e-06	7.052012e-06	1.493896e-08	4.931942e+01	9.816502e+02
1.940000e-06	6.972301e-06	1.493143e-08	4.876195e+01	9.771744e+02
1.950000e-06	6.890078e-06	1.483722e-08	4.818690e+01	9.724973e+02
1.960000e-06	6.805338e-06	1.482387e-08	4.759426e+01	9.676228e+02
1.970000e-06	6.718001e-06	1.468025e-08	4.698346e+01	9.625550e+02
1.980000e-06	6.628262e-06	1.458265e-08	4.635585e+01	9.572969e+02
1.990000e-06	6.536237e-06	1.453218e-08	4.571226e+01	9.518495e+02
2.000000e-06	6.441931e-06	1.445712e-08	4.505272e+01	9.462109e+02
2.010000e-06	6.345214e-06	1.437559e-08	4.437631e+01	9.403757e+02
2.020000e-06	6.246289e-06	1.422639e-08	4.368446e+01	9.343351e+02
2.030000e-06	6.145132e-06	1.415708e-08	4.297700e+01	9.280772e+02
2.040000e-06	6.041700e-06	1.406879e-08	4.225364e+01	9.215879e+02
2.050000e-06	5.936166e-06	1.398576e-08	4.151556e+01	9.148523e+02
2.060000e-06	5.828714e-06	1.384209e-08	4.076408e+01	9.078562e+02
2.070000e-06	5.719282e-06	1.371690e-08	3.999875e+01	9.005875e+02
2.080000e-06	5.607720e-06	1.361541e-08	3.921852e+01	8.930372e+02
2.090000e-06	5.494087e-06	1.351398e-08	3.842381e+01	8.852002e+02
2.100000e-06	5.378303e-06	1.339636e-08	3.761406e+01	8.770751e+02
2.110000e-06	5.260401e-06	1.324702e-08	3.678949e+01	8.686636e+02
2.120000e-06	5.140483e-06	1.311009e-08	3.595082e+01	8.599689e+02
2.130000e-06	5.018745e-06	1.297840e-08	3.509943e+01	8.509943e+02
2.140000e-06	4.895297e-06	1.286142e-08	3.423608e+01	8.417408e+02
2.150000e-06	4.770018e-06	1.270801e-08	3.335992e+01	8.322057e+02
2.160000e-06	4.642893e-06	1.254733e-08	3.247084e+01	8.223812e+02
2.170000e-06	4.514083e-06	1.238185e-08	3.156999e+01	8.122538e+02
2.180000e-06	4.383728e-06	1.223547e-08	3.065833e+01	8.018046e+02
2.190000e-06	4.251899e-06	1.207314e-08	2.973636e+01	7.910103e+02
2.200000e-06	4.118400e-06	1.190019e-08	2.880272e+01	7.798454e+02
2.210000e-06	3.983282e-06	1.171996e-08	2.785774e+01	7.682844e+02
2.220000e-06	3.846736e-06	1.153883e-08	2.690279e+01	7.563040e+02
2.230000e-06	3.708698e-06	1.135582e-08	2.593739e+01	7.438857e+02
2.240000e-06	3.569182e-06	1.115820e-08	2.496167e+01	7.310167e+02
2.250000e-06	3.428161e-06	1.095233e-08	2.397542e+01	7.176909e+02
2.260000e-06	3.285778e-06	1.074153e-08	2.297964e+01	7.039076e+02
2.270000e-06	3.142212e-06	1.053476e-08	2.197558e+01	6.896705e+02
2.280000e-06	2.997484e-06	1.031174e-08	2.096341e+01	6.749846e+02
2.290000e-06	2.851622e-06	1.007626e-08	1.994329e+01	6.598531e+02
2.300000e-06	2.704849e-06	9.834430e-09	1.891681e+01	6.442749e+02
2.310000e-06	2.557282e-06	9.596280e-09	1.788478e+01	6.282413e+02
2.320000e-06	2.408762e-06	9.346083e-09	1.684608e+01	6.117350e+02
2.330000e-06	2.259216e-06	9.078988e-09	1.580020e+01	5.947296e+02
2.340000e-06	2.108798e-06	8.804254e-09	1.474823e+01	5.771909e+02
2.350000e-06	1.957738e-06	8.530890e-09	1.369177e+01	5.590795e+02
2.360000e-06	1.806081e-06	8.253765e-09	1.263113e+01	5.403544e+02
2.370000e-06	1.653928e-06	7.956486e-09	1.156702e+01	5.209772e+02
2.380000e-06	1.501357e-06	7.638391e-09	1.049999e+01	5.009160e+02
2.390000e-06	1.348304e-06	7.317381e-09	9.429591e+00	4.801486e+02
2.400000e-06	1.194717e-06	7.004122e-09	8.355451e+00	4.586644e+02
2.410000e-06	1.040626e-06	6.680833e-09	7.277794e+00	4.364639e+02
2.420000e-06	8.861403e-07	6.327181e-09	6.197369e+00	4.135567e+02
2.430000e-06	7.314044e-07	5.954249e-09	5.115198e+00	3.899570e+02
2.440000e-06	5.765009e-07	5.588543e-09	4.031855e+00	3.656785e+02
2.450000e-06	4.213879e-07	5.227773e-09	2.947046e+00	3.407273e+02
2.460000e-06	2.661120e-07	4.842600e-09	1.861098e+00	3.150964e+02
2.470000e-06	1.107623e-07	4.420582e-09	7.746347e-01	2.887607e+02
2.480000e-06	-4.465169e-08	3.990098e-09	-3.122790e-01	2.616740e+02
2.490000e-06	-2.000966e-07	3.572762e-09	-1.399409e+00	2.337698e+02
2.500000e-06	-3.554734e-07	3.148806e-09	-2.486062e+00	2.049650e+02
2.510000e-06	-5.106846e-07	2.690152e-09	-3.571558e+00	1.751668e+02
2.520000e-06	-6.657546e-07	2.198939e-09	-4.656065e+00	1.442830e+02
2.530000e-06	-8.206609e-07	1.706374e-09	-5.739428e+00	1.122343e+02
2.540000e-06	-9.753571e-07	1.221187e-09	-6.821322e+00	7.896703e+01
2.550000e-06	-1.129766e-06	7.153798e-10	-7.901204e+00	4.446611e+01
2.560000e-06	-1.283782e-06	1.653323e-10	-8.978346e+00	8.765102e+00
2.570000e-06	-1.437325e-06	-4.124365e-10	-1.005217e+01	-2.804652e+01
2.580000e-06	-1.590270e-06	-9.864971e-10	-1.112182e+01	-6.582067e+01
2.590000e-06	-1.742577e-06	-1.558640e-09	-1.218700e+01	-1.043530e+02
2.600000e-06	-1.894228e-06	-2.153863e-09	-1.324760e+01	-1.433899e+02
2.610000e-06	-2.045236e-06	-2.775014e-09	-1.430370e+01	-1.826409e+02
2.620000e-06	-2.195530e-06	-3.389584e-09	-1.535481e+01	-2.217932e+02
2.630000e-06	-2.344998e-06	-3.974206e-09	-1.640014e+01	-2.605296e+02
2.640000e-06	-2.493536e-06	-4.539784e-09	-1.743896e+01	-2.985462e+02
2.650000e-06	-2.641068e-06	-5.108327e-09	-1.847075e+01	-3.355688e+02
2.660000e-06	-2.787652e-06	-5.673638e-09	-1.949591e+01	-3.713672e+02
2.670000e-06	-2.933268e-06	-6.205863e-09	-2.051429e+01	-4.057644e+02
2.680000e-06	-3.077690e-06	-6.692443e-09	-2.152434e+01	-4.386424e+02
2.690000e-06	-3.220899e-06	-7.153982e-09	-2.252589e+01	-4.699415e+02
2.700000e-06	-3.362929e-06	-7.612938e-09	-2.351920e+01	-4.996567e+02
2.710000e-06	-3.503660e-06	-8.057806e-09	-2.450343e+01	-5.278283e+02
2.720000e-06	-3.643062e-06	-8.465263e-09	-2.547836e+01	-5.545316e+02
2.730000e-06	-3.781092e-06	-8.837978e-09	-2.644369e+01	-5.798640e+02
2.740000e-06	-3.917696e-06	-9.200775e-09	-2.739906e+01	-6.039324e+02
2.750000e-06	-4.052870e-06	-9.564630e-09	-2.834442e+01	-6.268429e+02
2.760000e-06	-4.186647e-06	-9.912987e-09	-2.928001e+01	-6.486915e+02
2.770000e-06	-4.318941e-06	-1.022928e-08	-3.020523e+01	-6.695589e+02
2.780000e-06	-4.449702e-06	-1.052231e-08	-3.111973e+01	-6.895081e+02
2.790000e-06	-4.578969e-06	-1.081046e-08	-3.202378e+01	-7.085846e+02
2.800000e-06	-4.706679e-06	-1.109673e-08	-3.291694e+01	-7.268199e+02
2.810000e-06	-4.832791e-06	-1.136666e-08	-3.379893e+01	-7.442355e+02
2.820000e-06	-4.957180e-06	-1.161172e-08	-3.466886e+01	-7.608484e+02
2.830000e-06	-5.079785e-06	-1.184384e-08	-3.552632e+01	-7.766759e+02
2.840000e-06	-5.200610e-06	-1.207619e-08	-3.637133e+01	-7.917393e+02
2.850000e-06	-5.319498e-06	-1.230600e-08	-3.720279e+01	-8.060663e+02
2.860000e-06	-5.436223e-06	-1.252049e-08	-3.801913e+01	-8.196915e+02
2.870000e-06	-5.550616e-06	-1.271327e-08	-3.881915e+01	-8.326551e+02
2.880000e-06	-5.662759e-06	-1.289468e-08	-3.960345e+01	-8.450007e+02
2.890000e-06	-5.772806e-06	-1.307779e-08	-4.037308e+01	-8.567721e+02
2.900000e-06	-5.880905e-06	-1.325874e-08	-4.112908e+01	-8.680098e+02
2.910000e-06	-5.987022e-06	-1.342429e-08	-4.187123e+01	-8.787480e+02
2.920000e-06	-6.090945e-06	-1.357273e-08	-4.259804e+01	-8.890133e+02
2.930000e-06	-6.192596e-06	-1.371614e-08	-4.330895e+01	-8.988235e+02
2.940000e-06	-6.291999e-06	-1.386191e-08	-4.400414e+01	-9.081888e+02
