# Temperatura_=_20.0
# Concentracion g/m^3_=_12600.0
# C_Vs_to_Am_M_A/Vsm_=_65563218390.804596
# pendiente_HvsI_1/m_=_3716.3
# ordenada_HvsI_A/m_=_1297.0
# frecuencia_Hz_=_302278.77053956885

Tiempo_(s)	Campo_(V.s)	Magnetizacion_(V.s)	Campo_(kA/m)	Magnetizacion_(A/m)
0.000000e+00	-8.095543e-06	-1.588538e-08	-5.694728e+01	-1.041150e+03
1.000000e-08	-8.092297e-06	-1.588536e-08	-5.692445e+01	-1.040794e+03
2.000000e-08	-8.086462e-06	-1.587696e-08	-5.688340e+01	-1.040261e+03
3.000000e-08	-8.077943e-06	-1.586736e-08	-5.682347e+01	-1.039566e+03
4.000000e-08	-8.066548e-06	-1.585547e-08	-5.674332e+01	-1.038725e+03
5.000000e-08	-8.052136e-06	-1.584082e-08	-5.664194e+01	-1.037753e+03
6.000000e-08	-8.034846e-06	-1.582349e-08	-5.652032e+01	-1.036666e+03
7.000000e-08	-8.015229e-06	-1.579691e-08	-5.638232e+01	-1.035476e+03
8.000000e-08	-7.993287e-06	-1.578178e-08	-5.622797e+01	-1.034192e+03
9.000000e-08	-7.968346e-06	-1.583573e-08	-5.605253e+01	-1.032815e+03
1.000000e-07	-7.940166e-06	-1.581097e-08	-5.585430e+01	-1.031345e+03
1.100000e-07	-7.908979e-06	-1.571996e-08	-5.563492e+01	-1.029774e+03
1.200000e-07	-7.874820e-06	-1.566128e-08	-5.539463e+01	-1.028094e+03
1.300000e-07	-7.837913e-06	-1.564344e-08	-5.513501e+01	-1.026294e+03
1.400000e-07	-7.798838e-06	-1.563516e-08	-5.486014e+01	-1.024364e+03
1.500000e-07	-7.757568e-06	-1.558916e-08	-5.456983e+01	-1.022294e+03
1.600000e-07	-7.713649e-06	-1.560962e-08	-5.426089e+01	-1.020076e+03
1.700000e-07	-7.667030e-06	-1.546762e-08	-5.393295e+01	-1.017703e+03
1.800000e-07	-7.617556e-06	-1.545374e-08	-5.358493e+01	-1.015170e+03
1.900000e-07	-7.565044e-06	-1.552833e-08	-5.321554e+01	-1.012474e+03
2.000000e-07	-7.509677e-06	-1.536645e-08	-5.282607e+01	-1.009610e+03
2.100000e-07	-7.451478e-06	-1.530900e-08	-5.241667e+01	-1.006574e+03
2.200000e-07	-7.390545e-06	-1.528173e-08	-5.198804e+01	-1.003362e+03
2.300000e-07	-7.327084e-06	-1.527147e-08	-5.154163e+01	-9.999681e+02
2.400000e-07	-7.260922e-06	-1.521299e-08	-5.107622e+01	-9.963846e+02
2.500000e-07	-7.191929e-06	-1.508186e-08	-5.059090e+01	-9.926048e+02
2.600000e-07	-7.120170e-06	-1.503828e-08	-5.008612e+01	-9.886223e+02
2.700000e-07	-7.045599e-06	-1.500670e-08	-4.956155e+01	-9.844321e+02
2.800000e-07	-6.968210e-06	-1.497229e-08	-4.901717e+01	-9.800312e+02
2.900000e-07	-6.887960e-06	-1.484588e-08	-4.845266e+01	-9.754193e+02
3.000000e-07	-6.805151e-06	-1.474723e-08	-4.787015e+01	-9.705985e+02
3.100000e-07	-6.720117e-06	-1.471950e-08	-4.727199e+01	-9.655729e+02
3.200000e-07	-6.632753e-06	-1.464717e-08	-4.665743e+01	-9.603477e+02
3.300000e-07	-6.542944e-06	-1.457010e-08	-4.602568e+01	-9.549280e+02
3.400000e-07	-6.450708e-06	-1.445072e-08	-4.537685e+01	-9.493173e+02
3.500000e-07	-6.356195e-06	-1.436936e-08	-4.471201e+01	-9.435162e+02
3.600000e-07	-6.259351e-06	-1.429984e-08	-4.403077e+01	-9.375215e+02
3.700000e-07	-6.160178e-06	-1.421564e-08	-4.333315e+01	-9.313261e+02
3.800000e-07	-6.058862e-06	-1.409908e-08	-4.262046e+01	-9.249188e+02
3.900000e-07	-5.955443e-06	-1.397594e-08	-4.189297e+01	-9.182854e+02
4.000000e-07	-5.849886e-06	-1.389692e-08	-4.115043e+01	-9.114098e+02
4.100000e-07	-5.742267e-06	-1.379796e-08	-4.039340e+01	-9.042759e+02
4.200000e-07	-5.632703e-06	-1.367778e-08	-3.962268e+01	-8.968691e+02
4.300000e-07	-5.521096e-06	-1.353392e-08	-3.883759e+01	-8.891777e+02
4.400000e-07	-5.407298e-06	-1.342359e-08	-3.803709e+01	-8.811938e+02
4.500000e-07	-5.291370e-06	-1.331816e-08	-3.722161e+01	-8.729136e+02
4.600000e-07	-5.173496e-06	-1.318694e-08	-3.639244e+01	-8.643370e+02
4.700000e-07	-5.053783e-06	-1.303446e-08	-3.555033e+01	-8.554660e+02
4.800000e-07	-4.932239e-06	-1.289435e-08	-3.469534e+01	-8.463033e+02
4.900000e-07	-4.808920e-06	-1.276900e-08	-3.382786e+01	-8.368505e+02
5.000000e-07	-4.683883e-06	-1.262263e-08	-3.294830e+01	-8.271059e+02
5.100000e-07	-4.557121e-06	-1.246029e-08	-3.205661e+01	-8.170633e+02
5.200000e-07	-4.428674e-06	-1.229002e-08	-3.115306e+01	-8.067111e+02
5.300000e-07	-4.298617e-06	-1.213423e-08	-3.023819e+01	-7.960325e+02
5.400000e-07	-4.166893e-06	-1.197239e-08	-2.931159e+01	-7.850068e+02
5.500000e-07	-4.033679e-06	-1.179478e-08	-2.837451e+01	-7.736104e+02
5.600000e-07	-3.899001e-06	-1.160350e-08	-2.742713e+01	-7.618197e+02
5.700000e-07	-3.762810e-06	-1.141658e-08	-2.646911e+01	-7.496129e+02
5.800000e-07	-3.625207e-06	-1.123316e-08	-2.550115e+01	-7.369724e+02
5.900000e-07	-3.486037e-06	-1.103356e-08	-2.452217e+01	-7.238857e+02
6.000000e-07	-3.345292e-06	-1.082095e-08	-2.353212e+01	-7.103463e+02
6.100000e-07	-3.203183e-06	-1.060450e-08	-2.253247e+01	-6.963528e+02
6.200000e-07	-3.059832e-06	-1.039085e-08	-2.152408e+01	-6.819072e+02
6.300000e-07	-2.915277e-06	-1.016835e-08	-2.050722e+01	-6.670125e+02
6.400000e-07	-2.769660e-06	-9.934256e-09	-1.948289e+01	-6.516698e+02
6.500000e-07	-2.623147e-06	-9.689407e-09	-1.845226e+01	-6.358753e+02
6.600000e-07	-2.475806e-06	-9.440542e-09	-1.741581e+01	-6.196184e+02
6.700000e-07	-2.327642e-06	-9.188862e-09	-1.637356e+01	-6.028801e+02
6.800000e-07	-2.178731e-06	-8.926636e-09	-1.532607e+01	-5.856331e+02
6.900000e-07	-2.029203e-06	-8.651554e-09	-1.427422e+01	-5.678431e+02
7.000000e-07	-1.878985e-06	-8.363260e-09	-1.321753e+01	-5.494721e+02
7.100000e-07	-1.728016e-06	-8.072484e-09	-1.215555e+01	-5.304810e+02
7.200000e-07	-1.576438e-06	-7.775974e-09	-1.108929e+01	-5.108348e+02
7.300000e-07	-1.424458e-06	-7.467916e-09	-1.002021e+01	-4.905052e+02
7.400000e-07	-1.272088e-06	-7.145476e-09	-8.948376e+00	-4.694743e+02
7.500000e-07	-1.119219e-06	-6.810887e-09	-7.873031e+00	-4.477352e+02
7.600000e-07	-9.658811e-07	-6.469709e-09	-6.794393e+00	-4.252917e+02
7.700000e-07	-8.122130e-07	-6.123952e-09	-5.713430e+00	-4.021554e+02
7.800000e-07	-6.582722e-07	-5.769002e-09	-4.630549e+00	-3.783416e+02
7.900000e-07	-5.040934e-07	-5.392912e-09	-3.545994e+00	-3.538628e+02
8.000000e-07	-3.497479e-07	-5.001531e-09	-2.460266e+00	-3.287233e+02
8.100000e-07	-1.952772e-07	-4.606562e-09	-1.373658e+00	-3.029129e+02
8.200000e-07	-4.072639e-08	-4.208256e-09	-2.864857e-01	-2.764025e+02
8.300000e-07	1.138895e-07	-3.790480e-09	8.011440e-01	-2.491430e+02
8.400000e-07	2.685245e-07	-3.348207e-09	1.888909e+00	-2.210653e+02
8.500000e-07	4.230789e-07	-2.896507e-09	2.976106e+00	-1.920860e+02
8.600000e-07	5.774771e-07	-2.445031e-09	4.062205e+00	-1.621142e+02
8.700000e-07	7.317247e-07	-1.982952e-09	5.147244e+00	-1.310628e+02
8.800000e-07	8.857254e-07	-1.491786e-09	6.230546e+00	-9.886031e+01
8.900000e-07	1.039446e-06	-9.750066e-10	7.311878e+00	-6.546366e+01
9.000000e-07	1.192838e-06	-4.484389e-10	8.390897e+00	-3.087011e+01
9.100000e-07	1.345746e-06	8.374053e-11	9.466513e+00	4.873381e+00
9.200000e-07	1.498165e-06	6.374155e-10	1.053869e+01	4.166432e+01
9.300000e-07	1.650104e-06	1.220575e-09	1.160749e+01	7.934336e+01
9.400000e-07	1.801472e-06	1.817508e-09	1.267227e+01	1.176979e+02
9.500000e-07	1.952189e-06	2.407379e-09	1.373248e+01	1.564703e+02
9.600000e-07	2.102219e-06	2.990064e-09	1.478785e+01	1.953707e+02
9.700000e-07	2.251449e-06	3.580588e-09	1.583759e+01	2.340926e+02
9.800000e-07	2.399804e-06	4.173840e-09	1.688118e+01	2.723296e+02
9.900000e-07	2.547223e-06	4.750173e-09	1.791818e+01	3.097931e+02
1.000000e-06	2.693673e-06	5.293805e-09	1.894837e+01	3.462272e+02
1.010000e-06	2.839135e-06	5.815294e-09	1.997161e+01	3.814216e+02
1.020000e-06	2.983536e-06	6.328904e-09	2.098738e+01	4.152192e+02
1.030000e-06	3.126857e-06	6.828081e-09	2.199556e+01	4.475202e+02
1.040000e-06	3.268981e-06	7.293587e-09	2.299532e+01	4.782803e+02
1.050000e-06	3.409763e-06	7.726704e-09	2.398563e+01	5.075053e+02
1.060000e-06	3.549094e-06	8.145110e-09	2.496574e+01	5.352419e+02
1.070000e-06	3.687060e-06	8.553560e-09	2.593625e+01	5.615668e+02
1.080000e-06	3.823728e-06	8.944235e-09	2.689763e+01	5.865746e+02
1.090000e-06	3.959025e-06	9.307205e-09	2.784936e+01	6.103659e+02
1.100000e-06	4.092918e-06	9.649638e-09	2.879122e+01	6.330381e+02
1.110000e-06	4.225345e-06	9.982420e-09	2.972277e+01	6.546778e+02
1.120000e-06	4.356188e-06	1.030590e-08	3.064317e+01	6.753562e+02
1.130000e-06	4.485474e-06	1.060836e-08	3.155262e+01	6.951287e+02
1.140000e-06	4.613277e-06	1.088741e-08	3.245163e+01	7.140353e+02
1.150000e-06	4.739478e-06	1.115532e-08	3.333938e+01	7.321046e+02
1.160000e-06	4.864058e-06	1.141920e-08	3.421572e+01	7.493580e+02
1.170000e-06	4.986918e-06	1.167150e-08	3.507997e+01	7.658143e+02
1.180000e-06	5.108019e-06	1.190763e-08	3.593184e+01	7.814945e+02
1.190000e-06	5.227353e-06	1.213195e-08	3.677129e+01	7.964237e+02
1.200000e-06	5.344699e-06	1.234730e-08	3.759675e+01	8.106333e+02
1.210000e-06	5.459906e-06	1.255397e-08	3.840716e+01	8.241603e+02
1.220000e-06	5.573010e-06	1.275152e-08	3.920278e+01	8.370458e+02
1.230000e-06	5.684069e-06	1.293920e-08	3.998401e+01	8.493318e+02
1.240000e-06	5.793086e-06	1.311752e-08	4.075088e+01	8.610586e+02
1.250000e-06	5.899986e-06	1.328875e-08	4.150286e+01	8.722619e+02
1.260000e-06	6.004771e-06	1.345457e-08	4.223995e+01	8.829703e+02
1.270000e-06	6.107425e-06	1.361296e-08	4.296206e+01	8.932042e+02
1.280000e-06	6.207767e-06	1.376324e-08	4.366791e+01	9.029766e+02
1.290000e-06	6.305720e-06	1.390612e-08	4.435695e+01	9.122942e+02
1.300000e-06	6.401283e-06	1.404124e-08	4.502918e+01	9.211598e+02
1.310000e-06	6.494592e-06	1.416909e-08	4.568555e+01	9.295755e+02
1.320000e-06	6.585610e-06	1.429141e-08	4.632581e+01	9.375455e+02
1.330000e-06	6.674266e-06	1.440591e-08	4.694945e+01	9.450790e+02
1.340000e-06	6.760587e-06	1.451206e-08	4.755667e+01	9.521910e+02
1.350000e-06	6.844568e-06	1.461234e-08	4.814742e+01	9.589036e+02
1.360000e-06	6.926150e-06	1.470913e-08	4.872131e+01	9.652444e+02
1.370000e-06	7.005185e-06	1.480365e-08	4.927727e+01	9.712449e+02
1.380000e-06	7.081644e-06	1.489234e-08	4.981511e+01	9.769378e+02
1.390000e-06	7.155422e-06	1.497496e-08	5.033409e+01	9.823536e+02
1.400000e-06	7.226537e-06	1.505352e-08	5.083435e+01	9.875179e+02
1.410000e-06	7.295158e-06	1.513007e-08	5.131705e+01	9.924490e+02
1.420000e-06	7.361193e-06	1.520271e-08	5.178157e+01	9.971567e+02
1.430000e-06	7.424532e-06	1.526905e-08	5.222712e+01	1.001642e+03
1.440000e-06	7.485296e-06	1.533058e-08	5.265456e+01	1.005898e+03
1.450000e-06	7.543492e-06	1.539022e-08	5.306394e+01	1.009912e+03
1.460000e-06	7.599032e-06	1.544755e-08	5.345463e+01	1.013671e+03
1.470000e-06	7.651790e-06	1.549991e-08	5.382574e+01	1.017160e+03
1.480000e-06	7.701437e-06	1.554602e-08	5.417498e+01	1.020369e+03
1.490000e-06	7.748055e-06	1.559041e-08	5.450291e+01	1.023294e+03
1.500000e-06	7.791983e-06	1.563384e-08	5.481192e+01	1.025938e+03
1.510000e-06	7.833160e-06	1.567127e-08	5.510157e+01	1.028311e+03
1.520000e-06	7.871514e-06	1.570350e-08	5.537137e+01	1.030432e+03
1.530000e-06	7.907151e-06	1.573266e-08	5.562206e+01	1.032323e+03
1.540000e-06	7.939949e-06	1.575931e-08	5.585277e+01	1.034008e+03
1.550000e-06	7.969873e-06	1.578268e-08	5.606327e+01	1.035510e+03
1.560000e-06	7.997049e-06	1.580228e-08	5.625444e+01	1.036851e+03
1.570000e-06	8.021249e-06	1.581916e-08	5.642466e+01	1.038044e+03
1.580000e-06	8.042604e-06	1.583380e-08	5.657489e+01	1.039099e+03
1.590000e-06	8.061244e-06	1.584807e-08	5.670601e+01	1.040016e+03
1.600000e-06	8.076839e-06	1.586048e-08	5.681571e+01	1.040790e+03
1.610000e-06	8.089299e-06	1.586911e-08	5.690336e+01	1.041411e+03
1.620000e-06	8.098602e-06	1.587567e-08	5.696880e+01	1.041869e+03
1.630000e-06	8.104877e-06	1.588197e-08	5.701294e+01	1.042151e+03
1.640000e-06	8.108329e-06	1.588586e-08	5.703722e+01	1.042249e+03
1.650000e-06	8.108937e-06	1.588641e-08	5.704150e+01	1.042158e+03
1.660000e-06	8.106768e-06	1.587704e-08	5.702624e+01	1.041881e+03
1.670000e-06	8.101892e-06	1.586673e-08	5.699194e+01	1.041422e+03
1.680000e-06	8.094280e-06	1.585967e-08	5.693840e+01	1.040795e+03
1.690000e-06	8.084018e-06	1.585084e-08	5.686621e+01	1.040014e+03
1.700000e-06	8.070943e-06	1.584121e-08	5.677424e+01	1.039096e+03
1.710000e-06	8.055063e-06	1.583353e-08	5.666253e+01	1.038056e+03
1.720000e-06	8.036735e-06	1.583189e-08	5.653360e+01	1.036910e+03
1.730000e-06	8.016073e-06	1.578941e-08	5.638826e+01	1.035665e+03
1.740000e-06	7.992489e-06	1.568081e-08	5.622235e+01	1.034328e+03
1.750000e-06	7.965208e-06	1.568625e-08	5.603045e+01	1.032897e+03
1.760000e-06	7.934284e-06	1.571684e-08	5.581292e+01	1.031370e+03
1.770000e-06	7.900461e-06	1.570512e-08	5.557499e+01	1.029738e+03
1.780000e-06	7.864389e-06	1.568602e-08	5.532125e+01	1.027991e+03
1.790000e-06	7.826000e-06	1.568540e-08	5.505120e+01	1.026118e+03
1.800000e-06	7.785476e-06	1.553432e-08	5.476614e+01	1.024109e+03
1.810000e-06	7.742698e-06	1.554055e-08	5.446523e+01	1.021955e+03
1.820000e-06	7.697199e-06	1.562630e-08	5.414517e+01	1.019649e+03
1.830000e-06	7.649032e-06	1.546691e-08	5.380634e+01	1.017185e+03
1.840000e-06	7.597884e-06	1.552466e-08	5.344655e+01	1.014559e+03
1.850000e-06	7.543697e-06	1.542357e-08	5.306537e+01	1.011767e+03
1.860000e-06	7.486717e-06	1.540146e-08	5.266456e+01	1.008806e+03
1.870000e-06	7.427119e-06	1.539577e-08	5.224532e+01	1.005670e+03
1.880000e-06	7.364878e-06	1.523741e-08	5.180749e+01	1.002354e+03
1.890000e-06	7.299682e-06	1.529057e-08	5.134888e+01	9.988526e+02
1.900000e-06	7.231712e-06	1.517477e-08	5.087075e+01	9.951576e+02
1.910000e-06	7.160956e-06	1.514718e-08	5.037302e+01	9.912625e+02
1.920000e-06	7.087334e-06	1.507165e-08	4.985514e+01	9.871617e+02
1.930000e-06	7.010919e-06	1.496355e-08	4.931760e+01	9.828511e+02
1.940000e-06	6.931638e-06	1.496860e-08	4.875991e+01	9.783294e+02
1.950000e-06	6.849850e-06	1.485132e-08	4.818458e+01	9.735975e+02
1.960000e-06	6.765647e-06	1.483338e-08	4.759226e+01	9.686589e+02
1.970000e-06	6.678849e-06	1.468597e-08	4.698169e+01	9.635185e+02
1.980000e-06	6.589569e-06	1.460255e-08	4.635366e+01	9.581814e+02
1.990000e-06	6.497994e-06	1.455375e-08	4.570948e+01	9.526522e+02
2.000000e-06	6.404142e-06	1.446720e-08	4.504929e+01	9.469326e+02
2.010000e-06	6.307968e-06	1.438599e-08	4.437276e+01	9.410214e+02
2.020000e-06	6.209628e-06	1.423694e-08	4.368100e+01	9.349130e+02
2.030000e-06	6.109102e-06	1.417536e-08	4.297386e+01	9.285979e+02
2.040000e-06	6.006318e-06	1.407593e-08	4.225084e+01	9.220632e+02
2.050000e-06	5.901366e-06	1.398809e-08	4.151257e+01	9.152932e+02
2.060000e-06	5.794491e-06	1.384653e-08	4.076076e+01	9.082718e+02
2.070000e-06	5.685697e-06	1.373212e-08	3.999546e+01	9.009834e+02
2.080000e-06	5.574813e-06	1.363280e-08	3.921546e+01	8.934150e+02
2.090000e-06	5.461807e-06	1.351857e-08	3.842053e+01	8.855570e+02
2.100000e-06	5.346708e-06	1.339198e-08	3.761088e+01	8.774039e+02
2.110000e-06	5.229591e-06	1.324611e-08	3.678703e+01	8.689540e+02
2.120000e-06	5.110423e-06	1.312232e-08	3.594875e+01	8.602086e+02
2.130000e-06	4.989361e-06	1.298875e-08	3.509715e+01	8.511705e+02
2.140000e-06	4.866547e-06	1.286186e-08	3.423323e+01	8.418419e+02
2.150000e-06	4.742011e-06	1.270108e-08	3.335720e+01	8.322226e+02
2.160000e-06	4.615748e-06	1.254675e-08	3.246902e+01	8.223087e+02
2.170000e-06	4.487722e-06	1.238820e-08	3.156842e+01	8.120907e+02
2.180000e-06	4.358052e-06	1.223869e-08	3.065628e+01	8.015542e+02
2.190000e-06	4.226832e-06	1.206682e-08	2.973322e+01	7.906799e+02
2.200000e-06	4.094064e-06	1.189124e-08	2.879928e+01	7.794451e+02
2.210000e-06	3.959800e-06	1.171537e-08	2.785482e+01	7.678261e+02
2.220000e-06	3.823991e-06	1.153404e-08	2.689948e+01	7.557999e+02
2.230000e-06	3.686682e-06	1.134508e-08	2.593359e+01	7.433469e+02
2.240000e-06	3.547974e-06	1.114405e-08	2.495787e+01	7.304524e+02
2.250000e-06	3.407883e-06	1.094413e-08	2.397241e+01	7.171074e+02
2.260000e-06	3.266528e-06	1.073759e-08	2.297806e+01	7.033082e+02
2.270000e-06	3.123851e-06	1.052730e-08	2.197442e+01	6.890559e+02
2.280000e-06	2.979886e-06	1.029799e-08	2.096171e+01	6.743532e+02
2.290000e-06	2.834832e-06	1.006427e-08	1.994134e+01	6.592024e+02
2.300000e-06	2.688880e-06	9.828967e-09	1.891465e+01	6.436022e+02
2.310000e-06	2.542099e-06	9.592132e-09	1.788214e+01	6.275452e+02
2.320000e-06	2.394330e-06	9.336343e-09	1.684267e+01	6.110159e+02
2.330000e-06	2.245692e-06	9.065793e-09	1.579709e+01	5.939905e+02
2.340000e-06	2.096415e-06	8.795210e-09	1.474702e+01	5.764377e+02
2.350000e-06	1.946452e-06	8.526510e-09	1.369212e+01	5.583203e+02
2.360000e-06	1.795828e-06	8.247123e-09	1.263257e+01	5.395994e+02
2.370000e-06	1.644680e-06	7.945537e-09	1.156934e+01	5.202378e+02
2.380000e-06	1.492952e-06	7.629284e-09	1.050202e+01	5.002037e+02
2.390000e-06	1.340634e-06	7.313226e-09	9.430553e+00	4.794747e+02
2.400000e-06	1.187782e-06	7.000030e-09	8.355332e+00	4.580391e+02
2.410000e-06	1.034516e-06	6.671760e-09	7.277202e+00	4.358962e+02
2.420000e-06	8.809502e-07	6.315672e-09	6.196956e+00	4.130549e+02
2.430000e-06	7.271070e-07	5.946175e-09	5.114761e+00	3.895295e+02
2.440000e-06	5.730771e-07	5.584300e-09	4.031253e+00	3.653344e+02
2.450000e-06	4.188442e-07	5.222580e-09	2.946317e+00	3.404782e+02
2.460000e-06	2.644621e-07	4.836211e-09	1.860332e+00	3.149575e+02
2.470000e-06	1.100251e-07	4.419041e-09	7.739603e-01	2.887518e+02
2.480000e-06	-4.454471e-08	3.994952e-09	-3.133453e-01	2.618205e+02
2.490000e-06	-1.991747e-07	3.579657e-09	-1.401074e+00	2.341029e+02
2.500000e-06	-3.537292e-07	3.156003e-09	-2.488273e+00	2.055207e+02
2.510000e-06	-5.081565e-07	2.701047e-09	-3.574576e+00	1.759852e+02
2.520000e-06	-6.624460e-07	2.217284e-09	-4.659910e+00	1.454064e+02
2.530000e-06	-8.165776e-07	1.730982e-09	-5.744133e+00	1.137042e+02
2.540000e-06	-9.704460e-07	1.248425e-09	-6.826505e+00	8.082214e+01
2.550000e-06	-1.123983e-06	7.465008e-10	-7.906549e+00	4.673872e+01
2.560000e-06	-1.277150e-06	2.058338e-10	-8.983984e+00	1.147867e+01
2.570000e-06	-1.429842e-06	-3.612151e-10	-1.005808e+01	-2.487974e+01
2.580000e-06	-1.581965e-06	-9.281829e-10	-1.112817e+01	-6.220140e+01
2.590000e-06	-1.733409e-06	-1.496019e-09	-1.219349e+01	-1.002957e+02
2.600000e-06	-1.884160e-06	-2.085488e-09	-1.325393e+01	-1.389231e+02
2.610000e-06	-2.034268e-06	-2.697877e-09	-1.430985e+01	-1.778058e+02
2.620000e-06	-2.183639e-06	-3.307030e-09	-1.536059e+01	-2.166423e+02
2.630000e-06	-2.332242e-06	-3.892883e-09	-1.640592e+01	-2.551241e+02
2.640000e-06	-2.480015e-06	-4.460692e-09	-1.744542e+01	-2.929528e+02
2.650000e-06	-2.626817e-06	-5.026672e-09	-1.847808e+01	-3.298568e+02
2.660000e-06	-2.772689e-06	-5.586376e-09	-1.950420e+01	-3.656052e+02
2.670000e-06	-2.917562e-06	-6.116764e-09	-2.052329e+01	-4.000172e+02
2.680000e-06	-3.061188e-06	-6.606093e-09	-2.153362e+01	-4.329683e+02
2.690000e-06	-3.203468e-06	-7.071143e-09	-2.253447e+01	-4.643910e+02
2.700000e-06	-3.344494e-06	-7.530245e-09	-2.352651e+01	-4.942705e+02
2.710000e-06	-3.484291e-06	-7.975331e-09	-2.450989e+01	-5.226372e+02
2.720000e-06	-3.622806e-06	-8.388838e-09	-2.548427e+01	-5.495565e+02
2.730000e-06	-3.760023e-06	-8.771167e-09	-2.644951e+01	-5.751167e+02
2.740000e-06	-3.895790e-06	-9.140407e-09	-2.740454e+01	-5.994172e+02
2.750000e-06	-4.030080e-06	-9.503711e-09	-2.834919e+01	-6.225578e+02
2.760000e-06	-4.163010e-06	-9.850972e-09	-2.928428e+01	-6.446304e+02
2.770000e-06	-4.294546e-06	-1.017105e-08	-3.020955e+01	-6.657133e+02
2.780000e-06	-4.424672e-06	-1.046988e-08	-3.112491e+01	-6.858685e+02
2.790000e-06	-4.553315e-06	-1.076072e-08	-3.202983e+01	-7.051423e+02
2.800000e-06	-4.680309e-06	-1.104648e-08	-3.292316e+01	-7.235677e+02
2.810000e-06	-4.805704e-06	-1.131797e-08	-3.380524e+01	-7.411685e+02
2.820000e-06	-4.929451e-06	-1.156851e-08	-3.467572e+01	-7.579642e+02
2.830000e-06	-5.051404e-06	-1.180662e-08	-3.553359e+01	-7.739744e+02
2.840000e-06	-5.171445e-06	-1.204145e-08	-3.637800e+01	-7.892221e+02
2.850000e-06	-5.289485e-06	-1.227114e-08	-3.720835e+01	-8.037361e+02
2.860000e-06	-5.405397e-06	-1.248702e-08	-3.802372e+01	-8.175510e+02
2.870000e-06	-5.519038e-06	-1.268484e-08	-3.882311e+01	-8.307064e+02
2.880000e-06	-5.630560e-06	-1.287200e-08	-3.960761e+01	-8.432443e+02
2.890000e-06	-5.740072e-06	-1.305731e-08	-4.037795e+01	-8.552063e+02
2.900000e-06	-5.847543e-06	-1.323908e-08	-4.113395e+01	-8.666302e+02
2.910000e-06	-5.952990e-06	-1.340777e-08	-4.187570e+01	-8.775478e+02
2.920000e-06	-6.056254e-06	-1.356156e-08	-4.260211e+01	-8.879832e+02
2.930000e-06	-6.157291e-06	-1.370911e-08	-4.331284e+01	-8.979524e+02
2.940000e-06	-6.256148e-06	-1.385487e-08	-4.400824e+01	-9.074646e+02
