# Temperatura_=_20.0
# Concentracion g/m^3_=_12600.0
# C_Vs_to_Am_M_A/Vsm_=_65563218390.804596
# pendiente_HvsI_1/m_=_3716.3
# ordenada_HvsI_A/m_=_1297.0
# frecuencia_Hz_=_302279.72697067686

Tiempo_(s)	Campo_(V.s)	Magnetizacion_(V.s)	Campo_(kA/m)	Magnetizacion_(A/m)
0.000000e+00	-8.125857e-06	-1.583137e-08	-5.694299e+01	-1.037694e+03
1.000000e-08	-8.122371e-06	-1.582816e-08	-5.691857e+01	-1.037351e+03
2.000000e-08	-8.116270e-06	-1.582313e-08	-5.687581e+01	-1.036827e+03
3.000000e-08	-8.107437e-06	-1.581568e-08	-5.681391e+01	-1.036132e+03
4.000000e-08	-8.095741e-06	-1.580326e-08	-5.673196e+01	-1.035281e+03
5.000000e-08	-8.081108e-06	-1.578914e-08	-5.662941e+01	-1.034288e+03
6.000000e-08	-8.063679e-06	-1.577440e-08	-5.650728e+01	-1.033172e+03
7.000000e-08	-8.043876e-06	-1.575244e-08	-5.636851e+01	-1.031948e+03
8.000000e-08	-8.021607e-06	-1.575155e-08	-5.621245e+01	-1.030629e+03
9.000000e-08	-7.996305e-06	-1.577251e-08	-5.603514e+01	-1.029224e+03
1.000000e-07	-7.967778e-06	-1.573481e-08	-5.583524e+01	-1.027738e+03
1.100000e-07	-7.936228e-06	-1.566609e-08	-5.561415e+01	-1.026172e+03
1.200000e-07	-7.901731e-06	-1.561358e-08	-5.537240e+01	-1.024521e+03
1.300000e-07	-7.864567e-06	-1.559972e-08	-5.511197e+01	-1.022778e+03
1.400000e-07	-7.825179e-06	-1.558994e-08	-5.483596e+01	-1.020932e+03
1.500000e-07	-7.783525e-06	-1.554696e-08	-5.454406e+01	-1.018970e+03
1.600000e-07	-7.739212e-06	-1.551334e-08	-5.423353e+01	-1.016878e+03
1.700000e-07	-7.692111e-06	-1.542235e-08	-5.390347e+01	-1.014643e+03
1.800000e-07	-7.642094e-06	-1.544931e-08	-5.355296e+01	-1.012250e+03
1.900000e-07	-7.589033e-06	-1.544689e-08	-5.318113e+01	-1.009688e+03
2.000000e-07	-7.533127e-06	-1.530435e-08	-5.278936e+01	-1.006943e+03
2.100000e-07	-7.474471e-06	-1.525633e-08	-5.237833e+01	-1.004006e+03
2.200000e-07	-7.413208e-06	-1.524314e-08	-5.194902e+01	-1.000867e+03
2.300000e-07	-7.349327e-06	-1.524053e-08	-5.150136e+01	-9.975183e+02
2.400000e-07	-7.282636e-06	-1.514955e-08	-5.103401e+01	-9.939544e+02
2.500000e-07	-7.213122e-06	-1.502854e-08	-5.054689e+01	-9.901715e+02
2.600000e-07	-7.140718e-06	-1.498217e-08	-5.003951e+01	-9.861681e+02
2.700000e-07	-7.065472e-06	-1.497769e-08	-4.951221e+01	-9.819450e+02
2.800000e-07	-6.987453e-06	-1.492864e-08	-4.896548e+01	-9.775051e+02
2.900000e-07	-6.906690e-06	-1.478285e-08	-4.839953e+01	-9.728534e+02
3.000000e-07	-6.823459e-06	-1.469280e-08	-4.781628e+01	-9.679955e+02
3.100000e-07	-6.737936e-06	-1.466671e-08	-4.721696e+01	-9.629377e+02
3.200000e-07	-6.650054e-06	-1.461941e-08	-4.660111e+01	-9.576854e+02
3.300000e-07	-6.559724e-06	-1.452483e-08	-4.596812e+01	-9.522422e+02
3.400000e-07	-6.466994e-06	-1.439667e-08	-4.531830e+01	-9.466088e+02
3.500000e-07	-6.371944e-06	-1.431577e-08	-4.465223e+01	-9.407828e+02
3.600000e-07	-6.274560e-06	-1.426418e-08	-4.396979e+01	-9.347579e+02
3.700000e-07	-6.174870e-06	-1.418263e-08	-4.327120e+01	-9.285246e+02
3.800000e-07	-6.072999e-06	-1.404613e-08	-4.255732e+01	-9.220707e+02
3.900000e-07	-5.968966e-06	-1.391842e-08	-4.182830e+01	-9.153821e+02
4.000000e-07	-5.862770e-06	-1.383950e-08	-4.108412e+01	-9.084447e+02
4.100000e-07	-5.754553e-06	-1.375479e-08	-4.032578e+01	-9.012454e+02
4.200000e-07	-5.644323e-06	-1.362646e-08	-3.955332e+01	-8.937735e+02
4.300000e-07	-5.531952e-06	-1.347452e-08	-3.876587e+01	-8.860212e+02
4.400000e-07	-5.417434e-06	-1.335996e-08	-3.796337e+01	-8.779845e+02
4.500000e-07	-5.300886e-06	-1.326568e-08	-3.714665e+01	-8.696622e+02
4.600000e-07	-5.182451e-06	-1.314219e-08	-3.631670e+01	-8.610556e+02
4.700000e-07	-5.062155e-06	-1.298608e-08	-3.547370e+01	-8.521667e+02
4.800000e-07	-4.940070e-06	-1.283836e-08	-3.461818e+01	-8.429963e+02
4.900000e-07	-4.816211e-06	-1.271040e-08	-3.375022e+01	-8.335431e+02
5.000000e-07	-4.690592e-06	-1.257410e-08	-3.286993e+01	-8.238012e+02
5.100000e-07	-4.563247e-06	-1.241280e-08	-3.197755e+01	-8.137602e+02
5.200000e-07	-4.434184e-06	-1.223854e-08	-3.107312e+01	-8.034043e+02
5.300000e-07	-4.303519e-06	-1.207608e-08	-3.015746e+01	-7.927132e+02
5.400000e-07	-4.171263e-06	-1.191926e-08	-2.923067e+01	-7.816637e+02
5.500000e-07	-4.037433e-06	-1.174539e-08	-2.829284e+01	-7.702312e+02
5.600000e-07	-3.901995e-06	-1.155288e-08	-2.734373e+01	-7.583922e+02
5.700000e-07	-3.764954e-06	-1.135909e-08	-2.638340e+01	-7.461265e+02
5.800000e-07	-3.626504e-06	-1.117225e-08	-2.541320e+01	-7.334188e+02
5.900000e-07	-3.486572e-06	-1.097740e-08	-2.443261e+01	-7.202596e+02
6.000000e-07	-3.345127e-06	-1.076493e-08	-2.344141e+01	-7.066457e+02
6.100000e-07	-3.202358e-06	-1.054340e-08	-2.244094e+01	-6.925785e+02
6.200000e-07	-3.058385e-06	-1.032423e-08	-2.143203e+01	-6.780626e+02
6.300000e-07	-2.913315e-06	-1.010485e-08	-2.041543e+01	-6.631032e+02
6.400000e-07	-2.767216e-06	-9.874793e-09	-1.939163e+01	-6.477027e+02
6.500000e-07	-2.620163e-06	-9.630398e-09	-1.836113e+01	-6.318583e+02
6.600000e-07	-2.472256e-06	-9.378467e-09	-1.732465e+01	-6.155601e+02
6.700000e-07	-2.323578e-06	-9.125438e-09	-1.628278e+01	-5.987896e+02
6.800000e-07	-2.174096e-06	-8.865849e-09	-1.523526e+01	-5.815200e+02
6.900000e-07	-2.023847e-06	-8.590282e-09	-1.418237e+01	-5.637179e+02
7.000000e-07	-1.872971e-06	-8.298287e-09	-1.312508e+01	-5.453461e+02
7.100000e-07	-1.721472e-06	-8.005113e-09	-1.206344e+01	-5.263669e+02
7.200000e-07	-1.569339e-06	-7.711488e-09	-1.099735e+01	-5.067461e+02
7.300000e-07	-1.416649e-06	-7.406442e-09	-9.927353e+00	-4.864569e+02
7.400000e-07	-1.263448e-06	-7.083721e-09	-8.853773e+00	-4.654819e+02
7.500000e-07	-1.109780e-06	-6.746535e-09	-7.776927e+00	-4.438152e+02
7.600000e-07	-9.557831e-07	-6.407930e-09	-6.697774e+00	-4.214607e+02
7.700000e-07	-8.014895e-07	-6.067662e-09	-5.616542e+00	-3.984306e+02
7.800000e-07	-6.468916e-07	-5.711270e-09	-4.533177e+00	-3.747404e+02
7.900000e-07	-4.920840e-07	-5.330892e-09	-3.448343e+00	-3.504038e+02
8.000000e-07	-3.371464e-07	-4.940902e-09	-2.362597e+00	-3.254267e+02
8.100000e-07	-1.821125e-07	-4.553551e-09	-1.276177e+00	-2.998018e+02
8.200000e-07	-2.695189e-08	-4.160253e-09	-1.888688e-01	-2.735045e+02
8.300000e-07	1.282769e-07	-3.743815e-09	8.989169e-01	-2.464905e+02
8.400000e-07	2.834863e-07	-3.304489e-09	1.986567e+00	-2.186974e+02
8.500000e-07	4.386538e-07	-2.861894e-09	3.073924e+00	-1.900482e+02
8.600000e-07	5.936744e-07	-2.420667e-09	4.160251e+00	-1.604583e+02
8.700000e-07	7.484917e-07	-1.963046e-09	5.245153e+00	-1.298456e+02
8.800000e-07	9.031274e-07	-1.472624e-09	6.328782e+00	-9.814126e+01
8.900000e-07	1.057532e-06	-9.600601e-10	7.410792e+00	-6.530200e+01
9.000000e-07	1.211647e-06	-4.459982e-10	8.490775e+00	-3.132101e+01
9.100000e-07	1.365334e-06	7.235645e-11	9.567756e+00	3.762887e+00
9.200000e-07	1.518485e-06	6.176556e-10	1.064098e+01	3.985939e+01
9.300000e-07	1.670999e-06	1.193332e-09	1.170974e+01	7.682491e+01
9.400000e-07	1.822828e-06	1.776287e-09	1.277370e+01	1.144653e+02
9.500000e-07	1.973950e-06	2.349261e-09	1.383271e+01	1.525428e+02
9.600000e-07	2.124338e-06	2.919979e-09	1.488657e+01	1.907877e+02
9.700000e-07	2.274022e-06	3.503940e-09	1.593550e+01	2.289117e+02
9.800000e-07	2.422845e-06	4.092926e-09	1.697840e+01	2.666240e+02
9.900000e-07	2.570678e-06	4.662102e-09	1.801436e+01	3.036473e+02
1.000000e-06	2.717536e-06	5.197232e-09	1.904348e+01	3.397323e+02
1.010000e-06	2.863426e-06	5.715865e-09	2.006583e+01	3.746698e+02
1.020000e-06	3.008236e-06	6.231907e-09	2.108060e+01	4.082991e+02
1.030000e-06	3.151889e-06	6.728969e-09	2.208727e+01	4.405118e+02
1.040000e-06	3.294381e-06	7.189244e-09	2.308580e+01	4.712522e+02
1.050000e-06	3.435579e-06	7.619035e-09	2.407526e+01	5.005123e+02
1.060000e-06	3.575426e-06	8.040031e-09	2.505526e+01	5.283247e+02
1.070000e-06	3.713909e-06	8.453724e-09	2.602570e+01	5.547525e+02
1.080000e-06	3.851013e-06	8.845850e-09	2.698647e+01	5.798783e+02
1.090000e-06	3.986688e-06	9.206246e-09	2.793723e+01	6.037939e+02
1.100000e-06	4.120868e-06	9.548083e-09	2.887752e+01	6.265904e+02
1.110000e-06	4.253556e-06	9.884907e-09	2.980735e+01	6.483513e+02
1.120000e-06	4.384716e-06	1.021260e-08	3.072647e+01	6.691474e+02
1.130000e-06	4.514360e-06	1.051743e-08	3.163496e+01	6.890354e+02
1.140000e-06	4.642429e-06	1.079573e-08	3.253242e+01	7.080578e+02
1.150000e-06	4.768886e-06	1.106363e-08	3.341858e+01	7.262459e+02
1.160000e-06	4.893756e-06	1.132925e-08	3.429363e+01	7.436233e+02
1.170000e-06	5.016936e-06	1.158462e-08	3.515683e+01	7.602102e+02
1.180000e-06	5.138347e-06	1.182259e-08	3.600763e+01	7.760271e+02
1.190000e-06	5.257913e-06	1.204595e-08	3.684551e+01	7.910979e+02
1.200000e-06	5.375537e-06	1.226200e-08	3.766977e+01	8.054516e+02
1.210000e-06	5.491132e-06	1.247368e-08	3.847982e+01	8.191221e+02
1.220000e-06	5.604541e-06	1.267514e-08	3.927455e+01	8.321475e+02
1.230000e-06	5.715768e-06	1.286285e-08	4.005398e+01	8.445678e+02
1.240000e-06	5.824986e-06	1.303982e-08	4.081935e+01	8.564219e+02
1.250000e-06	5.932226e-06	1.321317e-08	4.157084e+01	8.677452e+02
1.260000e-06	6.037319e-06	1.338317e-08	4.230730e+01	8.785675e+02
1.270000e-06	6.140148e-06	1.354418e-08	4.302788e+01	8.889116e+02
1.280000e-06	6.240689e-06	1.369324e-08	4.373243e+01	8.987928e+02
1.290000e-06	6.338885e-06	1.383472e-08	4.442056e+01	9.082207e+02
1.300000e-06	6.434676e-06	1.397318e-08	4.509182e+01	9.172000e+02
1.310000e-06	6.528165e-06	1.410712e-08	4.574696e+01	9.257339e+02
1.320000e-06	6.619362e-06	1.423118e-08	4.638604e+01	9.338262e+02
1.330000e-06	6.708159e-06	1.434309e-08	4.700829e+01	9.414839e+02
1.340000e-06	6.794592e-06	1.444884e-08	4.761398e+01	9.487191e+02
1.350000e-06	6.878675e-06	1.455320e-08	4.820321e+01	9.555494e+02
1.360000e-06	6.960291e-06	1.465519e-08	4.877514e+01	9.619979e+02
1.370000e-06	7.039403e-06	1.475019e-08	4.932953e+01	9.680917e+02
1.380000e-06	7.115956e-06	1.483663e-08	4.986599e+01	9.738600e+02
1.390000e-06	7.189771e-06	1.491941e-08	5.038325e+01	9.793312e+02
1.400000e-06	7.260905e-06	1.500113e-08	5.088174e+01	9.845309e+02
1.410000e-06	7.329486e-06	1.507921e-08	5.136232e+01	9.894789e+02
1.420000e-06	7.395470e-06	1.514941e-08	5.182471e+01	9.941883e+02
1.430000e-06	7.458822e-06	1.521284e-08	5.226866e+01	9.986646e+02
1.440000e-06	7.519666e-06	1.527452e-08	5.269503e+01	1.002906e+03
1.450000e-06	7.577938e-06	1.533630e-08	5.310338e+01	1.006907e+03
1.460000e-06	7.633494e-06	1.539470e-08	5.349270e+01	1.010656e+03
1.470000e-06	7.686208e-06	1.544663e-08	5.386210e+01	1.014142e+03
1.480000e-06	7.735787e-06	1.549395e-08	5.420953e+01	1.017358e+03
1.490000e-06	7.782370e-06	1.553955e-08	5.453596e+01	1.020297e+03
1.500000e-06	7.826223e-06	1.558199e-08	5.484327e+01	1.022962e+03
1.510000e-06	7.867234e-06	1.561830e-08	5.513066e+01	1.025360e+03
1.520000e-06	7.905394e-06	1.564954e-08	5.539807e+01	1.027505e+03
1.530000e-06	7.940824e-06	1.567790e-08	5.564635e+01	1.029416e+03
1.540000e-06	7.973459e-06	1.570433e-08	5.587505e+01	1.031113e+03
1.550000e-06	8.003288e-06	1.572877e-08	5.608408e+01	1.032619e+03
1.560000e-06	8.030317e-06	1.575017e-08	5.627348e+01	1.033953e+03
1.570000e-06	8.054331e-06	1.576857e-08	5.644177e+01	1.035131e+03
1.580000e-06	8.075446e-06	1.578467e-08	5.658973e+01	1.036164e+03
1.590000e-06	8.093758e-06	1.579982e-08	5.671806e+01	1.037057e+03
1.600000e-06	8.109082e-06	1.581178e-08	5.682544e+01	1.037807e+03
1.610000e-06	8.121294e-06	1.581878e-08	5.691102e+01	1.038409e+03
1.620000e-06	8.130298e-06	1.582373e-08	5.697411e+01	1.038854e+03
1.630000e-06	8.136299e-06	1.582769e-08	5.701617e+01	1.039129e+03
1.640000e-06	8.139524e-06	1.582970e-08	5.703877e+01	1.039228e+03
1.650000e-06	8.139914e-06	1.582890e-08	5.704150e+01	1.039143e+03
1.660000e-06	8.137542e-06	1.582197e-08	5.702488e+01	1.038871e+03
1.670000e-06	8.132487e-06	1.581546e-08	5.698946e+01	1.038417e+03
1.680000e-06	8.124704e-06	1.580782e-08	5.693492e+01	1.037787e+03
1.690000e-06	8.114228e-06	1.579974e-08	5.686151e+01	1.036996e+03
1.700000e-06	8.100890e-06	1.579113e-08	5.676804e+01	1.036056e+03
1.710000e-06	8.084726e-06	1.577990e-08	5.665476e+01	1.034987e+03
1.720000e-06	8.066113e-06	1.576831e-08	5.652433e+01	1.033803e+03
1.730000e-06	8.045109e-06	1.571159e-08	5.637714e+01	1.032520e+03
1.740000e-06	8.021072e-06	1.564731e-08	5.620870e+01	1.031147e+03
1.750000e-06	7.993315e-06	1.565032e-08	5.601419e+01	1.029693e+03
1.760000e-06	7.961964e-06	1.566059e-08	5.579450e+01	1.028158e+03
1.770000e-06	7.927792e-06	1.564968e-08	5.555503e+01	1.026541e+03
1.780000e-06	7.891301e-06	1.562532e-08	5.529931e+01	1.024835e+03
1.790000e-06	7.852518e-06	1.558754e-08	5.502754e+01	1.023031e+03
1.800000e-06	7.811665e-06	1.548675e-08	5.474126e+01	1.021115e+03
1.810000e-06	7.768469e-06	1.552551e-08	5.443855e+01	1.019076e+03
1.820000e-06	7.722608e-06	1.554600e-08	5.411718e+01	1.016899e+03
1.830000e-06	7.674091e-06	1.546783e-08	5.377718e+01	1.014569e+03
1.840000e-06	7.622481e-06	1.548935e-08	5.341553e+01	1.012075e+03
1.850000e-06	7.567859e-06	1.541521e-08	5.303275e+01	1.009403e+03
1.860000e-06	7.510531e-06	1.540508e-08	5.263102e+01	1.006542e+03
1.870000e-06	7.450503e-06	1.532636e-08	5.221037e+01	1.003483e+03
1.880000e-06	7.387687e-06	1.523248e-08	5.177018e+01	1.000218e+03
1.890000e-06	7.321866e-06	1.524868e-08	5.130893e+01	9.967386e+02
1.900000e-06	7.253217e-06	1.517906e-08	5.082786e+01	9.930418e+02
1.910000e-06	7.181809e-06	1.513901e-08	5.032746e+01	9.891249e+02
1.920000e-06	7.107642e-06	1.501924e-08	4.980772e+01	9.849876e+02
1.930000e-06	7.030682e-06	1.495095e-08	4.926842e+01	9.806322e+02
1.940000e-06	6.950879e-06	1.492654e-08	4.870918e+01	9.760628e+02
1.950000e-06	6.868545e-06	1.485898e-08	4.813222e+01	9.712849e+02
1.960000e-06	6.783751e-06	1.479568e-08	4.753801e+01	9.663047e+02
1.970000e-06	6.696447e-06	1.464270e-08	4.692622e+01	9.611281e+02
1.980000e-06	6.606671e-06	1.457414e-08	4.629710e+01	9.557593e+02
1.990000e-06	6.514534e-06	1.452388e-08	4.565144e+01	9.502005e+02
2.000000e-06	6.420158e-06	1.445887e-08	4.499009e+01	9.444505e+02
2.010000e-06	6.323490e-06	1.433569e-08	4.431267e+01	9.385044e+02
2.020000e-06	6.224578e-06	1.420104e-08	4.361954e+01	9.323542e+02
2.030000e-06	6.123408e-06	1.413294e-08	4.291058e+01	9.259883e+02
2.040000e-06	6.020005e-06	1.405814e-08	4.218596e+01	9.193933e+02
2.050000e-06	5.914531e-06	1.395645e-08	4.144684e+01	9.125551e+02
2.060000e-06	5.807094e-06	1.379879e-08	4.069396e+01	9.054600e+02
2.070000e-06	5.697589e-06	1.368467e-08	3.992660e+01	8.980960e+02
2.080000e-06	5.585963e-06	1.359539e-08	3.914436e+01	8.904543e+02
2.090000e-06	5.472281e-06	1.349929e-08	3.834772e+01	8.825293e+02
2.100000e-06	5.356512e-06	1.335563e-08	3.753646e+01	8.743190e+02
2.110000e-06	5.238684e-06	1.320101e-08	3.671076e+01	8.658236e+02
2.120000e-06	5.118840e-06	1.306952e-08	3.587094e+01	8.570452e+02
2.130000e-06	4.997136e-06	1.295525e-08	3.501808e+01	8.479852e+02
2.140000e-06	4.873667e-06	1.282469e-08	3.415285e+01	8.386432e+02
2.150000e-06	4.748415e-06	1.265555e-08	3.327513e+01	8.290155e+02
2.160000e-06	4.621423e-06	1.248951e-08	3.238522e+01	8.190934e+02
2.170000e-06	4.492757e-06	1.233915e-08	3.148357e+01	8.088631e+02
2.180000e-06	4.362515e-06	1.219599e-08	3.057089e+01	7.983061e+02
2.190000e-06	4.230718e-06	1.202331e-08	2.964730e+01	7.874001e+02
2.200000e-06	4.097270e-06	1.184238e-08	2.871215e+01	7.761208e+02
2.210000e-06	3.962283e-06	1.166237e-08	2.776621e+01	7.644439e+02
2.220000e-06	3.825838e-06	1.148855e-08	2.681005e+01	7.523477e+02
2.230000e-06	3.687938e-06	1.129982e-08	2.584370e+01	7.398149e+02
2.240000e-06	3.548562e-06	1.109475e-08	2.486700e+01	7.268336e+02
2.250000e-06	3.407703e-06	1.088529e-08	2.387992e+01	7.133981e+02
2.260000e-06	3.265537e-06	1.067966e-08	2.288367e+01	6.995083e+02
2.270000e-06	3.122177e-06	1.046906e-08	2.187906e+01	6.851678e+02
2.280000e-06	2.977666e-06	1.023910e-08	2.086638e+01	6.703819e+02
2.290000e-06	2.832047e-06	1.000152e-08	1.984594e+01	6.551544e+02
2.300000e-06	2.685482e-06	9.765152e-09	1.881886e+01	6.394849e+02
2.310000e-06	2.538059e-06	9.527424e-09	1.778578e+01	6.233666e+02
2.320000e-06	2.389692e-06	9.270806e-09	1.674608e+01	6.067841e+02
2.330000e-06	2.240378e-06	9.000430e-09	1.569974e+01	5.897140e+02
2.340000e-06	2.090263e-06	8.728977e-09	1.464779e+01	5.721252e+02
2.350000e-06	1.939509e-06	8.458647e-09	1.359136e+01	5.539816e+02
2.360000e-06	1.788213e-06	8.177416e-09	1.253113e+01	5.352451e+02
2.370000e-06	1.636384e-06	7.874304e-09	1.146717e+01	5.158798e+02
2.380000e-06	1.484040e-06	7.559186e-09	1.039960e+01	4.958555e+02
2.390000e-06	1.331209e-06	7.248298e-09	9.328618e+00	4.751511e+02
2.400000e-06	1.177866e-06	6.938837e-09	8.254047e+00	4.537559e+02
2.410000e-06	1.024064e-06	6.609526e-09	7.176259e+00	4.316703e+02
2.420000e-06	8.698640e-07	6.251595e-09	6.095685e+00	4.089037e+02
2.430000e-06	7.153637e-07	5.885858e-09	5.013004e+00	3.854707e+02
2.440000e-06	5.606994e-07	5.528851e-09	3.929173e+00	3.613865e+02
2.450000e-06	4.058730e-07	5.167266e-09	2.844208e+00	3.366608e+02
2.460000e-06	2.508755e-07	4.776580e-09	1.758042e+00	3.112921e+02
2.470000e-06	9.580139e-08	4.360427e-09	6.713407e-01	2.852629e+02
2.480000e-06	-5.928609e-08	3.946111e-09	-4.154549e-01	2.585367e+02
2.490000e-06	-2.144132e-07	3.540452e-09	-1.502528e+00	2.310580e+02
2.500000e-06	-3.695242e-07	3.119252e-09	-2.589489e+00	2.027547e+02
2.510000e-06	-5.245342e-07	2.663232e-09	-3.675741e+00	1.735443e+02
2.520000e-06	-6.794327e-07	2.186115e-09	-4.761213e+00	1.433424e+02
2.530000e-06	-8.341672e-07	1.712739e-09	-5.845534e+00	1.120736e+02
2.540000e-06	-9.886281e-07	1.239543e-09	-6.927940e+00	7.968300e+01
2.550000e-06	-1.142758e-06	7.398196e-10	-8.008023e+00	4.614838e+01
2.560000e-06	-1.296437e-06	2.006142e-10	-9.084950e+00	1.148970e+01
2.570000e-06	-1.449570e-06	-3.565494e-10	-1.015805e+01	-2.422341e+01
2.580000e-06	-1.602085e-06	-9.063308e-10	-1.122682e+01	-6.086823e+01
2.590000e-06	-1.753966e-06	-1.459563e-09	-1.229114e+01	-9.826984e+01
2.600000e-06	-1.905340e-06	-2.041196e-09	-1.335192e+01	-1.362066e+02
2.610000e-06	-2.056086e-06	-2.646164e-09	-1.440829e+01	-1.744196e+02
2.620000e-06	-2.206022e-06	-3.242346e-09	-1.545898e+01	-2.126262e+02
2.630000e-06	-2.355106e-06	-3.813211e-09	-1.650371e+01	-2.505346e+02
2.640000e-06	-2.503280e-06	-4.373870e-09	-1.754206e+01	-2.878604e+02
2.650000e-06	-2.650498e-06	-4.941077e-09	-1.857371e+01	-3.243417e+02
2.660000e-06	-2.796731e-06	-5.500615e-09	-1.959845e+01	-3.597523e+02
2.670000e-06	-2.941879e-06	-6.023262e-09	-2.061560e+01	-3.939116e+02
2.680000e-06	-3.085889e-06	-6.505072e-09	-2.162477e+01	-4.266905e+02
2.690000e-06	-3.228741e-06	-6.970488e-09	-2.262582e+01	-4.580130e+02
2.700000e-06	-3.370323e-06	-7.434488e-09	-2.361798e+01	-4.878530e+02
2.710000e-06	-3.510553e-06	-7.880775e-09	-2.460066e+01	-5.162284e+02
2.720000e-06	-3.649482e-06	-8.288957e-09	-2.557422e+01	-5.431913e+02
2.730000e-06	-3.787048e-06	-8.668202e-09	-2.653823e+01	-5.688182e+02
2.740000e-06	-3.923152e-06	-9.042413e-09	-2.749200e+01	-5.931984e+02
2.750000e-06	-4.057895e-06	-9.413709e-09	-2.843623e+01	-6.164242e+02
2.760000e-06	-4.191283e-06	-9.763678e-09	-2.937096e+01	-6.385830e+02
2.770000e-06	-4.323185e-06	-1.008062e-08	-3.029528e+01	-6.597508e+02
2.780000e-06	-4.453622e-06	-1.037738e-08	-3.120933e+01	-6.799899e+02
2.790000e-06	-4.582538e-06	-1.067274e-08	-3.211273e+01	-6.993484e+02
2.800000e-06	-4.709807e-06	-1.096590e-08	-3.300458e+01	-7.178613e+02
2.810000e-06	-4.835478e-06	-1.123903e-08	-3.388524e+01	-7.355550e+02
2.820000e-06	-4.959487e-06	-1.148718e-08	-3.475425e+01	-7.524503e+02
2.830000e-06	-5.081745e-06	-1.172661e-08	-3.561098e+01	-7.685673e+02
2.840000e-06	-5.202140e-06	-1.196802e-08	-3.645467e+01	-7.839283e+02
2.850000e-06	-5.320512e-06	-1.220474e-08	-3.728417e+01	-7.985601e+02
2.860000e-06	-5.436756e-06	-1.242007e-08	-3.809877e+01	-8.124949e+02
2.870000e-06	-5.550737e-06	-1.261391e-08	-3.889751e+01	-8.257693e+02
2.880000e-06	-5.662454e-06	-1.280165e-08	-3.968038e+01	-8.384228e+02
2.890000e-06	-5.772110e-06	-1.299144e-08	-4.044881e+01	-8.504950e+02
2.900000e-06	-5.879799e-06	-1.317611e-08	-4.120345e+01	-8.620232e+02
2.910000e-06	-5.985453e-06	-1.334359e-08	-4.194384e+01	-8.730395e+02
2.920000e-06	-6.088871e-06	-1.349757e-08	-4.266855e+01	-8.835694e+02
2.930000e-06	-6.189951e-06	-1.364930e-08	-4.337688e+01	-8.936312e+02
2.940000e-06	-6.288854e-06	-1.380145e-08	-4.406996e+01	-9.032367e+02
