# Temperatura_=_20.0
# Concentracion g/m^3_=_12600.0
# C_Vs_to_Am_M_A/Vsm_=_65563218390.804596
# pendiente_HvsI_1/m_=_3716.3
# ordenada_HvsI_A/m_=_1297.0
# frecuencia_Hz_=_302276.50784790015

Tiempo_(s)	Campo_(V.s)	Magnetizacion_(V.s)	Campo_(kA/m)	Magnetizacion_(A/m)
0.000000e+00	-8.102700e-06	-2.308573e-08	-5.694418e+01	-1.513508e+03
1.000000e-08	-8.099167e-06	-2.308459e-08	-5.691934e+01	-1.512945e+03
2.000000e-08	-8.093020e-06	-2.307649e-08	-5.687615e+01	-1.512187e+03
3.000000e-08	-8.084167e-06	-2.306388e-08	-5.681393e+01	-1.511254e+03
4.000000e-08	-8.072382e-06	-2.304598e-08	-5.673111e+01	-1.510169e+03
5.000000e-08	-8.057646e-06	-2.302745e-08	-5.662754e+01	-1.508945e+03
6.000000e-08	-8.040136e-06	-2.300784e-08	-5.650449e+01	-1.507592e+03
7.000000e-08	-8.020268e-06	-2.297861e-08	-5.636486e+01	-1.506111e+03
8.000000e-08	-7.997948e-06	-2.296678e-08	-5.620800e+01	-1.504498e+03
9.000000e-08	-7.972576e-06	-2.299888e-08	-5.602969e+01	-1.502742e+03
1.000000e-07	-7.943959e-06	-2.295498e-08	-5.582857e+01	-1.500832e+03
1.100000e-07	-7.912363e-06	-2.286646e-08	-5.560652e+01	-1.498757e+03
1.200000e-07	-7.877883e-06	-2.280773e-08	-5.536421e+01	-1.496508e+03
1.300000e-07	-7.840770e-06	-2.278377e-08	-5.510339e+01	-1.494079e+03
1.400000e-07	-7.801456e-06	-2.275552e-08	-5.482709e+01	-1.491470e+03
1.500000e-07	-7.759860e-06	-2.269759e-08	-5.453476e+01	-1.488685e+03
1.600000e-07	-7.715580e-06	-2.269095e-08	-5.422357e+01	-1.485729e+03
1.700000e-07	-7.668563e-06	-2.255408e-08	-5.389315e+01	-1.482607e+03
1.800000e-07	-7.618728e-06	-2.255760e-08	-5.354292e+01	-1.479320e+03
1.900000e-07	-7.565823e-06	-2.258514e-08	-5.317111e+01	-1.475864e+03
2.000000e-07	-7.510023e-06	-2.240533e-08	-5.277896e+01	-1.472229e+03
2.100000e-07	-7.451471e-06	-2.234198e-08	-5.236746e+01	-1.468397e+03
2.200000e-07	-7.390266e-06	-2.230708e-08	-5.193733e+01	-1.464344e+03
2.300000e-07	-7.326464e-06	-2.228440e-08	-5.148894e+01	-1.460045e+03
2.400000e-07	-7.259851e-06	-2.219345e-08	-5.102080e+01	-1.455470e+03
2.500000e-07	-7.190470e-06	-2.205888e-08	-5.053320e+01	-1.450598e+03
2.600000e-07	-7.118312e-06	-2.198487e-08	-5.002609e+01	-1.445409e+03
2.700000e-07	-7.043303e-06	-2.193516e-08	-4.949894e+01	-1.439898e+03
2.800000e-07	-6.965521e-06	-2.188919e-08	-4.895231e+01	-1.434064e+03
2.900000e-07	-6.884951e-06	-2.174278e-08	-4.838608e+01	-1.427922e+03
3.000000e-07	-6.801860e-06	-2.161564e-08	-4.780213e+01	-1.421491e+03
3.100000e-07	-6.716524e-06	-2.155115e-08	-4.720240e+01	-1.414794e+03
3.200000e-07	-6.628835e-06	-2.146951e-08	-4.658614e+01	-1.407856e+03
3.300000e-07	-6.538658e-06	-2.137142e-08	-4.595240e+01	-1.400695e+03
3.400000e-07	-6.446153e-06	-2.122355e-08	-4.530229e+01	-1.393322e+03
3.500000e-07	-6.351381e-06	-2.109863e-08	-4.463626e+01	-1.385734e+03
3.600000e-07	-6.254217e-06	-2.100115e-08	-4.395340e+01	-1.377918e+03
3.700000e-07	-6.154727e-06	-2.090804e-08	-4.325421e+01	-1.369850e+03
3.800000e-07	-6.053069e-06	-2.076540e-08	-4.253978e+01	-1.361494e+03
3.900000e-07	-5.949280e-06	-2.059088e-08	-4.181036e+01	-1.352812e+03
4.000000e-07	-5.843340e-06	-2.045617e-08	-4.106584e+01	-1.343767e+03
4.100000e-07	-5.735357e-06	-2.033720e-08	-4.030696e+01	-1.334326e+03
4.200000e-07	-5.625418e-06	-2.020210e-08	-3.953432e+01	-1.324468e+03
4.300000e-07	-5.513446e-06	-2.001759e-08	-3.874741e+01	-1.314180e+03
4.400000e-07	-5.399328e-06	-1.984050e-08	-3.794541e+01	-1.303466e+03
4.500000e-07	-5.283083e-06	-1.968784e-08	-3.712846e+01	-1.292338e+03
4.600000e-07	-5.164840e-06	-1.953741e-08	-3.629747e+01	-1.280816e+03
4.700000e-07	-5.044799e-06	-1.935622e-08	-3.545385e+01	-1.268919e+03
4.800000e-07	-4.923036e-06	-1.915350e-08	-3.459813e+01	-1.256666e+03
4.900000e-07	-4.799432e-06	-1.895623e-08	-3.372946e+01	-1.244063e+03
5.000000e-07	-4.674041e-06	-1.876765e-08	-3.284824e+01	-1.231103e+03
5.100000e-07	-4.546950e-06	-1.857758e-08	-3.195507e+01	-1.217766e+03
5.200000e-07	-4.418183e-06	-1.835731e-08	-3.105012e+01	-1.204013e+03
5.300000e-07	-4.287810e-06	-1.812270e-08	-3.013388e+01	-1.189795e+03
5.400000e-07	-4.155856e-06	-1.789366e-08	-2.920653e+01	-1.175058e+03
5.500000e-07	-4.022388e-06	-1.767277e-08	-2.826855e+01	-1.159743e+03
5.600000e-07	-3.887383e-06	-1.743372e-08	-2.731976e+01	-1.143802e+03
5.700000e-07	-3.750874e-06	-1.716914e-08	-2.636040e+01	-1.127198e+03
5.800000e-07	-3.612904e-06	-1.689819e-08	-2.539078e+01	-1.109907e+03
5.900000e-07	-3.473361e-06	-1.662974e-08	-2.441009e+01	-1.091925e+03
6.000000e-07	-3.332365e-06	-1.635800e-08	-2.341921e+01	-1.073264e+03
6.100000e-07	-3.190074e-06	-1.606518e-08	-2.241921e+01	-1.053945e+03
6.200000e-07	-3.046503e-06	-1.575649e-08	-2.141023e+01	-1.033992e+03
6.300000e-07	-2.901718e-06	-1.544410e-08	-2.039270e+01	-1.013424e+03
6.400000e-07	-2.755862e-06	-1.513140e-08	-1.936766e+01	-9.922491e+02
6.500000e-07	-2.609147e-06	-1.480267e-08	-1.833657e+01	-9.704521e+02
6.600000e-07	-2.461581e-06	-1.445274e-08	-1.729951e+01	-9.479953e+02
6.700000e-07	-2.313233e-06	-1.409271e-08	-1.625695e+01	-9.248159e+02
6.800000e-07	-2.164183e-06	-1.372466e-08	-1.520945e+01	-9.008298e+02
6.900000e-07	-2.014388e-06	-1.334224e-08	-1.415672e+01	-8.759379e+02
7.000000e-07	-1.863887e-06	-1.293699e-08	-1.309903e+01	-8.500362e+02
7.100000e-07	-1.712781e-06	-1.251986e-08	-1.203709e+01	-8.230258e+02
7.200000e-07	-1.561108e-06	-1.209219e-08	-1.097116e+01	-7.948234e+02
7.300000e-07	-1.408861e-06	-1.164955e-08	-9.901195e+00	-7.653689e+02
7.400000e-07	-1.256108e-06	-1.118581e-08	-8.827679e+00	-7.346293e+02
7.500000e-07	-1.102946e-06	-1.069931e-08	-7.751285e+00	-7.025977e+02
7.600000e-07	-9.494418e-07	-1.019710e-08	-6.672490e+00	-6.692876e+02
7.700000e-07	-7.956423e-07	-9.679724e-09	-5.591617e+00	-6.347217e+02
7.800000e-07	-6.415839e-07	-9.139703e-09	-4.508925e+00	-5.989180e+02
7.900000e-07	-4.872429e-07	-8.569175e-09	-3.424247e+00	-5.618750e+02
8.000000e-07	-3.326797e-07	-7.977687e-09	-2.338007e+00	-5.235567e+02
8.100000e-07	-1.779849e-07	-7.370092e-09	-1.250843e+00	-4.838825e+02
8.200000e-07	-2.323439e-08	-6.740134e-09	-1.632867e-01	-4.427227e+02
8.300000e-07	1.315086e-07	-6.075643e-09	9.242168e-01	-3.999008e+02
8.400000e-07	2.862706e-07	-5.378579e-09	2.011853e+00	-3.552053e+02
8.500000e-07	4.409978e-07	-4.661073e-09	3.099246e+00	-3.084084e+02
8.600000e-07	5.955628e-07	-3.920751e-09	4.185498e+00	-2.592919e+02
8.700000e-07	7.499509e-07	-3.143480e-09	5.270507e+00	-2.076771e+02
8.800000e-07	9.041414e-07	-2.319269e-09	6.354127e+00	-1.534550e+02
8.900000e-07	1.058060e-06	-1.458656e-09	7.435836e+00	-9.661472e+01
9.000000e-07	1.211585e-06	-5.686711e-10	8.514779e+00	-3.726510e+01
9.100000e-07	1.364596e-06	3.559930e-10	9.590112e+00	2.435255e+01
9.200000e-07	1.517174e-06	1.324546e-09	1.066240e+01	8.786303e+01
9.300000e-07	1.669290e-06	2.330839e-09	1.173144e+01	1.527679e+02
9.400000e-07	1.820768e-06	3.351529e-09	1.279600e+01	2.184681e+02
9.500000e-07	1.971517e-06	4.365076e-09	1.385543e+01	2.842955e+02
9.600000e-07	2.121518e-06	5.362769e-09	1.490961e+01	3.495530e+02
9.700000e-07	2.270676e-06	6.343448e-09	1.595786e+01	4.135562e+02
9.800000e-07	2.418943e-06	7.293508e-09	1.699985e+01	4.756748e+02
9.900000e-07	2.566374e-06	8.196833e-09	1.803597e+01	5.353694e+02
1.000000e-06	2.712894e-06	9.043987e-09	1.906569e+01	5.922195e+02
1.010000e-06	2.858339e-06	9.843731e-09	2.008784e+01	6.459402e+02
1.020000e-06	3.002678e-06	1.060404e-08	2.110223e+01	6.963877e+02
1.030000e-06	3.145902e-06	1.132158e-08	2.210878e+01	7.435522e+02
1.040000e-06	3.287926e-06	1.198883e-08	2.310690e+01	7.875402e+02
1.050000e-06	3.428680e-06	1.260713e-08	2.409609e+01	8.285492e+02
1.060000e-06	3.568052e-06	1.319175e-08	2.507557e+01	8.668372e+02
1.070000e-06	3.705972e-06	1.375122e-08	2.604484e+01	9.026911e+02
1.080000e-06	3.842471e-06	1.428049e-08	2.700412e+01	9.363973e+02
1.090000e-06	3.977621e-06	1.476929e-08	2.795393e+01	9.682176e+02
1.100000e-06	4.111394e-06	1.522385e-08	2.889407e+01	9.983721e+02
1.110000e-06	4.243747e-06	1.565777e-08	2.982422e+01	1.027030e+03
1.120000e-06	4.374610e-06	1.607643e-08	3.074390e+01	1.054310e+03
1.130000e-06	4.503890e-06	1.647086e-08	3.165245e+01	1.080284e+03
1.140000e-06	4.631578e-06	1.683568e-08	3.254981e+01	1.104992e+03
1.150000e-06	4.757684e-06	1.718119e-08	3.343606e+01	1.128453e+03
1.160000e-06	4.882195e-06	1.751813e-08	3.431110e+01	1.150682e+03
1.170000e-06	5.005035e-06	1.784221e-08	3.517440e+01	1.171699e+03
1.180000e-06	5.126055e-06	1.814465e-08	3.602490e+01	1.191543e+03
1.190000e-06	5.245208e-06	1.842670e-08	3.686229e+01	1.210272e+03
1.200000e-06	5.362490e-06	1.869549e-08	3.768652e+01	1.227964e+03
1.210000e-06	5.477728e-06	1.895701e-08	3.849639e+01	1.244710e+03
1.220000e-06	5.590776e-06	1.920753e-08	3.929087e+01	1.260613e+03
1.230000e-06	5.701712e-06	1.944053e-08	4.007051e+01	1.275769e+03
1.240000e-06	5.810639e-06	1.965772e-08	4.083603e+01	1.290267e+03
1.250000e-06	5.917496e-06	1.986783e-08	4.158699e+01	1.304175e+03
1.260000e-06	6.022117e-06	2.007482e-08	4.232225e+01	1.317539e+03
1.270000e-06	6.124525e-06	2.027105e-08	4.304195e+01	1.330383e+03
1.280000e-06	6.224739e-06	2.045327e-08	4.374624e+01	1.342708e+03
1.290000e-06	6.322589e-06	2.062760e-08	4.443391e+01	1.354499e+03
1.300000e-06	6.418009e-06	2.079765e-08	4.510450e+01	1.365733e+03
1.310000e-06	6.511147e-06	2.096171e-08	4.575905e+01	1.376388e+03
1.320000e-06	6.602045e-06	2.111694e-08	4.639787e+01	1.386449e+03
1.330000e-06	6.690550e-06	2.126071e-08	4.701987e+01	1.395914e+03
1.340000e-06	6.776692e-06	2.139555e-08	4.762526e+01	1.404796e+03
1.350000e-06	6.860481e-06	2.152642e-08	4.821411e+01	1.413125e+03
1.360000e-06	6.941799e-06	2.165311e-08	4.878559e+01	1.420947e+03
1.370000e-06	7.020635e-06	2.177176e-08	4.933964e+01	1.428315e+03
1.380000e-06	7.096902e-06	2.187999e-08	4.987563e+01	1.435284e+03
1.390000e-06	7.170414e-06	2.198097e-08	5.039226e+01	1.441907e+03
1.400000e-06	7.241277e-06	2.207844e-08	5.089026e+01	1.448226e+03
1.410000e-06	7.309667e-06	2.217228e-08	5.137089e+01	1.454271e+03
1.420000e-06	7.375457e-06	2.225875e-08	5.183325e+01	1.460054e+03
1.430000e-06	7.438603e-06	2.233728e-08	5.227703e+01	1.465574e+03
1.440000e-06	7.499246e-06	2.241232e-08	5.270322e+01	1.470816e+03
1.450000e-06	7.557352e-06	2.248692e-08	5.311158e+01	1.475760e+03
1.460000e-06	7.612757e-06	2.255825e-08	5.350095e+01	1.480382e+03
1.470000e-06	7.665251e-06	2.262259e-08	5.386987e+01	1.484661e+03
1.480000e-06	7.714623e-06	2.268086e-08	5.421685e+01	1.488586e+03
1.490000e-06	7.761045e-06	2.273657e-08	5.454309e+01	1.492154e+03
1.500000e-06	7.804726e-06	2.279000e-08	5.485008e+01	1.495375e+03
1.510000e-06	7.845557e-06	2.283768e-08	5.513703e+01	1.498271e+03
1.520000e-06	7.883571e-06	2.287829e-08	5.540418e+01	1.500868e+03
1.530000e-06	7.918855e-06	2.291418e-08	5.565215e+01	1.503200e+03
1.540000e-06	7.951318e-06	2.294784e-08	5.588029e+01	1.505298e+03
1.550000e-06	7.981011e-06	2.297785e-08	5.608897e+01	1.507188e+03
1.560000e-06	8.007907e-06	2.300322e-08	5.627799e+01	1.508889e+03
1.570000e-06	8.031790e-06	2.302438e-08	5.644584e+01	1.510410e+03
1.580000e-06	8.052804e-06	2.304193e-08	5.659352e+01	1.511748e+03
1.590000e-06	8.071020e-06	2.305885e-08	5.672153e+01	1.512895e+03
1.600000e-06	8.086223e-06	2.307394e-08	5.682838e+01	1.513835e+03
1.610000e-06	8.098308e-06	2.308440e-08	5.691331e+01	1.514554e+03
1.620000e-06	8.107207e-06	2.309128e-08	5.697585e+01	1.515036e+03
1.630000e-06	8.113149e-06	2.309688e-08	5.701761e+01	1.515274e+03
1.640000e-06	8.116288e-06	2.310029e-08	5.703967e+01	1.515265e+03
1.650000e-06	8.116548e-06	2.309952e-08	5.704150e+01	1.515017e+03
1.660000e-06	8.114098e-06	2.308690e-08	5.702428e+01	1.514545e+03
1.670000e-06	8.108961e-06	2.307580e-08	5.698817e+01	1.513867e+03
1.680000e-06	8.101108e-06	2.306726e-08	5.693299e+01	1.513006e+03
1.690000e-06	8.090604e-06	2.305593e-08	5.685917e+01	1.511984e+03
1.700000e-06	8.077245e-06	2.304284e-08	5.676528e+01	1.510817e+03
1.710000e-06	8.061073e-06	2.302881e-08	5.665163e+01	1.509519e+03
1.720000e-06	8.042456e-06	2.301848e-08	5.652080e+01	1.508093e+03
1.730000e-06	8.021440e-06	2.295999e-08	5.637309e+01	1.506537e+03
1.740000e-06	7.997419e-06	2.286695e-08	5.620428e+01	1.504843e+03
1.750000e-06	7.969683e-06	2.286660e-08	5.600936e+01	1.503001e+03
1.760000e-06	7.938321e-06	2.287598e-08	5.578896e+01	1.500997e+03
1.770000e-06	7.904190e-06	2.285253e-08	5.554909e+01	1.498823e+03
1.780000e-06	7.867841e-06	2.282589e-08	5.529364e+01	1.496471e+03
1.790000e-06	7.829212e-06	2.280508e-08	5.502216e+01	1.493939e+03
1.800000e-06	7.788446e-06	2.266532e-08	5.473566e+01	1.491229e+03
1.810000e-06	7.745337e-06	2.268922e-08	5.443270e+01	1.488345e+03
1.820000e-06	7.699537e-06	2.271219e-08	5.411083e+01	1.485293e+03
1.830000e-06	7.651067e-06	2.256404e-08	5.377019e+01	1.482076e+03
1.840000e-06	7.599537e-06	2.260764e-08	5.340805e+01	1.478693e+03
1.850000e-06	7.544969e-06	2.250954e-08	5.302455e+01	1.475137e+03
1.860000e-06	7.487666e-06	2.249691e-08	5.262184e+01	1.471391e+03
1.870000e-06	7.427681e-06	2.243698e-08	5.220028e+01	1.467436e+03
1.880000e-06	7.365018e-06	2.228930e-08	5.175989e+01	1.463245e+03
1.890000e-06	7.299426e-06	2.228965e-08	5.129892e+01	1.458792e+03
1.900000e-06	7.230973e-06	2.217455e-08	5.081785e+01	1.454049e+03
1.910000e-06	7.159661e-06	2.216449e-08	5.031668e+01	1.448997e+03
1.920000e-06	7.085579e-06	2.204668e-08	4.979605e+01	1.443624e+03
1.930000e-06	7.008801e-06	2.191148e-08	4.925647e+01	1.437928e+03
1.940000e-06	6.929210e-06	2.186115e-08	4.869712e+01	1.431916e+03
1.950000e-06	6.847091e-06	2.175861e-08	4.812000e+01	1.425605e+03
1.960000e-06	6.762432e-06	2.172447e-08	4.752504e+01	1.419019e+03
1.970000e-06	6.675171e-06	2.155097e-08	4.691179e+01	1.412181e+03
1.980000e-06	6.585520e-06	2.143014e-08	4.628174e+01	1.405113e+03
1.990000e-06	6.493618e-06	2.133733e-08	4.563586e+01	1.397830e+03
2.000000e-06	6.399477e-06	2.125624e-08	4.497426e+01	1.390335e+03
2.010000e-06	6.303036e-06	2.114390e-08	4.429649e+01	1.382619e+03
2.020000e-06	6.204338e-06	2.096064e-08	4.360287e+01	1.374662e+03
2.030000e-06	6.103471e-06	2.084029e-08	4.289399e+01	1.366434e+03
2.040000e-06	6.000405e-06	2.072014e-08	4.216966e+01	1.357896e+03
2.050000e-06	5.895194e-06	2.062029e-08	4.143026e+01	1.349011e+03
2.060000e-06	5.787993e-06	2.044773e-08	4.067687e+01	1.339743e+03
2.070000e-06	5.678820e-06	2.027687e-08	3.990963e+01	1.330065e+03
2.080000e-06	5.567561e-06	2.012207e-08	3.912772e+01	1.319961e+03
2.090000e-06	5.454172e-06	1.999108e-08	3.833085e+01	1.309429e+03
2.100000e-06	5.338710e-06	1.984193e-08	3.751940e+01	1.298476e+03
2.110000e-06	5.221224e-06	1.965086e-08	3.669373e+01	1.287120e+03
2.120000e-06	5.101713e-06	1.945363e-08	3.585383e+01	1.275381e+03
2.130000e-06	4.980308e-06	1.927311e-08	3.500062e+01	1.263278e+03
2.140000e-06	4.857086e-06	1.911716e-08	3.413464e+01	1.250825e+03
2.150000e-06	4.732146e-06	1.892270e-08	3.325659e+01	1.238020e+03
2.160000e-06	4.605524e-06	1.870197e-08	3.236671e+01	1.224848e+03
2.170000e-06	4.477137e-06	1.847228e-08	3.146443e+01	1.211278e+03
2.180000e-06	4.347157e-06	1.827070e-08	3.055096e+01	1.197265e+03
2.190000e-06	4.215679e-06	1.806062e-08	2.962696e+01	1.182757e+03
2.200000e-06	4.082641e-06	1.783128e-08	2.869200e+01	1.167696e+03
2.210000e-06	3.948084e-06	1.757480e-08	2.774636e+01	1.152029e+03
2.220000e-06	3.811977e-06	1.731796e-08	2.678982e+01	1.135712e+03
2.230000e-06	3.674346e-06	1.707018e-08	2.582258e+01	1.118717e+03
2.240000e-06	3.535388e-06	1.681361e-08	2.484601e+01	1.101030e+03
2.250000e-06	3.395098e-06	1.653432e-08	2.386008e+01	1.082658e+03
2.260000e-06	3.253450e-06	1.623458e-08	2.286460e+01	1.063618e+03
2.270000e-06	3.110490e-06	1.593602e-08	2.185991e+01	1.043933e+03
2.280000e-06	2.966274e-06	1.563585e-08	2.084639e+01	1.023627e+03
2.290000e-06	2.820947e-06	1.532752e-08	1.982506e+01	1.002712e+03
2.300000e-06	2.674695e-06	1.499569e-08	1.879723e+01	9.811844e+02
2.310000e-06	2.527583e-06	1.464927e-08	1.776336e+01	9.590163e+02
2.320000e-06	2.379608e-06	1.429229e-08	1.672342e+01	9.361555e+02
2.330000e-06	2.230831e-06	1.393117e-08	1.567784e+01	9.125263e+02
2.340000e-06	2.081298e-06	1.355856e-08	1.462695e+01	8.880350e+02
2.350000e-06	1.931126e-06	1.316584e-08	1.357157e+01	8.625784e+02
2.360000e-06	1.780366e-06	1.275467e-08	1.251206e+01	8.360541e+02
2.370000e-06	1.628959e-06	1.232796e-08	1.144801e+01	8.083711e+02
2.380000e-06	1.476958e-06	1.188952e-08	1.037977e+01	7.794586e+02
2.390000e-06	1.324392e-06	1.143734e-08	9.307568e+00	7.492717e+02
2.400000e-06	1.171373e-06	1.096888e-08	8.232182e+00	7.177928e+02
2.410000e-06	1.017994e-06	1.047634e-08	7.154263e+00	6.850278e+02
2.420000e-06	8.642454e-07	9.956984e-09	6.073746e+00	6.509969e+02
2.430000e-06	7.101983e-07	9.420043e-09	4.991133e+00	6.157221e+02
2.440000e-06	5.559542e-07	8.869835e-09	3.907137e+00	5.792121e+02
2.450000e-06	4.015624e-07	8.296873e-09	2.822101e+00	5.414471e+02
2.460000e-06	2.469864e-07	7.689334e-09	1.735772e+00	5.023667e+02
2.470000e-06	9.226495e-08	7.053166e-09	6.484199e-01	4.618623e+02
2.480000e-06	-6.253739e-08	6.402780e-09	-4.395004e-01	4.197766e+02
2.490000e-06	-2.173657e-07	5.737000e-09	-1.527603e+00	3.759112e+02
2.500000e-06	-3.721208e-07	5.036985e-09	-2.615192e+00	3.300425e+02
2.510000e-06	-5.267607e-07	4.294184e-09	-3.701970e+00	2.819448e+02
2.520000e-06	-6.812533e-07	3.517752e-09	-4.787714e+00	2.314184e+02
2.530000e-06	-8.355178e-07	2.720267e-09	-5.871854e+00	1.783211e+02
2.540000e-06	-9.895038e-07	1.895966e-09	-6.954037e+00	1.225966e+02
2.550000e-06	-1.143103e-06	1.024657e-09	-8.033504e+00	6.430044e+01
2.560000e-06	-1.296264e-06	1.002054e-10	-9.109884e+00	3.616234e+00
2.570000e-06	-1.449009e-06	-8.613609e-10	-1.018335e+01	-5.913758e+01
2.580000e-06	-1.601198e-06	-1.841112e-09	-1.125291e+01	-1.235133e+02
2.590000e-06	-1.752722e-06	-2.839968e-09	-1.231779e+01	-1.889516e+02
2.600000e-06	-1.903639e-06	-3.862926e-09	-1.337840e+01	-2.548094e+02
2.610000e-06	-2.053887e-06	-4.892656e-09	-1.443431e+01	-3.203970e+02
2.620000e-06	-2.203271e-06	-5.896321e-09	-1.548415e+01	-3.850193e+02
2.630000e-06	-2.351811e-06	-6.854023e-09	-1.652806e+01	-4.480179e+02
2.640000e-06	-2.499516e-06	-7.769637e-09	-1.756611e+01	-5.088107e+02
2.650000e-06	-2.646282e-06	-8.654344e-09	-1.859755e+01	-5.669233e+02
2.660000e-06	-2.792100e-06	-9.498520e-09	-1.962233e+01	-6.220113e+02
2.670000e-06	-2.936918e-06	-1.028190e-08	-2.064008e+01	-6.738706e+02
2.680000e-06	-3.080588e-06	-1.100428e-08	-2.164976e+01	-7.224356e+02
2.690000e-06	-3.222977e-06	-1.168541e-08	-2.265045e+01	-7.677658e+02
2.700000e-06	-3.364037e-06	-1.233967e-08	-2.364179e+01	-8.100230e+02
2.710000e-06	-3.503836e-06	-1.295979e-08	-2.462427e+01	-8.494433e+02
2.720000e-06	-3.642346e-06	-1.353073e-08	-2.559769e+01	-8.863049e+02
2.730000e-06	-3.779464e-06	-1.405727e-08	-2.656133e+01	-9.208979e+02
2.740000e-06	-3.915205e-06	-1.455972e-08	-2.751529e+01	-9.534972e+02
2.750000e-06	-4.049536e-06	-1.504554e-08	-2.845934e+01	-9.843421e+02
2.760000e-06	-4.182411e-06	-1.550314e-08	-2.939316e+01	-1.013624e+03
2.770000e-06	-4.313844e-06	-1.592233e-08	-3.031685e+01	-1.041484e+03
2.780000e-06	-4.443824e-06	-1.631376e-08	-3.123032e+01	-1.068011e+03
2.790000e-06	-4.572306e-06	-1.669498e-08	-3.213326e+01	-1.093259e+03
2.800000e-06	-4.699207e-06	-1.706593e-08	-3.302510e+01	-1.117253e+03
2.810000e-06	-4.824469e-06	-1.741228e-08	-3.390542e+01	-1.140008e+03
2.820000e-06	-4.948018e-06	-1.772886e-08	-3.477369e+01	-1.161542e+03
2.830000e-06	-5.069847e-06	-1.802937e-08	-3.562989e+01	-1.181883e+03
2.840000e-06	-5.189883e-06	-1.832599e-08	-3.647348e+01	-1.201082e+03
2.850000e-06	-5.307883e-06	-1.861444e-08	-3.730276e+01	-1.219208e+03
2.860000e-06	-5.423733e-06	-1.888174e-08	-3.811692e+01	-1.236347e+03
2.870000e-06	-5.537353e-06	-1.912749e-08	-3.891542e+01	-1.252600e+03
2.880000e-06	-5.648766e-06	-1.936530e-08	-3.969841e+01	-1.268064e+03
2.890000e-06	-5.758091e-06	-1.960105e-08	-4.046673e+01	-1.282835e+03
2.900000e-06	-5.865399e-06	-1.982797e-08	-4.122087e+01	-1.296989e+03
2.910000e-06	-5.970715e-06	-2.003541e-08	-4.196101e+01	-1.310583e+03
2.920000e-06	-6.073810e-06	-2.022510e-08	-4.268554e+01	-1.323649e+03
2.930000e-06	-6.174541e-06	-2.040895e-08	-4.339345e+01	-1.336197e+03
2.940000e-06	-6.273076e-06	-2.059297e-08	-4.408594e+01	-1.348219e+03
