# Temperatura_=_20.0
# Concentracion g/m^3_=_12600.0
# C_Vs_to_Am_M_A/Vsm_=_65563218390.804596
# pendiente_HvsI_1/m_=_3716.3
# ordenada_HvsI_A/m_=_1297.0
# frecuencia_Hz_=_302278.0318738431

Tiempo_(s)	Campo_(V.s)	Magnetizacion_(V.s)	Campo_(kA/m)	Magnetizacion_(A/m)
0.000000e+00	-8.113141e-06	-1.582398e-08	-5.694446e+01	-1.036779e+03
1.000000e-08	-8.109629e-06	-1.582266e-08	-5.691981e+01	-1.036414e+03
2.000000e-08	-8.103475e-06	-1.581764e-08	-5.687662e+01	-1.035873e+03
3.000000e-08	-8.094550e-06	-1.580976e-08	-5.681398e+01	-1.035167e+03
4.000000e-08	-8.082739e-06	-1.579593e-08	-5.673108e+01	-1.034310e+03
5.000000e-08	-8.067977e-06	-1.578116e-08	-5.662746e+01	-1.033315e+03
6.000000e-08	-8.050439e-06	-1.576568e-08	-5.650437e+01	-1.032196e+03
7.000000e-08	-8.030621e-06	-1.573897e-08	-5.636527e+01	-1.030967e+03
8.000000e-08	-8.008378e-06	-1.574095e-08	-5.620915e+01	-1.029636e+03
9.000000e-08	-7.983032e-06	-1.577788e-08	-5.603125e+01	-1.028212e+03
1.000000e-07	-7.954429e-06	-1.573118e-08	-5.583049e+01	-1.026696e+03
1.100000e-07	-7.922851e-06	-1.564989e-08	-5.560885e+01	-1.025087e+03
1.200000e-07	-7.888327e-06	-1.559818e-08	-5.536654e+01	-1.023383e+03
1.300000e-07	-7.851093e-06	-1.558999e-08	-5.510520e+01	-1.021577e+03
1.400000e-07	-7.811592e-06	-1.557375e-08	-5.482795e+01	-1.019660e+03
1.500000e-07	-7.769842e-06	-1.552886e-08	-5.453492e+01	-1.017624e+03
1.600000e-07	-7.725512e-06	-1.552935e-08	-5.422378e+01	-1.015458e+03
1.700000e-07	-7.678358e-06	-1.538728e-08	-5.389281e+01	-1.013151e+03
1.800000e-07	-7.628328e-06	-1.543485e-08	-5.354166e+01	-1.010694e+03
1.900000e-07	-7.575368e-06	-1.544954e-08	-5.316994e+01	-1.008076e+03
2.000000e-07	-7.519551e-06	-1.526768e-08	-5.277817e+01	-1.005287e+03
2.100000e-07	-7.460947e-06	-1.523983e-08	-5.236685e+01	-1.002315e+03
2.200000e-07	-7.399713e-06	-1.521771e-08	-5.193706e+01	-9.991514e+02
2.300000e-07	-7.335864e-06	-1.522958e-08	-5.148891e+01	-9.957862e+02
2.400000e-07	-7.269198e-06	-1.512226e-08	-5.102100e+01	-9.922116e+02
2.500000e-07	-7.199752e-06	-1.499853e-08	-5.053357e+01	-9.884218e+02
2.600000e-07	-7.127499e-06	-1.496449e-08	-5.002645e+01	-9.844133e+02
2.700000e-07	-7.052436e-06	-1.494864e-08	-4.949959e+01	-9.801854e+02
2.800000e-07	-6.974533e-06	-1.490074e-08	-4.895281e+01	-9.757406e+02
2.900000e-07	-6.893826e-06	-1.475929e-08	-4.838634e+01	-9.710838e+02
3.000000e-07	-6.810659e-06	-1.467694e-08	-4.780261e+01	-9.662221e+02
3.100000e-07	-6.725171e-06	-1.464039e-08	-4.720258e+01	-9.611631e+02
3.200000e-07	-6.637319e-06	-1.458369e-08	-4.658597e+01	-9.559143e+02
3.300000e-07	-6.547056e-06	-1.449640e-08	-4.595243e+01	-9.504811e+02
3.400000e-07	-6.454376e-06	-1.436723e-08	-4.530193e+01	-9.448661e+02
3.500000e-07	-6.359407e-06	-1.429067e-08	-4.463537e+01	-9.390675e+02
3.600000e-07	-6.262143e-06	-1.423615e-08	-4.395269e+01	-9.330795e+02
3.700000e-07	-6.162530e-06	-1.415289e-08	-4.325353e+01	-9.268916e+02
3.800000e-07	-6.060668e-06	-1.402146e-08	-4.253858e+01	-9.204898e+02
3.900000e-07	-5.956702e-06	-1.389826e-08	-4.180886e+01	-9.138581e+02
4.000000e-07	-5.850659e-06	-1.381999e-08	-4.106456e+01	-9.069795e+02
4.100000e-07	-5.742568e-06	-1.372645e-08	-4.030590e+01	-8.998381e+02
4.200000e-07	-5.632437e-06	-1.360093e-08	-3.953291e+01	-8.924207e+02
4.300000e-07	-5.520257e-06	-1.345658e-08	-3.874554e+01	-8.847178e+02
4.400000e-07	-5.405953e-06	-1.334425e-08	-3.794327e+01	-8.767239e+02
4.500000e-07	-5.289527e-06	-1.323999e-08	-3.712610e+01	-8.684378e+02
4.600000e-07	-5.171185e-06	-1.311162e-08	-3.629548e+01	-8.598612e+02
4.700000e-07	-5.051060e-06	-1.296306e-08	-3.545235e+01	-8.509972e+02
4.800000e-07	-4.929149e-06	-1.282196e-08	-3.459668e+01	-8.418489e+02
4.900000e-07	-4.805423e-06	-1.269060e-08	-3.372827e+01	-8.324165e+02
5.000000e-07	-4.679897e-06	-1.254522e-08	-3.284723e+01	-8.226966e+02
5.100000e-07	-4.552655e-06	-1.238590e-08	-3.195415e+01	-8.126804e+02
5.200000e-07	-4.423790e-06	-1.221939e-08	-3.104967e+01	-8.023535e+02
5.300000e-07	-4.293253e-06	-1.205995e-08	-3.013346e+01	-7.916963e+02
5.400000e-07	-4.161132e-06	-1.189788e-08	-2.920613e+01	-7.806857e+02
5.500000e-07	-4.027464e-06	-1.172144e-08	-2.826794e+01	-7.692967e+02
5.600000e-07	-3.892190e-06	-1.153381e-08	-2.731848e+01	-7.575048e+02
5.700000e-07	-3.755486e-06	-1.134450e-08	-2.635898e+01	-7.452885e+02
5.800000e-07	-3.617370e-06	-1.115588e-08	-2.538957e+01	-7.326311e+02
5.900000e-07	-3.477645e-06	-1.095448e-08	-2.440887e+01	-7.195218e+02
6.000000e-07	-3.336447e-06	-1.074473e-08	-2.341783e+01	-7.059558e+02
6.100000e-07	-3.193992e-06	-1.052987e-08	-2.241797e+01	-6.919338e+02
6.200000e-07	-3.050294e-06	-1.031068e-08	-2.140938e+01	-6.774593e+02
6.300000e-07	-2.905383e-06	-1.008565e-08	-2.039228e+01	-6.625368e+02
6.400000e-07	-2.759378e-06	-9.855130e-09	-1.936750e+01	-6.471682e+02
6.500000e-07	-2.612441e-06	-9.615813e-09	-1.833618e+01	-6.313506e+02
6.600000e-07	-2.464689e-06	-9.364930e-09	-1.729914e+01	-6.150734e+02
6.700000e-07	-2.316236e-06	-9.110325e-09	-1.625718e+01	-5.983181e+02
6.800000e-07	-2.167030e-06	-8.847910e-09	-1.520994e+01	-5.810578e+02
6.900000e-07	-2.016991e-06	-8.573539e-09	-1.415685e+01	-5.632588e+02
7.000000e-07	-1.866213e-06	-8.282988e-09	-1.309857e+01	-5.448841e+02
7.100000e-07	-1.714894e-06	-7.987490e-09	-1.203649e+01	-5.258961e+02
7.200000e-07	-1.563107e-06	-7.690739e-09	-1.097112e+01	-5.062612e+02
7.300000e-07	-1.410874e-06	-7.388074e-09	-9.902635e+00	-4.859531e+02
7.400000e-07	-1.258184e-06	-7.069672e-09	-8.830935e+00	-4.649552e+02
7.500000e-07	-1.104960e-06	-6.730821e-09	-7.755489e+00	-4.432619e+02
7.600000e-07	-9.512703e-07	-6.387600e-09	-6.676769e+00	-4.208781e+02
7.700000e-07	-7.972192e-07	-6.046051e-09	-5.595517e+00	-3.978155e+02
7.800000e-07	-6.428099e-07	-5.695463e-09	-4.511750e+00	-3.740895e+02
7.900000e-07	-4.881420e-07	-5.317158e-09	-3.426168e+00	-3.497123e+02
8.000000e-07	-3.333290e-07	-4.921443e-09	-2.339568e+00	-3.246882e+02
8.100000e-07	-1.783736e-07	-4.527943e-09	-1.251967e+00	-2.990069e+02
8.200000e-07	-2.334120e-08	-4.136160e-09	-1.638271e-01	-2.726408e+02
8.300000e-07	1.317314e-07	-3.721828e-09	9.245957e-01	-2.455422e+02
8.400000e-07	2.867445e-07	-3.277006e-09	2.012601e+00	-2.176454e+02
8.500000e-07	4.416735e-07	-2.827309e-09	3.100015e+00	-1.888706e+02
8.600000e-07	5.964928e-07	-2.385129e-09	4.186660e+00	-1.591319e+02
8.700000e-07	7.511072e-07	-1.930846e-09	5.271866e+00	-1.283468e+02
8.800000e-07	9.054654e-07	-1.438118e-09	6.355274e+00	-9.644817e+01
8.900000e-07	1.059539e-06	-9.193667e-10	7.436688e+00	-6.339626e+01
9.000000e-07	1.213252e-06	-4.004267e-10	8.515567e+00	-2.918965e+01
9.100000e-07	1.366464e-06	1.175125e-10	9.590925e+00	6.125841e+00
9.200000e-07	1.519103e-06	6.617639e-10	1.066227e+01	4.245170e+01
9.300000e-07	1.671216e-06	1.242737e-09	1.172992e+01	7.963552e+01
9.400000e-07	1.822792e-06	1.833683e-09	1.279380e+01	1.174744e+02
9.500000e-07	1.973695e-06	2.410171e-09	1.385296e+01	1.557227e+02
9.600000e-07	2.123864e-06	2.980059e-09	1.490696e+01	1.941041e+02
9.700000e-07	2.273219e-06	3.565491e-09	1.595526e+01	2.323256e+02
9.800000e-07	2.421736e-06	4.156167e-09	1.699767e+01	2.700944e+02
9.900000e-07	2.569394e-06	4.723997e-09	1.803405e+01	3.071333e+02
1.000000e-06	2.716110e-06	5.256068e-09	1.906381e+01	3.431954e+02
1.010000e-06	2.861730e-06	5.771894e-09	2.008589e+01	3.780760e+02
1.020000e-06	3.006196e-06	6.287949e-09	2.109987e+01	4.116204e+02
1.030000e-06	3.149574e-06	6.786800e-09	2.210621e+01	4.437273e+02
1.040000e-06	3.291803e-06	7.247219e-09	2.310448e+01	4.743480e+02
1.050000e-06	3.432809e-06	7.672603e-09	2.409418e+01	5.034815e+02
1.060000e-06	3.572442e-06	8.087461e-09	2.507423e+01	5.311660e+02
1.070000e-06	3.710601e-06	8.497259e-09	2.604394e+01	5.574692e+02
1.080000e-06	3.847394e-06	8.888225e-09	2.700406e+01	5.824770e+02
1.090000e-06	3.982796e-06	9.249174e-09	2.795443e+01	6.062824e+02
1.100000e-06	4.116710e-06	9.590558e-09	2.889434e+01	6.289768e+02
1.110000e-06	4.249184e-06	9.926624e-09	2.982414e+01	6.506425e+02
1.120000e-06	4.380130e-06	1.025325e-08	3.074323e+01	6.713487e+02
1.130000e-06	4.509511e-06	1.055805e-08	3.165133e+01	6.911499e+02
1.140000e-06	4.637429e-06	1.083667e-08	3.254916e+01	7.100864e+02
1.150000e-06	4.763786e-06	1.110078e-08	3.343603e+01	7.281876e+02
1.160000e-06	4.888529e-06	1.136143e-08	3.431157e+01	7.454758e+02
1.170000e-06	5.011530e-06	1.161507e-08	3.517489e+01	7.619703e+02
1.180000e-06	5.132711e-06	1.185364e-08	3.602544e+01	7.776912e+02
1.190000e-06	5.252097e-06	1.207687e-08	3.686339e+01	7.926626e+02
1.200000e-06	5.369565e-06	1.228976e-08	3.768787e+01	8.069139e+02
1.210000e-06	5.484917e-06	1.249884e-08	3.849750e+01	8.204796e+02
1.220000e-06	5.598070e-06	1.270092e-08	3.929170e+01	8.333985e+02
1.230000e-06	5.709086e-06	1.289025e-08	4.007090e+01	8.457108e+02
1.240000e-06	5.818108e-06	1.306556e-08	4.083610e+01	8.574560e+02
1.250000e-06	5.925098e-06	1.323427e-08	4.158704e+01	8.686699e+02
1.260000e-06	6.029919e-06	1.340055e-08	4.232276e+01	8.793824e+02
1.270000e-06	6.132548e-06	1.356063e-08	4.304309e+01	8.896168e+02
1.280000e-06	6.232879e-06	1.371055e-08	4.374729e+01	8.993892e+02
1.290000e-06	6.330814e-06	1.385010e-08	4.443467e+01	9.087098e+02
1.300000e-06	6.426317e-06	1.398505e-08	4.510499e+01	9.175847e+02
1.310000e-06	6.519574e-06	1.411826e-08	4.575954e+01	9.260183e+02
1.320000e-06	6.610655e-06	1.424432e-08	4.639882e+01	9.340159e+02
1.330000e-06	6.699356e-06	1.435692e-08	4.702140e+01	9.415860e+02
1.340000e-06	6.785629e-06	1.445987e-08	4.762693e+01	9.487416e+02
1.350000e-06	6.869505e-06	1.456076e-08	4.821563e+01	9.555010e+02
1.360000e-06	6.950898e-06	1.465967e-08	4.878692e+01	9.618876e+02
1.370000e-06	7.029812e-06	1.475372e-08	4.934080e+01	9.679278e+02
1.380000e-06	7.106195e-06	1.484131e-08	4.987691e+01	9.736497e+02
1.390000e-06	7.179830e-06	1.492423e-08	5.039374e+01	9.790802e+02
1.400000e-06	7.250809e-06	1.500489e-08	5.089193e+01	9.842426e+02
1.410000e-06	7.319327e-06	1.508259e-08	5.137284e+01	9.891550e+02
1.420000e-06	7.385240e-06	1.515430e-08	5.183547e+01	9.938286e+02
1.430000e-06	7.448468e-06	1.521872e-08	5.227926e+01	9.982675e+02
1.440000e-06	7.509182e-06	1.527934e-08	5.270540e+01	1.002470e+03
1.450000e-06	7.567322e-06	1.533846e-08	5.311347e+01	1.006428e+03
1.460000e-06	7.622764e-06	1.539476e-08	5.350261e+01	1.010134e+03
1.470000e-06	7.675370e-06	1.544511e-08	5.387184e+01	1.013578e+03
1.480000e-06	7.724774e-06	1.549048e-08	5.421859e+01	1.016752e+03
1.490000e-06	7.771158e-06	1.553562e-08	5.454416e+01	1.019654e+03
1.500000e-06	7.814884e-06	1.557886e-08	5.485105e+01	1.022287e+03
1.510000e-06	7.855773e-06	1.561570e-08	5.513805e+01	1.024659e+03
1.520000e-06	7.893808e-06	1.564751e-08	5.540501e+01	1.026786e+03
1.530000e-06	7.929105e-06	1.567619e-08	5.565275e+01	1.028685e+03
1.540000e-06	7.961571e-06	1.570245e-08	5.588062e+01	1.030376e+03
1.550000e-06	7.991241e-06	1.572589e-08	5.608887e+01	1.031879e+03
1.560000e-06	8.018142e-06	1.574589e-08	5.627768e+01	1.033212e+03
1.570000e-06	8.042070e-06	1.576332e-08	5.644563e+01	1.034389e+03
1.580000e-06	8.063062e-06	1.577858e-08	5.659296e+01	1.035417e+03
1.590000e-06	8.081255e-06	1.579273e-08	5.672066e+01	1.036300e+03
1.600000e-06	8.096519e-06	1.580546e-08	5.682779e+01	1.037036e+03
1.610000e-06	8.108683e-06	1.581486e-08	5.691317e+01	1.037617e+03
1.620000e-06	8.117607e-06	1.582144e-08	5.697580e+01	1.038035e+03
1.630000e-06	8.123518e-06	1.582669e-08	5.701729e+01	1.038283e+03
1.640000e-06	8.126668e-06	1.582872e-08	5.703940e+01	1.038352e+03
1.650000e-06	8.126967e-06	1.582901e-08	5.704150e+01	1.038239e+03
1.660000e-06	8.124543e-06	1.581787e-08	5.702449e+01	1.037944e+03
1.670000e-06	8.119465e-06	1.580832e-08	5.698885e+01	1.037471e+03
1.680000e-06	8.111630e-06	1.579905e-08	5.693385e+01	1.036828e+03
1.690000e-06	8.101098e-06	1.578831e-08	5.685993e+01	1.036028e+03
1.700000e-06	8.087668e-06	1.577988e-08	5.676567e+01	1.035085e+03
1.710000e-06	8.071405e-06	1.577191e-08	5.665153e+01	1.034013e+03
1.720000e-06	8.052783e-06	1.576818e-08	5.652082e+01	1.032826e+03
1.730000e-06	8.031745e-06	1.570145e-08	5.637316e+01	1.031534e+03
1.740000e-06	8.007629e-06	1.562414e-08	5.620389e+01	1.030145e+03
1.750000e-06	7.979821e-06	1.564244e-08	5.600871e+01	1.028665e+03
1.760000e-06	7.948460e-06	1.565796e-08	5.578860e+01	1.027093e+03
1.770000e-06	7.914322e-06	1.564234e-08	5.554899e+01	1.025427e+03
1.780000e-06	7.877895e-06	1.562536e-08	5.529332e+01	1.023661e+03
1.790000e-06	7.839219e-06	1.560091e-08	5.502186e+01	1.021789e+03
1.800000e-06	7.798446e-06	1.544669e-08	5.473568e+01	1.019800e+03
1.810000e-06	7.755294e-06	1.551058e-08	5.443281e+01	1.017686e+03
1.820000e-06	7.709463e-06	1.551382e-08	5.411113e+01	1.015436e+03
1.830000e-06	7.660914e-06	1.539430e-08	5.377038e+01	1.013039e+03
1.840000e-06	7.609276e-06	1.547045e-08	5.340794e+01	1.010485e+03
1.850000e-06	7.554685e-06	1.534894e-08	5.302477e+01	1.007764e+03
1.860000e-06	7.497344e-06	1.536604e-08	5.262231e+01	1.004865e+03
1.870000e-06	7.437272e-06	1.528643e-08	5.220068e+01	1.001777e+03
1.880000e-06	7.374538e-06	1.518469e-08	5.176036e+01	9.984921e+02
1.890000e-06	7.308876e-06	1.522201e-08	5.129949e+01	9.950003e+02
1.900000e-06	7.240339e-06	1.510697e-08	5.081844e+01	9.912954e+02
1.910000e-06	7.169020e-06	1.511352e-08	5.031787e+01	9.873727e+02
1.920000e-06	7.094946e-06	1.499257e-08	4.979796e+01	9.832306e+02
1.930000e-06	7.018109e-06	1.491322e-08	4.925866e+01	9.788703e+02
1.940000e-06	6.938442e-06	1.488383e-08	4.869949e+01	9.742958e+02
1.950000e-06	6.856220e-06	1.479698e-08	4.812239e+01	9.695134e+02
1.960000e-06	6.771515e-06	1.477085e-08	4.752786e+01	9.645307e+02
1.970000e-06	6.684310e-06	1.460881e-08	4.691579e+01	9.593554e+02
1.980000e-06	6.594617e-06	1.454490e-08	4.628625e+01	9.539939e+02
1.990000e-06	6.502522e-06	1.447303e-08	4.563986e+01	9.484500e+02
2.000000e-06	6.408202e-06	1.441096e-08	4.497784e+01	9.427238e+02
2.010000e-06	6.311610e-06	1.430964e-08	4.429989e+01	9.368109e+02
2.020000e-06	6.212763e-06	1.417787e-08	4.360610e+01	9.307027e+02
2.030000e-06	6.111736e-06	1.410755e-08	4.289701e+01	9.243866e+02
2.040000e-06	6.008524e-06	1.401279e-08	4.217259e+01	9.178469e+02
2.050000e-06	5.903177e-06	1.392391e-08	4.143318e+01	9.110670e+02
2.060000e-06	5.795800e-06	1.377676e-08	4.067953e+01	9.040304e+02
2.070000e-06	5.686443e-06	1.366804e-08	3.991197e+01	8.967225e+02
2.080000e-06	5.575072e-06	1.356091e-08	3.913028e+01	8.891324e+02
2.090000e-06	5.461567e-06	1.345792e-08	3.833361e+01	8.812529e+02
2.100000e-06	5.345933e-06	1.332821e-08	3.752200e+01	8.730813e+02
2.110000e-06	5.228317e-06	1.318836e-08	3.669648e+01	8.646182e+02
2.120000e-06	5.108692e-06	1.305290e-08	3.585685e+01	8.558664e+02
2.130000e-06	4.987165e-06	1.292368e-08	3.500388e+01	8.468293e+02
2.140000e-06	4.863834e-06	1.279514e-08	3.413824e+01	8.375084e+02
2.150000e-06	4.738759e-06	1.263889e-08	3.326037e+01	8.279020e+02
2.160000e-06	4.611986e-06	1.248045e-08	3.237058e+01	8.180033e+02
2.170000e-06	4.483468e-06	1.231829e-08	3.146854e+01	8.078003e+02
2.180000e-06	4.353288e-06	1.216634e-08	3.055483e+01	7.972752e+02
2.190000e-06	4.221530e-06	1.199587e-08	2.963005e+01	7.864061e+02
2.200000e-06	4.088292e-06	1.182649e-08	2.869488e+01	7.751685e+02
2.210000e-06	3.953547e-06	1.164718e-08	2.774913e+01	7.635373e+02
2.220000e-06	3.817208e-06	1.146600e-08	2.679220e+01	7.514898e+02
2.230000e-06	3.679270e-06	1.127642e-08	2.582403e+01	7.390070e+02
2.240000e-06	3.539929e-06	1.107983e-08	2.484603e+01	7.260759e+02
2.250000e-06	3.399393e-06	1.087639e-08	2.385963e+01	7.126893e+02
2.260000e-06	3.257628e-06	1.066692e-08	2.286462e+01	6.988458e+02
2.270000e-06	3.114553e-06	1.045238e-08	2.186041e+01	6.845483e+02
2.280000e-06	2.970241e-06	1.022337e-08	2.084751e+01	6.698011e+02
2.290000e-06	2.824825e-06	9.990211e-09	1.982686e+01	6.546075e+02
2.300000e-06	2.678392e-06	9.753422e-09	1.879908e+01	6.389668e+02
2.310000e-06	2.530970e-06	9.513770e-09	1.776435e+01	6.228717e+02
2.320000e-06	2.382696e-06	9.257777e-09	1.672365e+01	6.063068e+02
2.330000e-06	2.233760e-06	8.991634e-09	1.567830e+01	5.892482e+02
2.340000e-06	2.084129e-06	8.722191e-09	1.462807e+01	5.716649e+02
2.350000e-06	1.933746e-06	8.449626e-09	1.357257e+01	5.535206e+02
2.360000e-06	1.782689e-06	8.168668e-09	1.251233e+01	5.347776e+02
2.370000e-06	1.631029e-06	7.868023e-09	1.144785e+01	5.154002e+02
2.380000e-06	1.478827e-06	7.551914e-09	1.037958e+01	4.953589e+02
2.390000e-06	1.326184e-06	7.234308e-09	9.308209e+00	4.746329e+02
2.400000e-06	1.173069e-06	6.920957e-09	8.233529e+00	4.532126e+02
2.410000e-06	1.019495e-06	6.595051e-09	7.155627e+00	4.310987e+02
2.420000e-06	8.655628e-07	6.240589e-09	6.075207e+00	4.083007e+02
2.430000e-06	7.113560e-07	5.872396e-09	4.992861e+00	3.848333e+02
2.440000e-06	5.568986e-07	5.511346e-09	3.908756e+00	3.607106e+02
2.450000e-06	4.021204e-07	5.151201e-09	2.822400e+00	3.359407e+02
2.460000e-06	2.471496e-07	4.765658e-09	1.734692e+00	3.105196e+02
2.470000e-06	9.214779e-08	4.348726e-09	6.467663e-01	2.844268e+02
2.480000e-06	-6.294948e-08	3.926001e-09	-4.418294e-01	2.576226e+02
2.490000e-06	-2.180889e-07	3.514813e-09	-1.530721e+00	2.300480e+02
2.500000e-06	-3.730847e-07	3.095650e-09	-2.618604e+00	2.016280e+02
2.510000e-06	-5.278888e-07	2.643318e-09	-3.705143e+00	1.722779e+02
2.520000e-06	-6.825567e-07	2.161090e-09	-4.790725e+00	1.419128e+02
2.530000e-06	-8.370464e-07	1.678662e-09	-5.875056e+00	1.104579e+02
2.540000e-06	-9.911942e-07	1.204259e-09	-6.956987e+00	7.786130e+01
2.550000e-06	-1.144952e-06	7.078453e-10	-8.036182e+00	4.410537e+01
2.560000e-06	-1.298284e-06	1.688933e-10	-9.112388e+00	9.216487e+00
2.570000e-06	-1.451166e-06	-3.947419e-10	-1.018544e+01	-2.672792e+01
2.580000e-06	-1.603574e-06	-9.539948e-10	-1.125515e+01	-6.359649e+01
2.590000e-06	-1.755390e-06	-1.513017e-09	-1.232072e+01	-1.012054e+02
2.600000e-06	-1.906552e-06	-2.095731e-09	-1.338169e+01	-1.393247e+02
2.610000e-06	-2.056912e-06	-2.701276e-09	-1.443704e+01	-1.776885e+02
2.620000e-06	-2.206379e-06	-3.302200e-09	-1.548612e+01	-2.160083e+02
2.630000e-06	-2.355090e-06	-3.876415e-09	-1.652989e+01	-2.539896e+02
2.640000e-06	-2.503023e-06	-4.433809e-09	-1.756820e+01	-2.913468e+02
2.650000e-06	-2.650031e-06	-4.995252e-09	-1.860002e+01	-3.278199e+02
2.660000e-06	-2.796026e-06	-5.553465e-09	-1.962473e+01	-3.631863e+02
2.670000e-06	-2.940950e-06	-6.079099e-09	-2.064192e+01	-3.972710e+02
2.680000e-06	-3.084748e-06	-6.561596e-09	-2.165121e+01	-4.299515e+02
2.690000e-06	-3.227249e-06	-7.024117e-09	-2.265140e+01	-4.611590e+02
2.700000e-06	-3.368455e-06	-7.485405e-09	-2.364249e+01	-4.908744e+02
2.710000e-06	-3.508420e-06	-7.930716e-09	-2.462487e+01	-5.191217e+02
2.720000e-06	-3.647030e-06	-8.338545e-09	-2.559775e+01	-5.459584e+02
2.730000e-06	-3.784357e-06	-8.716055e-09	-2.656162e+01	-5.714644e+02
2.740000e-06	-3.920346e-06	-9.086013e-09	-2.751610e+01	-5.957313e+02
2.750000e-06	-4.054839e-06	-9.453757e-09	-2.846008e+01	-6.188519e+02
2.760000e-06	-4.187956e-06	-9.802190e-09	-2.939440e+01	-6.409130e+02
2.770000e-06	-4.319636e-06	-1.012001e-08	-3.031863e+01	-6.619891e+02
2.780000e-06	-4.449816e-06	-1.041685e-08	-3.123234e+01	-6.821405e+02
2.790000e-06	-4.578517e-06	-1.070935e-08	-3.213567e+01	-7.014129e+02
2.800000e-06	-4.705552e-06	-1.099953e-08	-3.302730e+01	-7.198397e+02
2.810000e-06	-4.830940e-06	-1.127364e-08	-3.390737e+01	-7.374452e+02
2.820000e-06	-4.954709e-06	-1.152277e-08	-3.477608e+01	-7.542494e+02
2.830000e-06	-5.076768e-06	-1.175839e-08	-3.563279e+01	-7.702719e+02
2.840000e-06	-5.196930e-06	-1.199443e-08	-3.647618e+01	-7.855348e+02
2.850000e-06	-5.315045e-06	-1.222712e-08	-3.730521e+01	-8.000654e+02
2.860000e-06	-5.431084e-06	-1.244352e-08	-3.811966e+01	-8.138963e+02
2.870000e-06	-5.544873e-06	-1.263925e-08	-3.891832e+01	-8.270648e+02
2.880000e-06	-5.656402e-06	-1.282586e-08	-3.970112e+01	-8.396109e+02
2.890000e-06	-5.765882e-06	-1.301314e-08	-4.046954e+01	-8.515746e+02
2.900000e-06	-5.873414e-06	-1.319542e-08	-4.122428e+01	-8.629935e+02
2.910000e-06	-5.978909e-06	-1.336187e-08	-4.196472e+01	-8.739001e+02
2.920000e-06	-6.082145e-06	-1.351421e-08	-4.268932e+01	-8.843203e+02
2.930000e-06	-6.183051e-06	-1.366141e-08	-4.339756e+01	-8.942730e+02
2.940000e-06	-6.281757e-06	-1.380969e-08	-4.409035e+01	-9.037704e+02
