# Temperatura_=_20.0
# Concentracion g/m^3_=_12600.0
# C_Vs_to_Am_M_A/Vsm_=_65563218390.804596
# pendiente_HvsI_1/m_=_3716.3
# ordenada_HvsI_A/m_=_1297.0
# frecuencia_Hz_=_302279.8932234572

Tiempo_(s)	Campo_(V.s)	Magnetizacion_(V.s)	Campo_(kA/m)	Magnetizacion_(A/m)
0.000000e+00	-8.142412e-06	-1.591683e-08	-5.694155e+01	-1.042611e+03
1.000000e-08	-8.138856e-06	-1.591487e-08	-5.691668e+01	-1.042246e+03
2.000000e-08	-8.132704e-06	-1.590779e-08	-5.687366e+01	-1.041703e+03
3.000000e-08	-8.123822e-06	-1.589948e-08	-5.681155e+01	-1.040989e+03
4.000000e-08	-8.112016e-06	-1.588689e-08	-5.672899e+01	-1.040120e+03
5.000000e-08	-8.097185e-06	-1.587421e-08	-5.662527e+01	-1.039112e+03
6.000000e-08	-8.079581e-06	-1.585871e-08	-5.650216e+01	-1.037980e+03
7.000000e-08	-8.059678e-06	-1.582942e-08	-5.636297e+01	-1.036740e+03
8.000000e-08	-8.037339e-06	-1.583757e-08	-5.620675e+01	-1.035405e+03
9.000000e-08	-8.011932e-06	-1.588662e-08	-5.602908e+01	-1.033983e+03
1.000000e-07	-7.983253e-06	-1.582844e-08	-5.582852e+01	-1.032481e+03
1.100000e-07	-7.951567e-06	-1.573890e-08	-5.560693e+01	-1.030898e+03
1.200000e-07	-7.916915e-06	-1.568984e-08	-5.536460e+01	-1.029230e+03
1.300000e-07	-7.879556e-06	-1.568469e-08	-5.510334e+01	-1.027471e+03
1.400000e-07	-7.839999e-06	-1.566726e-08	-5.482671e+01	-1.025610e+03
1.500000e-07	-7.798160e-06	-1.562130e-08	-5.453412e+01	-1.023636e+03
1.600000e-07	-7.753631e-06	-1.563649e-08	-5.422273e+01	-1.021537e+03
1.700000e-07	-7.706346e-06	-1.546717e-08	-5.389205e+01	-1.019297e+03
1.800000e-07	-7.656132e-06	-1.553086e-08	-5.354089e+01	-1.016904e+03
1.900000e-07	-7.602849e-06	-1.556134e-08	-5.316827e+01	-1.014345e+03
2.000000e-07	-7.546782e-06	-1.536100e-08	-5.277619e+01	-1.011606e+03
2.100000e-07	-7.487979e-06	-1.534113e-08	-5.236496e+01	-1.008677e+03
2.200000e-07	-7.426523e-06	-1.531204e-08	-5.193519e+01	-1.005546e+03
2.300000e-07	-7.362524e-06	-1.533752e-08	-5.148763e+01	-1.002207e+03
2.400000e-07	-7.295679e-06	-1.522434e-08	-5.102017e+01	-9.986511e+02
2.500000e-07	-7.225918e-06	-1.509310e-08	-5.053232e+01	-9.948764e+02
2.600000e-07	-7.153304e-06	-1.506324e-08	-5.002452e+01	-9.908816e+02
2.700000e-07	-7.077872e-06	-1.505024e-08	-4.949700e+01	-9.866690e+02
2.800000e-07	-6.999641e-06	-1.500774e-08	-4.894992e+01	-9.822433e+02
2.900000e-07	-6.918647e-06	-1.485796e-08	-4.838351e+01	-9.776112e+02
3.000000e-07	-6.835220e-06	-1.478136e-08	-4.780009e+01	-9.727806e+02
3.100000e-07	-6.749511e-06	-1.474295e-08	-4.720071e+01	-9.677591e+02
3.200000e-07	-6.661418e-06	-1.468554e-08	-4.658465e+01	-9.625530e+02
3.300000e-07	-6.570862e-06	-1.460710e-08	-4.595138e+01	-9.571657e+02
3.400000e-07	-6.477922e-06	-1.447536e-08	-4.530143e+01	-9.515969e+02
3.500000e-07	-6.382623e-06	-1.439740e-08	-4.463499e+01	-9.458421e+02
3.600000e-07	-6.284912e-06	-1.433778e-08	-4.395167e+01	-9.398922e+02
3.700000e-07	-6.184955e-06	-1.425713e-08	-4.325265e+01	-9.337341e+02
3.800000e-07	-6.082836e-06	-1.412697e-08	-4.253852e+01	-9.273521e+02
3.900000e-07	-5.978493e-06	-1.400408e-08	-4.180882e+01	-9.207290e+02
4.000000e-07	-5.871976e-06	-1.392599e-08	-4.106392e+01	-9.138483e+02
4.100000e-07	-5.763435e-06	-1.383258e-08	-4.030488e+01	-9.066954e+02
4.200000e-07	-5.652862e-06	-1.370935e-08	-3.953162e+01	-8.992593e+02
4.300000e-07	-5.540209e-06	-1.355916e-08	-3.874381e+01	-8.915333e+02
4.400000e-07	-5.425402e-06	-1.344802e-08	-3.794094e+01	-8.835151e+02
4.500000e-07	-5.308525e-06	-1.334640e-08	-3.712360e+01	-8.752064e+02
4.600000e-07	-5.189725e-06	-1.321855e-08	-3.629280e+01	-8.666113e+02
4.700000e-07	-5.069069e-06	-1.306697e-08	-3.544903e+01	-8.577343e+02
4.800000e-07	-4.946585e-06	-1.292289e-08	-3.459248e+01	-8.485788e+02
4.900000e-07	-4.822305e-06	-1.279342e-08	-3.372336e+01	-8.391444e+02
5.000000e-07	-4.696336e-06	-1.265029e-08	-3.284244e+01	-8.294255e+02
5.100000e-07	-4.568719e-06	-1.249013e-08	-3.194998e+01	-8.194108e+02
5.200000e-07	-4.439458e-06	-1.232005e-08	-3.104603e+01	-8.090826e+02
5.300000e-07	-4.308508e-06	-1.215889e-08	-3.013028e+01	-7.984183e+02
5.400000e-07	-4.175944e-06	-1.199800e-08	-2.920323e+01	-7.873920e+02
5.500000e-07	-4.041779e-06	-1.182251e-08	-2.826499e+01	-7.759768e+02
5.600000e-07	-3.906029e-06	-1.163232e-08	-2.731566e+01	-7.641476e+02
5.700000e-07	-3.768770e-06	-1.144059e-08	-2.635578e+01	-7.518830e+02
5.800000e-07	-3.629977e-06	-1.125470e-08	-2.538517e+01	-7.391679e+02
5.900000e-07	-3.489625e-06	-1.105689e-08	-2.440366e+01	-7.259938e+02
6.000000e-07	-3.347859e-06	-1.084551e-08	-2.341226e+01	-7.123585e+02
6.100000e-07	-3.204790e-06	-1.062594e-08	-2.241175e+01	-6.982652e+02
6.200000e-07	-3.060475e-06	-1.040541e-08	-2.140253e+01	-6.837197e+02
6.300000e-07	-2.915047e-06	-1.018144e-08	-2.038552e+01	-6.687273e+02
6.400000e-07	-2.768600e-06	-9.949028e-09	-1.936138e+01	-6.532898e+02
6.500000e-07	-2.621252e-06	-9.705006e-09	-1.833095e+01	-6.374024e+02
6.600000e-07	-2.473053e-06	-9.452027e-09	-1.729456e+01	-6.210517e+02
6.700000e-07	-2.324083e-06	-9.199584e-09	-1.625279e+01	-6.042149e+02
6.800000e-07	-2.174358e-06	-8.937887e-09	-1.520573e+01	-5.868605e+02
6.900000e-07	-2.023821e-06	-8.660632e-09	-1.415300e+01	-5.689502e+02
7.000000e-07	-1.872542e-06	-8.366584e-09	-1.309507e+01	-5.504425e+02
7.100000e-07	-1.720695e-06	-8.072434e-09	-1.203317e+01	-5.312965e+02
7.200000e-07	-1.568358e-06	-7.775969e-09	-1.096785e+01	-5.114765e+02
7.300000e-07	-1.415475e-06	-7.466450e-09	-9.898707e+00	-4.909551e+02
7.400000e-07	-1.262057e-06	-7.140549e-09	-8.825821e+00	-4.697161e+02
7.500000e-07	-1.108160e-06	-6.799207e-09	-7.749588e+00	-4.477546e+02
7.600000e-07	-9.538940e-07	-6.457322e-09	-6.670775e+00	-4.250761e+02
7.700000e-07	-7.993468e-07	-6.112057e-09	-5.589996e+00	-4.016925e+02
7.800000e-07	-6.445291e-07	-5.751472e-09	-4.507324e+00	-3.776169e+02
7.900000e-07	-4.894479e-07	-5.364831e-09	-3.422809e+00	-3.528581e+02
8.000000e-07	-3.341615e-07	-4.967069e-09	-2.336860e+00	-3.274132e+02
8.100000e-07	-1.787472e-07	-4.570434e-09	-1.250015e+00	-3.012632e+02
8.200000e-07	-2.324985e-08	-4.165710e-09	-1.625909e-01	-2.743687e+02
8.300000e-07	1.322766e-07	-3.736182e-09	9.250370e-01	-2.466693e+02
8.400000e-07	2.878228e-07	-3.282707e-09	2.012803e+00	-2.180864e+02
8.500000e-07	4.433016e-07	-2.827407e-09	3.100099e+00	-1.885287e+02
8.600000e-07	5.986200e-07	-2.371813e-09	4.186272e+00	-1.579017e+02
8.700000e-07	7.537365e-07	-1.899105e-09	5.271033e+00	-1.261193e+02
8.800000e-07	9.086071e-07	-1.390497e-09	6.354074e+00	-9.311667e+01
8.900000e-07	1.063195e-06	-8.590557e-10	7.435136e+00	-5.886312e+01
9.000000e-07	1.217479e-06	-3.242279e-10	8.514081e+00	-2.337390e+01
9.100000e-07	1.371376e-06	2.193503e-10	9.590312e+00	1.328153e+01
9.200000e-07	1.524736e-06	7.909671e-10	1.066279e+01	5.097491e+01
9.300000e-07	1.677537e-06	1.393068e-09	1.173136e+01	8.951963e+01
9.400000e-07	1.829744e-06	2.000982e-09	1.279578e+01	1.286761e+02
9.500000e-07	1.981244e-06	2.598550e-09	1.385525e+01	1.681623e+02
9.600000e-07	2.131990e-06	3.191022e-09	1.490944e+01	2.076676e+02
9.700000e-07	2.281912e-06	3.791632e-09	1.595788e+01	2.468700e+02
9.800000e-07	2.430946e-06	4.389842e-09	1.700010e+01	2.854544e+02
9.900000e-07	2.579039e-06	4.964910e-09	1.803574e+01	3.231295e+02
1.000000e-06	2.726138e-06	5.507295e-09	1.906444e+01	3.596437e+02
1.010000e-06	2.872333e-06	6.030313e-09	2.008681e+01	3.947962e+02
1.020000e-06	3.017505e-06	6.545006e-09	2.110203e+01	4.284444e+02
1.030000e-06	3.161531e-06	7.039051e-09	2.210923e+01	4.605062e+02
1.040000e-06	3.304320e-06	7.497416e-09	2.310778e+01	4.909566e+02
1.050000e-06	3.445738e-06	7.923401e-09	2.409675e+01	5.198211e+02
1.060000e-06	3.585773e-06	8.336444e-09	2.507604e+01	5.471651e+02
1.070000e-06	3.724481e-06	8.739328e-09	2.604606e+01	5.730817e+02
1.080000e-06	3.861876e-06	9.123780e-09	2.700689e+01	5.976789e+02
1.090000e-06	3.997792e-06	9.479364e-09	2.795738e+01	6.210674e+02
1.100000e-06	4.132218e-06	9.814689e-09	2.889745e+01	6.433511e+02
1.110000e-06	4.265213e-06	1.014171e-08	2.982751e+01	6.646202e+02
1.120000e-06	4.396625e-06	1.046088e-08	3.074649e+01	6.849467e+02
1.130000e-06	4.526471e-06	1.076046e-08	3.165453e+01	7.043843e+02
1.140000e-06	4.654787e-06	1.103250e-08	3.255187e+01	7.229703e+02
1.150000e-06	4.781453e-06	1.129154e-08	3.343768e+01	7.407299e+02
1.160000e-06	4.906512e-06	1.154866e-08	3.431224e+01	7.576809e+02
1.170000e-06	5.029907e-06	1.179774e-08	3.517517e+01	7.738391e+02
1.180000e-06	5.151544e-06	1.202946e-08	3.602580e+01	7.892232e+02
1.190000e-06	5.271328e-06	1.224596e-08	3.686347e+01	8.038574e+02
1.200000e-06	5.389161e-06	1.245444e-08	3.768750e+01	8.177732e+02
1.210000e-06	5.504973e-06	1.266077e-08	3.849740e+01	8.310087e+02
1.220000e-06	5.618648e-06	1.285934e-08	3.929235e+01	8.436072e+02
1.230000e-06	5.730125e-06	1.304284e-08	4.007193e+01	8.556137e+02
1.240000e-06	5.839498e-06	1.321362e-08	4.083680e+01	8.670719e+02
1.250000e-06	5.946856e-06	1.337986e-08	4.158758e+01	8.780206e+02
1.260000e-06	6.052126e-06	1.354436e-08	4.232375e+01	8.884914e+02
1.270000e-06	6.155118e-06	1.370130e-08	4.304400e+01	8.985074e+02
1.280000e-06	6.255740e-06	1.384542e-08	4.374767e+01	9.080830e+02
1.290000e-06	6.354085e-06	1.397998e-08	4.443541e+01	9.172255e+02
1.300000e-06	6.450024e-06	1.411193e-08	4.510633e+01	9.259372e+02
1.310000e-06	6.543598e-06	1.424257e-08	4.576071e+01	9.342183e+02
1.320000e-06	6.634985e-06	1.436545e-08	4.639981e+01	9.420704e+02
1.330000e-06	6.723959e-06	1.447590e-08	4.702202e+01	9.494991e+02
1.340000e-06	6.810500e-06	1.457838e-08	4.762722e+01	9.565155e+02
1.350000e-06	6.894737e-06	1.467899e-08	4.821630e+01	9.631374e+02
1.360000e-06	6.976510e-06	1.477715e-08	4.878816e+01	9.693886e+02
1.370000e-06	7.055727e-06	1.486870e-08	4.934214e+01	9.752972e+02
1.380000e-06	7.132316e-06	1.495232e-08	4.987774e+01	9.808935e+02
1.390000e-06	7.206188e-06	1.503190e-08	5.039434e+01	9.862067e+02
1.400000e-06	7.277398e-06	1.510993e-08	5.089233e+01	9.912623e+02
1.410000e-06	7.346065e-06	1.518582e-08	5.137253e+01	9.960795e+02
1.420000e-06	7.412164e-06	1.525585e-08	5.183477e+01	1.000670e+03
1.430000e-06	7.475592e-06	1.531793e-08	5.227834e+01	1.005037e+03
1.440000e-06	7.536449e-06	1.537680e-08	5.270392e+01	1.009177e+03
1.450000e-06	7.594721e-06	1.543541e-08	5.311144e+01	1.013081e+03
1.460000e-06	7.650329e-06	1.549212e-08	5.350031e+01	1.016736e+03
1.470000e-06	7.703118e-06	1.554292e-08	5.386947e+01	1.020130e+03
1.480000e-06	7.752727e-06	1.558814e-08	5.421640e+01	1.023252e+03
1.490000e-06	7.799291e-06	1.563115e-08	5.454203e+01	1.026099e+03
1.500000e-06	7.843160e-06	1.567163e-08	5.484882e+01	1.028672e+03
1.510000e-06	7.884219e-06	1.570798e-08	5.513595e+01	1.030979e+03
1.520000e-06	7.922440e-06	1.573876e-08	5.540324e+01	1.033036e+03
1.530000e-06	7.957962e-06	1.576628e-08	5.565165e+01	1.034863e+03
1.540000e-06	7.990613e-06	1.579167e-08	5.587999e+01	1.036483e+03
1.550000e-06	8.020364e-06	1.581412e-08	5.608804e+01	1.037919e+03
1.560000e-06	8.047308e-06	1.583410e-08	5.627647e+01	1.039191e+03
1.570000e-06	8.071306e-06	1.585118e-08	5.644429e+01	1.040316e+03
1.580000e-06	8.092422e-06	1.586532e-08	5.659196e+01	1.041303e+03
1.590000e-06	8.110727e-06	1.587776e-08	5.671997e+01	1.042155e+03
1.600000e-06	8.126048e-06	1.588841e-08	5.682711e+01	1.042871e+03
1.610000e-06	8.138247e-06	1.589632e-08	5.691242e+01	1.043442e+03
1.620000e-06	8.147284e-06	1.590308e-08	5.697562e+01	1.043859e+03
1.630000e-06	8.153312e-06	1.590829e-08	5.701777e+01	1.044110e+03
1.640000e-06	8.156465e-06	1.591067e-08	5.703982e+01	1.044185e+03
1.650000e-06	8.156705e-06	1.591156e-08	5.704150e+01	1.044077e+03
1.660000e-06	8.154167e-06	1.589966e-08	5.702376e+01	1.043784e+03
1.670000e-06	8.148942e-06	1.589209e-08	5.698721e+01	1.043309e+03
1.680000e-06	8.140999e-06	1.588371e-08	5.693167e+01	1.042661e+03
1.690000e-06	8.130426e-06	1.587297e-08	5.685773e+01	1.041851e+03
1.700000e-06	8.116920e-06	1.586382e-08	5.676328e+01	1.040895e+03
1.710000e-06	8.100600e-06	1.585667e-08	5.664915e+01	1.039809e+03
1.720000e-06	8.081907e-06	1.585582e-08	5.651843e+01	1.038610e+03
1.730000e-06	8.060770e-06	1.577602e-08	5.637061e+01	1.037310e+03
1.740000e-06	8.036631e-06	1.568834e-08	5.620180e+01	1.035922e+03
1.750000e-06	8.008780e-06	1.572222e-08	5.600704e+01	1.034451e+03
1.760000e-06	7.977298e-06	1.574159e-08	5.578687e+01	1.032899e+03
1.770000e-06	7.943023e-06	1.572080e-08	5.554718e+01	1.031265e+03
1.780000e-06	7.906476e-06	1.570446e-08	5.529160e+01	1.029542e+03
1.790000e-06	7.867623e-06	1.568671e-08	5.501989e+01	1.027723e+03
1.800000e-06	7.826720e-06	1.550399e-08	5.473385e+01	1.025795e+03
1.810000e-06	7.783450e-06	1.559570e-08	5.443125e+01	1.023746e+03
1.820000e-06	7.737471e-06	1.562205e-08	5.410971e+01	1.021562e+03
1.830000e-06	7.688825e-06	1.548822e-08	5.376952e+01	1.019231e+03
1.840000e-06	7.637039e-06	1.559164e-08	5.340737e+01	1.016738e+03
1.850000e-06	7.582210e-06	1.544051e-08	5.302394e+01	1.014071e+03
1.860000e-06	7.524603e-06	1.547599e-08	5.262108e+01	1.011218e+03
1.870000e-06	7.464321e-06	1.538880e-08	5.219952e+01	1.008167e+03
1.880000e-06	7.401342e-06	1.527424e-08	5.175909e+01	1.004910e+03
1.890000e-06	7.335392e-06	1.534391e-08	5.129789e+01	1.001440e+03
1.900000e-06	7.266619e-06	1.520639e-08	5.081695e+01	9.977515e+02
1.910000e-06	7.195034e-06	1.521885e-08	5.031634e+01	9.938429e+02
1.920000e-06	7.120672e-06	1.508203e-08	4.979631e+01	9.897152e+02
1.930000e-06	7.043510e-06	1.501847e-08	4.925670e+01	9.853722e+02
1.940000e-06	6.963502e-06	1.499785e-08	4.869719e+01	9.808200e+02
1.950000e-06	6.881010e-06	1.489684e-08	4.812030e+01	9.760662e+02
1.960000e-06	6.795955e-06	1.489144e-08	4.752550e+01	9.711185e+02
1.970000e-06	6.708264e-06	1.470936e-08	4.691226e+01	9.659841e+02
1.980000e-06	6.618182e-06	1.465594e-08	4.628229e+01	9.606675e+02
1.990000e-06	6.525873e-06	1.457982e-08	4.563676e+01	9.551701e+02
2.000000e-06	6.431263e-06	1.452590e-08	4.497513e+01	9.494890e+02
2.010000e-06	6.334276e-06	1.442476e-08	4.429689e+01	9.436168e+02
2.020000e-06	6.234995e-06	1.428226e-08	4.360259e+01	9.375420e+02
2.030000e-06	6.133504e-06	1.421781e-08	4.289284e+01	9.312496e+02
2.040000e-06	6.029815e-06	1.412003e-08	4.216773e+01	9.247231e+02
2.050000e-06	5.924013e-06	1.403833e-08	4.142783e+01	9.179453e+02
2.060000e-06	5.816273e-06	1.387966e-08	4.067438e+01	9.109006e+02
2.070000e-06	5.706532e-06	1.377497e-08	3.990694e+01	9.035765e+02
2.080000e-06	5.594675e-06	1.366576e-08	3.912470e+01	8.959646e+02
2.090000e-06	5.480665e-06	1.356908e-08	3.832741e+01	8.880610e+02
2.100000e-06	5.364601e-06	1.343813e-08	3.751575e+01	8.798657e+02
2.110000e-06	5.246557e-06	1.329434e-08	3.669024e+01	8.713823e+02
2.120000e-06	5.126482e-06	1.315836e-08	3.585054e+01	8.626153e+02
2.130000e-06	5.004544e-06	1.303261e-08	3.499780e+01	8.535688e+02
2.140000e-06	4.880805e-06	1.291092e-08	3.413247e+01	8.442440e+02
2.150000e-06	4.755337e-06	1.274911e-08	3.325504e+01	8.346376e+02
2.160000e-06	4.628135e-06	1.258685e-08	3.236549e+01	8.247406e+02
2.170000e-06	4.499179e-06	1.242192e-08	3.146367e+01	8.145378e+02
2.180000e-06	4.368631e-06	1.227743e-08	3.055073e+01	8.040082e+02
2.190000e-06	4.236501e-06	1.210643e-08	2.962671e+01	7.931271e+02
2.200000e-06	4.102794e-06	1.193244e-08	2.869167e+01	7.818676e+02
2.210000e-06	3.967503e-06	1.174743e-08	2.774556e+01	7.702035e+02
2.220000e-06	3.830641e-06	1.156927e-08	2.678845e+01	7.581119e+02
2.230000e-06	3.692271e-06	1.138411e-08	2.582081e+01	7.455750e+02
2.240000e-06	3.552527e-06	1.118792e-08	2.484355e+01	7.325815e+02
2.250000e-06	3.411424e-06	1.098062e-08	2.385678e+01	7.191270e+02
2.260000e-06	3.268995e-06	1.076846e-08	2.286075e+01	7.052128e+02
2.270000e-06	3.125229e-06	1.055570e-08	2.185536e+01	6.908439e+02
2.280000e-06	2.980238e-06	1.032633e-08	2.084141e+01	6.760263e+02
2.290000e-06	2.834278e-06	1.009069e-08	1.982069e+01	6.607636e+02
2.300000e-06	2.687343e-06	9.850684e-09	1.879314e+01	6.450537e+02
2.310000e-06	2.539461e-06	9.610793e-09	1.775897e+01	6.288870e+02
2.320000e-06	2.390703e-06	9.353864e-09	1.671867e+01	6.122442e+02
2.330000e-06	2.241099e-06	9.085959e-09	1.567246e+01	5.950972e+02
2.340000e-06	2.090720e-06	8.813243e-09	1.462083e+01	5.774099e+02
2.350000e-06	1.939668e-06	8.536787e-09	1.356449e+01	5.591416e+02
2.360000e-06	1.788061e-06	8.250990e-09	1.250427e+01	5.402507e+02
2.370000e-06	1.635929e-06	7.948028e-09	1.144039e+01	5.206990e+02
2.380000e-06	1.483230e-06	7.632036e-09	1.037253e+01	5.004555e+02
2.390000e-06	1.329960e-06	7.313281e-09	9.300681e+00	4.794993e+02
2.400000e-06	1.176223e-06	6.994891e-09	8.225565e+00	4.578213e+02
2.410000e-06	1.022144e-06	6.662118e-09	7.148061e+00	4.354231e+02
2.420000e-06	8.677305e-07	6.304302e-09	6.068216e+00	4.123146e+02
2.430000e-06	7.130360e-07	5.935069e-09	4.986406e+00	3.885092e+02
2.440000e-06	5.581279e-07	5.569629e-09	3.903102e+00	3.640180e+02
2.450000e-06	4.029421e-07	5.198964e-09	2.817856e+00	3.388437e+02
2.460000e-06	2.475640e-07	4.802300e-09	1.731266e+00	3.129740e+02
2.470000e-06	9.206048e-08	4.379365e-09	6.437977e-01	2.863777e+02
2.480000e-06	-6.359895e-08	3.952509e-09	-4.447604e-01	2.590027e+02
2.490000e-06	-2.192551e-07	3.531021e-09	-1.533295e+00	2.307770e+02
2.500000e-06	-3.747379e-07	3.094443e-09	-2.620618e+00	2.016134e+02
2.510000e-06	-5.300796e-07	2.626984e-09	-3.706955e+00	1.714172e+02
2.520000e-06	-6.852639e-07	2.136526e-09	-4.792190e+00	1.400977e+02
2.530000e-06	-8.401763e-07	1.643558e-09	-5.875524e+00	1.075800e+02
2.540000e-06	-9.948270e-07	1.148670e-09	-6.957028e+00	7.381856e+01
2.550000e-06	-1.149178e-06	6.267887e-10	-8.036433e+00	3.880939e+01
2.560000e-06	-1.303127e-06	6.779474e-11	-9.113033e+00	2.599858e+00
2.570000e-06	-1.456608e-06	-5.101067e-10	-1.018636e+01	-3.470511e+01
2.580000e-06	-1.609495e-06	-1.087147e-09	-1.125552e+01	-7.294145e+01
2.590000e-06	-1.761728e-06	-1.671750e-09	-1.232012e+01	-1.118894e+02
2.600000e-06	-1.913311e-06	-2.279770e-09	-1.338017e+01	-1.512822e+02
2.610000e-06	-2.064246e-06	-2.902171e-09	-1.443570e+01	-1.908183e+02
2.620000e-06	-2.214455e-06	-3.512783e-09	-1.548613e+01	-2.301784e+02
2.630000e-06	-2.363797e-06	-4.099155e-09	-1.653051e+01	-2.690423e+02
2.640000e-06	-2.512226e-06	-4.672326e-09	-1.756851e+01	-3.071074e+02
2.650000e-06	-2.659684e-06	-5.243515e-09	-1.859971e+01	-3.441049e+02
2.660000e-06	-2.806178e-06	-5.802539e-09	-1.962417e+01	-3.798129e+02
2.670000e-06	-2.951680e-06	-6.325731e-09	-2.064170e+01	-4.140655e+02
2.680000e-06	-3.095996e-06	-6.809485e-09	-2.165093e+01	-4.467568e+02
2.690000e-06	-3.239100e-06	-7.274376e-09	-2.265169e+01	-4.778400e+02
2.700000e-06	-3.380975e-06	-7.732642e-09	-2.364385e+01	-5.073220e+02
2.710000e-06	-3.521505e-06	-8.171223e-09	-2.462661e+01	-5.352538e+02
2.720000e-06	-3.660722e-06	-8.573694e-09	-2.560018e+01	-5.617191e+02
2.730000e-06	-3.798633e-06	-8.946530e-09	-2.656462e+01	-5.868215e+02
2.740000e-06	-3.935069e-06	-9.311099e-09	-2.751874e+01	-6.106721e+02
2.750000e-06	-4.070027e-06	-9.671225e-09	-2.846253e+01	-6.333785e+02
2.760000e-06	-4.203621e-06	-1.001233e-08	-2.939678e+01	-6.550368e+02
2.770000e-06	-4.335762e-06	-1.032470e-08	-3.032087e+01	-6.757265e+02
2.780000e-06	-4.466416e-06	-1.061637e-08	-3.123456e+01	-6.955082e+02
2.790000e-06	-4.595507e-06	-1.090347e-08	-3.213732e+01	-7.144255e+02
2.800000e-06	-4.722946e-06	-1.118833e-08	-3.302852e+01	-7.325077e+02
2.810000e-06	-4.848791e-06	-1.145608e-08	-3.390859e+01	-7.497747e+02
2.820000e-06	-4.972948e-06	-1.169910e-08	-3.477684e+01	-7.662426e+02
2.830000e-06	-5.095333e-06	-1.192972e-08	-3.563270e+01	-7.819286e+02
2.840000e-06	-5.215918e-06	-1.216183e-08	-3.647598e+01	-7.968543e+02
2.850000e-06	-5.334544e-06	-1.239093e-08	-3.730555e+01	-8.110483e+02
2.860000e-06	-5.451015e-06	-1.260245e-08	-3.812006e+01	-8.245464e+02
2.870000e-06	-5.565166e-06	-1.279300e-08	-3.891834e+01	-8.373901e+02
2.880000e-06	-5.677068e-06	-1.297557e-08	-3.970090e+01	-8.496241e+02
2.890000e-06	-5.786884e-06	-1.315968e-08	-4.046886e+01	-8.612930e+02
2.900000e-06	-5.894735e-06	-1.333841e-08	-4.122308e+01	-8.724379e+02
2.910000e-06	-6.000567e-06	-1.350022e-08	-4.196319e+01	-8.830934e+02
2.920000e-06	-6.104187e-06	-1.364656e-08	-4.268782e+01	-8.932862e+02
2.930000e-06	-6.205462e-06	-1.379072e-08	-4.339606e+01	-9.030339e+02
2.940000e-06	-6.304536e-06	-1.393806e-08	-4.408891e+01	-9.123463e+02
