# Temperatura_=_20.0
# Concentracion g/m^3_=_12600.0
# C_Vs_to_Am_M_A/Vsm_=_65563218390.804596
# pendiente_HvsI_1/m_=_3716.3
# ordenada_HvsI_A/m_=_1297.0
# frecuencia_Hz_=_302277.65545532486

Tiempo_(s)	Campo_(V.s)	Magnetizacion_(V.s)	Campo_(kA/m)	Magnetizacion_(A/m)
0.000000e+00	-8.085934e-06	-1.593024e-08	-5.694111e+01	-1.043095e+03
1.000000e-08	-8.082273e-06	-1.592604e-08	-5.691533e+01	-1.042727e+03
2.000000e-08	-8.076089e-06	-1.591883e-08	-5.687178e+01	-1.042173e+03
3.000000e-08	-8.067204e-06	-1.590850e-08	-5.680922e+01	-1.041445e+03
4.000000e-08	-8.055416e-06	-1.589357e-08	-5.672620e+01	-1.040560e+03
5.000000e-08	-8.040594e-06	-1.587917e-08	-5.662183e+01	-1.039535e+03
6.000000e-08	-8.022944e-06	-1.586517e-08	-5.649754e+01	-1.038390e+03
7.000000e-08	-8.003010e-06	-1.583937e-08	-5.635716e+01	-1.037143e+03
8.000000e-08	-7.980611e-06	-1.585184e-08	-5.619943e+01	-1.035809e+03
9.000000e-08	-7.955182e-06	-1.586589e-08	-5.602036e+01	-1.034398e+03
1.000000e-07	-7.926595e-06	-1.581993e-08	-5.581905e+01	-1.032914e+03
1.100000e-07	-7.894956e-06	-1.576097e-08	-5.559624e+01	-1.031358e+03
1.200000e-07	-7.860367e-06	-1.571358e-08	-5.535267e+01	-1.029726e+03
1.300000e-07	-7.823132e-06	-1.569574e-08	-5.509046e+01	-1.028007e+03
1.400000e-07	-7.783712e-06	-1.567083e-08	-5.481286e+01	-1.026188e+03
1.500000e-07	-7.742075e-06	-1.566031e-08	-5.451966e+01	-1.024256e+03
1.600000e-07	-7.697801e-06	-1.560403e-08	-5.420788e+01	-1.022193e+03
1.700000e-07	-7.650811e-06	-1.550279e-08	-5.387698e+01	-1.019983e+03
1.800000e-07	-7.600951e-06	-1.556380e-08	-5.352586e+01	-1.017609e+03
1.900000e-07	-7.547998e-06	-1.551667e-08	-5.315297e+01	-1.015057e+03
2.000000e-07	-7.492144e-06	-1.541049e-08	-5.275964e+01	-1.012311e+03
2.100000e-07	-7.433528e-06	-1.538584e-08	-5.234687e+01	-1.009361e+03
2.200000e-07	-7.372290e-06	-1.534175e-08	-5.191563e+01	-1.006197e+03
2.300000e-07	-7.308458e-06	-1.533232e-08	-5.146613e+01	-1.002812e+03
2.400000e-07	-7.241803e-06	-1.522391e-08	-5.099674e+01	-9.992019e+02
2.500000e-07	-7.172370e-06	-1.513531e-08	-5.050780e+01	-9.953660e+02
2.600000e-07	-7.100180e-06	-1.509661e-08	-4.999944e+01	-9.913061e+02
2.700000e-07	-7.025210e-06	-1.507791e-08	-4.947150e+01	-9.870272e+02
2.800000e-07	-6.947473e-06	-1.499202e-08	-4.892408e+01	-9.825361e+02
2.900000e-07	-6.866920e-06	-1.485366e-08	-4.835682e+01	-9.778413e+02
3.000000e-07	-6.783863e-06	-1.480701e-08	-4.777194e+01	-9.729517e+02
3.100000e-07	-6.698552e-06	-1.476548e-08	-4.717118e+01	-9.678750e+02
3.200000e-07	-6.610933e-06	-1.470321e-08	-4.655416e+01	-9.626173e+02
3.300000e-07	-6.520873e-06	-1.459330e-08	-4.591996e+01	-9.571812e+02
3.400000e-07	-6.428417e-06	-1.447958e-08	-4.526889e+01	-9.515655e+02
3.500000e-07	-6.333676e-06	-1.441629e-08	-4.460172e+01	-9.457646e+02
3.600000e-07	-6.236593e-06	-1.435895e-08	-4.391806e+01	-9.397687e+02
3.700000e-07	-6.137236e-06	-1.425377e-08	-4.321839e+01	-9.335645e+02
3.800000e-07	-6.035691e-06	-1.410888e-08	-4.250331e+01	-9.271364e+02
3.900000e-07	-5.931981e-06	-1.401339e-08	-4.177299e+01	-9.204680e+02
4.000000e-07	-5.826105e-06	-1.395000e-08	-4.102741e+01	-9.135438e+02
4.100000e-07	-5.718217e-06	-1.384840e-08	-4.026766e+01	-9.063505e+02
4.200000e-07	-5.608417e-06	-1.369068e-08	-3.949445e+01	-8.988786e+02
4.300000e-07	-5.496536e-06	-1.355084e-08	-3.870658e+01	-8.911225e+02
4.400000e-07	-5.382454e-06	-1.346437e-08	-3.790322e+01	-8.830806e+02
4.500000e-07	-5.266266e-06	-1.337057e-08	-3.708502e+01	-8.747548e+02
4.600000e-07	-5.148170e-06	-1.321802e-08	-3.625339e+01	-8.661486e+02
4.700000e-07	-5.028268e-06	-1.304805e-08	-3.540904e+01	-8.572654e+02
4.800000e-07	-4.906567e-06	-1.291886e-08	-3.455202e+01	-8.481067e+02
4.900000e-07	-4.783037e-06	-1.281086e-08	-3.368213e+01	-8.386702e+02
5.000000e-07	-4.657824e-06	-1.266909e-08	-3.280037e+01	-8.289480e+02
5.100000e-07	-4.531017e-06	-1.248199e-08	-3.190740e+01	-8.189269e+02
5.200000e-07	-4.402488e-06	-1.230530e-08	-3.100230e+01	-8.085878e+02
5.300000e-07	-4.272268e-06	-1.216234e-08	-3.008529e+01	-7.979072e+02
5.400000e-07	-4.140441e-06	-1.201728e-08	-2.915697e+01	-7.868594e+02
5.500000e-07	-4.007110e-06	-1.182438e-08	-2.821805e+01	-7.754182e+02
5.600000e-07	-3.872332e-06	-1.161420e-08	-2.726894e+01	-7.635600e+02
5.700000e-07	-3.736051e-06	-1.142906e-08	-2.630926e+01	-7.512657e+02
5.800000e-07	-3.598329e-06	-1.126057e-08	-2.533941e+01	-7.385223e+02
5.900000e-07	-3.459135e-06	-1.106606e-08	-2.435922e+01	-7.253236e+02
6.000000e-07	-3.318394e-06	-1.083790e-08	-2.336811e+01	-7.116692e+02
6.100000e-07	-3.176259e-06	-1.061186e-08	-2.236720e+01	-6.975634e+02
6.200000e-07	-3.032939e-06	-1.040347e-08	-2.135794e+01	-6.830125e+02
6.300000e-07	-2.888434e-06	-1.019241e-08	-2.034034e+01	-6.680211e+02
6.400000e-07	-2.742808e-06	-9.951213e-09	-1.931484e+01	-6.525897e+02
6.500000e-07	-2.596258e-06	-9.694101e-09	-1.828284e+01	-6.367117e+02
6.600000e-07	-2.448904e-06	-9.442858e-09	-1.724517e+01	-6.203712e+02
6.700000e-07	-2.300763e-06	-9.198884e-09	-1.620197e+01	-6.035431e+02
6.800000e-07	-2.151878e-06	-8.938192e-09	-1.515352e+01	-5.861937e+02
6.900000e-07	-2.002396e-06	-8.652988e-09	-1.410086e+01	-5.682832e+02
7.000000e-07	-1.852352e-06	-8.359753e-09	-1.304426e+01	-5.497691e+02
7.100000e-07	-1.701689e-06	-8.070445e-09	-1.198329e+01	-5.306106e+02
7.200000e-07	-1.550364e-06	-7.775681e-09	-1.091766e+01	-5.107727e+02
7.300000e-07	-1.398440e-06	-7.459936e-09	-9.847810e+00	-4.902293e+02
7.400000e-07	-1.245933e-06	-7.130285e-09	-8.773852e+00	-4.689658e+02
7.500000e-07	-1.092938e-06	-6.793144e-09	-7.696463e+00	-4.469790e+02
7.600000e-07	-9.396367e-07	-6.452277e-09	-6.616917e+00	-4.242758e+02
7.700000e-07	-7.860421e-07	-6.100736e-09	-5.535305e+00	-4.008688e+02
7.800000e-07	-6.322191e-07	-5.734269e-09	-4.452084e+00	-3.767714e+02
7.900000e-07	-4.781966e-07	-5.353410e-09	-3.367458e+00	-3.519914e+02
8.000000e-07	-3.239943e-07	-4.960943e-09	-2.281566e+00	-3.265245e+02
8.100000e-07	-1.696594e-07	-4.560137e-09	-1.194741e+00	-3.003496e+02
8.200000e-07	-1.521533e-08	-4.148191e-09	-1.071463e-01	-2.734249e+02
8.300000e-07	1.392414e-07	-3.721933e-09	9.805374e-01	-2.456879e+02
8.400000e-07	2.936498e-07	-3.277262e-09	2.067881e+00	-2.170581e+02
8.500000e-07	4.479724e-07	-2.820084e-09	3.154619e+00	-1.874434e+02
8.600000e-07	6.021838e-07	-2.353748e-09	4.240575e+00	-1.567494e+02
8.700000e-07	7.562576e-07	-1.875298e-09	5.325563e+00	-1.248915e+02
8.800000e-07	9.101615e-07	-1.374220e-09	6.409353e+00	-9.180739e+01
8.900000e-07	1.063822e-06	-8.467258e-10	7.491428e+00	-5.747030e+01
9.000000e-07	1.217103e-06	-3.031760e-10	8.570834e+00	-2.189986e+01
9.100000e-07	1.369951e-06	2.499621e-10	9.647191e+00	1.482960e+01
9.200000e-07	1.522264e-06	8.186926e-10	1.071978e+01	5.258509e+01
9.300000e-07	1.673896e-06	1.410772e-09	1.178757e+01	9.117581e+01
9.400000e-07	1.824835e-06	2.017421e-09	1.285048e+01	1.303590e+02
9.500000e-07	1.975119e-06	2.622218e-09	1.390878e+01	1.698505e+02
9.600000e-07	2.124727e-06	3.218063e-09	1.496232e+01	2.093391e+02
9.700000e-07	2.273597e-06	3.813061e-09	1.601066e+01	2.485038e+02
9.800000e-07	2.421622e-06	4.407213e-09	1.705305e+01	2.870314e+02
9.900000e-07	2.568735e-06	4.984374e-09	1.808902e+01	3.246336e+02
1.000000e-06	2.714956e-06	5.529378e-09	1.911871e+01	3.610624e+02
1.010000e-06	2.860195e-06	6.048059e-09	2.014148e+01	3.961210e+02
1.020000e-06	3.004255e-06	6.555974e-09	2.115595e+01	4.296706e+02
1.030000e-06	3.147121e-06	7.047182e-09	2.216201e+01	4.616322e+02
1.040000e-06	3.288824e-06	7.506758e-09	2.315988e+01	4.919834e+02
1.050000e-06	3.429250e-06	7.932925e-09	2.414876e+01	5.207515e+02
1.060000e-06	3.568274e-06	8.343759e-09	2.512777e+01	5.480029e+02
1.070000e-06	3.705924e-06	8.745649e-09	2.609710e+01	5.738309e+02
1.080000e-06	3.842176e-06	9.130899e-09	2.705659e+01	5.983433e+02
1.090000e-06	3.976952e-06	9.487088e-09	2.800568e+01	6.216504e+02
1.100000e-06	4.110372e-06	9.820090e-09	2.894522e+01	6.438557e+02
1.110000e-06	4.242362e-06	1.014541e-08	2.987469e+01	6.650489e+02
1.120000e-06	4.372833e-06	1.046247e-08	3.079347e+01	6.853022e+02
1.130000e-06	4.501730e-06	1.075879e-08	3.170116e+01	7.046696e+02
1.140000e-06	4.629023e-06	1.102851e-08	3.259756e+01	7.231893e+02
1.150000e-06	4.754833e-06	1.129004e-08	3.348351e+01	7.408873e+02
1.160000e-06	4.879037e-06	1.155207e-08	3.435815e+01	7.577824e+02
1.170000e-06	5.001544e-06	1.180182e-08	3.522085e+01	7.738915e+02
1.180000e-06	5.122282e-06	1.203045e-08	3.607109e+01	7.892336e+02
1.190000e-06	5.241123e-06	1.224470e-08	3.690796e+01	8.038333e+02
1.200000e-06	5.357997e-06	1.245477e-08	3.773099e+01	8.177215e+02
1.210000e-06	5.472798e-06	1.266050e-08	3.853942e+01	8.309356e+02
1.220000e-06	5.585463e-06	1.285333e-08	3.933281e+01	8.435174e+02
1.230000e-06	5.696053e-06	1.303115e-08	4.011158e+01	8.555103e+02
1.240000e-06	5.804661e-06	1.320296e-08	4.087639e+01	8.669564e+02
1.250000e-06	5.911195e-06	1.337533e-08	4.162661e+01	8.778927e+02
1.260000e-06	6.015535e-06	1.354037e-08	4.236137e+01	8.883498e+02
1.270000e-06	6.117670e-06	1.369134e-08	4.308060e+01	8.983499e+02
1.280000e-06	6.217549e-06	1.383372e-08	4.378395e+01	9.079073e+02
1.290000e-06	6.315045e-06	1.397467e-08	4.447052e+01	9.170297e+02
1.300000e-06	6.410125e-06	1.411018e-08	4.514007e+01	9.257201e+02
1.310000e-06	6.502974e-06	1.423576e-08	4.579392e+01	9.339803e+02
1.320000e-06	6.593591e-06	1.435097e-08	4.643204e+01	9.418132e+02
1.330000e-06	6.681807e-06	1.446081e-08	4.705326e+01	9.492257e+02
1.340000e-06	6.767626e-06	1.456829e-08	4.765759e+01	9.562303e+02
1.350000e-06	6.851119e-06	1.466992e-08	4.824555e+01	9.628454e+02
1.360000e-06	6.932194e-06	1.476486e-08	4.881648e+01	9.690950e+02
1.370000e-06	7.010725e-06	1.485513e-08	4.936950e+01	9.750071e+02
1.380000e-06	7.086642e-06	1.494269e-08	4.990410e+01	9.806111e+02
1.390000e-06	7.159854e-06	1.502517e-08	5.041966e+01	9.859349e+02
1.400000e-06	7.230491e-06	1.510139e-08	5.091708e+01	9.910026e+02
1.410000e-06	7.298656e-06	1.517424e-08	5.139710e+01	9.958322e+02
1.420000e-06	7.364179e-06	1.524379e-08	5.185852e+01	1.000434e+03
1.430000e-06	7.427047e-06	1.530834e-08	5.230123e+01	1.004811e+03
1.440000e-06	7.487397e-06	1.536935e-08	5.272622e+01	1.008959e+03
1.450000e-06	7.545136e-06	1.542705e-08	5.313281e+01	1.012869e+03
1.460000e-06	7.600171e-06	1.548220e-08	5.352037e+01	1.016529e+03
1.470000e-06	7.652344e-06	1.553324e-08	5.388777e+01	1.019928e+03
1.480000e-06	7.701432e-06	1.557800e-08	5.423345e+01	1.023058e+03
1.490000e-06	7.747570e-06	1.562025e-08	5.455835e+01	1.025916e+03
1.500000e-06	7.790984e-06	1.565978e-08	5.486407e+01	1.028506e+03
1.510000e-06	7.831597e-06	1.569479e-08	5.515007e+01	1.030837e+03
1.520000e-06	7.869414e-06	1.572518e-08	5.541638e+01	1.032925e+03
1.530000e-06	7.904523e-06	1.575277e-08	5.566362e+01	1.034792e+03
1.540000e-06	7.936790e-06	1.577826e-08	5.589084e+01	1.036460e+03
1.550000e-06	7.966259e-06	1.580233e-08	5.609836e+01	1.037950e+03
1.560000e-06	7.992922e-06	1.582475e-08	5.628612e+01	1.039281e+03
1.570000e-06	8.016599e-06	1.584246e-08	5.645285e+01	1.040468e+03
1.580000e-06	8.037449e-06	1.585676e-08	5.659968e+01	1.041518e+03
1.590000e-06	8.055517e-06	1.587017e-08	5.672691e+01	1.042431e+03
1.600000e-06	8.070584e-06	1.588286e-08	5.683302e+01	1.043203e+03
1.610000e-06	8.082515e-06	1.589032e-08	5.691704e+01	1.043824e+03
1.620000e-06	8.091287e-06	1.589386e-08	5.697881e+01	1.044281e+03
1.630000e-06	8.097113e-06	1.589785e-08	5.701984e+01	1.044563e+03
1.640000e-06	8.100081e-06	1.590170e-08	5.704074e+01	1.044658e+03
1.650000e-06	8.100190e-06	1.590343e-08	5.704150e+01	1.044559e+03
1.660000e-06	8.097633e-06	1.589421e-08	5.702349e+01	1.044267e+03
1.670000e-06	8.092381e-06	1.588644e-08	5.698651e+01	1.043785e+03
1.680000e-06	8.084362e-06	1.587962e-08	5.693004e+01	1.043123e+03
1.690000e-06	8.073673e-06	1.587067e-08	5.685477e+01	1.042297e+03
1.700000e-06	8.060171e-06	1.585963e-08	5.675969e+01	1.041324e+03
1.710000e-06	8.043915e-06	1.584776e-08	5.664522e+01	1.040224e+03
1.720000e-06	8.025258e-06	1.584067e-08	5.651383e+01	1.039015e+03
1.730000e-06	8.004182e-06	1.576535e-08	5.636542e+01	1.037713e+03
1.740000e-06	7.980013e-06	1.571784e-08	5.619522e+01	1.036331e+03
1.750000e-06	7.952097e-06	1.572666e-08	5.599863e+01	1.034875e+03
1.760000e-06	7.920667e-06	1.572623e-08	5.577730e+01	1.033348e+03
1.770000e-06	7.886508e-06	1.571409e-08	5.553676e+01	1.031746e+03
1.780000e-06	7.850070e-06	1.570784e-08	5.528016e+01	1.030062e+03
1.790000e-06	7.811360e-06	1.563674e-08	5.500756e+01	1.028284e+03
1.800000e-06	7.770572e-06	1.553619e-08	5.472033e+01	1.026398e+03
1.810000e-06	7.727432e-06	1.563818e-08	5.441655e+01	1.024389e+03
1.820000e-06	7.681621e-06	1.560118e-08	5.409394e+01	1.022238e+03
1.830000e-06	7.633083e-06	1.557198e-08	5.375213e+01	1.019930e+03
1.840000e-06	7.581473e-06	1.557472e-08	5.338870e+01	1.017449e+03
1.850000e-06	7.526886e-06	1.546439e-08	5.300429e+01	1.014781e+03
1.860000e-06	7.469544e-06	1.549019e-08	5.260049e+01	1.011912e+03
1.870000e-06	7.409592e-06	1.538372e-08	5.217832e+01	1.008833e+03
1.880000e-06	7.346885e-06	1.534961e-08	5.173673e+01	1.005535e+03
1.890000e-06	7.281202e-06	1.533791e-08	5.127419e+01	1.002014e+03
1.900000e-06	7.212775e-06	1.524490e-08	5.079233e+01	9.982661e+02
1.910000e-06	7.141564e-06	1.519939e-08	5.029086e+01	9.942935e+02
1.920000e-06	7.067622e-06	1.506472e-08	4.977016e+01	9.900996e+02
1.930000e-06	6.990952e-06	1.505415e-08	4.923026e+01	9.856907e+02
1.940000e-06	6.911403e-06	1.501307e-08	4.867007e+01	9.810747e+02
1.950000e-06	6.829296e-06	1.494186e-08	4.809187e+01	9.762603e+02
1.960000e-06	6.744715e-06	1.485291e-08	4.749626e+01	9.712560e+02
1.970000e-06	6.657552e-06	1.470753e-08	4.688245e+01	9.660686e+02
1.980000e-06	6.567936e-06	1.468301e-08	4.625137e+01	9.607023e+02
1.990000e-06	6.476127e-06	1.461882e-08	4.560486e+01	9.551573e+02
2.000000e-06	6.382043e-06	1.453633e-08	4.494232e+01	9.494299e+02
2.010000e-06	6.285626e-06	1.438689e-08	4.426335e+01	9.435117e+02
2.020000e-06	6.187056e-06	1.428518e-08	4.356922e+01	9.373908e+02
2.030000e-06	6.086306e-06	1.423521e-08	4.285974e+01	9.310524e+02
2.040000e-06	5.983284e-06	1.414735e-08	4.213426e+01	9.244801e+02
2.050000e-06	5.878060e-06	1.401589e-08	4.139327e+01	9.176579e+02
2.060000e-06	5.770913e-06	1.386060e-08	4.063874e+01	9.105714e+02
2.070000e-06	5.661881e-06	1.378211e-08	3.987094e+01	9.032096e+02
2.080000e-06	5.550786e-06	1.369825e-08	3.908861e+01	8.955653e+02
2.090000e-06	5.437579e-06	1.357955e-08	3.829141e+01	8.876354e+02
2.100000e-06	5.322335e-06	1.340893e-08	3.747986e+01	8.794205e+02
2.110000e-06	5.205079e-06	1.327182e-08	3.665414e+01	8.709237e+02
2.120000e-06	5.085709e-06	1.316966e-08	3.581354e+01	8.621487e+02
2.130000e-06	4.964395e-06	1.306061e-08	3.495925e+01	8.530981e+02
2.140000e-06	4.841391e-06	1.290053e-08	3.409306e+01	8.437710e+02
2.150000e-06	4.716677e-06	1.272030e-08	3.321482e+01	8.341621e+02
2.160000e-06	4.590260e-06	1.257407e-08	3.232459e+01	8.242602e+02
2.170000e-06	4.462133e-06	1.244340e-08	3.142232e+01	8.140483e+02
2.180000e-06	4.332346e-06	1.229032e-08	3.050836e+01	8.035046e+02
2.190000e-06	4.201050e-06	1.209601e-08	2.958377e+01	7.926040e+02
2.200000e-06	4.068186e-06	1.191442e-08	2.864815e+01	7.813201e+02
2.210000e-06	3.933819e-06	1.175098e-08	2.770193e+01	7.696280e+02
2.220000e-06	3.797927e-06	1.158546e-08	2.674499e+01	7.575067e+02
2.230000e-06	3.660487e-06	1.138306e-08	2.577714e+01	7.449406e+02
2.240000e-06	3.521703e-06	1.116641e-08	2.479982e+01	7.319208e+02
2.250000e-06	3.381515e-06	1.096379e-08	2.381262e+01	7.184449e+02
2.260000e-06	3.240013e-06	1.077426e-08	2.281616e+01	7.045155e+02
2.270000e-06	3.097316e-06	1.056395e-08	2.181129e+01	6.901385e+02
2.280000e-06	2.953353e-06	1.032295e-08	2.079750e+01	6.753195e+02
2.290000e-06	2.808208e-06	1.007949e-08	1.977539e+01	6.600611e+02
2.300000e-06	2.662132e-06	9.849415e-09	1.874672e+01	6.443597e+02
2.310000e-06	2.515305e-06	9.616901e-09	1.771277e+01	6.282031e+02
2.320000e-06	2.367644e-06	9.356717e-09	1.667294e+01	6.115699e+02
2.330000e-06	2.219065e-06	9.079236e-09	1.562665e+01	5.944295e+02
2.340000e-06	2.069654e-06	8.803353e-09	1.457449e+01	5.767442e+02
2.350000e-06	1.919569e-06	8.533628e-09	1.351760e+01	5.584720e+02
2.360000e-06	1.768996e-06	8.253212e-09	1.245726e+01	5.395710e+02
2.370000e-06	1.617910e-06	7.947957e-09	1.139331e+01	5.200034e+02
2.380000e-06	1.466253e-06	7.628288e-09	1.032534e+01	4.997393e+02
2.390000e-06	1.314057e-06	7.313289e-09	9.253583e+00	4.787594e+02
2.400000e-06	1.161335e-06	7.001000e-09	8.178117e+00	4.570562e+02
2.410000e-06	1.008134e-06	6.667965e-09	7.099274e+00	4.346330e+02
2.420000e-06	8.545137e-07	6.304620e-09	6.017481e+00	4.115005e+02
2.430000e-06	7.006181e-07	5.931722e-09	4.933749e+00	3.876727e+02
2.440000e-06	5.465328e-07	5.565132e-09	3.848681e+00	3.631603e+02
2.450000e-06	3.922830e-07	5.196423e-09	2.762455e+00	3.379645e+02
2.460000e-06	2.379322e-07	4.801830e-09	1.675517e+00	3.120713e+02
2.470000e-06	8.351061e-08	4.378412e-09	5.880814e-01	2.854472e+02
2.480000e-06	-7.092418e-08	3.949118e-09	-4.994478e-01	2.580378e+02
2.490000e-06	-2.253612e-07	3.525229e-09	-1.586993e+00	2.297690e+02
2.500000e-06	-3.797836e-07	3.091710e-09	-2.674435e+00	2.005523e+02
2.510000e-06	-5.341268e-07	2.626764e-09	-3.761318e+00	1.702930e+02
2.520000e-06	-6.883667e-07	2.133116e-09	-4.847475e+00	1.389011e+02
2.530000e-06	-8.424466e-07	1.633971e-09	-5.932505e+00	1.063039e+02
2.540000e-06	-9.962392e-07	1.134852e-09	-7.015512e+00	7.245920e+01
2.550000e-06	-1.149606e-06	6.158271e-10	-8.095521e+00	3.736734e+01
2.560000e-06	-1.302474e-06	5.979072e-11	-9.172016e+00	1.080385e+00
2.570000e-06	-1.454763e-06	-5.206015e-10	-1.024444e+01	-3.629191e+01
2.580000e-06	-1.606422e-06	-1.102214e-09	-1.131242e+01	-7.458102e+01
2.590000e-06	-1.757558e-06	-1.687094e-09	-1.237671e+01	-1.135636e+02
2.600000e-06	-1.908184e-06	-2.291119e-09	-1.343742e+01	-1.529702e+02
2.610000e-06	-2.058092e-06	-2.911770e-09	-1.449307e+01	-1.924983e+02
2.620000e-06	-2.207147e-06	-3.525197e-09	-1.554272e+01	-2.318287e+02
2.630000e-06	-2.355349e-06	-4.115631e-09	-1.658636e+01	-2.706430e+02
2.640000e-06	-2.502655e-06	-4.688691e-09	-1.762369e+01	-3.086411e+02
2.650000e-06	-2.649076e-06	-5.256520e-09	-1.865478e+01	-3.455576e+02
2.660000e-06	-2.794600e-06	-5.813205e-09	-1.967956e+01	-3.811747e+02
2.670000e-06	-2.939021e-06	-6.336190e-09	-2.069658e+01	-4.153301e+02
2.680000e-06	-3.082299e-06	-6.819956e-09	-2.170554e+01	-4.479214e+02
2.690000e-06	-3.224336e-06	-7.282529e-09	-2.270576e+01	-4.789048e+02
2.700000e-06	-3.365031e-06	-7.736920e-09	-2.369653e+01	-5.082891e+02
2.710000e-06	-3.504443e-06	-8.172649e-09	-2.467827e+01	-5.361267e+02
2.720000e-06	-3.642572e-06	-8.574561e-09	-2.565097e+01	-5.625018e+02
2.730000e-06	-3.779379e-06	-8.950315e-09	-2.661437e+01	-5.875180e+02
2.740000e-06	-3.914796e-06	-9.316144e-09	-2.756798e+01	-6.112860e+02
2.750000e-06	-4.048788e-06	-9.673770e-09	-2.851155e+01	-6.339128e+02
2.760000e-06	-4.181367e-06	-1.001118e-08	-2.944517e+01	-6.554943e+02
2.770000e-06	-4.312519e-06	-1.032213e-08	-3.036874e+01	-6.761096e+02
2.780000e-06	-4.442236e-06	-1.061537e-08	-3.128221e+01	-6.958200e+02
2.790000e-06	-4.570412e-06	-1.090274e-08	-3.218482e+01	-7.146693e+02
2.800000e-06	-4.696954e-06	-1.118351e-08	-3.307593e+01	-7.326878e+02
2.810000e-06	-4.821892e-06	-1.144572e-08	-3.395574e+01	-7.498966e+02
2.820000e-06	-4.945152e-06	-1.168799e-08	-3.482374e+01	-7.663126e+02
2.830000e-06	-5.066661e-06	-1.192250e-08	-3.567940e+01	-7.819537e+02
2.840000e-06	-5.186308e-06	-1.215620e-08	-3.652196e+01	-7.968420e+02
2.850000e-06	-5.303902e-06	-1.238116e-08	-3.735006e+01	-8.110059e+02
2.860000e-06	-5.419326e-06	-1.258950e-08	-3.816287e+01	-8.244802e+02
2.870000e-06	-5.532501e-06	-1.278323e-08	-3.895985e+01	-8.373055e+02
2.880000e-06	-5.643474e-06	-1.296973e-08	-3.974132e+01	-8.495249e+02
2.890000e-06	-5.752446e-06	-1.315211e-08	-4.050870e+01	-8.611813e+02
2.900000e-06	-5.859517e-06	-1.332454e-08	-4.126269e+01	-8.723141e+02
2.910000e-06	-5.964571e-06	-1.348387e-08	-4.200248e+01	-8.829566e+02
2.920000e-06	-6.067337e-06	-1.363539e-08	-4.272616e+01	-8.931343e+02
2.930000e-06	-6.167795e-06	-1.378563e-08	-4.343359e+01	-9.028647e+02
2.940000e-06	-6.266091e-06	-1.393159e-08	-4.412578e+01	-9.121576e+02
