# Temperatura_=_20.0
# Concentracion g/m^3_=_12600.0
# C_Vs_to_Am_M_A/Vsm_=_65563218390.804596
# pendiente_HvsI_1/m_=_3716.3
# ordenada_HvsI_A/m_=_1297.0
# frecuencia_Hz_=_302281.5550439253

Tiempo_(s)	Campo_(V.s)	Magnetizacion_(V.s)	Campo_(kA/m)	Magnetizacion_(A/m)
0.000000e+00	-8.140267e-06	-2.344879e-08	-5.694130e+01	-1.536483e+03
1.000000e-08	-8.136800e-06	-2.344535e-08	-5.691705e+01	-1.535915e+03
2.000000e-08	-8.130739e-06	-2.343611e-08	-5.687466e+01	-1.535138e+03
3.000000e-08	-8.121984e-06	-2.342416e-08	-5.681341e+01	-1.534175e+03
4.000000e-08	-8.110364e-06	-2.340945e-08	-5.673213e+01	-1.533048e+03
5.000000e-08	-8.095733e-06	-2.339277e-08	-5.662978e+01	-1.531774e+03
6.000000e-08	-8.078279e-06	-2.337263e-08	-5.650770e+01	-1.530366e+03
7.000000e-08	-8.058536e-06	-2.334291e-08	-5.636960e+01	-1.528830e+03
8.000000e-08	-8.036372e-06	-2.333347e-08	-5.621456e+01	-1.527166e+03
9.000000e-08	-8.011082e-06	-2.336215e-08	-5.603765e+01	-1.525368e+03
1.000000e-07	-7.982529e-06	-2.331493e-08	-5.583792e+01	-1.523428e+03
1.100000e-07	-7.950960e-06	-2.322568e-08	-5.561709e+01	-1.521338e+03
1.200000e-07	-7.916394e-06	-2.316416e-08	-5.537531e+01	-1.519092e+03
1.300000e-07	-7.879131e-06	-2.314424e-08	-5.511465e+01	-1.516683e+03
1.400000e-07	-7.839624e-06	-2.312181e-08	-5.483830e+01	-1.514112e+03
1.500000e-07	-7.797915e-06	-2.305498e-08	-5.454655e+01	-1.511378e+03
1.600000e-07	-7.753579e-06	-2.304616e-08	-5.423642e+01	-1.508481e+03
1.700000e-07	-7.706397e-06	-2.291389e-08	-5.390638e+01	-1.505422e+03
1.800000e-07	-7.656361e-06	-2.291495e-08	-5.355637e+01	-1.502194e+03
1.900000e-07	-7.603343e-06	-2.293869e-08	-5.318551e+01	-1.498788e+03
2.000000e-07	-7.547443e-06	-2.275660e-08	-5.279449e+01	-1.495187e+03
2.100000e-07	-7.488808e-06	-2.269831e-08	-5.238434e+01	-1.491368e+03
2.200000e-07	-7.427496e-06	-2.267521e-08	-5.195546e+01	-1.487303e+03
2.300000e-07	-7.363543e-06	-2.265907e-08	-5.150810e+01	-1.482965e+03
2.400000e-07	-7.296770e-06	-2.254561e-08	-5.104103e+01	-1.478325e+03
2.500000e-07	-7.227159e-06	-2.239241e-08	-5.055410e+01	-1.473362e+03
2.600000e-07	-7.154774e-06	-2.233632e-08	-5.004776e+01	-1.468062e+03
2.700000e-07	-7.079591e-06	-2.231019e-08	-4.952186e+01	-1.462422e+03
2.800000e-07	-7.001588e-06	-2.224556e-08	-4.897622e+01	-1.456449e+03
2.900000e-07	-6.920764e-06	-2.206910e-08	-4.841086e+01	-1.450160e+03
3.000000e-07	-6.837439e-06	-2.194494e-08	-4.782800e+01	-1.443580e+03
3.100000e-07	-6.751866e-06	-2.190175e-08	-4.722941e+01	-1.436735e+03
3.200000e-07	-6.663834e-06	-2.182564e-08	-4.661363e+01	-1.429651e+03
3.300000e-07	-6.573300e-06	-2.170489e-08	-4.598034e+01	-1.422347e+03
3.400000e-07	-6.480482e-06	-2.154323e-08	-4.533108e+01	-1.414834e+03
3.500000e-07	-6.385340e-06	-2.143599e-08	-4.466556e+01	-1.407106e+03
3.600000e-07	-6.287831e-06	-2.135366e-08	-4.398348e+01	-1.399148e+03
3.700000e-07	-6.187995e-06	-2.123622e-08	-4.328513e+01	-1.390932e+03
3.800000e-07	-6.085956e-06	-2.106301e-08	-4.257136e+01	-1.382422e+03
3.900000e-07	-5.981715e-06	-2.089910e-08	-4.184220e+01	-1.373576e+03
4.000000e-07	-5.875350e-06	-2.079422e-08	-4.109817e+01	-1.364358e+03
4.100000e-07	-5.766986e-06	-2.067340e-08	-4.034017e+01	-1.354736e+03
4.200000e-07	-5.656582e-06	-2.050326e-08	-3.956789e+01	-1.344689e+03
4.300000e-07	-5.544045e-06	-2.030269e-08	-3.878069e+01	-1.334209e+03
4.400000e-07	-5.429379e-06	-2.014848e-08	-3.797860e+01	-1.323301e+03
4.500000e-07	-5.312728e-06	-2.001517e-08	-3.716262e+01	-1.311981e+03
4.600000e-07	-5.194128e-06	-1.984482e-08	-3.633301e+01	-1.300271e+03
4.700000e-07	-5.073616e-06	-1.963404e-08	-3.549003e+01	-1.288193e+03
4.800000e-07	-4.951315e-06	-1.943513e-08	-3.463453e+01	-1.275763e+03
4.900000e-07	-4.827237e-06	-1.926373e-08	-3.376660e+01	-1.262988e+03
5.000000e-07	-4.701429e-06	-1.907699e-08	-3.288657e+01	-1.249859e+03
5.100000e-07	-4.573847e-06	-1.885841e-08	-3.199414e+01	-1.236351e+03
5.200000e-07	-4.444479e-06	-1.862234e-08	-3.108920e+01	-1.222423e+03
5.300000e-07	-4.313562e-06	-1.840237e-08	-3.017344e+01	-1.208023e+03
5.400000e-07	-4.181076e-06	-1.818663e-08	-2.924670e+01	-1.193092e+03
5.500000e-07	-4.047043e-06	-1.795007e-08	-2.830913e+01	-1.177572e+03
5.600000e-07	-3.911416e-06	-1.768823e-08	-2.736042e+01	-1.161413e+03
5.700000e-07	-3.774157e-06	-1.742355e-08	-2.640029e+01	-1.144579e+03
5.800000e-07	-3.635456e-06	-1.716800e-08	-2.543007e+01	-1.127049e+03
5.900000e-07	-3.495311e-06	-1.690058e-08	-2.444976e+01	-1.108822e+03
6.000000e-07	-3.353615e-06	-1.661088e-08	-2.345860e+01	-1.089913e+03
6.100000e-07	-3.210592e-06	-1.630553e-08	-2.245815e+01	-1.070345e+03
6.200000e-07	-3.066442e-06	-1.600088e-08	-2.144981e+01	-1.050146e+03
6.300000e-07	-2.921213e-06	-1.569481e-08	-2.043393e+01	-1.029335e+03
6.400000e-07	-2.774911e-06	-1.537439e-08	-1.941055e+01	-1.007918e+03
6.500000e-07	-2.627552e-06	-1.502984e-08	-1.837977e+01	-9.858785e+02
6.600000e-07	-2.479354e-06	-1.467255e-08	-1.734312e+01	-9.631745e+02
6.700000e-07	-2.330316e-06	-1.431600e-08	-1.630060e+01	-9.397381e+02
6.800000e-07	-2.180456e-06	-1.394854e-08	-1.525232e+01	-9.154794e+02
6.900000e-07	-2.029942e-06	-1.355659e-08	-1.419947e+01	-8.902944e+02
7.000000e-07	-1.878813e-06	-1.313890e-08	-1.314233e+01	-8.640741e+02
7.100000e-07	-1.727006e-06	-1.271554e-08	-1.208044e+01	-8.367168e+02
7.200000e-07	-1.574496e-06	-1.228997e-08	-1.101363e+01	-8.081375e+02
7.300000e-07	-1.421393e-06	-1.184681e-08	-9.942670e+00	-7.782760e+02
7.400000e-07	-1.267808e-06	-1.137172e-08	-8.868335e+00	-7.471008e+02
7.500000e-07	-1.113838e-06	-1.086975e-08	-7.791316e+00	-7.146071e+02
7.600000e-07	-9.595738e-07	-1.035826e-08	-6.712235e+00	-6.808101e+02
7.700000e-07	-8.050314e-07	-9.840367e-09	-5.631208e+00	-6.457340e+02
7.800000e-07	-6.502346e-07	-9.297252e-09	-4.548402e+00	-6.093963e+02
7.900000e-07	-4.952348e-07	-8.711469e-09	-3.464175e+00	-5.717924e+02
8.000000e-07	-3.400819e-07	-8.099984e-09	-2.378879e+00	-5.328812e+02
8.100000e-07	-1.847966e-07	-7.483250e-09	-1.292655e+00	-4.925739e+02
8.200000e-07	-2.940908e-08	-6.853304e-09	-2.057170e-01	-4.507304e+02
8.300000e-07	1.259967e-07	-6.180416e-09	8.813493e-01	-4.071628e+02
8.400000e-07	2.813415e-07	-5.459941e-09	1.967989e+00	-3.616477e+02
8.500000e-07	4.366473e-07	-4.718534e-09	3.054355e+00	-3.139469e+02
8.600000e-07	5.918759e-07	-3.968665e-09	4.140182e+00	-2.638342e+02
8.700000e-07	7.469008e-07	-3.185572e-09	5.224584e+00	-2.111268e+02
8.800000e-07	9.017241e-07	-2.341594e-09	6.307575e+00	-1.557172e+02
8.900000e-07	1.056276e-06	-1.449895e-09	7.388668e+00	-9.760098e+01
9.000000e-07	1.210516e-06	-5.372275e-10	8.467578e+00	-3.689981e+01
9.100000e-07	1.364448e-06	3.975177e-10	9.544337e+00	2.612698e+01
9.200000e-07	1.517966e-06	1.383632e-09	1.061820e+01	9.108167e+01
9.300000e-07	1.670953e-06	2.422539e-09	1.168834e+01	1.574402e+02
9.400000e-07	1.823270e-06	3.473927e-09	1.275381e+01	2.245765e+02
9.500000e-07	1.974788e-06	4.503269e-09	1.381367e+01	2.917960e+02
9.600000e-07	2.125510e-06	5.511656e-09	1.486798e+01	3.583773e+02
9.700000e-07	2.275487e-06	6.512926e-09	1.591707e+01	4.236155e+02
9.800000e-07	2.424601e-06	7.489088e-09	1.696013e+01	4.868654e+02
9.900000e-07	2.572702e-06	8.407757e-09	1.799610e+01	5.475782e+02
1.000000e-06	2.719829e-06	9.258313e-09	1.902525e+01	6.053298e+02
1.010000e-06	2.866014e-06	1.006286e-08	2.004782e+01	6.598382e+02
1.020000e-06	3.011122e-06	1.083678e-08	2.106285e+01	7.109671e+02
1.030000e-06	3.155118e-06	1.156683e-08	2.207011e+01	7.587181e+02
1.040000e-06	3.297903e-06	1.223684e-08	2.306889e+01	8.032118e+02
1.050000e-06	3.439331e-06	1.285550e-08	2.405818e+01	8.446610e+02
1.060000e-06	3.579374e-06	1.344788e-08	2.503778e+01	8.833386e+02
1.070000e-06	3.718090e-06	1.401788e-08	2.600810e+01	9.195451e+02
1.080000e-06	3.855480e-06	1.455293e-08	2.696915e+01	9.535784e+02
1.090000e-06	3.991436e-06	1.504308e-08	2.792016e+01	9.857090e+02
1.100000e-06	4.125918e-06	1.550108e-08	2.886087e+01	1.016163e+03
1.110000e-06	4.258887e-06	1.594274e-08	2.979099e+01	1.045113e+03
1.120000e-06	4.390323e-06	1.636569e-08	3.071038e+01	1.072677e+03
1.130000e-06	4.520253e-06	1.675983e-08	3.161924e+01	1.098929e+03
1.140000e-06	4.648639e-06	1.712631e-08	3.251731e+01	1.123905e+03
1.150000e-06	4.775393e-06	1.747823e-08	3.340395e+01	1.147624e+03
1.160000e-06	4.900491e-06	1.781996e-08	3.427902e+01	1.170096e+03
1.170000e-06	5.023866e-06	1.814435e-08	3.514203e+01	1.191343e+03
1.180000e-06	5.145505e-06	1.844813e-08	3.599290e+01	1.211401e+03
1.190000e-06	5.265304e-06	1.873456e-08	3.683089e+01	1.230329e+03
1.200000e-06	5.383127e-06	1.900737e-08	3.765506e+01	1.248206e+03
1.210000e-06	5.498917e-06	1.927100e-08	3.846501e+01	1.265125e+03
1.220000e-06	5.612577e-06	1.952237e-08	3.926007e+01	1.281189e+03
1.230000e-06	5.724062e-06	1.975899e-08	4.003991e+01	1.296498e+03
1.240000e-06	5.833491e-06	1.998012e-08	4.080537e+01	1.311142e+03
1.250000e-06	5.940892e-06	2.019125e-08	4.155664e+01	1.325190e+03
1.260000e-06	6.046135e-06	2.039702e-08	4.229282e+01	1.338691e+03
1.270000e-06	6.149156e-06	2.059371e-08	4.301345e+01	1.351668e+03
1.280000e-06	6.249894e-06	2.077928e-08	4.371811e+01	1.364121e+03
1.290000e-06	6.348309e-06	2.095518e-08	4.440653e+01	1.376038e+03
1.300000e-06	6.444314e-06	2.112628e-08	4.507809e+01	1.387395e+03
1.310000e-06	6.537986e-06	2.129240e-08	4.573332e+01	1.398170e+03
1.320000e-06	6.629354e-06	2.145016e-08	4.637244e+01	1.408345e+03
1.330000e-06	6.718315e-06	2.159590e-08	4.699472e+01	1.417920e+03
1.340000e-06	6.804913e-06	2.172986e-08	4.760048e+01	1.426908e+03
1.350000e-06	6.889158e-06	2.185982e-08	4.818977e+01	1.435338e+03
1.360000e-06	6.970963e-06	2.198829e-08	4.876200e+01	1.443255e+03
1.370000e-06	7.050263e-06	2.211010e-08	4.931671e+01	1.450711e+03
1.380000e-06	7.126985e-06	2.221938e-08	4.985338e+01	1.457762e+03
1.390000e-06	7.201010e-06	2.232074e-08	5.037119e+01	1.464459e+03
1.400000e-06	7.272330e-06	2.242131e-08	5.087007e+01	1.470845e+03
1.410000e-06	7.341126e-06	2.251800e-08	5.135130e+01	1.476949e+03
1.420000e-06	7.407316e-06	2.260455e-08	5.181430e+01	1.482783e+03
1.430000e-06	7.470775e-06	2.268087e-08	5.225819e+01	1.488347e+03
1.440000e-06	7.531727e-06	2.275456e-08	5.268455e+01	1.493627e+03
1.450000e-06	7.590166e-06	2.282920e-08	5.309334e+01	1.498603e+03
1.460000e-06	7.645901e-06	2.290052e-08	5.348320e+01	1.503253e+03
1.470000e-06	7.698770e-06	2.296428e-08	5.385302e+01	1.507559e+03
1.480000e-06	7.748519e-06	2.302285e-08	5.420102e+01	1.511509e+03
1.490000e-06	7.795272e-06	2.308177e-08	5.452806e+01	1.515105e+03
1.500000e-06	7.839276e-06	2.313751e-08	5.483587e+01	1.518358e+03
1.510000e-06	7.880434e-06	2.318405e-08	5.512377e+01	1.521289e+03
1.520000e-06	7.918769e-06	2.322309e-08	5.539192e+01	1.523928e+03
1.530000e-06	7.954352e-06	2.325957e-08	5.564083e+01	1.526306e+03
1.540000e-06	7.987051e-06	2.329430e-08	5.586956e+01	1.528456e+03
1.550000e-06	8.016949e-06	2.332411e-08	5.607869e+01	1.530403e+03
1.560000e-06	8.044058e-06	2.334872e-08	5.626832e+01	1.532164e+03
1.570000e-06	8.068134e-06	2.337014e-08	5.643673e+01	1.533746e+03
1.580000e-06	8.089337e-06	2.338961e-08	5.658505e+01	1.535146e+03
1.590000e-06	8.107790e-06	2.340787e-08	5.671412e+01	1.536352e+03
1.600000e-06	8.123247e-06	2.342232e-08	5.682225e+01	1.537348e+03
1.610000e-06	8.135601e-06	2.343152e-08	5.690866e+01	1.538115e+03
1.620000e-06	8.144746e-06	2.343769e-08	5.697263e+01	1.538638e+03
1.630000e-06	8.150846e-06	2.344357e-08	5.701530e+01	1.538905e+03
1.640000e-06	8.154145e-06	2.344633e-08	5.703838e+01	1.538915e+03
1.650000e-06	8.154591e-06	2.344411e-08	5.704150e+01	1.538674e+03
1.660000e-06	8.152301e-06	2.343136e-08	5.702549e+01	1.538194e+03
1.670000e-06	8.147248e-06	2.342123e-08	5.699013e+01	1.537496e+03
1.680000e-06	8.139385e-06	2.341213e-08	5.693513e+01	1.536603e+03
1.690000e-06	8.128864e-06	2.339768e-08	5.686154e+01	1.535537e+03
1.700000e-06	8.115469e-06	2.338260e-08	5.676784e+01	1.534318e+03
1.710000e-06	8.099266e-06	2.336787e-08	5.665450e+01	1.532962e+03
1.720000e-06	8.080722e-06	2.335559e-08	5.652478e+01	1.531475e+03
1.730000e-06	8.059763e-06	2.329248e-08	5.637818e+01	1.529861e+03
1.740000e-06	8.035737e-06	2.320199e-08	5.621011e+01	1.528116e+03
1.750000e-06	8.008025e-06	2.320324e-08	5.601627e+01	1.526233e+03
1.760000e-06	7.976674e-06	2.321409e-08	5.579697e+01	1.524202e+03
1.770000e-06	7.942514e-06	2.319178e-08	5.555802e+01	1.522018e+03
1.780000e-06	7.906080e-06	2.315937e-08	5.530316e+01	1.519673e+03
1.790000e-06	7.867346e-06	2.313800e-08	5.503221e+01	1.517165e+03
1.800000e-06	7.826552e-06	2.299827e-08	5.474686e+01	1.514494e+03
1.810000e-06	7.783373e-06	2.302413e-08	5.444482e+01	1.511661e+03
1.820000e-06	7.737417e-06	2.306151e-08	5.412336e+01	1.508666e+03
1.830000e-06	7.688781e-06	2.293204e-08	5.378315e+01	1.505504e+03
1.840000e-06	7.637080e-06	2.298391e-08	5.342150e+01	1.502170e+03
1.850000e-06	7.582410e-06	2.288751e-08	5.303909e+01	1.498647e+03
1.860000e-06	7.525023e-06	2.284935e-08	5.263766e+01	1.494916e+03
1.870000e-06	7.464845e-06	2.276061e-08	5.221671e+01	1.490951e+03
1.880000e-06	7.401951e-06	2.263409e-08	5.177677e+01	1.486723e+03
1.890000e-06	7.336165e-06	2.267542e-08	5.131660e+01	1.482204e+03
1.900000e-06	7.267517e-06	2.256640e-08	5.083641e+01	1.477370e+03
1.910000e-06	7.196046e-06	2.250759e-08	5.033646e+01	1.472203e+03
1.920000e-06	7.121771e-06	2.236006e-08	4.981691e+01	1.466696e+03
1.930000e-06	7.044708e-06	2.225320e-08	4.927785e+01	1.460851e+03
1.940000e-06	6.964804e-06	2.223694e-08	4.871892e+01	1.454683e+03
1.950000e-06	6.882359e-06	2.213742e-08	4.814221e+01	1.448214e+03
1.960000e-06	6.797386e-06	2.206205e-08	4.754783e+01	1.441469e+03
1.970000e-06	6.709885e-06	2.186894e-08	4.693576e+01	1.434476e+03
1.980000e-06	6.620071e-06	2.176667e-08	4.630750e+01	1.427256e+03
1.990000e-06	6.527906e-06	2.169615e-08	4.566281e+01	1.419824e+03
2.000000e-06	6.433445e-06	2.160865e-08	4.500205e+01	1.412182e+03
2.010000e-06	6.336714e-06	2.146754e-08	4.432542e+01	1.404317e+03
2.020000e-06	6.237707e-06	2.128503e-08	4.363286e+01	1.396206e+03
2.030000e-06	6.136463e-06	2.118299e-08	4.292466e+01	1.387815e+03
2.040000e-06	6.033025e-06	2.107245e-08	4.220111e+01	1.379105e+03
2.050000e-06	5.927440e-06	2.094411e-08	4.146254e+01	1.370037e+03
2.060000e-06	5.819797e-06	2.074578e-08	4.070958e+01	1.360577e+03
2.070000e-06	5.710150e-06	2.058579e-08	3.994260e+01	1.350698e+03
2.080000e-06	5.598434e-06	2.045676e-08	3.916114e+01	1.340387e+03
2.090000e-06	5.484597e-06	2.032455e-08	3.836485e+01	1.329646e+03
2.100000e-06	5.368571e-06	2.014452e-08	3.755325e+01	1.318485e+03
2.110000e-06	5.250511e-06	1.994010e-08	3.672741e+01	1.306925e+03
2.120000e-06	5.130543e-06	1.975858e-08	3.588823e+01	1.294988e+03
2.130000e-06	5.008717e-06	1.959754e-08	3.503606e+01	1.282695e+03
2.140000e-06	4.885106e-06	1.942872e-08	3.417140e+01	1.270055e+03
2.150000e-06	4.759685e-06	1.920869e-08	3.329408e+01	1.257067e+03
2.160000e-06	4.632542e-06	1.898087e-08	3.240471e+01	1.243711e+03
2.170000e-06	4.503690e-06	1.876715e-08	3.150339e+01	1.229954e+03
2.180000e-06	4.373233e-06	1.857205e-08	3.059084e+01	1.215745e+03
2.190000e-06	4.241172e-06	1.834499e-08	2.966707e+01	1.201029e+03
2.200000e-06	4.107418e-06	1.809684e-08	2.873146e+01	1.185747e+03
2.210000e-06	3.972198e-06	1.784379e-08	2.778559e+01	1.169844e+03
2.220000e-06	3.835536e-06	1.760142e-08	2.682964e+01	1.153278e+03
2.230000e-06	3.697298e-06	1.734897e-08	2.586266e+01	1.136022e+03
2.240000e-06	3.557581e-06	1.707033e-08	2.488534e+01	1.118067e+03
2.250000e-06	3.416494e-06	1.677903e-08	2.389844e+01	1.099423e+03
2.260000e-06	3.274139e-06	1.649192e-08	2.290265e+01	1.080111e+03
2.270000e-06	3.130606e-06	1.620594e-08	2.189864e+01	1.060156e+03
2.280000e-06	2.985881e-06	1.589401e-08	2.088629e+01	1.039583e+03
2.290000e-06	2.840046e-06	1.556164e-08	1.986617e+01	1.018404e+03
2.300000e-06	2.693213e-06	1.522574e-08	1.883907e+01	9.966125e+02
2.310000e-06	2.545465e-06	1.489448e-08	1.780557e+01	9.741758e+02
2.320000e-06	2.396811e-06	1.454203e-08	1.676573e+01	9.510363e+02
2.330000e-06	2.247208e-06	1.415914e-08	1.571926e+01	9.271120e+02
2.340000e-06	2.096778e-06	1.376492e-08	1.466700e+01	9.023034e+02
2.350000e-06	1.945702e-06	1.337486e-08	1.361022e+01	8.765021e+02
2.360000e-06	1.794176e-06	1.297877e-08	1.255029e+01	8.496024e+02
2.370000e-06	1.642233e-06	1.254915e-08	1.148744e+01	8.215113e+02
2.380000e-06	1.489788e-06	1.208575e-08	1.042109e+01	7.921584e+02
2.390000e-06	1.336799e-06	1.161666e-08	9.350934e+00	7.615008e+02
2.400000e-06	1.183268e-06	1.115451e-08	8.276981e+00	7.295237e+02
2.410000e-06	1.029197e-06	1.067101e-08	7.199253e+00	6.962355e+02
2.420000e-06	8.747185e-07	1.013798e-08	6.118670e+00	6.616587e+02
2.430000e-06	7.199643e-07	9.574340e-09	5.036163e+00	6.258150e+02
2.440000e-06	5.649848e-07	9.013384e-09	3.952078e+00	5.887107e+02
2.450000e-06	4.098535e-07	8.447276e-09	2.866932e+00	5.503204e+02
2.460000e-06	2.545337e-07	7.839886e-09	1.780468e+00	5.105750e+02
2.470000e-06	9.906396e-08	7.182038e-09	6.929541e-01	4.693545e+02
2.480000e-06	-5.648958e-08	6.504434e-09	-3.951456e-01	4.264888e+02
2.490000e-06	-2.120292e-07	5.828038e-09	-1.483148e+00	3.817664e+02
2.500000e-06	-3.674896e-07	5.127872e-09	-2.570596e+00	3.349521e+02
2.510000e-06	-5.229167e-07	4.372770e-09	-3.657811e+00	2.858114e+02
2.520000e-06	-6.782186e-07	3.568803e-09	-4.744150e+00	2.341406e+02
2.530000e-06	-8.333169e-07	2.748548e-09	-5.829066e+00	1.797989e+02
2.540000e-06	-9.881599e-07	1.913752e-09	-6.912195e+00	1.227383e+02
2.550000e-06	-1.142612e-06	1.031632e-09	-7.992592e+00	6.302905e+01
2.560000e-06	-1.296585e-06	8.331377e-11	-9.069637e+00	8.755174e-01
2.570000e-06	-1.450003e-06	-9.090702e-10	-1.014279e+01	-6.337817e+01
2.580000e-06	-1.602754e-06	-1.913971e-09	-1.121129e+01	-1.292554e+02
2.590000e-06	-1.754866e-06	-2.931243e-09	-1.227532e+01	-1.961665e+02
2.600000e-06	-1.906430e-06	-3.974462e-09	-1.333551e+01	-2.634393e+02
2.610000e-06	-2.057416e-06	-5.029655e-09	-1.439166e+01	-3.303577e+02
2.620000e-06	-2.207652e-06	-6.056152e-09	-1.544256e+01	-3.962052e+02
2.630000e-06	-2.357030e-06	-7.027662e-09	-1.648746e+01	-4.603082e+02
2.640000e-06	-2.505519e-06	-7.952434e-09	-1.752615e+01	-5.220762e+02
2.650000e-06	-2.653038e-06	-8.848594e-09	-1.855804e+01	-5.810333e+02
2.660000e-06	-2.799608e-06	-9.707181e-09	-1.958330e+01	-6.368406e+02
2.670000e-06	-2.945077e-06	-1.050312e-08	-2.060086e+01	-6.893047e+02
2.680000e-06	-3.089285e-06	-1.123342e-08	-2.160960e+01	-7.383749e+02
2.690000e-06	-3.232347e-06	-1.192115e-08	-2.261032e+01	-7.841278e+02
2.700000e-06	-3.374200e-06	-1.258278e-08	-2.360259e+01	-8.267436e+02
2.710000e-06	-3.514743e-06	-1.320945e-08	-2.458569e+01	-8.664755e+02
2.720000e-06	-3.654021e-06	-1.378577e-08	-2.555994e+01	-9.036169e+02
2.730000e-06	-3.791924e-06	-1.431772e-08	-2.652457e+01	-9.384702e+02
2.740000e-06	-3.928313e-06	-1.482560e-08	-2.747862e+01	-9.713191e+02
2.750000e-06	-4.063312e-06	-1.531594e-08	-2.842293e+01	-1.002409e+03
2.760000e-06	-4.196950e-06	-1.577681e-08	-2.935774e+01	-1.031933e+03
2.770000e-06	-4.329040e-06	-1.619935e-08	-3.028171e+01	-1.060031e+03
2.780000e-06	-4.459641e-06	-1.659476e-08	-3.119526e+01	-1.086793e+03
2.790000e-06	-4.588757e-06	-1.697973e-08	-3.209843e+01	-1.112268e+03
2.800000e-06	-4.716267e-06	-1.735397e-08	-3.299036e+01	-1.136479e+03
2.810000e-06	-4.842209e-06	-1.770423e-08	-3.387133e+01	-1.159440e+03
2.820000e-06	-4.966429e-06	-1.802590e-08	-3.474026e+01	-1.181166e+03
2.830000e-06	-5.088856e-06	-1.833141e-08	-3.559663e+01	-1.201686e+03
2.840000e-06	-5.209474e-06	-1.863176e-08	-3.644036e+01	-1.221050e+03
2.850000e-06	-5.328103e-06	-1.892174e-08	-3.727017e+01	-1.239329e+03
2.860000e-06	-5.444592e-06	-1.919155e-08	-3.808501e+01	-1.256613e+03
2.870000e-06	-5.558838e-06	-1.944211e-08	-3.888417e+01	-1.273001e+03
2.880000e-06	-5.670888e-06	-1.968187e-08	-3.966796e+01	-1.288596e+03
2.890000e-06	-5.780823e-06	-1.991731e-08	-4.043695e+01	-1.303492e+03
2.900000e-06	-5.888718e-06	-2.014565e-08	-4.119168e+01	-1.317768e+03
2.910000e-06	-5.994610e-06	-2.035727e-08	-4.193239e+01	-1.331480e+03
2.920000e-06	-6.098298e-06	-2.055209e-08	-4.265769e+01	-1.344662e+03
2.930000e-06	-6.199676e-06	-2.073985e-08	-4.336684e+01	-1.357322e+03
2.940000e-06	-6.298835e-06	-2.092535e-08	-4.406045e+01	-1.369453e+03
