# Temperatura_=_20.0
# Concentracion g/m^3_=_12600.0
# C_Vs_to_Am_M_A/Vsm_=_65563218390.804596
# pendiente_HvsI_1/m_=_3716.3
# ordenada_HvsI_A/m_=_1297.0
# frecuencia_Hz_=_302314.19823864

Tiempo_(s)	Campo_(V.s)	Magnetizacion_(V.s)	Campo_(kA/m)	Magnetizacion_(A/m)
0.000000e+00	-8.108296e-06	-1.046379e-09	-5.693199e+01	-6.980557e+01
1.000000e-08	-8.105718e-06	-1.047314e-09	-5.691388e+01	-6.977288e+01
2.000000e-08	-8.100466e-06	-1.048537e-09	-5.687701e+01	-6.971937e+01
3.000000e-08	-8.092652e-06	-1.047801e-09	-5.682215e+01	-6.964328e+01
4.000000e-08	-8.082022e-06	-1.046977e-09	-5.674751e+01	-6.954295e+01
5.000000e-08	-8.068407e-06	-1.044509e-09	-5.665191e+01	-6.941689e+01
6.000000e-08	-8.051825e-06	-1.041792e-09	-5.653548e+01	-6.926385e+01
7.000000e-08	-8.032736e-06	-1.038717e-09	-5.640145e+01	-6.908281e+01
8.000000e-08	-8.011360e-06	-1.026436e-09	-5.625136e+01	-6.887302e+01
9.000000e-08	-7.987153e-06	-1.052050e-09	-5.608139e+01	-6.863393e+01
1.000000e-07	-7.959733e-06	-1.071868e-09	-5.588886e+01	-6.836518e+01
1.100000e-07	-7.929239e-06	-1.033973e-09	-5.567475e+01	-6.806655e+01
1.200000e-07	-7.895805e-06	-9.983177e-10	-5.543999e+01	-6.773798e+01
1.300000e-07	-7.859596e-06	-9.996313e-10	-5.518576e+01	-6.737956e+01
1.400000e-07	-7.821052e-06	-1.026073e-09	-5.491512e+01	-6.699157e+01
1.500000e-07	-7.780269e-06	-9.977474e-10	-5.462876e+01	-6.657453e+01
1.600000e-07	-7.736989e-06	-9.951427e-10	-5.432487e+01	-6.612921e+01
1.700000e-07	-7.690918e-06	-9.886108e-10	-5.400139e+01	-6.565669e+01
1.800000e-07	-7.642047e-06	-9.452297e-10	-5.365824e+01	-6.515835e+01
1.900000e-07	-7.590225e-06	-1.030281e-09	-5.329438e+01	-6.463580e+01
2.000000e-07	-7.535422e-06	-9.822626e-10	-5.290958e+01	-6.409083e+01
2.100000e-07	-7.477863e-06	-9.001004e-10	-5.250544e+01	-6.352524e+01
2.200000e-07	-7.417610e-06	-9.473276e-10	-5.208237e+01	-6.294071e+01
2.300000e-07	-7.354766e-06	-9.697231e-10	-5.164111e+01	-6.233860e+01
2.400000e-07	-7.289180e-06	-9.689934e-10	-5.118061e+01	-6.171985e+01
2.500000e-07	-7.220752e-06	-8.878884e-10	-5.070014e+01	-6.108479e+01
2.600000e-07	-7.149595e-06	-8.744721e-10	-5.020052e+01	-6.043308e+01
2.700000e-07	-7.075667e-06	-9.118582e-10	-4.968143e+01	-5.976377e+01
2.800000e-07	-6.998960e-06	-9.333167e-10	-4.914284e+01	-5.907534e+01
2.900000e-07	-6.919450e-06	-8.823642e-10	-4.858457e+01	-5.836583e+01
3.000000e-07	-6.837280e-06	-8.082200e-10	-4.800761e+01	-5.763315e+01
3.100000e-07	-6.752734e-06	-8.452284e-10	-4.741398e+01	-5.687523e+01
3.200000e-07	-6.665819e-06	-8.817882e-10	-4.680371e+01	-5.609034e+01
3.300000e-07	-6.576431e-06	-8.668091e-10	-4.617608e+01	-5.527734e+01
3.400000e-07	-6.484639e-06	-8.129151e-10	-4.553156e+01	-5.443576e+01
3.500000e-07	-6.390567e-06	-7.885190e-10	-4.487104e+01	-5.356601e+01
3.600000e-07	-6.294190e-06	-8.124484e-10	-4.419434e+01	-5.266927e+01
3.700000e-07	-6.195467e-06	-8.235342e-10	-4.350116e+01	-5.174742e+01
3.800000e-07	-6.094510e-06	-7.892671e-10	-4.279229e+01	-5.080289e+01
3.900000e-07	-5.991412e-06	-7.364380e-10	-4.206839e+01	-4.983834e+01
4.000000e-07	-5.886204e-06	-7.344835e-10	-4.132968e+01	-4.885639e+01
4.100000e-07	-5.778922e-06	-7.538835e-10	-4.057641e+01	-4.785940e+01
4.200000e-07	-5.669651e-06	-7.374048e-10	-3.980917e+01	-4.684915e+01
4.300000e-07	-5.558336e-06	-6.852949e-10	-3.902757e+01	-4.582675e+01
4.400000e-07	-5.444840e-06	-6.601168e-10	-3.823067e+01	-4.479256e+01
4.500000e-07	-5.329218e-06	-6.758443e-10	-3.741883e+01	-4.374622e+01
4.600000e-07	-5.211612e-06	-6.815940e-10	-3.659307e+01	-4.268678e+01
4.700000e-07	-5.092125e-06	-6.446689e-10	-3.575409e+01	-4.161292e+01
4.800000e-07	-4.970871e-06	-6.065551e-10	-3.490272e+01	-4.052321e+01
4.900000e-07	-4.847845e-06	-6.036384e-10	-3.403890e+01	-3.941636e+01
5.000000e-07	-4.723082e-06	-6.077755e-10	-3.316288e+01	-3.829146e+01
5.100000e-07	-4.596635e-06	-5.872796e-10	-3.227504e+01	-3.714818e+01
5.200000e-07	-4.468446e-06	-5.477376e-10	-3.137496e+01	-3.598681e+01
5.300000e-07	-4.338616e-06	-5.271779e-10	-3.046337e+01	-3.480831e+01
5.400000e-07	-4.207107e-06	-5.245653e-10	-2.953999e+01	-3.361418e+01
5.500000e-07	-4.073970e-06	-5.149008e-10	-2.860517e+01	-3.240632e+01
5.600000e-07	-3.939300e-06	-4.840468e-10	-2.765960e+01	-3.118676e+01
5.700000e-07	-3.803147e-06	-4.548093e-10	-2.670360e+01	-2.995747e+01
5.800000e-07	-3.665622e-06	-4.430088e-10	-2.573798e+01	-2.872012e+01
5.900000e-07	-3.526623e-06	-4.349953e-10	-2.476201e+01	-2.747593e+01
6.000000e-07	-3.386039e-06	-4.112128e-10	-2.377490e+01	-2.622554e+01
6.100000e-07	-3.244023e-06	-3.794334e-10	-2.277774e+01	-2.496907e+01
6.200000e-07	-3.100766e-06	-3.606968e-10	-2.177187e+01	-2.370611e+01
6.300000e-07	-2.956390e-06	-3.517341e-10	-2.075814e+01	-2.243598e+01
6.400000e-07	-2.810908e-06	-3.378277e-10	-1.973665e+01	-2.115783e+01
6.500000e-07	-2.664339e-06	-3.111783e-10	-1.870752e+01	-1.987094e+01
6.600000e-07	-2.516904e-06	-2.864942e-10	-1.767231e+01	-1.857488e+01
6.700000e-07	-2.368652e-06	-2.726915e-10	-1.663137e+01	-1.726966e+01
6.800000e-07	-2.219624e-06	-2.609221e-10	-1.558497e+01	-1.595586e+01
6.900000e-07	-2.069904e-06	-2.366452e-10	-1.453372e+01	-1.463455e+01
7.000000e-07	-1.919407e-06	-2.052972e-10	-1.347702e+01	-1.330732e+01
7.100000e-07	-1.768231e-06	-1.844586e-10	-1.241554e+01	-1.197604e+01
7.200000e-07	-1.616526e-06	-1.732624e-10	-1.135036e+01	-1.064270e+01
7.300000e-07	-1.464349e-06	-1.556575e-10	-1.028185e+01	-9.309177e+00
7.400000e-07	-1.311739e-06	-1.276997e-10	-9.210305e+00	-7.977061e+00
7.500000e-07	-1.158691e-06	-1.023132e-10	-8.135693e+00	-6.647466e+00
7.600000e-07	-1.005196e-06	-8.492102e-11	-7.057933e+00	-5.320941e+00
7.700000e-07	-8.513116e-07	-7.144291e-11	-5.977441e+00	-3.997454e+00
7.800000e-07	-6.971509e-07	-5.142659e-11	-4.895010e+00	-2.676447e+00
7.900000e-07	-5.428055e-07	-2.579519e-11	-3.811281e+00	-1.356964e+00
8.000000e-07	-3.883298e-07	-3.042121e-12	-2.726638e+00	-3.782004e-02
8.100000e-07	-2.337156e-07	1.243470e-11	-1.641022e+00	1.282198e+00
8.200000e-07	-7.900519e-08	2.633001e-11	-5.547309e-01	2.604150e+00
8.300000e-07	7.579049e-08	4.807600e-11	5.321591e-01	3.928785e+00
8.400000e-07	2.306513e-07	7.490518e-11	1.619506e+00	5.256445e+00
8.500000e-07	3.854619e-07	9.674953e-11	2.706501e+00	6.587025e+00
8.600000e-07	5.401511e-07	1.109210e-10	3.792643e+00	7.920010e+00
8.700000e-07	6.947172e-07	1.277730e-10	4.877922e+00	9.254559e+00
8.800000e-07	8.491044e-07	1.526269e-10	5.961943e+00	1.058963e+01
8.900000e-07	1.003188e-06	1.797485e-10	7.043837e+00	1.192413e+01
9.000000e-07	1.156886e-06	1.991781e-10	8.123017e+00	1.325702e+01
9.100000e-07	1.310179e-06	2.124127e-10	9.199355e+00	1.458746e+01
9.200000e-07	1.463007e-06	2.308815e-10	1.027243e+01	1.591483e+01
9.300000e-07	1.615342e-06	2.569546e-10	1.134204e+01	1.723875e+01
9.400000e-07	1.767142e-06	2.822432e-10	1.240790e+01	1.855900e+01
9.500000e-07	1.918286e-06	2.974932e-10	1.346915e+01	1.987547e+01
9.600000e-07	2.068694e-06	3.075612e-10	1.452523e+01	2.118800e+01
9.700000e-07	2.218331e-06	3.255862e-10	1.557590e+01	2.249629e+01
9.800000e-07	2.367132e-06	3.529000e-10	1.662070e+01	2.379981e+01
9.900000e-07	2.515035e-06	3.773333e-10	1.765919e+01	2.509772e+01
1.000000e-06	2.661989e-06	3.904736e-10	1.869102e+01	2.638889e+01
1.010000e-06	2.807938e-06	4.013578e-10	1.971579e+01	2.767193e+01
1.020000e-06	2.952835e-06	4.225859e-10	2.073318e+01	2.894534e+01
1.030000e-06	3.096634e-06	4.526292e-10	2.174285e+01	3.020758e+01
1.040000e-06	3.239290e-06	4.747647e-10	2.274451e+01	3.145726e+01
1.050000e-06	3.380713e-06	4.848594e-10	2.373751e+01	3.269328e+01
1.060000e-06	3.520724e-06	4.974946e-10	2.472058e+01	3.391493e+01
1.070000e-06	3.659306e-06	5.213966e-10	2.569363e+01	3.512194e+01
1.080000e-06	3.796581e-06	5.487855e-10	2.665750e+01	3.631445e+01
1.090000e-06	3.932446e-06	5.672300e-10	2.761147e+01	3.749297e+01
1.100000e-06	4.066837e-06	5.782052e-10	2.855509e+01	3.865825e+01
1.110000e-06	4.199830e-06	5.947822e-10	2.948889e+01	3.981104e+01
1.120000e-06	4.331343e-06	6.206815e-10	3.041230e+01	4.095200e+01
1.130000e-06	4.461265e-06	6.435389e-10	3.132455e+01	4.208142e+01
1.140000e-06	4.589647e-06	6.542266e-10	3.222597e+01	4.319915e+01
1.150000e-06	4.716475e-06	6.620340e-10	3.311649e+01	4.430447e+01
1.160000e-06	4.841729e-06	6.818178e-10	3.399595e+01	4.539608e+01
1.170000e-06	4.965285e-06	7.079735e-10	3.486349e+01	4.647218e+01
1.180000e-06	5.087038e-06	7.266004e-10	3.571838e+01	4.753051e+01
1.190000e-06	5.207011e-06	7.358810e-10	3.656076e+01	4.856862e+01
1.200000e-06	5.325089e-06	7.470981e-10	3.738984e+01	4.958398e+01
1.210000e-06	5.441136e-06	7.681838e-10	3.820466e+01	5.057423e+01
1.220000e-06	5.555073e-06	7.905778e-10	3.900466e+01	5.153734e+01
1.230000e-06	5.666933e-06	8.039066e-10	3.979008e+01	5.247174e+01
1.240000e-06	5.776727e-06	8.102581e-10	4.056100e+01	5.337640e+01
1.250000e-06	5.884430e-06	8.216924e-10	4.131723e+01	5.425087e+01
1.260000e-06	5.989994e-06	8.409226e-10	4.205844e+01	5.509517e+01
1.270000e-06	6.093318e-06	8.579750e-10	4.278392e+01	5.590977e+01
1.280000e-06	6.194392e-06	8.666657e-10	4.349361e+01	5.669544e+01
1.290000e-06	6.293162e-06	8.737253e-10	4.418711e+01	5.745311e+01
1.300000e-06	6.389540e-06	8.879127e-10	4.486383e+01	5.818375e+01
1.310000e-06	6.483587e-06	9.046860e-10	4.552417e+01	5.888831e+01
1.320000e-06	6.575377e-06	9.167434e-10	4.616867e+01	5.956761e+01
1.330000e-06	6.664836e-06	9.227126e-10	4.679681e+01	6.022237e+01
1.340000e-06	6.751917e-06	9.297040e-10	4.740824e+01	6.085321e+01
1.350000e-06	6.836673e-06	9.413272e-10	4.800335e+01	6.146068e+01
1.360000e-06	6.919010e-06	9.534739e-10	4.858148e+01	6.204534e+01
1.370000e-06	6.998800e-06	9.625766e-10	4.914171e+01	6.260777e+01
1.380000e-06	7.075995e-06	9.687683e-10	4.968373e+01	6.314866e+01
1.390000e-06	7.150544e-06	9.764830e-10	5.020718e+01	6.366871e+01
1.400000e-06	7.222440e-06	9.855439e-10	5.071200e+01	6.416868e+01
1.410000e-06	7.291820e-06	9.945531e-10	5.119914e+01	6.464930e+01
1.420000e-06	7.358614e-06	1.001338e-09	5.166813e+01	6.511114e+01
1.430000e-06	7.422710e-06	1.005752e-09	5.211818e+01	6.555458e+01
1.440000e-06	7.484315e-06	1.009989e-09	5.255074e+01	6.597969e+01
1.450000e-06	7.543364e-06	1.016088e-09	5.296535e+01	6.638618e+01
1.460000e-06	7.599688e-06	1.024092e-09	5.336082e+01	6.677342e+01
1.470000e-06	7.653255e-06	1.031231e-09	5.373694e+01	6.714046e+01
1.480000e-06	7.703762e-06	1.035515e-09	5.409157e+01	6.748612e+01
1.490000e-06	7.751159e-06	1.039959e-09	5.442437e+01	6.780912e+01
1.500000e-06	7.795796e-06	1.047364e-09	5.473778e+01	6.810826e+01
1.510000e-06	7.837712e-06	1.054314e-09	5.503210e+01	6.838253e+01
1.520000e-06	7.876795e-06	1.058267e-09	5.530652e+01	6.863129e+01
1.530000e-06	7.913140e-06	1.060263e-09	5.556171e+01	6.885437e+01
1.540000e-06	7.946692e-06	1.061894e-09	5.579730e+01	6.905211e+01
1.550000e-06	7.977388e-06	1.064386e-09	5.601282e+01	6.922535e+01
1.560000e-06	8.005285e-06	1.067362e-09	5.620870e+01	6.937536e+01
1.570000e-06	8.030236e-06	1.068837e-09	5.638389e+01	6.950372e+01
1.580000e-06	8.052257e-06	1.069195e-09	5.653851e+01	6.961213e+01
1.590000e-06	8.071531e-06	1.070693e-09	5.667384e+01	6.970223e+01
1.600000e-06	8.087920e-06	1.073932e-09	5.678892e+01	6.977542e+01
1.610000e-06	8.101224e-06	1.076484e-09	5.688233e+01	6.983273e+01
1.620000e-06	8.111330e-06	1.076866e-09	5.695329e+01	6.987466e+01
1.630000e-06	8.118330e-06	1.076635e-09	5.700244e+01	6.990118e+01
1.640000e-06	8.122537e-06	1.076907e-09	5.703198e+01	6.991171e+01
1.650000e-06	8.123893e-06	1.077306e-09	5.704150e+01	6.990519e+01
1.660000e-06	8.122388e-06	1.075682e-09	5.703093e+01	6.988018e+01
1.670000e-06	8.118242e-06	1.070554e-09	5.700182e+01	6.983504e+01
1.680000e-06	8.111345e-06	1.069527e-09	5.695340e+01	6.976801e+01
1.690000e-06	8.101725e-06	1.070322e-09	5.688585e+01	6.967737e+01
1.700000e-06	8.089320e-06	1.071080e-09	5.679875e+01	6.956156e+01
1.710000e-06	8.074035e-06	1.072153e-09	5.669142e+01	6.941923e+01
1.720000e-06	8.056234e-06	1.073068e-09	5.656644e+01	6.924928e+01
1.730000e-06	8.036126e-06	1.074781e-09	5.642525e+01	6.905084e+01
1.740000e-06	8.013255e-06	1.026653e-09	5.626466e+01	6.882330e+01
1.750000e-06	7.986826e-06	1.014346e-09	5.607909e+01	6.856621e+01
1.760000e-06	7.956642e-06	1.046272e-09	5.586716e+01	6.827932e+01
1.770000e-06	7.923374e-06	1.058329e-09	5.563357e+01	6.796249e+01
1.780000e-06	7.887771e-06	1.042182e-09	5.538358e+01	6.761575e+01
1.790000e-06	7.849870e-06	1.055717e-09	5.511746e+01	6.723931e+01
1.800000e-06	7.809822e-06	1.017502e-09	5.483627e+01	6.683358e+01
1.810000e-06	7.767597e-06	9.595830e-10	5.453979e+01	6.639924e+01
1.820000e-06	7.722663e-06	1.058985e-09	5.422429e+01	6.593724e+01
1.830000e-06	7.675078e-06	9.935682e-10	5.389017e+01	6.544884e+01
1.840000e-06	7.624570e-06	9.856876e-10	5.353553e+01	6.493558e+01
1.850000e-06	7.570919e-06	1.024159e-09	5.315882e+01	6.439918e+01
1.860000e-06	7.514469e-06	9.633154e-10	5.276246e+01	6.384146e+01
1.870000e-06	7.455342e-06	9.947087e-10	5.234730e+01	6.326416e+01
1.880000e-06	7.393602e-06	9.297367e-10	5.191380e+01	6.266881e+01
1.890000e-06	7.329066e-06	9.637616e-10	5.146067e+01	6.205650e+01
1.900000e-06	7.261655e-06	9.810763e-10	5.098734e+01	6.142782e+01
1.910000e-06	7.191378e-06	9.435716e-10	5.049389e+01	6.078272e+01
1.920000e-06	7.118213e-06	9.382564e-10	4.998017e+01	6.012046e+01
1.930000e-06	7.042312e-06	8.735940e-10	4.944724e+01	5.943973e+01
1.940000e-06	6.963622e-06	9.272845e-10	4.889472e+01	5.873873e+01
1.950000e-06	6.882296e-06	9.317958e-10	4.832369e+01	5.801539e+01
1.960000e-06	6.798475e-06	9.057447e-10	4.773515e+01	5.726759e+01
1.970000e-06	6.712106e-06	8.635015e-10	4.712871e+01	5.649345e+01
1.980000e-06	6.623291e-06	8.152783e-10	4.650510e+01	5.569157e+01
1.990000e-06	6.532111e-06	8.581322e-10	4.586488e+01	5.486120e+01
2.000000e-06	6.438681e-06	8.598363e-10	4.520887e+01	5.400240e+01
2.010000e-06	6.342963e-06	8.370154e-10	4.453679e+01	5.311605e+01
2.020000e-06	6.244965e-06	7.700907e-10	4.384870e+01	5.220378e+01
2.030000e-06	6.144771e-06	7.669267e-10	4.314520e+01	5.126784e+01
2.040000e-06	6.042378e-06	7.969778e-10	4.242625e+01	5.031081e+01
2.050000e-06	5.937825e-06	7.863051e-10	4.169213e+01	4.933537e+01
2.060000e-06	5.831209e-06	7.354643e-10	4.094354e+01	4.834402e+01
2.070000e-06	5.722626e-06	6.910222e-10	4.018112e+01	4.733878e+01
2.080000e-06	5.612039e-06	7.131728e-10	3.940465e+01	4.632105e+01
2.090000e-06	5.499374e-06	7.247394e-10	3.861358e+01	4.529149e+01
2.100000e-06	5.384581e-06	6.988637e-10	3.780756e+01	4.424998e+01
2.110000e-06	5.267748e-06	6.452589e-10	3.698722e+01	4.319581e+01
2.120000e-06	5.148885e-06	6.287299e-10	3.615263e+01	4.212776e+01
2.130000e-06	5.028048e-06	6.375503e-10	3.530418e+01	4.104443e+01
2.140000e-06	4.905416e-06	6.367994e-10	3.444313e+01	3.994442e+01
2.150000e-06	4.781047e-06	5.989211e-10	3.356988e+01	3.882667e+01
2.160000e-06	4.654985e-06	5.569993e-10	3.268474e+01	3.769059e+01
2.170000e-06	4.527256e-06	5.442173e-10	3.178790e+01	3.653623e+01
2.180000e-06	4.397844e-06	5.473748e-10	3.087924e+01	3.536429e+01
2.190000e-06	4.266759e-06	5.310588e-10	2.995883e+01	3.417608e+01
2.200000e-06	4.134090e-06	4.942789e-10	2.902730e+01	3.297335e+01
2.210000e-06	3.999927e-06	4.728916e-10	2.808529e+01	3.175812e+01
2.220000e-06	3.864273e-06	4.637808e-10	2.713280e+01	3.053241e+01
2.230000e-06	3.727050e-06	4.530167e-10	2.616929e+01	2.929803e+01
2.240000e-06	3.588343e-06	4.266236e-10	2.519537e+01	2.805640e+01
2.250000e-06	3.448301e-06	4.021001e-10	2.421207e+01	2.680839e+01
2.260000e-06	3.307011e-06	3.860429e-10	2.322001e+01	2.555431e+01
2.270000e-06	3.164446e-06	3.722152e-10	2.221899e+01	2.429395e+01
2.280000e-06	3.020595e-06	3.482834e-10	2.120895e+01	2.302671e+01
2.290000e-06	2.875583e-06	3.224363e-10	2.019076e+01	2.175179e+01
2.300000e-06	2.729570e-06	3.051388e-10	1.916553e+01	2.046839e+01
2.310000e-06	2.582618e-06	2.901456e-10	1.813372e+01	1.917594e+01
2.320000e-06	2.434734e-06	2.661233e-10	1.709536e+01	1.787426e+01
2.330000e-06	2.286055e-06	2.360144e-10	1.605142e+01	1.656371e+01
2.340000e-06	2.136626e-06	2.167347e-10	1.500221e+01	1.524516e+01
2.350000e-06	1.986488e-06	2.062176e-10	1.394803e+01	1.392003e+01
2.360000e-06	1.835724e-06	1.890930e-10	1.288944e+01	1.259009e+01
2.370000e-06	1.684424e-06	1.602826e-10	1.182710e+01	1.125730e+01
2.380000e-06	1.532607e-06	1.328087e-10	1.076112e+01	9.923617e+00
2.390000e-06	1.380216e-06	1.177370e-10	9.691116e+00	8.590768e+00
2.400000e-06	1.227210e-06	1.091842e-10	8.616791e+00	7.260064e+00
2.410000e-06	1.073702e-06	9.081504e-11	7.538941e+00	5.932286e+00
2.420000e-06	9.198524e-07	5.877840e-11	6.458697e+00	4.607625e+00
2.430000e-06	7.657538e-07	3.079301e-11	5.376701e+00	3.285720e+00
2.440000e-06	6.115043e-07	1.919156e-11	4.293646e+00	1.965751e+00
2.450000e-06	4.570064e-07	9.754941e-12	3.208847e+00	6.466011e-01
2.460000e-06	3.021883e-07	-1.549617e-11	2.121800e+00	-6.729545e-01
2.470000e-06	1.472242e-07	-5.075126e-11	1.033727e+00	-1.994057e+00
2.480000e-06	-7.716424e-09	-7.446523e-11	-5.418048e-02	-3.317593e+00
2.490000e-06	-1.626320e-07	-8.247049e-11	-1.141912e+00	-4.644072e+00
2.500000e-06	-3.175494e-07	-9.413716e-11	-2.229657e+00	-5.973565e+00
2.510000e-06	-4.724118e-07	-1.224313e-10	-3.317015e+00	-7.305710e+00
2.520000e-06	-6.270999e-07	-1.538561e-10	-4.403150e+00	-8.639781e+00
2.530000e-06	-7.815684e-07	-1.712504e-10	-5.487743e+00	-9.974797e+00
2.540000e-06	-9.358090e-07	-1.779890e-10	-6.570735e+00	-1.130967e+01
2.550000e-06	-1.089747e-06	-1.922265e-10	-7.651602e+00	-1.264332e+01
2.560000e-06	-1.243321e-06	-2.213484e-10	-8.729917e+00	-1.397483e+01
2.570000e-06	-1.396441e-06	-2.496673e-10	-9.805039e+00	-1.530349e+01
2.580000e-06	-1.548980e-06	-2.649848e-10	-1.087609e+01	-1.662882e+01
2.590000e-06	-1.700842e-06	-2.743373e-10	-1.194237e+01	-1.795055e+01
2.600000e-06	-1.852043e-06	-2.947191e-10	-1.300403e+01	-1.926854e+01
2.610000e-06	-2.002612e-06	-3.268809e-10	-1.406124e+01	-2.058266e+01
2.620000e-06	-2.152444e-06	-3.529329e-10	-1.511328e+01	-2.189268e+01
2.630000e-06	-2.301432e-06	-3.649698e-10	-1.615939e+01	-2.319818e+01
2.640000e-06	-2.449588e-06	-3.752344e-10	-1.719966e+01	-2.449843e+01
2.650000e-06	-2.596886e-06	-3.990390e-10	-1.823390e+01	-2.579242e+01
2.660000e-06	-2.743243e-06	-4.318175e-10	-1.926154e+01	-2.707885e+01
2.670000e-06	-2.888546e-06	-4.534921e-10	-2.028178e+01	-2.835625e+01
2.680000e-06	-3.032674e-06	-4.594304e-10	-2.129376e+01	-2.962307e+01
2.690000e-06	-3.175559e-06	-4.685015e-10	-2.229702e+01	-3.087786e+01
2.700000e-06	-3.317195e-06	-4.937028e-10	-2.329152e+01	-3.211938e+01
2.710000e-06	-3.457604e-06	-5.237961e-10	-2.427739e+01	-3.334675e+01
2.720000e-06	-3.596679e-06	-5.394630e-10	-2.525390e+01	-3.455953e+01
2.730000e-06	-3.734391e-06	-5.445513e-10	-2.622084e+01	-3.575771e+01
2.740000e-06	-3.870767e-06	-5.593255e-10	-2.717839e+01	-3.694167e+01
2.750000e-06	-4.005738e-06	-5.887252e-10	-2.812609e+01	-3.811208e+01
2.760000e-06	-4.139297e-06	-6.169098e-10	-2.906386e+01	-3.926971e+01
2.770000e-06	-4.271400e-06	-6.289538e-10	-2.999142e+01	-4.041527e+01
2.780000e-06	-4.401992e-06	-6.338529e-10	-3.090836e+01	-4.154924e+01
2.790000e-06	-4.531141e-06	-6.488336e-10	-3.181517e+01	-4.267163e+01
2.800000e-06	-4.658725e-06	-6.748177e-10	-3.271100e+01	-4.378197e+01
2.810000e-06	-4.784654e-06	-6.962596e-10	-3.359520e+01	-4.487918e+01
2.820000e-06	-4.908939e-06	-7.038357e-10	-3.446786e+01	-4.596164e+01
2.830000e-06	-5.031461e-06	-7.108811e-10	-3.532815e+01	-4.702725e+01
2.840000e-06	-5.152179e-06	-7.312625e-10	-3.617576e+01	-4.807363e+01
2.850000e-06	-5.270972e-06	-7.576966e-10	-3.700986e+01	-4.909824e+01
2.860000e-06	-5.387686e-06	-7.744966e-10	-3.782936e+01	-5.009864e+01
2.870000e-06	-5.502172e-06	-7.807999e-10	-3.863322e+01	-5.107265e+01
2.880000e-06	-5.614417e-06	-7.895489e-10	-3.942134e+01	-5.201850e+01
2.890000e-06	-5.724584e-06	-8.081026e-10	-4.019487e+01	-5.293495e+01
2.900000e-06	-5.832733e-06	-8.290235e-10	-4.095424e+01	-5.382132e+01
2.910000e-06	-5.938878e-06	-8.396781e-10	-4.169953e+01	-5.467746e+01
2.920000e-06	-6.042880e-06	-8.428854e-10	-4.242978e+01	-5.550367e+01
2.930000e-06	-6.144587e-06	-8.534583e-10	-4.314391e+01	-5.630062e+01
2.940000e-06	-6.244085e-06	-8.731540e-10	-4.384252e+01	-5.706919e+01
