# Temperatura_=_20.0
# Concentracion g/m^3_=_12600.0
# C_Vs_to_Am_M_A/Vsm_=_65563218390.804596
# pendiente_HvsI_1/m_=_3716.3
# ordenada_HvsI_A/m_=_1297.0
# frecuencia_Hz_=_213061.85180550473

Tiempo_(s)	Campo_(V.s)	Magnetizacion_(V.s)	Campo_(kA/m)	Magnetizacion_(A/m)
0.000000e+00	-5.360910e-06	-2.869972e-09	-3.835884e+01	-1.879450e+02
1.000000e-08	-5.360924e-06	-2.866178e-09	-3.835894e+01	-1.879930e+02
2.000000e-08	-5.360041e-06	-2.867306e-09	-3.835262e+01	-1.880130e+02
3.000000e-08	-5.357883e-06	-2.869914e-09	-3.833718e+01	-1.880022e+02
4.000000e-08	-5.354617e-06	-2.870969e-09	-3.831380e+01	-1.879585e+02
5.000000e-08	-5.350644e-06	-2.870673e-09	-3.828538e+01	-1.878805e+02
6.000000e-08	-5.345897e-06	-2.870869e-09	-3.825141e+01	-1.877678e+02
7.000000e-08	-5.340239e-06	-2.872026e-09	-3.821093e+01	-1.876213e+02
8.000000e-08	-5.333677e-06	-2.871363e-09	-3.816398e+01	-1.874428e+02
9.000000e-08	-5.326192e-06	-2.869004e-09	-3.811042e+01	-1.872359e+02
1.000000e-07	-5.317707e-06	-2.865342e-09	-3.804971e+01	-1.870049e+02
1.100000e-07	-5.307799e-06	-2.857304e-09	-3.797881e+01	-1.867556e+02
1.200000e-07	-5.296535e-06	-2.843044e-09	-3.789822e+01	-1.864943e+02
1.300000e-07	-5.284456e-06	-2.846944e-09	-3.781179e+01	-1.862280e+02
1.400000e-07	-5.271569e-06	-2.865676e-09	-3.771957e+01	-1.859637e+02
1.500000e-07	-5.257692e-06	-2.840791e-09	-3.762028e+01	-1.857083e+02
1.600000e-07	-5.242973e-06	-2.830818e-09	-3.751497e+01	-1.854680e+02
1.700000e-07	-5.227325e-06	-2.849814e-09	-3.740300e+01	-1.852480e+02
1.800000e-07	-5.210349e-06	-2.810049e-09	-3.728153e+01	-1.850518e+02
1.900000e-07	-5.192318e-06	-2.801086e-09	-3.715252e+01	-1.848818e+02
2.000000e-07	-5.173679e-06	-2.826817e-09	-3.701915e+01	-1.847380e+02
2.100000e-07	-5.154316e-06	-2.809456e-09	-3.688060e+01	-1.846188e+02
2.200000e-07	-5.133998e-06	-2.828032e-09	-3.673522e+01	-1.845205e+02
2.300000e-07	-5.112778e-06	-2.871893e-09	-3.658338e+01	-1.844376e+02
2.400000e-07	-5.090793e-06	-2.843739e-09	-3.642607e+01	-1.843630e+02
2.500000e-07	-5.068011e-06	-2.822851e-09	-3.626306e+01	-1.842885e+02
2.600000e-07	-5.044372e-06	-2.875522e-09	-3.609392e+01	-1.842048e+02
2.700000e-07	-5.019799e-06	-2.883198e-09	-3.591809e+01	-1.841023e+02
2.800000e-07	-4.994261e-06	-2.833393e-09	-3.573536e+01	-1.839715e+02
2.900000e-07	-4.967714e-06	-2.793925e-09	-3.554541e+01	-1.838033e+02
3.000000e-07	-4.940164e-06	-2.795647e-09	-3.534828e+01	-1.835897e+02
3.100000e-07	-4.911703e-06	-2.846992e-09	-3.514463e+01	-1.833239e+02
3.200000e-07	-4.882401e-06	-2.847809e-09	-3.493497e+01	-1.830010e+02
3.300000e-07	-4.852226e-06	-2.769687e-09	-3.471906e+01	-1.826177e+02
3.400000e-07	-4.821248e-06	-2.737234e-09	-3.449740e+01	-1.821727e+02
3.500000e-07	-4.789663e-06	-2.779846e-09	-3.427140e+01	-1.816666e+02
3.600000e-07	-4.757380e-06	-2.803899e-09	-3.404040e+01	-1.811020e+02
3.700000e-07	-4.724086e-06	-2.758372e-09	-3.380218e+01	-1.804828e+02
3.800000e-07	-4.689591e-06	-2.702737e-09	-3.355536e+01	-1.798144e+02
3.900000e-07	-4.654168e-06	-2.704421e-09	-3.330189e+01	-1.791029e+02
4.000000e-07	-4.618062e-06	-2.742803e-09	-3.304355e+01	-1.783549e+02
4.100000e-07	-4.581210e-06	-2.742733e-09	-3.277986e+01	-1.775773e+02
4.200000e-07	-4.543592e-06	-2.678863e-09	-3.251069e+01	-1.767763e+02
4.300000e-07	-4.505266e-06	-2.634845e-09	-3.223646e+01	-1.759577e+02
4.400000e-07	-4.466125e-06	-2.659342e-09	-3.195640e+01	-1.751261e+02
4.500000e-07	-4.426299e-06	-2.692492e-09	-3.167143e+01	-1.742849e+02
4.600000e-07	-4.385890e-06	-2.668727e-09	-3.138229e+01	-1.734362e+02
4.700000e-07	-4.344535e-06	-2.602411e-09	-3.108638e+01	-1.725807e+02
4.800000e-07	-4.302102e-06	-2.576895e-09	-3.078276e+01	-1.717176e+02
4.900000e-07	-4.258707e-06	-2.610202e-09	-3.047226e+01	-1.708452e+02
5.000000e-07	-4.214590e-06	-2.630200e-09	-3.015659e+01	-1.699606e+02
5.100000e-07	-4.169842e-06	-2.592459e-09	-2.983641e+01	-1.690603e+02
5.200000e-07	-4.124348e-06	-2.534828e-09	-2.951089e+01	-1.681402e+02
5.300000e-07	-4.078074e-06	-2.521410e-09	-2.917978e+01	-1.671963e+02
5.400000e-07	-4.031094e-06	-2.545738e-09	-2.884362e+01	-1.662249e+02
5.500000e-07	-3.983503e-06	-2.550814e-09	-2.850310e+01	-1.652224e+02
5.600000e-07	-3.935260e-06	-2.505466e-09	-2.815791e+01	-1.641862e+02
5.700000e-07	-3.886082e-06	-2.450739e-09	-2.780602e+01	-1.631145e+02
5.800000e-07	-3.835771e-06	-2.450825e-09	-2.744603e+01	-1.620064e+02
5.900000e-07	-3.784459e-06	-2.477937e-09	-2.707888e+01	-1.608619e+02
6.000000e-07	-3.732430e-06	-2.459602e-09	-2.670660e+01	-1.596819e+02
6.100000e-07	-3.679815e-06	-2.397366e-09	-2.633013e+01	-1.584681e+02
6.200000e-07	-3.626522e-06	-2.361125e-09	-2.594879e+01	-1.572228e+02
6.300000e-07	-3.572598e-06	-2.378872e-09	-2.556296e+01	-1.559486e+02
6.400000e-07	-3.518059e-06	-2.389809e-09	-2.517272e+01	-1.546483e+02
6.500000e-07	-3.462886e-06	-2.347698e-09	-2.477793e+01	-1.533245e+02
6.600000e-07	-3.407238e-06	-2.291120e-09	-2.437976e+01	-1.519798e+02
6.700000e-07	-3.351115e-06	-2.279559e-09	-2.397818e+01	-1.506161e+02
6.800000e-07	-3.294331e-06	-2.297839e-09	-2.357187e+01	-1.492346e+02
6.900000e-07	-3.236819e-06	-2.280551e-09	-2.316036e+01	-1.478361e+02
7.000000e-07	-3.178490e-06	-2.225585e-09	-2.274300e+01	-1.464206e+02
7.100000e-07	-3.119405e-06	-2.188339e-09	-2.232023e+01	-1.449872e+02
7.200000e-07	-3.059813e-06	-2.188768e-09	-2.189384e+01	-1.435348e+02
7.300000e-07	-2.999803e-06	-2.185376e-09	-2.146444e+01	-1.420616e+02
7.400000e-07	-2.939358e-06	-2.146864e-09	-2.103194e+01	-1.405655e+02
7.500000e-07	-2.878423e-06	-2.104611e-09	-2.059594e+01	-1.390443e+02
7.600000e-07	-2.817005e-06	-2.088562e-09	-2.015647e+01	-1.374961e+02
7.700000e-07	-2.755101e-06	-2.079541e-09	-1.971353e+01	-1.359189e+02
7.800000e-07	-2.692765e-06	-2.051097e-09	-1.926750e+01	-1.343111e+02
7.900000e-07	-2.630028e-06	-2.009143e-09	-1.881860e+01	-1.326717e+02
8.000000e-07	-2.566835e-06	-1.978443e-09	-1.836643e+01	-1.310003e+02
8.100000e-07	-2.503241e-06	-1.961486e-09	-1.791140e+01	-1.292967e+02
8.200000e-07	-2.439295e-06	-1.941336e-09	-1.745385e+01	-1.275615e+02
8.300000e-07	-2.374954e-06	-1.909288e-09	-1.699347e+01	-1.257957e+02
8.400000e-07	-2.310142e-06	-1.875028e-09	-1.652973e+01	-1.240005e+02
8.500000e-07	-2.244749e-06	-1.850026e-09	-1.606182e+01	-1.221773e+02
8.600000e-07	-2.178720e-06	-1.826407e-09	-1.558936e+01	-1.203276e+02
8.700000e-07	-2.112138e-06	-1.795007e-09	-1.511295e+01	-1.184528e+02
8.800000e-07	-2.045180e-06	-1.759846e-09	-1.463385e+01	-1.165541e+02
8.900000e-07	-1.977909e-06	-1.727206e-09	-1.415250e+01	-1.146322e+02
9.000000e-07	-1.910306e-06	-1.698942e-09	-1.366878e+01	-1.126874e+02
9.100000e-07	-1.842492e-06	-1.669618e-09	-1.318355e+01	-1.107196e+02
9.200000e-07	-1.774536e-06	-1.636331e-09	-1.269731e+01	-1.087282e+02
9.300000e-07	-1.706338e-06	-1.602667e-09	-1.220933e+01	-1.067122e+02
9.400000e-07	-1.637851e-06	-1.570538e-09	-1.171929e+01	-1.046702e+02
9.500000e-07	-1.569043e-06	-1.541145e-09	-1.122695e+01	-1.026004e+02
9.600000e-07	-1.499869e-06	-1.509784e-09	-1.073199e+01	-1.005013e+02
9.700000e-07	-1.430464e-06	-1.475402e-09	-1.023537e+01	-9.837098e+01
9.800000e-07	-1.360858e-06	-1.439704e-09	-9.737326e+00	-9.620788e+01
9.900000e-07	-1.290995e-06	-1.404941e-09	-9.237439e+00	-9.401066e+01
1.000000e-06	-1.220870e-06	-1.373558e-09	-8.735672e+00	-9.177836e+01
1.010000e-06	-1.150468e-06	-1.339664e-09	-8.231926e+00	-8.951045e+01
1.020000e-06	-1.079862e-06	-1.300801e-09	-7.726717e+00	-8.720686e+01
1.030000e-06	-1.009067e-06	-1.263535e-09	-7.220159e+00	-8.486796e+01
1.040000e-06	-9.380825e-07	-1.228957e-09	-6.712247e+00	-8.249455e+01
1.050000e-06	-8.669757e-07	-1.192651e-09	-6.203457e+00	-8.008772e+01
1.060000e-06	-7.957540e-07	-1.152050e-09	-5.693847e+00	-7.764880e+01
1.070000e-06	-7.244355e-07	-1.112413e-09	-5.183542e+00	-7.517920e+01
1.080000e-06	-6.530370e-07	-1.075640e-09	-4.672666e+00	-7.268026e+01
1.090000e-06	-5.815174e-07	-1.037043e-09	-4.160922e+00	-7.015318e+01
1.100000e-06	-5.098689e-07	-9.950932e-10	-3.648257e+00	-6.759886e+01
1.110000e-06	-4.382018e-07	-9.527371e-10	-3.135458e+00	-6.501780e+01
1.120000e-06	-3.665549e-07	-9.151246e-10	-2.622805e+00	-6.241007e+01
1.130000e-06	-2.948727e-07	-8.788144e-10	-2.109898e+00	-5.977528e+01
1.140000e-06	-2.231625e-07	-8.372946e-10	-1.596791e+00	-5.711255e+01
1.150000e-06	-1.514509e-07	-7.923076e-10	-1.083674e+00	-5.442064e+01
1.160000e-06	-7.971908e-08	-7.497933e-10	-5.704127e-01	-5.169798e+01
1.170000e-06	-7.996266e-09	-7.102134e-10	-5.721556e-02	-4.894276e+01
1.180000e-06	6.372532e-08	-6.681388e-10	4.559728e-01	-4.615314e+01
1.190000e-06	1.354715e-07	-6.230407e-10	9.693368e-01	-4.332731e+01
1.200000e-06	2.071878e-07	-5.780925e-10	1.482488e+00	-4.046364e+01
1.210000e-06	2.788754e-07	-5.351463e-10	1.995433e+00	-3.756083e+01
1.220000e-06	3.505027e-07	-4.922000e-10	2.507947e+00	-3.461800e+01
1.230000e-06	4.220975e-07	-4.442659e-10	3.020228e+00	-3.163473e+01
1.240000e-06	4.936915e-07	-3.937869e-10	3.532503e+00	-2.861113e+01
1.250000e-06	5.652563e-07	-3.456855e-10	4.044569e+00	-2.554780e+01
1.260000e-06	6.367629e-07	-3.008683e-10	4.556220e+00	-2.244586e+01
1.270000e-06	7.081220e-07	-2.545074e-10	5.066814e+00	-1.930680e+01
1.280000e-06	7.793407e-07	-2.027857e-10	5.576404e+00	-1.613245e+01
1.290000e-06	8.505273e-07	-1.501554e-10	6.085765e+00	-1.292487e+01
1.300000e-06	9.216060e-07	-9.961354e-11	6.594353e+00	-9.686173e+00
1.310000e-06	9.924385e-07	-5.089975e-11	7.101180e+00	-6.418489e+00
1.320000e-06	1.063096e-06	-3.242139e-12	7.606755e+00	-3.123816e+00
1.330000e-06	1.133581e-06	4.571708e-11	8.111092e+00	1.960403e-01
1.340000e-06	1.203773e-06	9.790209e-11	8.613336e+00	3.539520e+00
1.350000e-06	1.273750e-06	1.499829e-10	9.114042e+00	6.905326e+00
1.360000e-06	1.343559e-06	2.009540e-10	9.613548e+00	1.029241e+01
1.370000e-06	1.413052e-06	2.527224e-10	1.011079e+01	1.369992e+01
1.380000e-06	1.482292e-06	3.061731e-10	1.060622e+01	1.712711e+01
1.390000e-06	1.551365e-06	3.604220e-10	1.110046e+01	2.057327e+01
1.400000e-06	1.620138e-06	4.140846e-10	1.159254e+01	2.403758e+01
1.410000e-06	1.688576e-06	4.682101e-10	1.208224e+01	2.751897e+01
1.420000e-06	1.756749e-06	5.215970e-10	1.257004e+01	3.101607e+01
1.430000e-06	1.824688e-06	5.764967e-10	1.305616e+01	3.452703e+01
1.440000e-06	1.892400e-06	6.317104e-10	1.354066e+01	3.804951e+01
1.450000e-06	1.959901e-06	6.838396e-10	1.402365e+01	4.158056e+01
1.460000e-06	2.027178e-06	7.349844e-10	1.450503e+01	4.511667e+01
1.470000e-06	2.094020e-06	7.886230e-10	1.498331e+01	4.865377e+01
1.480000e-06	2.160389e-06	8.443318e-10	1.545820e+01	5.218727e+01
1.490000e-06	2.226223e-06	8.975944e-10	1.592926e+01	5.571218e+01
1.500000e-06	2.291392e-06	9.483349e-10	1.639556e+01	5.922321e+01
1.510000e-06	2.355942e-06	9.992801e-10	1.685744e+01	6.271494e+01
1.520000e-06	2.420006e-06	1.053709e-09	1.731583e+01	6.618193e+01
1.530000e-06	2.483796e-06	1.108190e-09	1.777227e+01	6.961887e+01
1.540000e-06	2.547270e-06	1.159192e-09	1.822644e+01	7.302074e+01
1.550000e-06	2.610370e-06	1.208751e-09	1.867794e+01	7.638294e+01
1.560000e-06	2.673044e-06	1.259768e-09	1.912639e+01	7.970134e+01
1.570000e-06	2.735261e-06	1.312544e-09	1.957157e+01	8.297237e+01
1.580000e-06	2.797081e-06	1.360534e-09	2.001391e+01	8.619305e+01
1.590000e-06	2.858457e-06	1.405443e-09	2.045307e+01	8.936100e+01
1.600000e-06	2.919321e-06	1.451499e-09	2.088857e+01	9.247437e+01
1.610000e-06	2.979657e-06	1.497053e-09	2.132029e+01	9.553181e+01
1.620000e-06	3.039584e-06	1.540702e-09	2.174909e+01	9.853240e+01
1.630000e-06	3.099193e-06	1.583596e-09	2.217561e+01	1.014755e+02
1.640000e-06	3.158387e-06	1.626596e-09	2.259916e+01	1.043608e+02
1.650000e-06	3.216914e-06	1.668095e-09	2.301793e+01	1.071879e+02
1.660000e-06	3.274497e-06	1.707662e-09	2.342996e+01	1.099568e+02
1.670000e-06	3.331167e-06	1.748009e-09	2.383545e+01	1.126672e+02
1.680000e-06	3.387184e-06	1.787506e-09	2.423627e+01	1.153190e+02
1.690000e-06	3.442763e-06	1.824806e-09	2.463395e+01	1.179118e+02
1.700000e-06	3.497918e-06	1.858760e-09	2.502860e+01	1.204455e+02
1.710000e-06	3.552480e-06	1.891875e-09	2.541901e+01	1.229196e+02
1.720000e-06	3.606404e-06	1.927486e-09	2.580485e+01	1.253341e+02
1.730000e-06	3.659733e-06	1.963209e-09	2.618643e+01	1.276886e+02
1.740000e-06	3.712419e-06	1.995613e-09	2.656341e+01	1.299832e+02
1.750000e-06	3.764451e-06	2.027190e-09	2.693571e+01	1.322180e+02
1.760000e-06	3.815735e-06	2.060373e-09	2.730267e+01	1.343936e+02
1.770000e-06	3.866033e-06	2.093138e-09	2.766257e+01	1.365107e+02
1.780000e-06	3.915211e-06	2.124876e-09	2.801445e+01	1.385702e+02
1.790000e-06	3.963442e-06	2.153885e-09	2.835955e+01	1.405735e+02
1.800000e-06	4.011105e-06	2.180400e-09	2.870060e+01	1.425219e+02
1.810000e-06	4.058214e-06	2.208998e-09	2.903768e+01	1.444173e+02
1.820000e-06	4.104570e-06	2.238516e-09	2.936936e+01	1.462612e+02
1.830000e-06	4.150198e-06	2.262149e-09	2.969585e+01	1.480556e+02
1.840000e-06	4.195100e-06	2.283372e-09	3.001714e+01	1.498020e+02
1.850000e-06	4.239303e-06	2.308064e-09	3.033342e+01	1.515019e+02
1.860000e-06	4.283040e-06	2.335016e-09	3.064637e+01	1.531566e+02
1.870000e-06	4.326247e-06	2.360011e-09	3.095553e+01	1.547671e+02
1.880000e-06	4.368418e-06	2.382996e-09	3.125728e+01	1.563340e+02
1.890000e-06	4.409390e-06	2.405179e-09	3.155044e+01	1.578575e+02
1.900000e-06	4.449499e-06	2.426947e-09	3.183743e+01	1.593377e+02
1.910000e-06	4.488972e-06	2.448731e-09	3.211987e+01	1.607743e+02
1.920000e-06	4.527729e-06	2.468670e-09	3.239719e+01	1.621670e+02
1.930000e-06	4.565732e-06	2.487316e-09	3.266911e+01	1.635151e+02
1.940000e-06	4.603038e-06	2.507680e-09	3.293605e+01	1.648183e+02
1.950000e-06	4.639581e-06	2.528778e-09	3.319752e+01	1.660761e+02
1.960000e-06	4.675440e-06	2.546243e-09	3.345410e+01	1.672885e+02
1.970000e-06	4.710626e-06	2.562345e-09	3.370587e+01	1.684554e+02
1.980000e-06	4.744816e-06	2.579391e-09	3.395051e+01	1.695775e+02
1.990000e-06	4.777779e-06	2.596565e-09	3.418637e+01	1.706556e+02
2.000000e-06	4.809802e-06	2.613445e-09	3.441550e+01	1.716909e+02
2.010000e-06	4.841168e-06	2.630156e-09	3.463993e+01	1.726849e+02
2.020000e-06	4.871775e-06	2.647570e-09	3.485894e+01	1.736396e+02
2.030000e-06	4.901601e-06	2.661432e-09	3.507235e+01	1.745568e+02
2.040000e-06	4.930594e-06	2.672234e-09	3.527980e+01	1.754386e+02
2.050000e-06	4.958746e-06	2.684750e-09	3.548124e+01	1.762871e+02
2.060000e-06	4.986310e-06	2.699692e-09	3.567847e+01	1.771039e+02
2.070000e-06	5.013125e-06	2.714313e-09	3.587033e+01	1.778907e+02
2.080000e-06	5.038688e-06	2.727177e-09	3.605325e+01	1.786486e+02
2.090000e-06	5.063035e-06	2.739023e-09	3.622745e+01	1.793783e+02
2.100000e-06	5.086502e-06	2.750546e-09	3.639537e+01	1.800800e+02
2.110000e-06	5.109126e-06	2.762735e-09	3.655725e+01	1.807537e+02
2.120000e-06	5.130845e-06	2.772628e-09	3.671265e+01	1.813987e+02
2.130000e-06	5.151693e-06	2.778460e-09	3.686183e+01	1.820143e+02
2.140000e-06	5.171796e-06	2.784925e-09	3.700567e+01	1.825994e+02
2.150000e-06	5.191238e-06	2.793571e-09	3.714479e+01	1.831529e+02
2.160000e-06	5.209853e-06	2.802198e-09	3.727798e+01	1.836740e+02
2.170000e-06	5.227435e-06	2.810151e-09	3.740378e+01	1.841618e+02
2.180000e-06	5.244116e-06	2.815901e-09	3.752314e+01	1.846160e+02
2.190000e-06	5.259825e-06	2.823049e-09	3.763555e+01	1.850368e+02
2.200000e-06	5.274416e-06	2.832999e-09	3.773995e+01	1.854246e+02
2.210000e-06	5.288046e-06	2.841421e-09	3.783747e+01	1.857806e+02
2.220000e-06	5.300750e-06	2.847726e-09	3.792838e+01	1.861063e+02
2.230000e-06	5.312570e-06	2.849497e-09	3.801295e+01	1.864039e+02
2.240000e-06	5.323296e-06	2.851225e-09	3.808970e+01	1.866756e+02
2.250000e-06	5.332633e-06	2.856209e-09	3.815651e+01	1.869237e+02
2.260000e-06	5.340798e-06	2.861947e-09	3.821493e+01	1.871509e+02
2.270000e-06	5.348181e-06	2.866614e-09	3.826775e+01	1.873591e+02
2.280000e-06	5.354755e-06	2.870013e-09	3.831480e+01	1.875502e+02
2.290000e-06	5.360403e-06	2.873862e-09	3.835521e+01	1.877255e+02
2.300000e-06	5.365140e-06	2.877588e-09	3.838911e+01	1.878854e+02
2.310000e-06	5.369107e-06	2.881566e-09	3.841749e+01	1.880298e+02
2.320000e-06	5.372262e-06	2.883255e-09	3.844006e+01	1.881576e+02
2.330000e-06	5.374268e-06	2.882875e-09	3.845442e+01	1.882673e+02
2.340000e-06	5.375048e-06	2.884794e-09	3.846000e+01	1.883566e+02
2.350000e-06	5.374928e-06	2.887556e-09	3.845914e+01	1.884227e+02
2.360000e-06	5.374013e-06	2.886255e-09	3.845259e+01	1.884628e+02
2.370000e-06	5.372179e-06	2.882561e-09	3.843947e+01	1.884739e+02
2.380000e-06	5.369505e-06	2.881145e-09	3.842034e+01	1.884537e+02
2.390000e-06	5.366048e-06	2.881259e-09	3.839560e+01	1.883999e+02
2.400000e-06	5.361910e-06	2.881631e-09	3.836599e+01	1.883117e+02
2.410000e-06	5.357019e-06	2.878658e-09	3.833099e+01	1.881889e+02
2.420000e-06	5.351016e-06	2.873074e-09	3.828804e+01	1.880327e+02
2.430000e-06	5.343788e-06	2.864361e-09	3.823633e+01	1.878455e+02
2.440000e-06	5.335623e-06	2.861411e-09	3.817790e+01	1.876310e+02
2.450000e-06	5.326410e-06	2.865953e-09	3.811198e+01	1.873940e+02
2.460000e-06	5.315820e-06	2.876648e-09	3.803620e+01	1.871406e+02
2.470000e-06	5.304181e-06	2.876914e-09	3.795292e+01	1.868772e+02
2.480000e-06	5.292215e-06	2.856124e-09	3.786731e+01	1.866109e+02
2.490000e-06	5.279784e-06	2.871923e-09	3.777836e+01	1.863488e+02
2.500000e-06	5.265730e-06	2.869701e-09	3.767780e+01	1.860975e+02
2.510000e-06	5.250142e-06	2.835304e-09	3.756626e+01	1.858630e+02
2.520000e-06	5.234000e-06	2.862421e-09	3.745076e+01	1.856499e+02
2.530000e-06	5.217143e-06	2.859706e-09	3.733014e+01	1.854617e+02
2.540000e-06	5.199132e-06	2.819909e-09	3.720127e+01	1.852997e+02
2.550000e-06	5.180249e-06	2.830251e-09	3.706616e+01	1.851638e+02
2.560000e-06	5.160737e-06	2.803342e-09	3.692654e+01	1.850515e+02
2.570000e-06	5.140562e-06	2.729713e-09	3.678219e+01	1.849586e+02
2.580000e-06	5.119401e-06	2.741305e-09	3.663077e+01	1.848792e+02
2.590000e-06	5.096768e-06	2.763764e-09	3.646882e+01	1.848057e+02
2.600000e-06	5.073020e-06	2.700644e-09	3.629890e+01	1.847296e+02
2.610000e-06	5.048686e-06	2.698249e-09	3.612478e+01	1.846414e+02
2.620000e-06	5.023403e-06	2.777241e-09	3.594388e+01	1.845316e+02
2.630000e-06	4.997155e-06	2.821069e-09	3.575607e+01	1.843906e+02
2.640000e-06	4.970323e-06	2.786619e-09	3.556408e+01	1.842098e+02
2.650000e-06	4.942671e-06	2.701283e-09	3.536622e+01	1.839813e+02
2.660000e-06	4.914193e-06	2.694819e-09	3.516245e+01	1.836991e+02
2.670000e-06	4.884860e-06	2.789016e-09	3.495257e+01	1.833584e+02
2.680000e-06	4.854264e-06	2.818784e-09	3.473364e+01	1.829568e+02
2.690000e-06	4.822599e-06	2.747173e-09	3.450707e+01	1.824935e+02
2.700000e-06	4.790159e-06	2.695121e-09	3.427495e+01	1.819697e+02
2.710000e-06	4.756940e-06	2.727418e-09	3.403726e+01	1.813884e+02
2.720000e-06	4.722982e-06	2.781789e-09	3.379428e+01	1.807540e+02
2.730000e-06	4.688119e-06	2.760697e-09	3.354483e+01	1.800722e+02
2.740000e-06	4.652471e-06	2.681684e-09	3.328975e+01	1.793492e+02
2.750000e-06	4.616319e-06	2.653040e-09	3.303108e+01	1.785918e+02
2.760000e-06	4.579383e-06	2.696078e-09	3.276679e+01	1.778067e+02
2.770000e-06	4.541268e-06	2.726261e-09	3.249406e+01	1.770001e+02
2.780000e-06	4.502044e-06	2.683725e-09	3.221341e+01	1.761773e+02
2.790000e-06	4.462099e-06	2.610775e-09	3.192759e+01	1.753426e+02
2.800000e-06	4.421494e-06	2.603903e-09	3.163705e+01	1.744992e+02
2.810000e-06	4.380111e-06	2.648946e-09	3.134094e+01	1.736486e+02
2.820000e-06	4.338010e-06	2.659927e-09	3.103969e+01	1.727911e+02
2.830000e-06	4.295164e-06	2.607392e-09	3.073312e+01	1.719257e+02
2.840000e-06	4.251619e-06	2.545289e-09	3.042155e+01	1.710501e+02
2.850000e-06	4.207557e-06	2.550553e-09	3.010627e+01	1.701614e+02
2.860000e-06	4.162908e-06	2.584503e-09	2.978679e+01	1.692557e+02
2.870000e-06	4.117537e-06	2.574598e-09	2.946215e+01	1.683291e+02
2.880000e-06	4.071288e-06	2.523503e-09	2.913122e+01	1.673775e+02
2.890000e-06	4.024289e-06	2.477895e-09	2.879494e+01	1.663972e+02
2.900000e-06	3.976678e-06	2.490251e-09	2.845426e+01	1.653851e+02
2.910000e-06	3.928223e-06	2.516718e-09	2.810755e+01	1.643386e+02
2.920000e-06	3.878889e-06	2.484126e-09	2.775456e+01	1.632562e+02
2.930000e-06	3.828894e-06	2.421478e-09	2.739683e+01	1.621373e+02
2.940000e-06	3.778285e-06	2.400845e-09	2.703470e+01	1.609821e+02
