# Temperatura_=_20.0
# Concentracion g/m^3_=_12600.0
# C_Vs_to_Am_M_A/Vsm_=_65563218390.804596
# pendiente_HvsI_1/m_=_3716.3
# ordenada_HvsI_A/m_=_1297.0
# frecuencia_Hz_=_213063.9430141234

Tiempo_(s)	Campo_(V.s)	Magnetizacion_(V.s)	Campo_(kA/m)	Magnetizacion_(A/m)
0.000000e+00	-5.348653e-06	-1.611308e-10	-3.835687e+01	-1.178104e+01
1.000000e-08	-5.348665e-06	-1.604939e-10	-3.835695e+01	-1.187651e+01
2.000000e-08	-5.347842e-06	-1.615571e-10	-3.835105e+01	-1.197627e+01
3.000000e-08	-5.345820e-06	-1.607408e-10	-3.833654e+01	-1.207433e+01
4.000000e-08	-5.342660e-06	-1.598583e-10	-3.831389e+01	-1.216411e+01
5.000000e-08	-5.338745e-06	-1.610915e-10	-3.828581e+01	-1.223886e+01
6.000000e-08	-5.334090e-06	-1.625224e-10	-3.825243e+01	-1.229209e+01
7.000000e-08	-5.328491e-06	-1.639749e-10	-3.821227e+01	-1.231798e+01
8.000000e-08	-5.321903e-06	-1.667085e-10	-3.816503e+01	-1.231176e+01
9.000000e-08	-5.314464e-06	-1.699514e-10	-3.811168e+01	-1.227014e+01
1.000000e-07	-5.306155e-06	-1.587333e-10	-3.805210e+01	-1.219153e+01
1.100000e-07	-5.296454e-06	-1.505129e-10	-3.798253e+01	-1.207626e+01
1.200000e-07	-5.285337e-06	-1.499904e-10	-3.790280e+01	-1.192668e+01
1.300000e-07	-5.273353e-06	-1.878353e-10	-3.781686e+01	-1.174711e+01
1.400000e-07	-5.260583e-06	-1.981750e-10	-3.772529e+01	-1.154368e+01
1.500000e-07	-5.246861e-06	-1.476266e-10	-3.762688e+01	-1.132410e+01
1.600000e-07	-5.232205e-06	-1.544805e-10	-3.752178e+01	-1.109724e+01
1.700000e-07	-5.216591e-06	-1.749886e-10	-3.740981e+01	-1.087273e+01
1.800000e-07	-5.199708e-06	-1.346058e-10	-3.728873e+01	-1.066041e+01
1.900000e-07	-5.181714e-06	-1.555302e-10	-3.715969e+01	-1.046985e+01
2.000000e-07	-5.163109e-06	-2.088060e-10	-3.702627e+01	-1.030977e+01
2.100000e-07	-5.143796e-06	-1.426264e-10	-3.688777e+01	-1.018761e+01
2.200000e-07	-5.123520e-06	-1.418897e-10	-3.674236e+01	-1.010906e+01
2.300000e-07	-5.102368e-06	-2.210004e-10	-3.659068e+01	-1.007776e+01
2.400000e-07	-5.080522e-06	-1.933917e-10	-3.643401e+01	-1.009509e+01
2.500000e-07	-5.057860e-06	-1.679921e-10	-3.627150e+01	-1.016007e+01
2.600000e-07	-5.034304e-06	-2.167874e-10	-3.610257e+01	-1.026942e+01
2.700000e-07	-5.009889e-06	-2.387128e-10	-3.592748e+01	-1.041773e+01
2.800000e-07	-4.984460e-06	-2.039156e-10	-3.574512e+01	-1.059777e+01
2.900000e-07	-4.957929e-06	-1.602691e-10	-3.555486e+01	-1.080086e+01
3.000000e-07	-4.930421e-06	-1.815009e-10	-3.535759e+01	-1.101739e+01
3.100000e-07	-4.902057e-06	-2.486348e-10	-3.515419e+01	-1.123728e+01
3.200000e-07	-4.872917e-06	-2.293252e-10	-3.494521e+01	-1.145060e+01
3.300000e-07	-4.842991e-06	-1.518862e-10	-3.473060e+01	-1.164800e+01
3.400000e-07	-4.812183e-06	-1.719056e-10	-3.450967e+01	-1.182127e+01
3.500000e-07	-4.780685e-06	-2.352803e-10	-3.428379e+01	-1.196367e+01
3.600000e-07	-4.748630e-06	-2.349095e-10	-3.405391e+01	-1.207027e+01
3.700000e-07	-4.715624e-06	-1.794020e-10	-3.381722e+01	-1.213815e+01
3.800000e-07	-4.681358e-06	-1.321434e-10	-3.357148e+01	-1.216641e+01
3.900000e-07	-4.646115e-06	-1.932069e-10	-3.331874e+01	-1.215618e+01
4.000000e-07	-4.610203e-06	-2.700295e-10	-3.306121e+01	-1.211037e+01
4.100000e-07	-4.573494e-06	-2.128390e-10	-3.279795e+01	-1.203348e+01
4.200000e-07	-4.535979e-06	-1.274899e-10	-3.252892e+01	-1.193118e+01
4.300000e-07	-4.497680e-06	-1.488983e-10	-3.225427e+01	-1.180991e+01
4.400000e-07	-4.458553e-06	-2.381016e-10	-3.197368e+01	-1.167647e+01
4.500000e-07	-4.418881e-06	-2.557701e-10	-3.168918e+01	-1.153754e+01
4.600000e-07	-4.378693e-06	-1.766426e-10	-3.140098e+01	-1.139930e+01
4.700000e-07	-4.337581e-06	-1.233591e-10	-3.110615e+01	-1.126707e+01
4.800000e-07	-4.295236e-06	-1.717375e-10	-3.080248e+01	-1.114501e+01
4.900000e-07	-4.251890e-06	-2.510337e-10	-3.049163e+01	-1.103599e+01
5.000000e-07	-4.207928e-06	-2.277191e-10	-3.017637e+01	-1.094141e+01
5.100000e-07	-4.163334e-06	-1.438518e-10	-2.985657e+01	-1.086128e+01
5.200000e-07	-4.118015e-06	-1.372851e-10	-2.953157e+01	-1.079432e+01
5.300000e-07	-4.071967e-06	-2.003079e-10	-2.920135e+01	-1.073812e+01
5.400000e-07	-4.025139e-06	-2.376992e-10	-2.886553e+01	-1.068942e+01
5.500000e-07	-3.977615e-06	-1.943508e-10	-2.852472e+01	-1.064441e+01
5.600000e-07	-3.929536e-06	-1.342268e-10	-2.817993e+01	-1.059904e+01
5.700000e-07	-3.880581e-06	-1.469057e-10	-2.782886e+01	-1.054937e+01
5.800000e-07	-3.830458e-06	-2.034129e-10	-2.746941e+01	-1.049186e+01
5.900000e-07	-3.779341e-06	-2.228542e-10	-2.710283e+01	-1.042362e+01
6.000000e-07	-3.727480e-06	-1.723839e-10	-2.673093e+01	-1.034261e+01
6.100000e-07	-3.674948e-06	-1.259549e-10	-2.635420e+01	-1.024778e+01
6.200000e-07	-3.621703e-06	-1.491378e-10	-2.597236e+01	-1.013909e+01
6.300000e-07	-3.567895e-06	-1.994974e-10	-2.558649e+01	-1.001750e+01
6.400000e-07	-3.513503e-06	-2.075681e-10	-2.519643e+01	-9.884841e+00
6.500000e-07	-3.458461e-06	-1.565172e-10	-2.480170e+01	-9.743672e+00
6.600000e-07	-3.402913e-06	-1.194270e-10	-2.440335e+01	-9.597055e+00
6.700000e-07	-3.346965e-06	-1.483213e-10	-2.400213e+01	-9.448305e+00
6.800000e-07	-3.290494e-06	-1.951448e-10	-2.359716e+01	-9.300745e+00
6.900000e-07	-3.233265e-06	-1.888163e-10	-2.318675e+01	-9.157449e+00
7.000000e-07	-3.175145e-06	-1.297304e-10	-2.276996e+01	-9.021028e+00
7.100000e-07	-3.116182e-06	-1.073759e-10	-2.234711e+01	-8.893450e+00
7.200000e-07	-3.056664e-06	-1.523226e-10	-2.192029e+01	-8.775910e+00
7.300000e-07	-2.996828e-06	-1.878998e-10	-2.149119e+01	-8.668770e+00
7.400000e-07	-2.936593e-06	-1.594682e-10	-2.105923e+01	-8.571554e+00
7.500000e-07	-2.875817e-06	-1.091125e-10	-2.062338e+01	-8.483012e+00
7.600000e-07	-2.814483e-06	-1.135647e-10	-2.018353e+01	-8.401229e+00
7.700000e-07	-2.752703e-06	-1.598242e-10	-1.974049e+01	-8.323787e+00
7.800000e-07	-2.690526e-06	-1.718841e-10	-1.929460e+01	-8.247952e+00
7.900000e-07	-2.627847e-06	-1.296308e-10	-1.884511e+01	-8.170883e+00
8.000000e-07	-2.564642e-06	-9.009784e-11	-1.839185e+01	-8.089836e+00
8.100000e-07	-2.501108e-06	-1.131199e-10	-1.793623e+01	-8.002353e+00
8.200000e-07	-2.437325e-06	-1.583186e-10	-1.747882e+01	-7.906424e+00
8.300000e-07	-2.373204e-06	-1.516598e-10	-1.701898e+01	-7.800612e+00
8.400000e-07	-2.308684e-06	-1.071022e-10	-1.655630e+01	-7.684127e+00
8.500000e-07	-2.243596e-06	-9.003372e-11	-1.608953e+01	-7.556849e+00
8.600000e-07	-2.177927e-06	-1.217222e-10	-1.561860e+01	-7.419305e+00
8.700000e-07	-2.111703e-06	-1.447644e-10	-1.514368e+01	-7.272597e+00
8.800000e-07	-2.044913e-06	-1.199528e-10	-1.466471e+01	-7.118288e+00
8.900000e-07	-1.977674e-06	-8.448903e-11	-1.418252e+01	-6.958265e+00
9.000000e-07	-1.910153e-06	-8.528088e-11	-1.369831e+01	-6.794583e+00
9.100000e-07	-1.842457e-06	-1.151394e-10	-1.321284e+01	-6.629297e+00
9.200000e-07	-1.774594e-06	-1.218430e-10	-1.272616e+01	-6.464319e+00
9.300000e-07	-1.706517e-06	-9.491266e-11	-1.223797e+01	-6.301272e+00
9.400000e-07	-1.638181e-06	-7.477474e-11	-1.174791e+01	-6.141396e+00
9.500000e-07	-1.569521e-06	-8.421538e-11	-1.125553e+01	-5.985469e+00
9.600000e-07	-1.500521e-06	-1.027346e-10	-1.076070e+01	-5.833784e+00
9.700000e-07	-1.431271e-06	-9.593605e-11	-1.026409e+01	-5.686154e+00
9.800000e-07	-1.361801e-06	-7.337112e-11	-9.765901e+00	-5.541960e+00
9.900000e-07	-1.292062e-06	-6.517723e-11	-9.265778e+00	-5.400232e+00
1.000000e-06	-1.222023e-06	-7.531667e-11	-8.763509e+00	-5.259747e+00
1.010000e-06	-1.151792e-06	-8.574875e-11	-8.259857e+00	-5.119151e+00
1.020000e-06	-1.081500e-06	-7.819160e-11	-7.755774e+00	-4.977080e+00
1.030000e-06	-1.011048e-06	-6.467889e-11	-7.250538e+00	-4.832273e+00
1.040000e-06	-9.403720e-07	-6.278592e-11	-6.743702e+00	-4.683681e+00
1.050000e-06	-8.694791e-07	-6.881058e-11	-6.235307e+00	-4.530539e+00
1.060000e-06	-7.983772e-07	-7.218488e-11	-5.725413e+00	-4.372422e+00
1.070000e-06	-7.271813e-07	-6.515312e-11	-5.214845e+00	-4.209265e+00
1.080000e-06	-6.558814e-07	-5.431923e-11	-4.703531e+00	-4.041351e+00
1.090000e-06	-5.844464e-07	-5.119264e-11	-4.191248e+00	-3.869272e+00
1.100000e-06	-5.129853e-07	-5.637514e-11	-3.678778e+00	-3.693861e+00
1.110000e-06	-4.415475e-07	-6.014094e-11	-3.166475e+00	-3.516113e+00
1.120000e-06	-3.700413e-07	-5.298933e-11	-2.653682e+00	-3.337088e+00
1.130000e-06	-2.984335e-07	-4.279614e-11	-2.140160e+00	-3.157814e+00
1.140000e-06	-2.267953e-07	-4.208383e-11	-1.626420e+00	-2.979197e+00
1.150000e-06	-1.551134e-07	-4.735462e-11	-1.112367e+00	-2.801947e+00
1.160000e-06	-8.342474e-08	-4.632236e-11	-5.982649e-01	-2.626515e+00
1.170000e-06	-1.176122e-08	-3.631676e-11	-8.434337e-02	-2.453066e+00
1.180000e-06	5.988599e-08	-3.108169e-11	4.294611e-01	-2.281466e+00
1.190000e-06	1.315558e-07	-3.434109e-11	9.434277e-01	-2.111307e+00
1.200000e-06	2.032151e-07	-3.568876e-11	1.457319e+00	-1.941948e+00
1.210000e-06	2.748120e-07	-3.048444e-11	1.970763e+00	-1.772578e+00
1.220000e-06	3.463736e-07	-2.325096e-11	2.483953e+00	-1.602297e+00
1.230000e-06	4.179115e-07	-2.029208e-11	2.996974e+00	-1.430199e+00
1.240000e-06	4.894603e-07	-1.789852e-11	3.510073e+00	-1.255455e+00
1.250000e-06	5.609515e-07	-1.388536e-11	4.022759e+00	-1.077398e+00
1.260000e-06	6.323146e-07	-9.589579e-12	4.534526e+00	-8.955836e-01
1.270000e-06	7.035409e-07	-6.186741e-12	5.045312e+00	-7.098361e-01
1.280000e-06	7.746678e-07	-2.999020e-12	5.555385e+00	-5.202751e-01
1.290000e-06	8.457173e-07	2.558661e-12	6.064903e+00	-3.273144e-01
1.300000e-06	9.166225e-07	6.245550e-12	6.573387e+00	-1.316390e-01
1.310000e-06	9.873987e-07	7.955193e-12	7.080945e+00	6.584000e-02
1.320000e-06	1.057983e-06	1.190372e-11	7.587127e+00	2.640473e-01
1.330000e-06	1.128285e-06	1.844172e-11	8.091282e+00	4.618188e-01
1.340000e-06	1.198435e-06	2.282922e-11	8.594351e+00	6.579825e-01
1.350000e-06	1.268435e-06	2.198708e-11	9.096345e+00	8.514398e-01
1.360000e-06	1.338118e-06	2.271571e-11	9.596066e+00	1.041240e+00
1.370000e-06	1.407500e-06	2.916178e-11	1.009362e+01	1.226645e+00
1.380000e-06	1.476714e-06	3.662533e-11	1.058998e+01	1.407172e+00
1.390000e-06	1.545703e-06	3.976857e-11	1.108472e+01	1.582625e+00
1.400000e-06	1.614297e-06	3.886403e-11	1.157663e+01	1.753099e+00
1.410000e-06	1.682523e-06	4.261380e-11	1.206590e+01	1.918967e+00
1.420000e-06	1.750516e-06	5.114245e-11	1.255350e+01	2.080844e+00
1.430000e-06	1.818338e-06	5.705932e-11	1.303987e+01	2.239542e+00
1.440000e-06	1.885978e-06	5.752651e-11	1.352494e+01	2.396009e+00
1.450000e-06	1.953383e-06	5.649273e-11	1.400832e+01	2.551264e+00
1.460000e-06	2.020503e-06	5.988072e-11	1.448966e+01	2.706329e+00
1.470000e-06	2.087248e-06	6.518020e-11	1.496831e+01	2.862166e+00
1.480000e-06	2.153483e-06	6.694349e-11	1.544330e+01	3.019624e+00
1.490000e-06	2.219126e-06	6.572471e-11	1.591405e+01	3.179399e+00
1.500000e-06	2.284136e-06	6.716989e-11	1.638026e+01	3.341999e+00
1.510000e-06	2.348566e-06	7.119666e-11	1.684230e+01	3.507737e+00
1.520000e-06	2.412582e-06	7.456525e-11	1.730138e+01	3.676729e+00
1.530000e-06	2.476263e-06	7.782191e-11	1.775806e+01	3.848911e+00
1.540000e-06	2.539646e-06	8.176585e-11	1.821260e+01	4.024058e+00
1.550000e-06	2.602701e-06	8.511019e-11	1.866478e+01	4.201822e+00
1.560000e-06	2.665354e-06	8.878287e-11	1.911409e+01	4.381761e+00
1.570000e-06	2.727503e-06	9.383517e-11	1.955978e+01	4.563375e+00
1.580000e-06	2.789206e-06	9.580700e-11	2.000227e+01	4.746139e+00
1.590000e-06	2.850556e-06	9.447207e-11	2.044223e+01	4.929523e+00
1.600000e-06	2.911443e-06	9.330797e-11	2.087887e+01	5.113011e+00
1.610000e-06	2.971778e-06	9.393099e-11	2.131155e+01	5.296111e+00
1.620000e-06	3.031653e-06	9.872696e-11	2.174093e+01	5.478351e+00
1.630000e-06	3.091173e-06	1.048989e-10	2.216777e+01	5.659278e+00
1.640000e-06	3.150155e-06	1.077173e-10	2.259075e+01	5.838444e+00
1.650000e-06	3.208348e-06	1.091260e-10	2.300807e+01	6.015398e+00
1.660000e-06	3.265660e-06	1.153553e-10	2.341907e+01	6.189674e+00
1.670000e-06	3.322182e-06	1.231342e-10	2.382441e+01	6.360785e+00
1.680000e-06	3.378159e-06	1.245542e-10	2.422583e+01	6.528229e+00
1.690000e-06	3.433683e-06	1.210827e-10	2.462401e+01	6.691490e+00
1.700000e-06	3.488700e-06	1.196351e-10	2.501856e+01	6.850065e+00
1.710000e-06	3.543157e-06	1.234498e-10	2.540908e+01	7.003482e+00
1.720000e-06	3.597012e-06	1.271696e-10	2.579530e+01	7.151339e+00
1.730000e-06	3.650243e-06	1.271467e-10	2.617703e+01	7.293334e+00
1.740000e-06	3.702830e-06	1.270084e-10	2.655415e+01	7.429304e+00
1.750000e-06	3.754747e-06	1.304733e-10	2.692647e+01	7.559256e+00
1.760000e-06	3.805858e-06	1.354781e-10	2.729300e+01	7.683390e+00
1.770000e-06	3.856045e-06	1.370529e-10	2.765290e+01	7.802116e+00
1.780000e-06	3.905179e-06	1.365830e-10	2.800526e+01	7.916048e+00
1.790000e-06	3.953415e-06	1.360783e-10	2.835118e+01	8.025987e+00
1.800000e-06	4.001021e-06	1.360967e-10	2.869257e+01	8.132891e+00
1.810000e-06	4.047962e-06	1.384690e-10	2.902920e+01	8.237822e+00
1.820000e-06	4.094159e-06	1.416507e-10	2.936049e+01	8.341884e+00
1.830000e-06	4.139629e-06	1.435833e-10	2.968657e+01	8.446154e+00
1.840000e-06	4.184418e-06	1.455152e-10	3.000777e+01	8.551604e+00
1.850000e-06	4.228578e-06	1.490949e-10	3.032445e+01	8.659030e+00
1.860000e-06	4.272208e-06	1.524838e-10	3.063734e+01	8.768988e+00
1.870000e-06	4.315220e-06	1.545321e-10	3.094579e+01	8.881741e+00
1.880000e-06	4.357289e-06	1.560870e-10	3.124749e+01	8.997227e+00
1.890000e-06	4.398238e-06	1.564204e-10	3.154114e+01	9.115053e+00
1.900000e-06	4.438287e-06	1.562261e-10	3.182835e+01	9.234511e+00
1.910000e-06	4.477712e-06	1.564502e-10	3.211107e+01	9.354617e+00
1.920000e-06	4.516502e-06	1.564913e-10	3.238925e+01	9.474182e+00
1.930000e-06	4.554510e-06	1.577106e-10	3.266181e+01	9.591892e+00
1.940000e-06	4.591667e-06	1.612460e-10	3.292828e+01	9.706412e+00
1.950000e-06	4.628043e-06	1.651865e-10	3.318914e+01	9.816488e+00
1.960000e-06	4.663813e-06	1.652986e-10	3.344566e+01	9.921049e+00
1.970000e-06	4.698985e-06	1.650689e-10	3.369789e+01	1.001931e+01
1.980000e-06	4.733182e-06	1.670468e-10	3.394313e+01	1.011083e+01
1.990000e-06	4.766175e-06	1.685582e-10	3.417973e+01	1.019557e+01
2.000000e-06	4.798203e-06	1.681056e-10	3.440942e+01	1.027392e+01
2.010000e-06	4.829475e-06	1.682749e-10	3.463368e+01	1.034667e+01
2.020000e-06	4.860034e-06	1.722176e-10	3.485282e+01	1.041496e+01
2.030000e-06	4.889799e-06	1.764632e-10	3.506628e+01	1.048019e+01
2.040000e-06	4.918731e-06	1.783879e-10	3.527376e+01	1.054393e+01
2.050000e-06	4.946932e-06	1.800407e-10	3.547599e+01	1.060776e+01
2.060000e-06	4.974496e-06	1.838881e-10	3.567367e+01	1.067316e+01
2.070000e-06	5.001163e-06	1.887901e-10	3.586490e+01	1.074135e+01
2.080000e-06	5.026603e-06	1.919997e-10	3.604734e+01	1.081317e+01
2.090000e-06	5.050945e-06	1.913365e-10	3.622191e+01	1.088899e+01
2.100000e-06	5.074390e-06	1.894259e-10	3.639004e+01	1.096861e+01
2.110000e-06	5.096988e-06	1.899898e-10	3.655209e+01	1.105127e+01
2.120000e-06	5.118753e-06	1.922309e-10	3.670818e+01	1.113565e+01
2.130000e-06	5.139681e-06	1.935230e-10	3.685826e+01	1.121993e+01
2.140000e-06	5.159820e-06	1.939902e-10	3.700268e+01	1.130192e+01
2.150000e-06	5.179248e-06	1.944775e-10	3.714201e+01	1.137922e+01
2.160000e-06	5.197845e-06	1.953184e-10	3.727537e+01	1.144937e+01
2.170000e-06	5.215423e-06	1.964079e-10	3.740143e+01	1.151007e+01
2.180000e-06	5.232056e-06	1.952267e-10	3.752071e+01	1.155937e+01
2.190000e-06	5.247773e-06	1.941468e-10	3.763342e+01	1.159588e+01
2.200000e-06	5.262427e-06	1.952727e-10	3.773851e+01	1.161891e+01
2.210000e-06	5.276051e-06	1.965301e-10	3.783621e+01	1.162858e+01
2.220000e-06	5.288744e-06	1.982090e-10	3.792724e+01	1.162591e+01
2.230000e-06	5.300545e-06	1.972651e-10	3.801186e+01	1.161277e+01
2.240000e-06	5.311248e-06	1.946687e-10	3.808862e+01	1.159187e+01
2.250000e-06	5.320613e-06	1.945876e-10	3.815578e+01	1.156659e+01
2.260000e-06	5.328824e-06	1.962552e-10	3.821466e+01	1.154077e+01
2.270000e-06	5.336158e-06	1.972287e-10	3.826726e+01	1.151851e+01
2.280000e-06	5.342664e-06	1.973156e-10	3.831391e+01	1.150382e+01
2.290000e-06	5.348271e-06	1.976072e-10	3.835412e+01	1.150041e+01
2.300000e-06	5.352958e-06	1.990397e-10	3.838774e+01	1.151130e+01
2.310000e-06	5.356929e-06	1.996968e-10	3.841621e+01	1.153862e+01
2.320000e-06	5.360151e-06	1.992544e-10	3.843932e+01	1.158336e+01
2.330000e-06	5.362210e-06	1.995290e-10	3.845409e+01	1.164520e+01
2.340000e-06	5.363035e-06	1.995690e-10	3.846000e+01	1.172244e+01
2.350000e-06	5.362962e-06	2.014749e-10	3.845948e+01	1.181202e+01
2.360000e-06	5.362089e-06	2.032309e-10	3.845321e+01	1.190959e+01
2.370000e-06	5.360358e-06	2.034639e-10	3.844080e+01	1.200973e+01
2.380000e-06	5.357802e-06	2.026134e-10	3.842248e+01	1.210624e+01
2.390000e-06	5.354357e-06	2.017078e-10	3.839777e+01	1.219245e+01
2.400000e-06	5.350201e-06	2.017428e-10	3.836796e+01	1.226164e+01
2.410000e-06	5.345362e-06	1.988454e-10	3.833326e+01	1.230746e+01
2.420000e-06	5.339466e-06	1.940035e-10	3.829098e+01	1.232439e+01
2.430000e-06	5.332375e-06	1.889014e-10	3.824013e+01	1.230806e+01
2.440000e-06	5.324304e-06	2.074710e-10	3.818225e+01	1.225565e+01
2.450000e-06	5.315164e-06	2.232310e-10	3.811670e+01	1.216614e+01
2.460000e-06	5.304657e-06	2.218658e-10	3.804135e+01	1.204047e+01
2.470000e-06	5.293085e-06	1.706446e-10	3.795837e+01	1.188159e+01
2.480000e-06	5.281150e-06	1.457697e-10	3.787278e+01	1.169436e+01
2.490000e-06	5.268682e-06	1.939562e-10	3.778336e+01	1.148545e+01
2.500000e-06	5.254615e-06	1.798406e-10	3.768248e+01	1.126294e+01
2.510000e-06	5.239047e-06	1.457120e-10	3.757084e+01	1.103599e+01
2.520000e-06	5.222935e-06	2.184955e-10	3.745530e+01	1.081433e+01
2.530000e-06	5.206153e-06	1.912138e-10	3.733495e+01	1.060780e+01
2.540000e-06	5.188269e-06	9.117758e-11	3.720670e+01	1.042574e+01
2.550000e-06	5.169494e-06	1.595600e-10	3.707206e+01	1.027656e+01
2.560000e-06	5.149978e-06	1.739641e-10	3.693210e+01	1.016721e+01
2.570000e-06	5.129806e-06	9.525980e-11	3.678745e+01	1.010278e+01
2.580000e-06	5.108763e-06	1.204139e-10	3.663654e+01	1.008626e+01
2.590000e-06	5.086269e-06	1.496714e-10	3.647523e+01	1.011832e+01
2.600000e-06	5.062573e-06	6.962493e-11	3.630530e+01	1.019729e+01
2.610000e-06	5.038247e-06	6.341329e-11	3.613084e+01	1.031921e+01
2.620000e-06	5.013003e-06	1.577419e-10	3.594981e+01	1.047811e+01
2.630000e-06	4.986856e-06	2.047459e-10	3.576230e+01	1.066625e+01
2.640000e-06	4.960133e-06	1.619089e-10	3.557066e+01	1.087465e+01
2.650000e-06	4.932579e-06	5.299189e-11	3.537307e+01	1.109348e+01
2.660000e-06	4.904250e-06	9.524751e-11	3.516991e+01	1.131266e+01
2.670000e-06	4.875140e-06	2.567515e-10	3.496116e+01	1.152237e+01
2.680000e-06	4.844736e-06	2.152016e-10	3.474312e+01	1.171356e+01
2.690000e-06	4.813134e-06	1.043133e-10	3.451649e+01	1.187843e+01
2.700000e-06	4.780759e-06	9.201751e-11	3.428431e+01	1.201075e+01
2.710000e-06	4.747667e-06	1.767918e-10	3.404700e+01	1.210618e+01
2.720000e-06	4.713826e-06	2.720630e-10	3.380432e+01	1.216240e+01
2.730000e-06	4.679115e-06	1.682310e-10	3.355539e+01	1.217914e+01
2.740000e-06	4.643579e-06	5.716070e-11	3.330056e+01	1.215808e+01
2.750000e-06	4.607484e-06	1.264012e-10	3.304171e+01	1.210265e+01
2.760000e-06	4.570711e-06	2.233843e-10	3.277800e+01	1.201773e+01
2.770000e-06	4.532820e-06	2.289396e-10	3.250627e+01	1.190926e+01
2.780000e-06	4.493706e-06	1.190301e-10	3.222577e+01	1.178386e+01
2.790000e-06	4.453774e-06	6.625311e-11	3.193941e+01	1.164831e+01
2.800000e-06	4.413242e-06	1.558404e-10	3.164874e+01	1.150920e+01
2.810000e-06	4.372000e-06	2.267292e-10	3.135298e+01	1.137248e+01
2.820000e-06	4.330055e-06	1.918055e-10	3.105217e+01	1.124315e+01
2.830000e-06	4.287385e-06	9.542991e-11	3.074618e+01	1.112501e+01
2.840000e-06	4.243990e-06	9.641323e-11	3.043498e+01	1.102046e+01
2.850000e-06	4.200033e-06	1.845315e-10	3.011975e+01	1.093050e+01
2.860000e-06	4.155615e-06	2.043482e-10	2.980121e+01	1.085475e+01
2.870000e-06	4.110458e-06	1.476219e-10	2.947738e+01	1.079155e+01
2.880000e-06	4.064336e-06	9.108208e-11	2.914662e+01	1.073820e+01
2.890000e-06	4.017439e-06	1.173102e-10	2.881031e+01	1.069125e+01
2.900000e-06	3.969960e-06	1.817027e-10	2.846983e+01	1.064679e+01
2.910000e-06	3.921787e-06	1.798570e-10	2.812436e+01	1.060076e+01
2.920000e-06	3.872707e-06	1.259087e-10	2.777239e+01	1.054932e+01
2.930000e-06	3.822798e-06	8.942401e-11	2.741448e+01	1.048908e+01
2.940000e-06	3.772234e-06	1.309536e-10	2.705187e+01	1.041741e+01
