# Temperatura_=_20.0
# Concentracion g/m^3_=_12600.0
# C_Vs_to_Am_M_A/Vsm_=_65563218390.804596
# pendiente_HvsI_1/m_=_3716.3
# ordenada_HvsI_A/m_=_1297.0
# frecuencia_Hz_=_213070.24555603458

Tiempo_(s)	Campo_(V.s)	Magnetizacion_(V.s)	Campo_(kA/m)	Magnetizacion_(A/m)
0.000000e+00	-5.304568e-06	-1.558420e-10	-3.835274e+01	-1.133338e+01
1.000000e-08	-5.304620e-06	-1.532774e-10	-3.835311e+01	-1.142965e+01
2.000000e-08	-5.303848e-06	-1.543309e-10	-3.834753e+01	-1.152713e+01
3.000000e-08	-5.301754e-06	-1.585464e-10	-3.833239e+01	-1.161982e+01
4.000000e-08	-5.298514e-06	-1.593198e-10	-3.830897e+01	-1.170133e+01
5.000000e-08	-5.294576e-06	-1.556807e-10	-3.828049e+01	-1.176523e+01
6.000000e-08	-5.289868e-06	-1.519763e-10	-3.824645e+01	-1.180547e+01
7.000000e-08	-5.284250e-06	-1.514471e-10	-3.820584e+01	-1.181679e+01
8.000000e-08	-5.277702e-06	-1.512845e-10	-3.815849e+01	-1.179504e+01
9.000000e-08	-5.270257e-06	-1.605222e-10	-3.810466e+01	-1.173752e+01
1.000000e-07	-5.261900e-06	-1.707931e-10	-3.804424e+01	-1.164320e+01
1.100000e-07	-5.252148e-06	-1.660353e-10	-3.797373e+01	-1.151289e+01
1.200000e-07	-5.241024e-06	-1.316762e-10	-3.789331e+01	-1.134923e+01
1.300000e-07	-5.229109e-06	-1.314138e-10	-3.780716e+01	-1.115670e+01
1.400000e-07	-5.216404e-06	-1.990839e-10	-3.771530e+01	-1.094135e+01
1.500000e-07	-5.202760e-06	-1.914277e-10	-3.761665e+01	-1.071062e+01
1.600000e-07	-5.188309e-06	-1.379368e-10	-3.751217e+01	-1.047291e+01
1.700000e-07	-5.172875e-06	-1.528549e-10	-3.740057e+01	-1.023719e+01
1.800000e-07	-5.156056e-06	-1.413129e-10	-3.727897e+01	-1.001255e+01
1.900000e-07	-5.138211e-06	-1.164665e-10	-3.714995e+01	-9.807679e+00
2.000000e-07	-5.119818e-06	-1.851584e-10	-3.701697e+01	-9.630478e+00
2.100000e-07	-5.100647e-06	-2.061881e-10	-3.687836e+01	-9.487581e+00
2.200000e-07	-5.080482e-06	-1.289214e-10	-3.673256e+01	-9.384039e+00
2.300000e-07	-5.059465e-06	-1.640087e-10	-3.658061e+01	-9.323054e+00
2.400000e-07	-5.037728e-06	-2.272294e-10	-3.642345e+01	-9.305822e+00
2.500000e-07	-5.015096e-06	-1.642550e-10	-3.625982e+01	-9.331494e+00
2.600000e-07	-4.991597e-06	-1.496749e-10	-3.608991e+01	-9.397238e+00
2.700000e-07	-4.967362e-06	-2.197936e-10	-3.591469e+01	-9.498428e+00
2.800000e-07	-4.942263e-06	-2.170374e-10	-3.573322e+01	-9.628911e+00
2.900000e-07	-4.916141e-06	-1.428536e-10	-3.554436e+01	-9.781369e+00
3.000000e-07	-4.888940e-06	-1.167847e-10	-3.534769e+01	-9.947726e+00
3.100000e-07	-4.860823e-06	-1.917895e-10	-3.514440e+01	-1.011959e+01
3.200000e-07	-4.831931e-06	-2.700646e-10	-3.493551e+01	-1.028872e+01
3.300000e-07	-4.802212e-06	-1.902808e-10	-3.472063e+01	-1.044740e+01
3.400000e-07	-4.771651e-06	-6.768120e-11	-3.449968e+01	-1.058887e+01
3.500000e-07	-4.740344e-06	-1.448893e-10	-3.427332e+01	-1.070762e+01
3.600000e-07	-4.708439e-06	-2.706911e-10	-3.404264e+01	-1.079958e+01
3.700000e-07	-4.675706e-06	-2.207217e-10	-3.380598e+01	-1.086231e+01
3.800000e-07	-4.641748e-06	-1.104631e-10	-3.356046e+01	-1.089495e+01
3.900000e-07	-4.606707e-06	-1.013322e-10	-3.330710e+01	-1.089821e+01
4.000000e-07	-4.570968e-06	-1.983462e-10	-3.304871e+01	-1.087421e+01
4.100000e-07	-4.534562e-06	-2.646167e-10	-3.278549e+01	-1.082619e+01
4.200000e-07	-4.497336e-06	-1.854794e-10	-3.251634e+01	-1.075829e+01
4.300000e-07	-4.459348e-06	-6.954117e-11	-3.224168e+01	-1.067516e+01
4.400000e-07	-4.420496e-06	-1.070453e-10	-3.196077e+01	-1.058167e+01
4.500000e-07	-4.380989e-06	-2.536003e-10	-3.167513e+01	-1.048256e+01
4.600000e-07	-4.341098e-06	-2.635790e-10	-3.138672e+01	-1.038211e+01
4.700000e-07	-4.300338e-06	-1.150655e-10	-3.109202e+01	-1.028395e+01
4.800000e-07	-4.258282e-06	-5.081255e-11	-3.078795e+01	-1.019083e+01
4.900000e-07	-4.215190e-06	-1.683969e-10	-3.047639e+01	-1.010451e+01
5.000000e-07	-4.171456e-06	-2.789187e-10	-3.016019e+01	-1.002572e+01
5.100000e-07	-4.127140e-06	-2.027034e-10	-2.983977e+01	-9.954223e+00
5.200000e-07	-4.082133e-06	-7.030597e-11	-2.951437e+01	-9.888883e+00
5.300000e-07	-4.036397e-06	-9.279084e-11	-2.918369e+01	-9.827848e+00
5.400000e-07	-3.989929e-06	-2.133769e-10	-2.884772e+01	-9.768749e+00
5.500000e-07	-3.942791e-06	-2.445462e-10	-2.850690e+01	-9.708928e+00
5.600000e-07	-3.895095e-06	-1.498400e-10	-2.816205e+01	-9.645677e+00
5.700000e-07	-3.846638e-06	-7.916596e-11	-2.781171e+01	-9.576466e+00
5.800000e-07	-3.797180e-06	-1.321792e-10	-2.745412e+01	-9.499143e+00
5.900000e-07	-3.746657e-06	-2.161160e-10	-2.708883e+01	-9.412097e+00
6.000000e-07	-3.695217e-06	-2.025199e-10	-2.671691e+01	-9.314372e+00
6.100000e-07	-3.643137e-06	-1.136926e-10	-2.634036e+01	-9.205719e+00
6.200000e-07	-3.590339e-06	-8.875981e-11	-2.595863e+01	-9.086601e+00
6.300000e-07	-3.536869e-06	-1.535302e-10	-2.557204e+01	-8.958135e+00
6.400000e-07	-3.482850e-06	-1.959035e-10	-2.518147e+01	-8.821989e+00
6.500000e-07	-3.428195e-06	-1.610431e-10	-2.478631e+01	-8.680243e+00
6.600000e-07	-3.372950e-06	-1.097978e-10	-2.438688e+01	-8.535221e+00
6.700000e-07	-3.317317e-06	-1.179975e-10	-2.398464e+01	-8.389313e+00
6.800000e-07	-3.261283e-06	-1.585735e-10	-2.357951e+01	-8.244795e+00
6.900000e-07	-3.204623e-06	-1.651587e-10	-2.316985e+01	-8.103671e+00
7.000000e-07	-3.147095e-06	-1.344687e-10	-2.275391e+01	-7.967537e+00
7.100000e-07	-3.088680e-06	-1.107431e-10	-2.233157e+01	-7.837476e+00
7.200000e-07	-3.029569e-06	-1.237444e-10	-2.190419e+01	-7.714008e+00
7.300000e-07	-2.969955e-06	-1.417937e-10	-2.147317e+01	-7.597073e+00
7.400000e-07	-2.910019e-06	-1.374856e-10	-2.103983e+01	-7.486060e+00
7.500000e-07	-2.849709e-06	-1.269034e-10	-2.060378e+01	-7.379881e+00
7.600000e-07	-2.788855e-06	-1.209918e-10	-2.016380e+01	-7.277069e+00
7.700000e-07	-2.727513e-06	-1.181054e-10	-1.972028e+01	-7.175906e+00
7.800000e-07	-2.665777e-06	-1.179738e-10	-1.927392e+01	-7.074562e+00
7.900000e-07	-2.603589e-06	-1.223905e-10	-1.882430e+01	-6.971236e+00
8.000000e-07	-2.540903e-06	-1.201089e-10	-1.837107e+01	-6.864286e+00
8.100000e-07	-2.477784e-06	-1.052305e-10	-1.791471e+01	-6.752346e+00
8.200000e-07	-2.414330e-06	-9.899542e-11	-1.745593e+01	-6.634409e+00
8.300000e-07	-2.350557e-06	-1.083005e-10	-1.699484e+01	-6.509890e+00
8.400000e-07	-2.286535e-06	-1.175385e-10	-1.653195e+01	-6.378640e+00
8.500000e-07	-2.222192e-06	-1.111876e-10	-1.606674e+01	-6.240941e+00
8.600000e-07	-2.157294e-06	-9.635429e-11	-1.559752e+01	-6.097461e+00
8.700000e-07	-2.091755e-06	-9.384990e-11	-1.512367e+01	-5.949181e+00
8.800000e-07	-2.025670e-06	-1.013616e-10	-1.464586e+01	-5.797311e+00
8.900000e-07	-1.959073e-06	-1.046693e-10	-1.416436e+01	-5.643186e+00
9.000000e-07	-1.892010e-06	-9.624686e-11	-1.367949e+01	-5.488165e+00
9.100000e-07	-1.824662e-06	-8.500511e-11	-1.319255e+01	-5.333532e+00
9.200000e-07	-1.757115e-06	-8.367152e-11	-1.270418e+01	-5.180410e+00
9.300000e-07	-1.689388e-06	-8.751933e-11	-1.221450e+01	-5.029698e+00
9.400000e-07	-1.621508e-06	-8.858508e-11	-1.172372e+01	-4.882023e+00
9.500000e-07	-1.553457e-06	-8.490678e-11	-1.123170e+01	-4.737727e+00
9.600000e-07	-1.485150e-06	-7.673159e-11	-1.073783e+01	-4.596869e+00
9.700000e-07	-1.416548e-06	-6.916243e-11	-1.024183e+01	-4.459257e+00
9.800000e-07	-1.347682e-06	-7.018171e-11	-9.743918e+00	-4.324496e+00
9.900000e-07	-1.278526e-06	-7.589483e-11	-9.243914e+00	-4.192046e+00
1.000000e-06	-1.209111e-06	-7.400666e-11	-8.742037e+00	-4.061296e+00
1.010000e-06	-1.139516e-06	-6.395599e-11	-8.238853e+00	-3.931623e+00
1.020000e-06	-1.069744e-06	-5.841902e-11	-7.734389e+00	-3.802462e+00
1.030000e-06	-9.998158e-07	-6.487611e-11	-7.228802e+00	-3.673353e+00
1.040000e-06	-9.297710e-07	-7.233538e-11	-6.722369e+00	-3.543975e+00
1.050000e-06	-8.595319e-07	-6.578671e-11	-6.214530e+00	-3.414166e+00
1.060000e-06	-7.890191e-07	-5.140382e-11	-5.704713e+00	-3.283916e+00
1.070000e-06	-7.183402e-07	-4.809030e-11	-5.193696e+00	-3.153349e+00
1.080000e-06	-6.475652e-07	-5.619859e-11	-4.681983e+00	-3.022686e+00
1.090000e-06	-5.766738e-07	-5.964147e-11	-4.169429e+00	-2.892201e+00
1.100000e-06	-5.056433e-07	-4.956941e-11	-3.655869e+00	-2.762162e+00
1.110000e-06	-4.344944e-07	-3.983606e-11	-3.141453e+00	-2.632783e+00
1.120000e-06	-3.632963e-07	-4.432905e-11	-2.626681e+00	-2.504171e+00
1.130000e-06	-2.921298e-07	-5.184172e-11	-2.112138e+00	-2.376290e+00
1.140000e-06	-2.209548e-07	-4.923484e-11	-1.597533e+00	-2.248934e+00
1.150000e-06	-1.497139e-07	-3.885671e-11	-1.082452e+00	-2.121722e+00
1.160000e-06	-7.842448e-08	-3.333257e-11	-5.670195e-01	-1.994108e+00
1.170000e-06	-7.111606e-09	-3.463468e-11	-5.141786e-02	-1.865412e+00
1.180000e-06	6.419311e-08	-3.529473e-11	4.641247e-01	-1.734859e+00
1.190000e-06	1.355069e-07	-3.244345e-11	9.797328e-01	-1.601643e+00
1.200000e-06	2.068482e-07	-2.678131e-11	1.495540e+00	-1.464988e+00
1.210000e-06	2.781108e-07	-2.351146e-11	2.010778e+00	-1.324213e+00
1.220000e-06	3.492970e-07	-2.379513e-11	2.525464e+00	-1.178801e+00
1.230000e-06	4.204327e-07	-2.557135e-11	3.039785e+00	-1.028446e+00
1.240000e-06	4.915034e-07	-2.334552e-11	3.553635e+00	-8.730986e-01
1.250000e-06	5.625097e-07	-1.479955e-11	4.067020e+00	-7.129856e-01
1.260000e-06	6.333332e-07	-7.293192e-12	4.579083e+00	-5.486138e-01
1.270000e-06	7.040343e-07	-6.896473e-12	5.090262e+00	-3.807509e-01
1.280000e-06	7.746987e-07	-9.417693e-12	5.601175e+00	-2.103884e-01
1.290000e-06	8.452698e-07	-4.253156e-12	6.111414e+00	-3.868557e-02
1.300000e-06	9.156276e-07	6.280966e-12	6.620110e+00	1.330980e-01
1.310000e-06	9.857392e-07	9.859081e-12	7.127026e+00	3.036795e-01
1.320000e-06	1.055656e-06	5.339232e-12	7.632538e+00	4.718314e-01
1.330000e-06	1.125394e-06	2.099386e-12	8.136750e+00	6.364572e-01
1.340000e-06	1.194973e-06	8.931317e-12	8.639816e+00	7.966580e-01
1.350000e-06	1.264381e-06	1.803484e-11	9.141646e+00	9.517845e-01
1.360000e-06	1.333510e-06	1.803278e-11	9.641458e+00	1.101473e+00
1.370000e-06	1.402272e-06	1.358538e-11	1.013862e+01	1.245658e+00
1.380000e-06	1.470709e-06	1.605701e-11	1.063343e+01	1.384571e+00
1.390000e-06	1.538914e-06	2.597259e-11	1.112655e+01	1.518709e+00
1.400000e-06	1.606929e-06	3.181108e-11	1.161831e+01	1.648797e+00
1.410000e-06	1.674776e-06	3.107152e-11	1.210886e+01	1.775727e+00
1.420000e-06	1.742481e-06	3.146616e-11	1.259837e+01	1.900496e+00
1.430000e-06	1.810019e-06	3.751954e-11	1.308668e+01	2.024134e+00
1.440000e-06	1.877303e-06	4.454986e-11	1.357315e+01	2.147639e+00
1.450000e-06	1.944219e-06	4.749450e-11	1.405697e+01	2.271913e+00
1.460000e-06	2.010663e-06	4.649406e-11	1.453736e+01	2.397717e+00
1.470000e-06	2.076575e-06	4.521654e-11	1.501391e+01	2.525634e+00
1.480000e-06	2.141921e-06	4.748605e-11	1.548637e+01	2.656048e+00
1.490000e-06	2.206671e-06	5.242374e-11	1.595452e+01	2.789149e+00
1.500000e-06	2.270940e-06	5.465744e-11	1.641920e+01	2.924942e+00
1.510000e-06	2.334892e-06	5.301884e-11	1.688158e+01	3.063279e+00
1.520000e-06	2.398597e-06	5.243811e-11	1.734218e+01	3.203894e+00
1.530000e-06	2.461986e-06	5.587955e-11	1.780049e+01	3.346453e+00
1.540000e-06	2.524925e-06	6.165592e-11	1.825554e+01	3.490591e+00
1.550000e-06	2.587409e-06	6.413487e-11	1.870731e+01	3.635964e+00
1.560000e-06	2.649505e-06	6.360090e-11	1.915627e+01	3.782277e+00
1.570000e-06	2.711228e-06	6.677557e-11	1.960254e+01	3.929309e+00
1.580000e-06	2.772546e-06	7.294385e-11	2.004588e+01	4.076929e+00
1.590000e-06	2.833350e-06	7.678321e-11	2.048550e+01	4.225088e+00
1.600000e-06	2.893567e-06	7.587822e-11	2.092087e+01	4.373807e+00
1.610000e-06	2.953369e-06	7.338617e-11	2.135325e+01	4.523148e+00
1.620000e-06	3.012909e-06	7.579774e-11	2.178374e+01	4.673182e+00
1.630000e-06	3.072012e-06	8.213849e-11	2.221106e+01	4.823945e+00
1.640000e-06	3.130357e-06	8.583133e-11	2.263290e+01	4.975404e+00
1.650000e-06	3.187779e-06	8.521250e-11	2.304807e+01	5.127422e+00
1.660000e-06	3.244385e-06	8.617086e-11	2.345733e+01	5.279729e+00
1.670000e-06	3.300423e-06	9.100764e-11	2.386250e+01	5.431911e+00
1.680000e-06	3.356039e-06	9.535159e-11	2.426461e+01	5.583412e+00
1.690000e-06	3.411196e-06	9.694124e-11	2.466341e+01	5.733550e+00
1.700000e-06	3.465741e-06	9.636535e-11	2.505777e+01	5.881546e+00
1.710000e-06	3.519667e-06	9.558654e-11	2.544766e+01	6.026574e+00
1.720000e-06	3.573044e-06	9.746194e-11	2.583359e+01	6.167809e+00
1.730000e-06	3.625792e-06	1.016175e-10	2.621496e+01	6.304491e+00
1.740000e-06	3.677851e-06	1.035508e-10	2.659136e+01	6.435981e+00
1.750000e-06	3.729188e-06	1.030642e-10	2.696253e+01	6.561817e+00
1.760000e-06	3.779661e-06	1.040185e-10	2.732745e+01	6.681759e+00
1.770000e-06	3.829116e-06	1.070866e-10	2.768502e+01	6.795815e+00
1.780000e-06	3.877578e-06	1.108724e-10	2.803541e+01	6.904256e+00
1.790000e-06	3.925339e-06	1.131014e-10	2.838072e+01	7.007605e+00
1.800000e-06	3.972523e-06	1.131316e-10	2.872187e+01	7.106606e+00
1.810000e-06	4.019037e-06	1.139854e-10	2.905817e+01	7.202184e+00
1.820000e-06	4.064846e-06	1.172925e-10	2.938938e+01	7.295375e+00
1.830000e-06	4.109952e-06	1.217430e-10	2.971550e+01	7.387259e+00
1.840000e-06	4.154348e-06	1.240856e-10	3.003649e+01	7.478877e+00
1.850000e-06	4.198194e-06	1.229234e-10	3.035351e+01	7.571159e+00
1.860000e-06	4.241607e-06	1.229470e-10	3.066738e+01	7.664857e+00
1.870000e-06	4.284265e-06	1.276248e-10	3.097581e+01	7.760486e+00
1.880000e-06	4.325746e-06	1.326583e-10	3.127573e+01	7.858298e+00
1.890000e-06	4.366101e-06	1.333114e-10	3.156749e+01	7.958262e+00
1.900000e-06	4.405729e-06	1.316119e-10	3.185401e+01	8.060083e+00
1.910000e-06	4.444779e-06	1.330388e-10	3.213634e+01	8.163237e+00
1.920000e-06	4.483145e-06	1.361046e-10	3.241374e+01	8.267028e+00
1.930000e-06	4.520729e-06	1.385619e-10	3.268547e+01	8.370666e+00
1.940000e-06	4.557475e-06	1.411468e-10	3.295115e+01	8.473351e+00
1.950000e-06	4.593530e-06	1.433601e-10	3.321184e+01	8.574362e+00
1.960000e-06	4.629091e-06	1.441984e-10	3.346895e+01	8.673144e+00
1.970000e-06	4.663880e-06	1.462419e-10	3.372047e+01	8.769378e+00
1.980000e-06	4.697534e-06	1.492588e-10	3.396380e+01	8.863032e+00
1.990000e-06	4.730068e-06	1.513765e-10	3.419902e+01	8.954390e+00
2.000000e-06	4.761725e-06	1.529450e-10	3.442791e+01	9.044047e+00
2.010000e-06	4.792704e-06	1.551975e-10	3.465189e+01	9.132872e+00
2.020000e-06	4.822954e-06	1.597632e-10	3.487060e+01	9.221949e+00
2.030000e-06	4.852392e-06	1.632067e-10	3.508344e+01	9.312478e+00
2.040000e-06	4.881004e-06	1.632055e-10	3.529031e+01	9.405669e+00
2.050000e-06	4.908916e-06	1.627784e-10	3.549212e+01	9.502619e+00
2.060000e-06	4.936155e-06	1.648208e-10	3.568906e+01	9.604185e+00
2.070000e-06	4.962434e-06	1.690567e-10	3.587906e+01	9.710871e+00
2.080000e-06	4.987475e-06	1.732890e-10	3.606011e+01	9.822729e+00
2.090000e-06	5.011449e-06	1.748551e-10	3.623345e+01	9.939295e+00
2.100000e-06	5.034603e-06	1.736064e-10	3.640085e+01	1.005956e+01
2.110000e-06	5.056901e-06	1.746934e-10	3.656207e+01	1.018197e+01
2.120000e-06	5.078385e-06	1.769912e-10	3.671741e+01	1.030451e+01
2.130000e-06	5.099053e-06	1.768643e-10	3.686683e+01	1.042478e+01
2.140000e-06	5.118990e-06	1.773036e-10	3.701098e+01	1.054014e+01
2.150000e-06	5.138300e-06	1.786669e-10	3.715059e+01	1.064788e+01
2.160000e-06	5.156653e-06	1.808725e-10	3.728329e+01	1.074543e+01
2.170000e-06	5.173960e-06	1.853237e-10	3.740842e+01	1.083052e+01
2.180000e-06	5.190405e-06	1.878347e-10	3.752732e+01	1.090139e+01
2.190000e-06	5.205910e-06	1.876142e-10	3.763943e+01	1.095697e+01
2.200000e-06	5.220381e-06	1.872849e-10	3.774405e+01	1.099695e+01
2.210000e-06	5.233845e-06	1.871474e-10	3.784140e+01	1.102194e+01
2.220000e-06	5.246390e-06	1.889386e-10	3.793210e+01	1.103341e+01
2.230000e-06	5.258031e-06	1.881247e-10	3.801626e+01	1.103370e+01
2.240000e-06	5.268512e-06	1.862361e-10	3.809204e+01	1.102590e+01
2.250000e-06	5.277628e-06	1.861935e-10	3.815795e+01	1.101367e+01
2.260000e-06	5.285701e-06	1.880892e-10	3.821633e+01	1.100103e+01
2.270000e-06	5.292980e-06	1.900820e-10	3.826895e+01	1.099207e+01
2.280000e-06	5.299412e-06	1.912740e-10	3.831546e+01	1.099073e+01
2.290000e-06	5.304969e-06	1.916759e-10	3.835563e+01	1.100045e+01
2.300000e-06	5.309618e-06	1.913568e-10	3.838925e+01	1.102389e+01
2.310000e-06	5.313499e-06	1.915336e-10	3.841731e+01	1.106276e+01
2.320000e-06	5.316672e-06	1.909985e-10	3.844025e+01	1.111756e+01
2.330000e-06	5.318703e-06	1.904997e-10	3.845494e+01	1.118749e+01
2.340000e-06	5.319404e-06	1.904542e-10	3.846000e+01	1.127041e+01
2.350000e-06	5.319183e-06	1.921537e-10	3.845840e+01	1.136289e+01
2.360000e-06	5.318209e-06	1.935994e-10	3.845136e+01	1.146036e+01
2.370000e-06	5.316401e-06	1.934543e-10	3.843829e+01	1.155729e+01
2.380000e-06	5.313789e-06	1.933816e-10	3.841940e+01	1.164755e+01
2.390000e-06	5.310374e-06	1.942511e-10	3.839471e+01	1.172467e+01
2.400000e-06	5.306254e-06	1.955974e-10	3.836492e+01	1.178232e+01
2.410000e-06	5.301444e-06	1.961467e-10	3.833015e+01	1.181463e+01
2.420000e-06	5.295606e-06	2.025144e-10	3.828794e+01	1.181664e+01
2.430000e-06	5.288516e-06	1.966785e-10	3.823668e+01	1.178461e+01
2.440000e-06	5.280417e-06	1.839263e-10	3.817812e+01	1.171631e+01
2.450000e-06	5.271258e-06	1.874476e-10	3.811190e+01	1.161127e+01
2.460000e-06	5.260743e-06	2.293811e-10	3.803588e+01	1.147082e+01
2.470000e-06	5.249198e-06	2.421164e-10	3.795241e+01	1.129820e+01
2.480000e-06	5.237330e-06	1.558268e-10	3.786660e+01	1.109835e+01
2.490000e-06	5.224981e-06	1.282319e-10	3.777731e+01	1.087780e+01
2.500000e-06	5.210985e-06	1.777730e-10	3.767612e+01	1.064429e+01
2.510000e-06	5.195391e-06	1.529019e-10	3.756337e+01	1.040646e+01
2.520000e-06	5.179279e-06	1.559425e-10	3.744688e+01	1.017336e+01
2.530000e-06	5.162490e-06	2.070908e-10	3.732549e+01	9.953995e+00
2.540000e-06	5.144582e-06	1.170722e-10	3.719601e+01	9.756888e+00
2.550000e-06	5.125946e-06	5.260562e-11	3.706127e+01	9.589584e+00
2.560000e-06	5.106660e-06	1.518667e-10	3.692183e+01	9.458281e+00
2.570000e-06	5.086576e-06	1.507619e-10	3.677662e+01	9.367497e+00
2.580000e-06	5.065530e-06	7.494064e-11	3.662446e+01	9.319843e+00
2.590000e-06	5.043062e-06	1.383973e-10	3.646201e+01	9.315902e+00
2.600000e-06	5.019421e-06	1.449760e-10	3.629109e+01	9.354216e+00
2.610000e-06	4.995138e-06	4.136536e-12	3.611551e+01	9.431393e+00
2.620000e-06	4.969993e-06	2.762696e-11	3.593372e+01	9.542315e+00
2.630000e-06	4.944001e-06	1.913583e-10	3.574579e+01	9.680439e+00
2.640000e-06	4.917443e-06	2.137129e-10	3.555377e+01	9.838175e+00
2.650000e-06	4.890054e-06	9.892932e-11	3.535574e+01	1.000731e+01
2.660000e-06	4.861837e-06	-1.719886e-12	3.515173e+01	1.017944e+01
2.670000e-06	4.832872e-06	1.233592e-10	3.494231e+01	1.034644e+01
2.680000e-06	4.802683e-06	3.193831e-10	3.472404e+01	1.050085e+01
2.690000e-06	4.771251e-06	2.068769e-10	3.449678e+01	1.063626e+01
2.700000e-06	4.739059e-06	1.460151e-11	3.426403e+01	1.074757e+01
2.710000e-06	4.706236e-06	7.905021e-11	3.402671e+01	1.083118e+01
2.720000e-06	4.672661e-06	2.386144e-10	3.378396e+01	1.088514e+01
2.730000e-06	4.638150e-06	2.622914e-10	3.353444e+01	1.090906e+01
2.740000e-06	4.602793e-06	1.361644e-10	3.327881e+01	1.090410e+01
2.750000e-06	4.566892e-06	3.464280e-11	3.301924e+01	1.087274e+01
2.760000e-06	4.530363e-06	1.123318e-10	3.275513e+01	1.081853e+01
2.770000e-06	4.492823e-06	2.542512e-10	3.248371e+01	1.074579e+01
2.780000e-06	4.454068e-06	2.406377e-10	3.220350e+01	1.065929e+01
2.790000e-06	4.414369e-06	7.706615e-11	3.191648e+01	1.056387e+01
2.800000e-06	4.374038e-06	2.288964e-11	3.162488e+01	1.046416e+01
2.810000e-06	4.333116e-06	1.744231e-10	3.132901e+01	1.036430e+01
2.820000e-06	4.291543e-06	2.820916e-10	3.102843e+01	1.026765e+01
2.830000e-06	4.249177e-06	1.732802e-10	3.072212e+01	1.017666e+01
2.840000e-06	4.205960e-06	2.837272e-11	3.040965e+01	1.009281e+01
2.850000e-06	4.162130e-06	7.946783e-11	3.009276e+01	1.001651e+01
2.860000e-06	4.117894e-06	2.254052e-10	2.977292e+01	9.947253e+00
2.870000e-06	4.073074e-06	2.183468e-10	2.944887e+01	9.883665e+00
2.880000e-06	4.027362e-06	9.741232e-11	2.911837e+01	9.823715e+00
2.890000e-06	3.980775e-06	6.175384e-11	2.878153e+01	9.764922e+00
2.900000e-06	3.933594e-06	1.346396e-10	2.844041e+01	9.704590e+00
2.910000e-06	3.885782e-06	1.979830e-10	2.809472e+01	9.640041e+00
2.920000e-06	3.837114e-06	1.634967e-10	2.774285e+01	9.568838e+00
2.930000e-06	3.787571e-06	8.686274e-11	2.738464e+01	9.488977e+00
2.940000e-06	3.737366e-06	8.561515e-11	2.702166e+01	9.399034e+00
