# Temperatura_=_20.0
# Concentracion g/m^3_=_12600.0
# C_Vs_to_Am_M_A/Vsm_=_65563218390.804596
# pendiente_HvsI_1/m_=_3716.3
# ordenada_HvsI_A/m_=_1297.0
# frecuencia_Hz_=_213062.10052762338

Tiempo_(s)	Campo_(V.s)	Magnetizacion_(V.s)	Campo_(kA/m)	Magnetizacion_(A/m)
0.000000e+00	-5.339645e-06	-2.856459e-09	-3.836366e+01	-1.880974e+02
1.000000e-08	-5.339542e-06	-2.853021e-09	-3.836291e+01	-1.881587e+02
2.000000e-08	-5.338537e-06	-2.855593e-09	-3.835570e+01	-1.881938e+02
3.000000e-08	-5.336276e-06	-2.857174e-09	-3.833945e+01	-1.882017e+02
4.000000e-08	-5.332918e-06	-2.854277e-09	-3.831532e+01	-1.881817e+02
5.000000e-08	-5.328823e-06	-2.849950e-09	-3.828590e+01	-1.881331e+02
6.000000e-08	-5.323921e-06	-2.847531e-09	-3.825068e+01	-1.880562e+02
7.000000e-08	-5.318132e-06	-2.845223e-09	-3.820909e+01	-1.879513e+02
8.000000e-08	-5.311446e-06	-2.836260e-09	-3.816105e+01	-1.878195e+02
9.000000e-08	-5.303874e-06	-2.856515e-09	-3.810665e+01	-1.876623e+02
1.000000e-07	-5.295252e-06	-2.882746e-09	-3.804470e+01	-1.874816e+02
1.100000e-07	-5.285118e-06	-2.883202e-09	-3.797190e+01	-1.872797e+02
1.200000e-07	-5.273714e-06	-2.812052e-09	-3.788996e+01	-1.870595e+02
1.300000e-07	-5.261572e-06	-2.772285e-09	-3.780272e+01	-1.868237e+02
1.400000e-07	-5.248632e-06	-2.866740e-09	-3.770975e+01	-1.865753e+02
1.500000e-07	-5.234820e-06	-2.893351e-09	-3.761052e+01	-1.863171e+02
1.600000e-07	-5.220150e-06	-2.803036e-09	-3.750512e+01	-1.860519e+02
1.700000e-07	-5.204348e-06	-2.824824e-09	-3.739159e+01	-1.857820e+02
1.800000e-07	-5.187140e-06	-2.810881e-09	-3.726795e+01	-1.855092e+02
1.900000e-07	-5.168994e-06	-2.727850e-09	-3.713758e+01	-1.852349e+02
2.000000e-07	-5.150403e-06	-2.871211e-09	-3.700401e+01	-1.849598e+02
2.100000e-07	-5.131032e-06	-2.911222e-09	-3.686483e+01	-1.846839e+02
2.200000e-07	-5.110620e-06	-2.750309e-09	-3.671818e+01	-1.844065e+02
2.300000e-07	-5.089348e-06	-2.816514e-09	-3.656535e+01	-1.841263e+02
2.400000e-07	-5.067352e-06	-2.937164e-09	-3.640731e+01	-1.838412e+02
2.500000e-07	-5.044593e-06	-2.845394e-09	-3.624380e+01	-1.835487e+02
2.600000e-07	-5.020985e-06	-2.815347e-09	-3.607418e+01	-1.832458e+02
2.700000e-07	-4.996405e-06	-2.846451e-09	-3.589759e+01	-1.829293e+02
2.800000e-07	-4.970815e-06	-2.794422e-09	-3.571373e+01	-1.825956e+02
2.900000e-07	-4.944175e-06	-2.806197e-09	-3.552232e+01	-1.822414e+02
3.000000e-07	-4.916541e-06	-2.829576e-09	-3.532379e+01	-1.818633e+02
3.100000e-07	-4.888119e-06	-2.800109e-09	-3.511958e+01	-1.814582e+02
3.200000e-07	-4.858902e-06	-2.802986e-09	-3.490967e+01	-1.810234e+02
3.300000e-07	-4.828825e-06	-2.747386e-09	-3.469358e+01	-1.805568e+02
3.400000e-07	-4.797888e-06	-2.722648e-09	-3.447130e+01	-1.800568e+02
3.500000e-07	-4.766275e-06	-2.811582e-09	-3.424417e+01	-1.795223e+02
3.600000e-07	-4.734132e-06	-2.795330e-09	-3.401324e+01	-1.789529e+02
3.700000e-07	-4.701076e-06	-2.688714e-09	-3.377574e+01	-1.783489e+02
3.800000e-07	-4.666731e-06	-2.672755e-09	-3.352898e+01	-1.777110e+02
3.900000e-07	-4.631359e-06	-2.741206e-09	-3.327484e+01	-1.770403e+02
4.000000e-07	-4.595300e-06	-2.761085e-09	-3.301577e+01	-1.763386e+02
4.100000e-07	-4.558474e-06	-2.694768e-09	-3.275119e+01	-1.756076e+02
4.200000e-07	-4.520811e-06	-2.639034e-09	-3.248059e+01	-1.748493e+02
4.300000e-07	-4.482372e-06	-2.635625e-09	-3.220442e+01	-1.740657e+02
4.400000e-07	-4.443178e-06	-2.682672e-09	-3.192282e+01	-1.732588e+02
4.500000e-07	-4.403420e-06	-2.700810e-09	-3.163718e+01	-1.724301e+02
4.600000e-07	-4.363155e-06	-2.627360e-09	-3.134788e+01	-1.715811e+02
4.700000e-07	-4.321926e-06	-2.566923e-09	-3.105166e+01	-1.707129e+02
4.800000e-07	-4.279460e-06	-2.584249e-09	-3.074656e+01	-1.698260e+02
4.900000e-07	-4.236058e-06	-2.639378e-09	-3.043473e+01	-1.689207e+02
5.000000e-07	-4.192062e-06	-2.628269e-09	-3.011864e+01	-1.679969e+02
5.100000e-07	-4.147418e-06	-2.538329e-09	-2.979788e+01	-1.670539e+02
5.200000e-07	-4.101973e-06	-2.503930e-09	-2.947137e+01	-1.660909e+02
5.300000e-07	-4.055775e-06	-2.548456e-09	-2.913946e+01	-1.651068e+02
5.400000e-07	-4.008837e-06	-2.573570e-09	-2.880222e+01	-1.641004e+02
5.500000e-07	-3.961307e-06	-2.524779e-09	-2.846073e+01	-1.630703e+02
5.600000e-07	-3.913280e-06	-2.457120e-09	-2.811568e+01	-1.620152e+02
5.700000e-07	-3.864387e-06	-2.446461e-09	-2.776439e+01	-1.609339e+02
5.800000e-07	-3.814242e-06	-2.467801e-09	-2.740411e+01	-1.598254e+02
5.900000e-07	-3.763024e-06	-2.472176e-09	-2.703613e+01	-1.586890e+02
6.000000e-07	-3.711106e-06	-2.425901e-09	-2.666312e+01	-1.575242e+02
6.100000e-07	-3.658562e-06	-2.365606e-09	-2.628560e+01	-1.563307e+02
6.200000e-07	-3.605360e-06	-2.361288e-09	-2.590337e+01	-1.551089e+02
6.300000e-07	-3.551524e-06	-2.384684e-09	-2.551657e+01	-1.538591e+02
6.400000e-07	-3.497094e-06	-2.376692e-09	-2.512551e+01	-1.525821e+02
6.500000e-07	-3.442035e-06	-2.325147e-09	-2.472993e+01	-1.512789e+02
6.600000e-07	-3.386441e-06	-2.280954e-09	-2.433050e+01	-1.499505e+02
6.700000e-07	-3.330453e-06	-2.280454e-09	-2.392825e+01	-1.485983e+02
6.800000e-07	-3.273935e-06	-2.286131e-09	-2.352219e+01	-1.472233e+02
6.900000e-07	-3.216628e-06	-2.262972e-09	-2.311045e+01	-1.458267e+02
7.000000e-07	-3.158426e-06	-2.212316e-09	-2.269229e+01	-1.444096e+02
7.100000e-07	-3.099469e-06	-2.176008e-09	-2.226870e+01	-1.429726e+02
7.200000e-07	-3.040007e-06	-2.173571e-09	-2.184148e+01	-1.415163e+02
7.300000e-07	-2.980194e-06	-2.168989e-09	-2.141174e+01	-1.400408e+02
7.400000e-07	-2.920012e-06	-2.142188e-09	-2.097936e+01	-1.385462e+02
7.500000e-07	-2.859276e-06	-2.100318e-09	-2.054299e+01	-1.370319e+02
7.600000e-07	-2.797992e-06	-2.069667e-09	-2.010268e+01	-1.354971e+02
7.700000e-07	-2.736287e-06	-2.056663e-09	-1.965935e+01	-1.339408e+02
7.800000e-07	-2.674153e-06	-2.042351e-09	-1.921294e+01	-1.323618e+02
7.900000e-07	-2.611564e-06	-2.016094e-09	-1.876325e+01	-1.307585e+02
8.000000e-07	-2.548443e-06	-1.972998e-09	-1.830975e+01	-1.291294e+02
8.100000e-07	-2.484870e-06	-1.938034e-09	-1.785300e+01	-1.274727e+02
8.200000e-07	-2.421038e-06	-1.928062e-09	-1.739439e+01	-1.257870e+02
8.300000e-07	-2.356977e-06	-1.918386e-09	-1.693413e+01	-1.240705e+02
8.400000e-07	-2.292519e-06	-1.886204e-09	-1.647102e+01	-1.223221e+02
8.500000e-07	-2.227529e-06	-1.836783e-09	-1.600409e+01	-1.205404e+02
8.600000e-07	-2.161939e-06	-1.805874e-09	-1.553284e+01	-1.187246e+02
8.700000e-07	-2.095769e-06	-1.795993e-09	-1.505744e+01	-1.168741e+02
8.800000e-07	-2.029105e-06	-1.772900e-09	-1.457848e+01	-1.149885e+02
8.900000e-07	-1.961939e-06	-1.726661e-09	-1.409591e+01	-1.130679e+02
9.000000e-07	-1.894408e-06	-1.679231e-09	-1.361072e+01	-1.111125e+02
9.100000e-07	-1.826692e-06	-1.656427e-09	-1.312420e+01	-1.091230e+02
9.200000e-07	-1.758812e-06	-1.642255e-09	-1.263651e+01	-1.071001e+02
9.300000e-07	-1.690743e-06	-1.609215e-09	-1.214745e+01	-1.050450e+02
9.400000e-07	-1.622417e-06	-1.565467e-09	-1.165655e+01	-1.029586e+02
9.500000e-07	-1.553774e-06	-1.530433e-09	-1.116337e+01	-1.008422e+02
9.600000e-07	-1.484884e-06	-1.506609e-09	-1.066842e+01	-9.869709e+01
9.700000e-07	-1.415776e-06	-1.476484e-09	-1.017190e+01	-9.652436e+01
9.800000e-07	-1.346373e-06	-1.435595e-09	-9.673264e+00	-9.432507e+01
9.900000e-07	-1.276730e-06	-1.395231e-09	-9.172897e+00	-9.210010e+01
1.000000e-06	-1.206865e-06	-1.359644e-09	-8.670941e+00	-8.985011e+01
1.010000e-06	-1.136770e-06	-1.328515e-09	-8.167329e+00	-8.757555e+01
1.020000e-06	-1.066499e-06	-1.297108e-09	-7.662454e+00	-8.527655e+01
1.030000e-06	-9.960875e-07	-1.265111e-09	-7.156573e+00	-8.295302e+01
1.040000e-06	-9.255235e-07	-1.229725e-09	-6.649592e+00	-8.060458e+01
1.050000e-06	-8.547208e-07	-1.188005e-09	-6.140898e+00	-7.823060e+01
1.060000e-06	-7.837318e-07	-1.150636e-09	-5.630864e+00	-7.583024e+01
1.070000e-06	-7.126635e-07	-1.119463e-09	-5.120261e+00	-7.340249e+01
1.080000e-06	-6.414816e-07	-1.084668e-09	-4.608842e+00	-7.094620e+01
1.090000e-06	-5.701856e-07	-1.040317e-09	-4.096602e+00	-6.846015e+01
1.100000e-06	-4.988006e-07	-9.935199e-10	-3.583724e+00	-6.594309e+01
1.110000e-06	-4.273410e-07	-9.589382e-10	-3.070309e+00	-6.339381e+01
1.120000e-06	-3.558509e-07	-9.301188e-10	-2.556675e+00	-6.081120e+01
1.130000e-06	-2.843594e-07	-8.904496e-10	-2.043032e+00	-5.819427e+01
1.140000e-06	-2.127902e-07	-8.405861e-10	-1.528830e+00	-5.554219e+01
1.150000e-06	-1.411733e-07	-7.962687e-10	-1.014285e+00	-5.285434e+01
1.160000e-06	-6.958143e-08	-7.628693e-10	-4.999205e-01	-5.013034e+01
1.170000e-06	1.973287e-09	-7.239956e-10	1.417744e-02	-4.737001e+01
1.180000e-06	7.350199e-08	-6.755465e-10	5.280884e-01	-4.457338e+01
1.190000e-06	1.450638e-07	-6.271257e-10	1.042237e+00	-4.174070e+01
1.200000e-06	2.166083e-07	-5.843769e-10	1.556262e+00	-3.887238e+01
1.210000e-06	2.881172e-07	-5.457922e-10	2.070030e+00	-3.596900e+01
1.220000e-06	3.595749e-07	-5.009816e-10	2.583432e+00	-3.303120e+01
1.230000e-06	4.310138e-07	-4.501247e-10	3.096698e+00	-3.005970e+01
1.240000e-06	5.024088e-07	-4.003363e-10	3.609647e+00	-2.705525e+01
1.250000e-06	5.736935e-07	-3.553291e-10	4.121805e+00	-2.401854e+01
1.260000e-06	6.449139e-07	-3.132759e-10	4.633501e+00	-2.095024e+01
1.270000e-06	7.160196e-07	-2.657889e-10	5.144374e+00	-1.785093e+01
1.280000e-06	7.870024e-07	-2.137056e-10	5.654363e+00	-1.472111e+01
1.290000e-06	8.579101e-07	-1.608754e-10	6.163812e+00	-1.156116e+01
1.300000e-06	9.286814e-07	-1.078017e-10	6.672281e+00	-8.371400e+00
1.310000e-06	9.992602e-07	-5.864143e-11	7.179367e+00	-5.152093e+00
1.320000e-06	1.069614e-06	-1.175299e-11	7.684837e+00	-1.903475e+00
1.330000e-06	1.139757e-06	3.820544e-11	8.188792e+00	1.374194e+00
1.340000e-06	1.209677e-06	9.259817e-11	8.691145e+00	4.680573e+00
1.350000e-06	1.279324e-06	1.439396e-10	9.191536e+00	8.015185e+00
1.360000e-06	1.348718e-06	1.905870e-10	9.690110e+00	1.137736e+01
1.370000e-06	1.417860e-06	2.406433e-10	1.018687e+01	1.476615e+01
1.380000e-06	1.486777e-06	2.970075e-10	1.068202e+01	1.818031e+01
1.390000e-06	1.555441e-06	3.553487e-10	1.117535e+01	2.161824e+01
1.400000e-06	1.623876e-06	4.069716e-10	1.166703e+01	2.507793e+01
1.410000e-06	1.692062e-06	4.562344e-10	1.215693e+01	2.855695e+01
1.420000e-06	1.759970e-06	5.113965e-10	1.264483e+01	3.205245e+01
1.430000e-06	1.827709e-06	5.698452e-10	1.313151e+01	3.556115e+01
1.440000e-06	1.895259e-06	6.255329e-10	1.361683e+01	3.907937e+01
1.450000e-06	1.962518e-06	6.752923e-10	1.410007e+01	4.260308e+01
1.460000e-06	2.029386e-06	7.251275e-10	1.458050e+01	4.612796e+01
1.470000e-06	2.095780e-06	7.798983e-10	1.505752e+01	4.964941e+01
1.480000e-06	2.161581e-06	8.368996e-10	1.553027e+01	5.316268e+01
1.490000e-06	2.226843e-06	8.912627e-10	1.599916e+01	5.666296e+01
1.500000e-06	2.291646e-06	9.417965e-10	1.646475e+01	6.014538e+01
1.510000e-06	2.355953e-06	9.917317e-10	1.692677e+01	6.360519e+01
1.520000e-06	2.419820e-06	1.044891e-09	1.738564e+01	6.703776e+01
1.530000e-06	2.483384e-06	1.099440e-09	1.784232e+01	7.043868e+01
1.540000e-06	2.546634e-06	1.152133e-09	1.829675e+01	7.380385e+01
1.550000e-06	2.609498e-06	1.200024e-09	1.874841e+01	7.712947e+01
1.560000e-06	2.671941e-06	1.247288e-09	1.919704e+01	8.041210e+01
1.570000e-06	2.733959e-06	1.298767e-09	1.964263e+01	8.364870e+01
1.580000e-06	2.795515e-06	1.350283e-09	2.008489e+01	8.683662e+01
1.590000e-06	2.856563e-06	1.397097e-09	2.052350e+01	8.997360e+01
1.600000e-06	2.917165e-06	1.437253e-09	2.095890e+01	9.305777e+01
1.610000e-06	2.977340e-06	1.476973e-09	2.139124e+01	9.608761e+01
1.620000e-06	3.037110e-06	1.522506e-09	2.182067e+01	9.906190e+01
1.630000e-06	3.096431e-06	1.570390e-09	2.224687e+01	1.019797e+02
1.640000e-06	3.155132e-06	1.612865e-09	2.266862e+01	1.048405e+02
1.650000e-06	3.213067e-06	1.650315e-09	2.308487e+01	1.076437e+02
1.660000e-06	3.270140e-06	1.690424e-09	2.349491e+01	1.103891e+02
1.670000e-06	3.326441e-06	1.734274e-09	2.389942e+01	1.130766e+02
1.680000e-06	3.382212e-06	1.774473e-09	2.430012e+01	1.157062e+02
1.690000e-06	3.437514e-06	1.807857e-09	2.469744e+01	1.182779e+02
1.700000e-06	3.492342e-06	1.837549e-09	2.509137e+01	1.207920e+02
1.710000e-06	3.546660e-06	1.870791e-09	2.548163e+01	1.232485e+02
1.720000e-06	3.600299e-06	1.908841e-09	2.586700e+01	1.256479e+02
1.730000e-06	3.653254e-06	1.944236e-09	2.624747e+01	1.279902e+02
1.740000e-06	3.705605e-06	1.975343e-09	2.662360e+01	1.302760e+02
1.750000e-06	3.757191e-06	2.006951e-09	2.699422e+01	1.325054e+02
1.760000e-06	3.807861e-06	2.041998e-09	2.735827e+01	1.346788e+02
1.770000e-06	3.857615e-06	2.076015e-09	2.771574e+01	1.367968e+02
1.780000e-06	3.906402e-06	2.104898e-09	2.806626e+01	1.388595e+02
1.790000e-06	3.954321e-06	2.129688e-09	2.841054e+01	1.408677e+02
1.800000e-06	4.001668e-06	2.153111e-09	2.875071e+01	1.428216e+02
1.810000e-06	4.048456e-06	2.180005e-09	2.908687e+01	1.447219e+02
1.820000e-06	4.094567e-06	2.209235e-09	2.941816e+01	1.465691e+02
1.830000e-06	4.139961e-06	2.235574e-09	2.974431e+01	1.483638e+02
1.840000e-06	4.184614e-06	2.258336e-09	3.006513e+01	1.501066e+02
1.850000e-06	4.228643e-06	2.280790e-09	3.038145e+01	1.517982e+02
1.860000e-06	4.272114e-06	2.306217e-09	3.069379e+01	1.534392e+02
1.870000e-06	4.314829e-06	2.333102e-09	3.100067e+01	1.550304e+02
1.880000e-06	4.356551e-06	2.355568e-09	3.130043e+01	1.565726e+02
1.890000e-06	4.397283e-06	2.373164e-09	3.159308e+01	1.580666e+02
1.900000e-06	4.437190e-06	2.392325e-09	3.187980e+01	1.595132e+02
1.910000e-06	4.476457e-06	2.415349e-09	3.216192e+01	1.609134e+02
1.920000e-06	4.515047e-06	2.437307e-09	3.243918e+01	1.622681e+02
1.930000e-06	4.552854e-06	2.455656e-09	3.271081e+01	1.635784e+02
1.940000e-06	4.589839e-06	2.473115e-09	3.297654e+01	1.648453e+02
1.950000e-06	4.626077e-06	2.493122e-09	3.323689e+01	1.660698e+02
1.960000e-06	4.661764e-06	2.512834e-09	3.349329e+01	1.672532e+02
1.970000e-06	4.696704e-06	2.530261e-09	3.374432e+01	1.683965e+02
1.980000e-06	4.730482e-06	2.546429e-09	3.398701e+01	1.695007e+02
1.990000e-06	4.763159e-06	2.562420e-09	3.422178e+01	1.705671e+02
2.000000e-06	4.795033e-06	2.579812e-09	3.445079e+01	1.715965e+02
2.010000e-06	4.826167e-06	2.597406e-09	3.467448e+01	1.725899e+02
2.020000e-06	4.856579e-06	2.612436e-09	3.489297e+01	1.735483e+02
2.030000e-06	4.886206e-06	2.624924e-09	3.510584e+01	1.744722e+02
2.040000e-06	4.914959e-06	2.638620e-09	3.531242e+01	1.753623e+02
2.050000e-06	4.942986e-06	2.652836e-09	3.551379e+01	1.762192e+02
2.060000e-06	4.970330e-06	2.666445e-09	3.571025e+01	1.770431e+02
2.070000e-06	4.996693e-06	2.679775e-09	3.589965e+01	1.778344e+02
2.080000e-06	5.021862e-06	2.693211e-09	3.608049e+01	1.785932e+02
2.090000e-06	5.045973e-06	2.704552e-09	3.625371e+01	1.793196e+02
2.100000e-06	5.069218e-06	2.715066e-09	3.642072e+01	1.800137e+02
2.110000e-06	5.091644e-06	2.726554e-09	3.658184e+01	1.806756e+02
2.120000e-06	5.113182e-06	2.737345e-09	3.673659e+01	1.813053e+02
2.130000e-06	5.133843e-06	2.746080e-09	3.688503e+01	1.819031e+02
2.140000e-06	5.153818e-06	2.752640e-09	3.702855e+01	1.824692e+02
2.150000e-06	5.173145e-06	2.759079e-09	3.716740e+01	1.830041e+02
2.160000e-06	5.191509e-06	2.766108e-09	3.729934e+01	1.835084e+02
2.170000e-06	5.208785e-06	2.773927e-09	3.742347e+01	1.839829e+02
2.180000e-06	5.225197e-06	2.779607e-09	3.754138e+01	1.844285e+02
2.190000e-06	5.240620e-06	2.784678e-09	3.765219e+01	1.848464e+02
2.200000e-06	5.254929e-06	2.792130e-09	3.775500e+01	1.852377e+02
2.210000e-06	5.268311e-06	2.800203e-09	3.785114e+01	1.856038e+02
2.220000e-06	5.280835e-06	2.806887e-09	3.794112e+01	1.859461e+02
2.230000e-06	5.292408e-06	2.809948e-09	3.802427e+01	1.862659e+02
2.240000e-06	5.302771e-06	2.812918e-09	3.809872e+01	1.865644e+02
2.250000e-06	5.311850e-06	2.818212e-09	3.816396e+01	1.868429e+02
2.260000e-06	5.319923e-06	2.824410e-09	3.822196e+01	1.871021e+02
2.270000e-06	5.327226e-06	2.828908e-09	3.827443e+01	1.873428e+02
2.280000e-06	5.333663e-06	2.832048e-09	3.832068e+01	1.875653e+02
2.290000e-06	5.339107e-06	2.834953e-09	3.835978e+01	1.877695e+02
2.300000e-06	5.343676e-06	2.838035e-09	3.839262e+01	1.879553e+02
2.310000e-06	5.347567e-06	2.842145e-09	3.842057e+01	1.881219e+02
2.320000e-06	5.350677e-06	2.845543e-09	3.844292e+01	1.882685e+02
2.330000e-06	5.352506e-06	2.849068e-09	3.845605e+01	1.883938e+02
2.340000e-06	5.353055e-06	2.852257e-09	3.846000e+01	1.884967e+02
2.350000e-06	5.352812e-06	2.854275e-09	3.845825e+01	1.885757e+02
2.360000e-06	5.351796e-06	2.854256e-09	3.845096e+01	1.886294e+02
2.370000e-06	5.349891e-06	2.852145e-09	3.843727e+01	1.886567e+02
2.380000e-06	5.347145e-06	2.849407e-09	3.841754e+01	1.886565e+02
2.390000e-06	5.343628e-06	2.847452e-09	3.839227e+01	1.886281e+02
2.400000e-06	5.339489e-06	2.848858e-09	3.836253e+01	1.885712e+02
2.410000e-06	5.334535e-06	2.851046e-09	3.832694e+01	1.884860e+02
2.420000e-06	5.328406e-06	2.861511e-09	3.828290e+01	1.883731e+02
2.430000e-06	5.321126e-06	2.843059e-09	3.823060e+01	1.882337e+02
2.440000e-06	5.312934e-06	2.802015e-09	3.817174e+01	1.880694e+02
2.450000e-06	5.303580e-06	2.793064e-09	3.810454e+01	1.878823e+02
2.460000e-06	5.292805e-06	2.865760e-09	3.802713e+01	1.876749e+02
2.470000e-06	5.281119e-06	2.911286e-09	3.794316e+01	1.874499e+02
2.480000e-06	5.269252e-06	2.805317e-09	3.785790e+01	1.872102e+02
2.490000e-06	5.256765e-06	2.734873e-09	3.776818e+01	1.869587e+02
2.500000e-06	5.242473e-06	2.825304e-09	3.766550e+01	1.866984e+02
2.510000e-06	5.226739e-06	2.783450e-09	3.755246e+01	1.864317e+02
2.520000e-06	5.210546e-06	2.776604e-09	3.743612e+01	1.861610e+02
2.530000e-06	5.193565e-06	2.886911e-09	3.731412e+01	1.858878e+02
2.540000e-06	5.175476e-06	2.739204e-09	3.718415e+01	1.856135e+02
2.550000e-06	5.156662e-06	2.661912e-09	3.704898e+01	1.853384e+02
2.560000e-06	5.137182e-06	2.832520e-09	3.690902e+01	1.850623e+02
2.570000e-06	5.116986e-06	2.807080e-09	3.676392e+01	1.847844e+02
2.580000e-06	5.095725e-06	2.653305e-09	3.661117e+01	1.845032e+02
2.590000e-06	5.072927e-06	2.759588e-09	3.644737e+01	1.842163e+02
2.600000e-06	5.049139e-06	2.796310e-09	3.627646e+01	1.839213e+02
2.610000e-06	5.024797e-06	2.699710e-09	3.610157e+01	1.836148e+02
2.620000e-06	4.999461e-06	2.801569e-09	3.591954e+01	1.832937e+02
2.630000e-06	4.973280e-06	2.815624e-09	3.573144e+01	1.829545e+02
2.640000e-06	4.946518e-06	2.744820e-09	3.553916e+01	1.825936e+02
2.650000e-06	4.918897e-06	2.739397e-09	3.534071e+01	1.822079e+02
2.660000e-06	4.890540e-06	2.694645e-09	3.513698e+01	1.817944e+02
2.670000e-06	4.861372e-06	2.812808e-09	3.492741e+01	1.813505e+02
2.680000e-06	4.830801e-06	2.848547e-09	3.470777e+01	1.808742e+02
2.690000e-06	4.799053e-06	2.670124e-09	3.447967e+01	1.803641e+02
2.700000e-06	4.766658e-06	2.690529e-09	3.424692e+01	1.798194e+02
2.710000e-06	4.733580e-06	2.807422e-09	3.400927e+01	1.792397e+02
2.720000e-06	4.699653e-06	2.806060e-09	3.376551e+01	1.786257e+02
2.730000e-06	4.664728e-06	2.720665e-09	3.351459e+01	1.779780e+02
2.740000e-06	4.629033e-06	2.642596e-09	3.325813e+01	1.772980e+02
2.750000e-06	4.592900e-06	2.694539e-09	3.299853e+01	1.765875e+02
2.760000e-06	4.556095e-06	2.742240e-09	3.273410e+01	1.758483e+02
2.770000e-06	4.518110e-06	2.709823e-09	3.246118e+01	1.750825e+02
2.780000e-06	4.478883e-06	2.656676e-09	3.217935e+01	1.742919e+02
2.790000e-06	4.438937e-06	2.598675e-09	3.189235e+01	1.734784e+02
2.800000e-06	4.398433e-06	2.633845e-09	3.160135e+01	1.726438e+02
2.810000e-06	4.357106e-06	2.687950e-09	3.130442e+01	1.717891e+02
2.820000e-06	4.315078e-06	2.654385e-09	3.100246e+01	1.709154e+02
2.830000e-06	4.272328e-06	2.580530e-09	3.069532e+01	1.700232e+02
2.840000e-06	4.228858e-06	2.537769e-09	3.038300e+01	1.691126e+02
2.850000e-06	4.184896e-06	2.591844e-09	3.006715e+01	1.681833e+02
2.860000e-06	4.140424e-06	2.623163e-09	2.974763e+01	1.672346e+02
2.870000e-06	4.095167e-06	2.547856e-09	2.942247e+01	1.662656e+02
2.880000e-06	4.048865e-06	2.492452e-09	2.908981e+01	1.652752e+02
2.890000e-06	4.001837e-06	2.500239e-09	2.875193e+01	1.642620e+02
2.900000e-06	3.954369e-06	2.531743e-09	2.841088e+01	1.632247e+02
2.910000e-06	3.906104e-06	2.525351e-09	2.806412e+01	1.621621e+02
2.920000e-06	3.856860e-06	2.468971e-09	2.771031e+01	1.610730e+02
2.930000e-06	3.806886e-06	2.425188e-09	2.735127e+01	1.599564e+02
2.940000e-06	3.756344e-06	2.423085e-09	2.698814e+01	1.588116e+02
