# Temperatura_=_20.0
# Concentracion g/m^3_=_12600.0
# C_Vs_to_Am_M_A/Vsm_=_65563218390.804596
# pendiente_HvsI_1/m_=_3716.3
# ordenada_HvsI_A/m_=_1297.0
# frecuencia_Hz_=_213064.56193369633

Tiempo_(s)	Campo_(V.s)	Magnetizacion_(V.s)	Campo_(kA/m)	Magnetizacion_(A/m)
0.000000e+00	-5.335186e-06	-2.998814e-09	-3.835612e+01	-1.971052e+02
1.000000e-08	-5.335004e-06	-2.996349e-09	-3.835481e+01	-1.971609e+02
2.000000e-08	-5.333928e-06	-2.999397e-09	-3.834707e+01	-1.971965e+02
3.000000e-08	-5.331599e-06	-3.001173e-09	-3.833033e+01	-1.972095e+02
4.000000e-08	-5.328130e-06	-2.997021e-09	-3.830539e+01	-1.971972e+02
5.000000e-08	-5.323864e-06	-2.991366e-09	-3.827473e+01	-1.971571e+02
6.000000e-08	-5.318841e-06	-2.988248e-09	-3.823861e+01	-1.970871e+02
7.000000e-08	-5.313020e-06	-2.984797e-09	-3.819676e+01	-1.969853e+02
8.000000e-08	-5.306309e-06	-2.975703e-09	-3.814852e+01	-1.968507e+02
9.000000e-08	-5.298689e-06	-2.984398e-09	-3.809373e+01	-1.966829e+02
1.000000e-07	-5.290091e-06	-3.019518e-09	-3.803192e+01	-1.964825e+02
1.100000e-07	-5.280040e-06	-3.023862e-09	-3.795966e+01	-1.962509e+02
1.200000e-07	-5.268655e-06	-2.971194e-09	-3.787781e+01	-1.959905e+02
1.300000e-07	-5.256519e-06	-2.889794e-09	-3.779056e+01	-1.957046e+02
1.400000e-07	-5.243593e-06	-2.960302e-09	-3.769763e+01	-1.953969e+02
1.500000e-07	-5.229659e-06	-3.059390e-09	-3.759746e+01	-1.950718e+02
1.600000e-07	-5.214849e-06	-2.947114e-09	-3.749098e+01	-1.947339e+02
1.700000e-07	-5.199081e-06	-2.939050e-09	-3.737762e+01	-1.943878e+02
1.800000e-07	-5.181954e-06	-2.954216e-09	-3.725449e+01	-1.940377e+02
1.900000e-07	-5.163815e-06	-2.863458e-09	-3.712409e+01	-1.936874e+02
2.000000e-07	-5.145119e-06	-2.948689e-09	-3.698968e+01	-1.933399e+02
2.100000e-07	-5.125614e-06	-3.046517e-09	-3.684945e+01	-1.929972e+02
2.200000e-07	-5.105145e-06	-2.895151e-09	-3.670229e+01	-1.926603e+02
2.300000e-07	-5.083847e-06	-2.851701e-09	-3.654917e+01	-1.923289e+02
2.400000e-07	-5.061831e-06	-3.033094e-09	-3.639090e+01	-1.920014e+02
2.500000e-07	-5.039010e-06	-2.996432e-09	-3.622683e+01	-1.916752e+02
2.600000e-07	-5.015292e-06	-2.905248e-09	-3.605631e+01	-1.913467e+02
2.700000e-07	-4.990614e-06	-2.926094e-09	-3.587890e+01	-1.910112e+02
2.800000e-07	-4.964939e-06	-2.890800e-09	-3.569431e+01	-1.906637e+02
2.900000e-07	-4.938296e-06	-2.913124e-09	-3.550277e+01	-1.902985e+02
3.000000e-07	-4.910664e-06	-2.954652e-09	-3.530411e+01	-1.899101e+02
3.100000e-07	-4.882153e-06	-2.900492e-09	-3.509914e+01	-1.894932e+02
3.200000e-07	-4.852846e-06	-2.868761e-09	-3.488845e+01	-1.890428e+02
3.300000e-07	-4.822751e-06	-2.861241e-09	-3.467208e+01	-1.885549e+02
3.400000e-07	-4.791855e-06	-2.857689e-09	-3.444997e+01	-1.880262e+02
3.500000e-07	-4.760216e-06	-2.898714e-09	-3.422250e+01	-1.874546e+02
3.600000e-07	-4.727894e-06	-2.877245e-09	-3.399013e+01	-1.868392e+02
3.700000e-07	-4.694599e-06	-2.774137e-09	-3.375076e+01	-1.861802e+02
3.800000e-07	-4.660110e-06	-2.778619e-09	-3.350281e+01	-1.854788e+02
3.900000e-07	-4.624641e-06	-2.864748e-09	-3.324782e+01	-1.847373e+02
4.000000e-07	-4.588483e-06	-2.846103e-09	-3.298787e+01	-1.839588e+02
4.100000e-07	-4.551628e-06	-2.770305e-09	-3.272291e+01	-1.831468e+02
4.200000e-07	-4.513988e-06	-2.739743e-09	-3.245230e+01	-1.823054e+02
4.300000e-07	-4.475664e-06	-2.765880e-09	-3.217678e+01	-1.814386e+02
4.400000e-07	-4.436598e-06	-2.789104e-09	-3.189592e+01	-1.805502e+02
4.500000e-07	-4.396798e-06	-2.763049e-09	-3.160979e+01	-1.796437e+02
4.600000e-07	-4.356403e-06	-2.714266e-09	-3.131938e+01	-1.787220e+02
4.700000e-07	-4.315250e-06	-2.684029e-09	-3.102352e+01	-1.777872e+02
4.800000e-07	-4.272923e-06	-2.698755e-09	-3.071922e+01	-1.768406e+02
4.900000e-07	-4.229511e-06	-2.712909e-09	-3.040712e+01	-1.758826e+02
5.000000e-07	-4.185433e-06	-2.686202e-09	-3.009023e+01	-1.749127e+02
5.100000e-07	-4.140702e-06	-2.640444e-09	-2.976864e+01	-1.739298e+02
5.200000e-07	-4.095216e-06	-2.613312e-09	-2.944163e+01	-1.729321e+02
5.300000e-07	-4.049008e-06	-2.633861e-09	-2.910943e+01	-1.719170e+02
5.400000e-07	-4.002150e-06	-2.639682e-09	-2.877256e+01	-1.708820e+02
5.500000e-07	-3.954725e-06	-2.595568e-09	-2.843161e+01	-1.698243e+02
5.600000e-07	-3.906681e-06	-2.557564e-09	-2.808621e+01	-1.687410e+02
5.700000e-07	-3.857726e-06	-2.542422e-09	-2.773425e+01	-1.676298e+02
5.800000e-07	-3.807679e-06	-2.546128e-09	-2.737445e+01	-1.664885e+02
5.900000e-07	-3.756563e-06	-2.540015e-09	-2.700697e+01	-1.653155e+02
6.000000e-07	-3.704666e-06	-2.506812e-09	-2.663386e+01	-1.641100e+02
6.100000e-07	-3.652155e-06	-2.464803e-09	-2.625634e+01	-1.628716e+02
6.200000e-07	-3.598938e-06	-2.443554e-09	-2.587376e+01	-1.616006e+02
6.300000e-07	-3.545073e-06	-2.458188e-09	-2.548651e+01	-1.602977e+02
6.400000e-07	-3.490585e-06	-2.452292e-09	-2.509478e+01	-1.589645e+02
6.500000e-07	-3.435505e-06	-2.403813e-09	-2.469879e+01	-1.576025e+02
6.600000e-07	-3.379932e-06	-2.361469e-09	-2.429926e+01	-1.562136e+02
6.700000e-07	-3.323892e-06	-2.354486e-09	-2.389637e+01	-1.547999e+02
6.800000e-07	-3.267389e-06	-2.364032e-09	-2.349016e+01	-1.533633e+02
6.900000e-07	-3.210187e-06	-2.336594e-09	-2.307892e+01	-1.519055e+02
7.000000e-07	-3.152072e-06	-2.281869e-09	-2.266111e+01	-1.504278e+02
7.100000e-07	-3.093217e-06	-2.251724e-09	-2.223799e+01	-1.489313e+02
7.200000e-07	-3.033825e-06	-2.251290e-09	-2.181101e+01	-1.474166e+02
7.300000e-07	-2.973995e-06	-2.245771e-09	-2.138087e+01	-1.458835e+02
7.400000e-07	-2.913775e-06	-2.204286e-09	-2.094793e+01	-1.443317e+02
7.500000e-07	-2.853083e-06	-2.158740e-09	-2.051160e+01	-1.427603e+02
7.600000e-07	-2.791801e-06	-2.142388e-09	-2.007103e+01	-1.411680e+02
7.700000e-07	-2.729996e-06	-2.134543e-09	-1.962669e+01	-1.395530e+02
7.800000e-07	-2.667828e-06	-2.110689e-09	-1.917975e+01	-1.379138e+02
7.900000e-07	-2.605194e-06	-2.066975e-09	-1.872945e+01	-1.362482e+02
8.000000e-07	-2.542032e-06	-2.029610e-09	-1.827537e+01	-1.345544e+02
8.100000e-07	-2.478454e-06	-2.011441e-09	-1.781829e+01	-1.328305e+02
8.200000e-07	-2.414522e-06	-1.996393e-09	-1.735867e+01	-1.310749e+02
8.300000e-07	-2.350313e-06	-1.970756e-09	-1.689705e+01	-1.292860e+02
8.400000e-07	-2.285795e-06	-1.930257e-09	-1.643321e+01	-1.274628e+02
8.500000e-07	-2.220818e-06	-1.894046e-09	-1.596607e+01	-1.256045e+02
8.600000e-07	-2.155340e-06	-1.872533e-09	-1.549533e+01	-1.237104e+02
8.700000e-07	-2.089312e-06	-1.852913e-09	-1.502064e+01	-1.217803e+02
8.800000e-07	-2.022663e-06	-1.822042e-09	-1.454148e+01	-1.198143e+02
8.900000e-07	-1.955558e-06	-1.777093e-09	-1.405905e+01	-1.178128e+02
9.000000e-07	-1.888095e-06	-1.739125e-09	-1.357403e+01	-1.157761e+02
9.100000e-07	-1.820370e-06	-1.716703e-09	-1.308714e+01	-1.137050e+02
9.200000e-07	-1.752455e-06	-1.691494e-09	-1.259888e+01	-1.116002e+02
9.300000e-07	-1.684361e-06	-1.651979e-09	-1.210934e+01	-1.094625e+02
9.400000e-07	-1.616076e-06	-1.605772e-09	-1.161841e+01	-1.072928e+02
9.500000e-07	-1.547474e-06	-1.573964e-09	-1.112522e+01	-1.050918e+02
9.600000e-07	-1.478639e-06	-1.551079e-09	-1.063034e+01	-1.028603e+02
9.700000e-07	-1.409569e-06	-1.518795e-09	-1.013378e+01	-1.005991e+02
9.800000e-07	-1.340168e-06	-1.476983e-09	-9.634837e+00	-9.830870e+01
9.900000e-07	-1.270521e-06	-1.435310e-09	-9.134123e+00	-9.598971e+01
1.000000e-06	-1.200702e-06	-1.404114e-09	-8.632175e+00	-9.364258e+01
1.010000e-06	-1.130709e-06	-1.373631e-09	-8.128976e+00	-9.126764e+01
1.020000e-06	-1.060544e-06	-1.333758e-09	-7.624542e+00	-8.886515e+01
1.030000e-06	-9.901855e-07	-1.292195e-09	-7.118716e+00	-8.643527e+01
1.040000e-06	-9.195632e-07	-1.254541e-09	-6.610993e+00	-8.397801e+01
1.050000e-06	-8.487177e-07	-1.218567e-09	-6.101665e+00	-8.149330e+01
1.060000e-06	-7.777844e-07	-1.178298e-09	-5.591706e+00	-7.898093e+01
1.070000e-06	-7.067655e-07	-1.138309e-09	-5.081131e+00	-7.644054e+01
1.080000e-06	-6.355868e-07	-1.102188e-09	-4.569408e+00	-7.387167e+01
1.090000e-06	-5.642976e-07	-1.062769e-09	-4.056890e+00	-7.127369e+01
1.100000e-06	-4.929508e-07	-1.019309e-09	-3.543959e+00	-6.864589e+01
1.110000e-06	-4.215446e-07	-9.772774e-10	-3.030600e+00	-6.598742e+01
1.120000e-06	-3.501153e-07	-9.410036e-10	-2.517075e+00	-6.329736e+01
1.130000e-06	-2.786331e-07	-9.021729e-10	-2.003170e+00	-6.057473e+01
1.140000e-06	-2.070718e-07	-8.538672e-10	-1.488696e+00	-5.781854e+01
1.150000e-06	-1.354881e-07	-8.055841e-10	-9.740612e-01	-5.502784e+01
1.160000e-06	-6.387553e-08	-7.634956e-10	-4.592188e-01	-5.220174e+01
1.170000e-06	7.714691e-09	-7.234112e-10	5.546304e-02	-4.933949e+01
1.180000e-06	7.926514e-08	-6.771677e-10	5.698589e-01	-4.644048e+01
1.190000e-06	1.508492e-07	-6.269973e-10	1.084496e+00	-4.350433e+01
1.200000e-06	2.224448e-07	-5.824051e-10	1.599217e+00	-4.053089e+01
1.210000e-06	2.939561e-07	-5.403114e-10	2.113332e+00	-3.752023e+01
1.220000e-06	3.653617e-07	-4.932899e-10	2.626686e+00	-3.447268e+01
1.230000e-06	4.367044e-07	-4.379879e-10	3.139588e+00	-3.138881e+01
1.240000e-06	5.080067e-07	-3.831264e-10	3.652200e+00	-2.826939e+01
1.250000e-06	5.792160e-07	-3.366343e-10	4.164143e+00	-2.511536e+01
1.260000e-06	6.503088e-07	-2.919677e-10	4.675249e+00	-2.192775e+01
1.270000e-06	7.213329e-07	-2.431480e-10	5.185861e+00	-1.870767e+01
1.280000e-06	7.922955e-07	-1.893576e-10	5.696031e+00	-1.545624e+01
1.290000e-06	8.631669e-07	-1.359281e-10	6.205545e+00	-1.217449e+01
1.300000e-06	9.338329e-07	-8.480495e-11	6.713581e+00	-8.863383e+00
1.310000e-06	1.004260e-06	-3.471869e-11	7.219905e+00	-5.523738e+00
1.320000e-06	1.074490e-06	1.595717e-11	7.724802e+00	-2.156225e+00
1.330000e-06	1.144560e-06	6.905667e-11	8.228557e+00	1.238630e+00
1.340000e-06	1.214447e-06	1.239053e-10	8.730991e+00	4.660419e+00
1.350000e-06	1.284101e-06	1.755125e-10	9.231752e+00	8.108806e+00
1.360000e-06	1.353470e-06	2.253947e-10	9.730471e+00	1.158346e+01
1.370000e-06	1.422535e-06	2.774382e-10	1.022699e+01	1.508399e+01
1.380000e-06	1.491342e-06	3.348459e-10	1.072166e+01	1.860982e+01
1.390000e-06	1.559899e-06	3.933212e-10	1.121455e+01	2.216014e+01
1.400000e-06	1.628217e-06	4.477810e-10	1.170570e+01	2.573375e+01
1.410000e-06	1.696276e-06	5.027914e-10	1.219500e+01	2.932904e+01
1.420000e-06	1.764143e-06	5.603082e-10	1.268291e+01	3.294387e+01
1.430000e-06	1.831866e-06	6.209438e-10	1.316979e+01	3.657557e+01
1.440000e-06	1.899375e-06	6.792271e-10	1.365513e+01	4.022087e+01
1.450000e-06	1.966638e-06	7.324501e-10	1.413870e+01	4.387593e+01
1.460000e-06	2.033443e-06	7.863052e-10	1.461898e+01	4.753639e+01
1.470000e-06	2.099639e-06	8.435588e-10	1.509488e+01	5.119741e+01
1.480000e-06	2.165209e-06	9.022767e-10	1.556628e+01	5.485379e+01
1.490000e-06	2.230147e-06	9.576116e-10	1.603314e+01	5.850008e+01
1.500000e-06	2.294627e-06	1.009387e-09	1.649670e+01	6.213072e+01
1.510000e-06	2.358783e-06	1.062683e-09	1.695794e+01	6.574015e+01
1.520000e-06	2.422677e-06	1.119109e-09	1.741729e+01	6.932300e+01
1.530000e-06	2.486250e-06	1.177167e-09	1.787433e+01	7.287419e+01
1.540000e-06	2.549381e-06	1.230144e-09	1.832820e+01	7.638905e+01
1.550000e-06	2.612084e-06	1.279803e-09	1.877899e+01	7.986342e+01
1.560000e-06	2.674412e-06	1.332948e-09	1.922709e+01	8.329374e+01
1.570000e-06	2.736341e-06	1.388868e-09	1.967231e+01	8.667704e+01
1.580000e-06	2.797788e-06	1.441383e-09	2.011407e+01	9.001096e+01
1.590000e-06	2.858763e-06	1.486971e-09	2.055243e+01	9.329374e+01
1.600000e-06	2.919280e-06	1.530866e-09	2.098751e+01	9.652413e+01
1.610000e-06	2.979369e-06	1.577316e-09	2.141951e+01	9.970133e+01
1.620000e-06	3.039095e-06	1.625882e-09	2.184889e+01	1.028249e+02
1.630000e-06	3.098422e-06	1.673714e-09	2.227541e+01	1.058946e+02
1.640000e-06	3.157151e-06	1.716874e-09	2.269763e+01	1.089103e+02
1.650000e-06	3.215000e-06	1.759542e-09	2.311352e+01	1.118719e+02
1.660000e-06	3.271908e-06	1.805095e-09	2.352265e+01	1.147794e+02
1.670000e-06	3.328107e-06	1.850360e-09	2.392668e+01	1.176323e+02
1.680000e-06	3.383847e-06	1.891516e-09	2.432741e+01	1.204303e+02
1.690000e-06	3.439130e-06	1.929107e-09	2.472485e+01	1.231725e+02
1.700000e-06	3.493842e-06	1.967033e-09	2.511819e+01	1.258582e+02
1.710000e-06	3.547971e-06	2.007025e-09	2.550734e+01	1.284863e+02
1.720000e-06	3.601505e-06	2.046360e-09	2.589221e+01	1.310556e+02
1.730000e-06	3.654444e-06	2.082950e-09	2.627280e+01	1.335650e+02
1.740000e-06	3.706764e-06	2.117438e-09	2.664895e+01	1.360134e+02
1.750000e-06	3.758363e-06	2.152312e-09	2.701991e+01	1.383998e+02
1.760000e-06	3.809077e-06	2.186541e-09	2.738450e+01	1.407234e+02
1.770000e-06	3.858741e-06	2.218874e-09	2.774155e+01	1.429840e+02
1.780000e-06	3.907436e-06	2.248693e-09	2.809163e+01	1.451813e+02
1.790000e-06	3.955369e-06	2.275818e-09	2.843624e+01	1.473156e+02
1.800000e-06	4.002685e-06	2.303791e-09	2.877640e+01	1.493878e+02
1.810000e-06	4.049375e-06	2.334349e-09	2.911207e+01	1.513989e+02
1.820000e-06	4.095344e-06	2.365587e-09	2.944256e+01	1.533502e+02
1.830000e-06	4.140572e-06	2.394442e-09	2.976771e+01	1.552436e+02
1.840000e-06	4.185086e-06	2.420038e-09	3.008774e+01	1.570808e+02
1.850000e-06	4.229034e-06	2.443997e-09	3.040369e+01	1.588639e+02
1.860000e-06	4.272542e-06	2.468152e-09	3.071648e+01	1.605948e+02
1.870000e-06	4.315303e-06	2.493150e-09	3.102390e+01	1.622755e+02
1.880000e-06	4.356946e-06	2.516244e-09	3.132328e+01	1.639078e+02
1.890000e-06	4.397530e-06	2.536902e-09	3.161505e+01	1.654933e+02
1.900000e-06	4.437325e-06	2.558663e-09	3.190115e+01	1.670331e+02
1.910000e-06	4.476433e-06	2.582155e-09	3.218231e+01	1.685284e+02
1.920000e-06	4.514840e-06	2.605097e-09	3.245843e+01	1.699799e+02
1.930000e-06	4.552528e-06	2.625749e-09	3.272938e+01	1.713880e+02
1.940000e-06	4.589467e-06	2.645939e-09	3.299494e+01	1.727532e+02
1.950000e-06	4.625671e-06	2.666518e-09	3.325522e+01	1.740756e+02
1.960000e-06	4.661213e-06	2.686367e-09	3.351074e+01	1.753552e+02
1.970000e-06	4.696038e-06	2.705409e-09	3.376111e+01	1.765922e+02
1.980000e-06	4.729826e-06	2.721634e-09	3.400402e+01	1.777868e+02
1.990000e-06	4.762441e-06	2.737681e-09	3.423850e+01	1.789392e+02
2.000000e-06	4.794177e-06	2.755327e-09	3.446666e+01	1.800498e+02
2.010000e-06	4.825254e-06	2.772897e-09	3.469008e+01	1.811194e+02
2.020000e-06	4.855567e-06	2.791010e-09	3.490801e+01	1.821487e+02
2.030000e-06	4.885026e-06	2.808473e-09	3.511980e+01	1.831386e+02
2.040000e-06	4.913638e-06	2.824729e-09	3.532549e+01	1.840904e+02
2.050000e-06	4.941557e-06	2.839903e-09	3.552621e+01	1.850050e+02
2.060000e-06	4.968890e-06	2.855240e-09	3.572272e+01	1.858837e+02
2.070000e-06	4.995249e-06	2.871236e-09	3.591222e+01	1.867276e+02
2.080000e-06	5.020323e-06	2.885342e-09	3.609249e+01	1.875375e+02
2.090000e-06	5.044339e-06	2.896806e-09	3.626514e+01	1.883142e+02
2.100000e-06	5.067567e-06	2.908277e-09	3.643213e+01	1.890581e+02
2.110000e-06	5.089942e-06	2.919782e-09	3.659300e+01	1.897695e+02
2.120000e-06	5.111442e-06	2.931328e-09	3.674756e+01	1.904484e+02
2.130000e-06	5.132088e-06	2.942045e-09	3.689599e+01	1.910945e+02
2.140000e-06	5.151972e-06	2.953034e-09	3.703894e+01	1.917072e+02
2.150000e-06	5.171260e-06	2.963236e-09	3.717761e+01	1.922861e+02
2.160000e-06	5.189588e-06	2.971514e-09	3.730937e+01	1.928306e+02
2.170000e-06	5.206794e-06	2.979897e-09	3.743307e+01	1.933402e+02
2.180000e-06	5.223083e-06	2.987016e-09	3.755018e+01	1.938147e+02
2.190000e-06	5.238359e-06	2.994447e-09	3.766000e+01	1.942538e+02
2.200000e-06	5.252614e-06	3.003850e-09	3.776249e+01	1.946581e+02
2.210000e-06	5.265933e-06	3.012600e-09	3.785824e+01	1.950281e+02
2.220000e-06	5.278319e-06	3.019269e-09	3.794729e+01	1.953650e+02
2.230000e-06	5.289745e-06	3.022336e-09	3.802944e+01	1.956704e+02
2.240000e-06	5.299961e-06	3.026844e-09	3.810288e+01	1.959462e+02
2.250000e-06	5.308907e-06	3.033852e-09	3.816719e+01	1.961945e+02
2.260000e-06	5.316880e-06	3.040072e-09	3.822451e+01	1.964177e+02
2.270000e-06	5.324093e-06	3.044298e-09	3.827637e+01	1.966184e+02
2.280000e-06	5.330451e-06	3.046126e-09	3.832208e+01	1.967987e+02
2.290000e-06	5.335861e-06	3.048298e-09	3.836097e+01	1.969608e+02
2.300000e-06	5.340393e-06	3.052410e-09	3.839355e+01	1.971063e+02
2.310000e-06	5.344213e-06	3.057246e-09	3.842102e+01	1.972366e+02
2.320000e-06	5.347247e-06	3.059224e-09	3.844283e+01	1.973522e+02
2.330000e-06	5.349058e-06	3.061340e-09	3.845585e+01	1.974530e+02
2.340000e-06	5.349635e-06	3.066675e-09	3.846000e+01	1.975385e+02
2.350000e-06	5.349362e-06	3.071435e-09	3.845803e+01	1.976072e+02
2.360000e-06	5.348304e-06	3.071431e-09	3.845043e+01	1.976573e+02
2.370000e-06	5.346420e-06	3.068212e-09	3.843688e+01	1.976865e+02
2.380000e-06	5.343711e-06	3.066907e-09	3.841741e+01	1.976923e+02
2.390000e-06	5.340137e-06	3.066626e-09	3.839171e+01	1.976721e+02
2.400000e-06	5.335871e-06	3.065701e-09	3.836105e+01	1.976235e+02
2.410000e-06	5.330859e-06	3.064246e-09	3.832501e+01	1.975443e+02
2.420000e-06	5.324674e-06	3.069059e-09	3.828054e+01	1.974329e+02
2.430000e-06	5.317280e-06	3.068061e-09	3.822739e+01	1.972885e+02
2.440000e-06	5.308991e-06	3.018071e-09	3.816780e+01	1.971110e+02
2.450000e-06	5.299559e-06	3.002862e-09	3.809999e+01	1.969012e+02
2.460000e-06	5.288700e-06	3.043567e-09	3.802192e+01	1.966608e+02
2.470000e-06	5.276941e-06	3.138209e-09	3.793738e+01	1.963926e+02
2.480000e-06	5.264997e-06	3.082652e-09	3.785151e+01	1.960999e+02
2.490000e-06	5.252433e-06	2.950791e-09	3.776119e+01	1.957867e+02
2.500000e-06	5.238104e-06	3.048083e-09	3.765817e+01	1.954575e+02
2.510000e-06	5.222376e-06	3.062345e-09	3.754510e+01	1.951168e+02
2.520000e-06	5.206184e-06	3.003338e-09	3.742869e+01	1.947692e+02
2.530000e-06	5.189154e-06	3.096439e-09	3.730626e+01	1.944189e+02
2.540000e-06	5.170968e-06	3.036478e-09	3.717551e+01	1.940693e+02
2.550000e-06	5.152012e-06	2.871769e-09	3.703923e+01	1.937233e+02
2.560000e-06	5.132403e-06	2.981352e-09	3.689826e+01	1.933825e+02
2.570000e-06	5.112064e-06	3.008734e-09	3.675204e+01	1.930475e+02
2.580000e-06	5.090687e-06	2.790535e-09	3.659835e+01	1.927176e+02
2.590000e-06	5.067840e-06	2.818493e-09	3.643409e+01	1.923910e+02
2.600000e-06	5.043970e-06	2.922313e-09	3.626249e+01	1.920648e+02
2.610000e-06	5.019529e-06	2.840804e-09	3.608677e+01	1.917348e+02
2.620000e-06	4.994135e-06	2.877761e-09	3.590421e+01	1.913965e+02
2.630000e-06	4.967875e-06	2.894092e-09	3.571542e+01	1.910444e+02
2.640000e-06	4.941017e-06	2.791251e-09	3.552233e+01	1.906730e+02
2.650000e-06	4.913321e-06	2.829136e-09	3.532322e+01	1.902768e+02
2.660000e-06	4.884862e-06	2.856069e-09	3.511861e+01	1.898505e+02
2.670000e-06	4.855527e-06	2.839032e-09	3.490772e+01	1.893894e+02
2.680000e-06	4.824835e-06	2.869582e-09	3.468707e+01	1.888897e+02
2.690000e-06	4.792979e-06	2.751171e-09	3.445805e+01	1.883485e+02
2.700000e-06	4.760461e-06	2.735318e-09	3.422427e+01	1.877640e+02
2.710000e-06	4.727283e-06	2.890350e-09	3.398574e+01	1.871356e+02
2.720000e-06	4.693247e-06	2.826891e-09	3.374104e+01	1.864639e+02
2.730000e-06	4.658301e-06	2.710742e-09	3.348981e+01	1.857504e+02
2.740000e-06	4.622640e-06	2.710246e-09	3.323343e+01	1.849976e+02
2.750000e-06	4.586449e-06	2.765848e-09	3.297324e+01	1.842088e+02
2.760000e-06	4.549522e-06	2.800419e-09	3.270777e+01	1.833878e+02
2.770000e-06	4.511443e-06	2.709942e-09	3.243400e+01	1.825385e+02
2.780000e-06	4.472180e-06	2.671151e-09	3.215173e+01	1.816650e+02
2.790000e-06	4.432170e-06	2.688350e-09	3.186409e+01	1.807710e+02
2.800000e-06	4.391571e-06	2.692151e-09	3.157221e+01	1.798599e+02
2.810000e-06	4.350254e-06	2.709277e-09	3.127518e+01	1.789342e+02
2.820000e-06	4.308242e-06	2.653306e-09	3.097314e+01	1.779959e+02
2.830000e-06	4.265488e-06	2.622235e-09	3.066577e+01	1.770461e+02
2.840000e-06	4.221983e-06	2.616201e-09	3.035300e+01	1.760848e+02
2.850000e-06	4.177904e-06	2.622126e-09	3.003610e+01	1.751113e+02
2.860000e-06	4.133278e-06	2.643745e-09	2.971527e+01	1.741244e+02
2.870000e-06	4.087967e-06	2.573078e-09	2.938952e+01	1.731219e+02
2.880000e-06	4.041820e-06	2.536781e-09	2.905775e+01	1.721013e+02
2.890000e-06	3.994872e-06	2.556066e-09	2.872024e+01	1.710600e+02
2.900000e-06	3.947268e-06	2.556134e-09	2.837800e+01	1.699950e+02
2.910000e-06	3.898958e-06	2.547241e-09	2.803068e+01	1.689038e+02
2.920000e-06	3.849807e-06	2.494366e-09	2.767732e+01	1.677839e+02
2.930000e-06	3.799862e-06	2.466244e-09	2.731825e+01	1.666334e+02
2.940000e-06	3.749286e-06	2.467204e-09	2.695465e+01	1.654510e+02
