# Temperatura_=_20.0
# Concentracion g/m^3_=_12600.0
# C_Vs_to_Am_M_A/Vsm_=_65563218390.804596
# pendiente_HvsI_1/m_=_3716.3
# ordenada_HvsI_A/m_=_1297.0
# frecuencia_Hz_=_213062.95519918224

Tiempo_(s)	Campo_(V.s)	Magnetizacion_(V.s)	Campo_(kA/m)	Magnetizacion_(A/m)
0.000000e+00	-5.336248e-06	-2.877970e-09	-3.835753e+01	-1.887607e+02
1.000000e-08	-5.336071e-06	-2.876236e-09	-3.835625e+01	-1.888809e+02
2.000000e-08	-5.334954e-06	-2.872520e-09	-3.834822e+01	-1.889792e+02
3.000000e-08	-5.332683e-06	-2.869672e-09	-3.833190e+01	-1.890495e+02
4.000000e-08	-5.329363e-06	-2.870087e-09	-3.830803e+01	-1.890850e+02
5.000000e-08	-5.325207e-06	-2.869610e-09	-3.827816e+01	-1.890793e+02
6.000000e-08	-5.320257e-06	-2.867552e-09	-3.824258e+01	-1.890265e+02
7.000000e-08	-5.314463e-06	-2.865448e-09	-3.820093e+01	-1.889216e+02
8.000000e-08	-5.307761e-06	-2.877622e-09	-3.815276e+01	-1.887611e+02
9.000000e-08	-5.300139e-06	-2.898667e-09	-3.809797e+01	-1.885432e+02
1.000000e-07	-5.291430e-06	-2.856149e-09	-3.803537e+01	-1.882681e+02
1.100000e-07	-5.281361e-06	-2.811410e-09	-3.796299e+01	-1.879382e+02
1.200000e-07	-5.270080e-06	-2.785265e-09	-3.788190e+01	-1.875580e+02
1.300000e-07	-5.257945e-06	-2.931646e-09	-3.779467e+01	-1.871339e+02
1.400000e-07	-5.244912e-06	-2.978856e-09	-3.770099e+01	-1.866741e+02
1.500000e-07	-5.230937e-06	-2.720903e-09	-3.760054e+01	-1.861881e+02
1.600000e-07	-5.216168e-06	-2.791722e-09	-3.749438e+01	-1.856863e+02
1.700000e-07	-5.200342e-06	-2.883846e-09	-3.738061e+01	-1.851795e+02
1.800000e-07	-5.183261e-06	-2.734752e-09	-3.725784e+01	-1.846781e+02
1.900000e-07	-5.165266e-06	-2.870452e-09	-3.712849e+01	-1.841918e+02
2.000000e-07	-5.146608e-06	-2.955852e-09	-3.699437e+01	-1.837287e+02
2.100000e-07	-5.127156e-06	-2.645406e-09	-3.685455e+01	-1.832953e+02
2.200000e-07	-5.106789e-06	-2.726447e-09	-3.670815e+01	-1.828958e+02
2.300000e-07	-5.085512e-06	-3.044251e-09	-3.655521e+01	-1.825320e+02
2.400000e-07	-5.063388e-06	-2.805476e-09	-3.639617e+01	-1.822029e+02
2.500000e-07	-5.040514e-06	-2.678155e-09	-3.623176e+01	-1.819052e+02
2.600000e-07	-5.016774e-06	-2.846411e-09	-3.606111e+01	-1.816332e+02
2.700000e-07	-4.992082e-06	-2.830947e-09	-3.588362e+01	-1.813791e+02
2.800000e-07	-4.966451e-06	-2.810010e-09	-3.569939e+01	-1.811338e+02
2.900000e-07	-4.939799e-06	-2.776440e-09	-3.550780e+01	-1.808869e+02
3.000000e-07	-4.912218e-06	-2.735210e-09	-3.530955e+01	-1.806274e+02
3.100000e-07	-4.883808e-06	-2.816126e-09	-3.510534e+01	-1.803448e+02
3.200000e-07	-4.854487e-06	-2.767815e-09	-3.489458e+01	-1.800289e+02
3.300000e-07	-4.824287e-06	-2.687219e-09	-3.467749e+01	-1.796710e+02
3.400000e-07	-4.793342e-06	-2.790345e-09	-3.445506e+01	-1.792637e+02
3.500000e-07	-4.761713e-06	-2.780081e-09	-3.422770e+01	-1.788019e+02
3.600000e-07	-4.729355e-06	-2.655134e-09	-3.399511e+01	-1.782824e+02
3.700000e-07	-4.696084e-06	-2.687375e-09	-3.375596e+01	-1.777043e+02
3.800000e-07	-4.661723e-06	-2.743908e-09	-3.350897e+01	-1.770688e+02
3.900000e-07	-4.626383e-06	-2.716162e-09	-3.325494e+01	-1.763791e+02
4.000000e-07	-4.590273e-06	-2.690913e-09	-3.299537e+01	-1.756399e+02
4.100000e-07	-4.553438e-06	-2.645599e-09	-3.273061e+01	-1.748572e+02
4.200000e-07	-4.515871e-06	-2.637577e-09	-3.246057e+01	-1.740377e+02
4.300000e-07	-4.477469e-06	-2.676314e-09	-3.218453e+01	-1.731884e+02
4.400000e-07	-4.438294e-06	-2.684125e-09	-3.190294e+01	-1.723162e+02
4.500000e-07	-4.398554e-06	-2.622588e-09	-3.161728e+01	-1.714272e+02
4.600000e-07	-4.358193e-06	-2.555827e-09	-3.132716e+01	-1.705265e+02
4.700000e-07	-4.316855e-06	-2.581224e-09	-3.103002e+01	-1.696182e+02
4.800000e-07	-4.274404e-06	-2.629829e-09	-3.072488e+01	-1.687044e+02
4.900000e-07	-4.231064e-06	-2.609897e-09	-3.041334e+01	-1.677863e+02
5.000000e-07	-4.187032e-06	-2.523526e-09	-3.009684e+01	-1.668631e+02
5.100000e-07	-4.142415e-06	-2.486458e-09	-2.977613e+01	-1.659328e+02
5.200000e-07	-4.097073e-06	-2.550957e-09	-2.945020e+01	-1.649924e+02
5.300000e-07	-4.050914e-06	-2.566732e-09	-2.911840e+01	-1.640379e+02
5.400000e-07	-4.004064e-06	-2.505329e-09	-2.878164e+01	-1.630649e+02
5.500000e-07	-3.956558e-06	-2.455483e-09	-2.844017e+01	-1.620689e+02
5.600000e-07	-3.908377e-06	-2.440880e-09	-2.809383e+01	-1.610455e+02
5.700000e-07	-3.859378e-06	-2.463218e-09	-2.774163e+01	-1.599909e+02
5.800000e-07	-3.809301e-06	-2.464686e-09	-2.738166e+01	-1.589022e+02
5.900000e-07	-3.758156e-06	-2.427646e-09	-2.701403e+01	-1.577772e+02
6.000000e-07	-3.706235e-06	-2.368685e-09	-2.664082e+01	-1.566150e+02
6.100000e-07	-3.653683e-06	-2.342583e-09	-2.626307e+01	-1.554158e+02
6.200000e-07	-3.600454e-06	-2.377408e-09	-2.588045e+01	-1.541806e+02
6.300000e-07	-3.546601e-06	-2.379009e-09	-2.549335e+01	-1.529117e+02
6.400000e-07	-3.492164e-06	-2.323796e-09	-2.510205e+01	-1.516117e+02
6.500000e-07	-3.437107e-06	-2.268465e-09	-2.470630e+01	-1.502838e+02
6.600000e-07	-3.381533e-06	-2.262203e-09	-2.430682e+01	-1.489315e+02
6.700000e-07	-3.325563e-06	-2.291442e-09	-2.390450e+01	-1.475580e+02
6.800000e-07	-3.269084e-06	-2.273877e-09	-2.349853e+01	-1.461662e+02
6.900000e-07	-3.211788e-06	-2.210259e-09	-2.308668e+01	-1.447586e+02
7.000000e-07	-3.153569e-06	-2.163376e-09	-2.266819e+01	-1.433367e+02
7.100000e-07	-3.094584e-06	-2.170475e-09	-2.224420e+01	-1.419014e+02
7.200000e-07	-3.035099e-06	-2.187395e-09	-2.181662e+01	-1.404526e+02
7.300000e-07	-2.975218e-06	-2.144867e-09	-2.138619e+01	-1.389893e+02
7.400000e-07	-2.914852e-06	-2.084662e-09	-2.095227e+01	-1.375099e+02
7.500000e-07	-2.854049e-06	-2.062079e-09	-2.051521e+01	-1.360120e+02
7.600000e-07	-2.792799e-06	-2.067259e-09	-2.007494e+01	-1.344931e+02
7.700000e-07	-2.731050e-06	-2.058816e-09	-1.963108e+01	-1.329500e+02
7.800000e-07	-2.668841e-06	-2.013774e-09	-1.918391e+01	-1.313798e+02
7.900000e-07	-2.606214e-06	-1.967651e-09	-1.873375e+01	-1.297799e+02
8.000000e-07	-2.543160e-06	-1.942651e-09	-1.828051e+01	-1.281476e+02
8.100000e-07	-2.479701e-06	-1.938057e-09	-1.782435e+01	-1.264813e+02
8.200000e-07	-2.415935e-06	-1.927293e-09	-1.736600e+01	-1.247795e+02
8.300000e-07	-2.351797e-06	-1.883020e-09	-1.690497e+01	-1.230417e+02
8.400000e-07	-2.287141e-06	-1.836523e-09	-1.644022e+01	-1.212678e+02
8.500000e-07	-2.221976e-06	-1.810904e-09	-1.597180e+01	-1.194586e+02
8.600000e-07	-2.156325e-06	-1.802593e-09	-1.549990e+01	-1.176150e+02
8.700000e-07	-2.090148e-06	-1.782650e-09	-1.502421e+01	-1.157387e+02
8.800000e-07	-2.023449e-06	-1.733616e-09	-1.454477e+01	-1.138311e+02
8.900000e-07	-1.956330e-06	-1.689261e-09	-1.406231e+01	-1.118941e+02
9.000000e-07	-1.888864e-06	-1.664081e-09	-1.357736e+01	-1.099294e+02
9.100000e-07	-1.821153e-06	-1.652288e-09	-1.309064e+01	-1.079384e+02
9.200000e-07	-1.753313e-06	-1.627266e-09	-1.260300e+01	-1.059221e+02
9.300000e-07	-1.685249e-06	-1.574362e-09	-1.211375e+01	-1.038812e+02
9.400000e-07	-1.616899e-06	-1.530080e-09	-1.162244e+01	-1.018161e+02
9.500000e-07	-1.548276e-06	-1.508876e-09	-1.112918e+01	-9.972655e+01
9.600000e-07	-1.479408e-06	-1.494691e-09	-1.063414e+01	-9.761206e+01
9.700000e-07	-1.410301e-06	-1.456749e-09	-1.013739e+01	-9.547177e+01
9.800000e-07	-1.340954e-06	-1.398290e-09	-9.638925e+00	-9.330464e+01
9.900000e-07	-1.271349e-06	-1.360584e-09	-9.138596e+00	-9.110950e+01
1.000000e-06	-1.201432e-06	-1.345448e-09	-8.636026e+00	-8.888521e+01
1.010000e-06	-1.131348e-06	-1.322889e-09	-8.132249e+00	-8.663069e+01
1.020000e-06	-1.061077e-06	-1.273566e-09	-7.627134e+00	-8.434507e+01
1.030000e-06	-9.905783e-07	-1.220541e-09	-7.120383e+00	-8.202772e+01
1.040000e-06	-9.199689e-07	-1.192835e-09	-6.612835e+00	-7.967827e+01
1.050000e-06	-8.491875e-07	-1.171123e-09	-6.104051e+00	-7.729664e+01
1.060000e-06	-7.782175e-07	-1.132907e-09	-5.593911e+00	-7.488296e+01
1.070000e-06	-7.071407e-07	-1.081854e-09	-5.083003e+00	-7.243760e+01
1.080000e-06	-6.359939e-07	-1.037221e-09	-4.571593e+00	-6.996102e+01
1.090000e-06	-5.647663e-07	-1.007433e-09	-4.059601e+00	-6.745373e+01
1.100000e-06	-4.934639e-07	-9.763847e-10	-3.547071e+00	-6.491620e+01
1.110000e-06	-4.221410e-07	-9.359803e-10	-3.034395e+00	-6.234876e+01
1.120000e-06	-3.507747e-07	-8.865485e-10	-2.521406e+00	-5.975158e+01
1.130000e-06	-2.793540e-07	-8.419105e-10	-2.008027e+00	-5.712459e+01
1.140000e-06	-2.078664e-07	-8.099672e-10	-1.494166e+00	-5.446749e+01
1.150000e-06	-1.363257e-07	-7.736121e-10	-9.799235e-01	-5.177971e+01
1.160000e-06	-6.475116e-08	-7.269328e-10	-4.654383e-01	-4.906052e+01
1.170000e-06	6.845300e-09	-6.765309e-10	4.920476e-02	-4.630902e+01
1.180000e-06	7.839973e-08	-6.360182e-10	5.635457e-01	-4.352426e+01
1.190000e-06	1.499406e-07	-6.018577e-10	1.077789e+00	-4.070532e+01
1.200000e-06	2.214830e-07	-5.574839e-10	1.592044e+00	-3.785137e+01
1.210000e-06	2.930024e-07	-5.072997e-10	2.106133e+00	-3.496182e+01
1.220000e-06	3.644396e-07	-4.561309e-10	2.619631e+00	-3.203630e+01
1.230000e-06	4.358051e-07	-4.094570e-10	3.132614e+00	-2.907480e+01
1.240000e-06	5.070888e-07	-3.649058e-10	3.645009e+00	-2.607764e+01
1.250000e-06	5.782768e-07	-3.158887e-10	4.156716e+00	-2.304547e+01
1.260000e-06	6.493997e-07	-2.678053e-10	4.667955e+00	-1.997926e+01
1.270000e-06	7.204169e-07	-2.188316e-10	5.178434e+00	-1.688022e+01
1.280000e-06	7.913473e-07	-1.739909e-10	5.688290e+00	-1.374974e+01
1.290000e-06	8.621805e-07	-1.293809e-10	6.197446e+00	-1.058930e+01
1.300000e-06	9.328528e-07	-8.009839e-11	6.705446e+00	-7.400340e+00
1.310000e-06	1.003358e-06	-2.716938e-11	7.212249e+00	-4.184234e+00
1.320000e-06	1.073629e-06	2.503179e-11	7.717361e+00	-9.421622e-01
1.330000e-06	1.143650e-06	7.244855e-11	8.220678e+00	2.324915e+00
1.340000e-06	1.213492e-06	1.203401e-10	8.722713e+00	5.616281e+00
1.350000e-06	1.283141e-06	1.722702e-10	9.223356e+00	8.931451e+00
1.360000e-06	1.352505e-06	2.261443e-10	9.721954e+00	1.227013e+01
1.370000e-06	1.421626e-06	2.780582e-10	1.021880e+01	1.563210e+01
1.380000e-06	1.490515e-06	3.270725e-10	1.071398e+01	1.901718e+01
1.390000e-06	1.559133e-06	3.793956e-10	1.120722e+01	2.242499e+01
1.400000e-06	1.627523e-06	4.350820e-10	1.169881e+01	2.585492e+01
1.410000e-06	1.695660e-06	4.900547e-10	1.218859e+01	2.930591e+01
1.420000e-06	1.763578e-06	5.446865e-10	1.267679e+01	3.277634e+01
1.430000e-06	1.831309e-06	5.975352e-10	1.316365e+01	3.626394e+01
1.440000e-06	1.898752e-06	6.514146e-10	1.364843e+01	3.976570e+01
1.450000e-06	1.965888e-06	7.053963e-10	1.413101e+01	4.327786e+01
1.460000e-06	2.032663e-06	7.591252e-10	1.461100e+01	4.679589e+01
1.470000e-06	2.098944e-06	8.112031e-10	1.508743e+01	5.031460e+01
1.480000e-06	2.164678e-06	8.626644e-10	1.555994e+01	5.382819e+01
1.490000e-06	2.229838e-06	9.147814e-10	1.602832e+01	5.733048e+01
1.500000e-06	2.294525e-06	9.666729e-10	1.649329e+01	6.081504e+01
1.510000e-06	2.358742e-06	1.018408e-09	1.695489e+01	6.427542e+01
1.520000e-06	2.422570e-06	1.072560e-09	1.741369e+01	6.770533e+01
1.530000e-06	2.486086e-06	1.126096e-09	1.787025e+01	7.109891e+01
1.540000e-06	2.549186e-06	1.176775e-09	1.832382e+01	7.445085e+01
1.550000e-06	2.611903e-06	1.224923e-09	1.877464e+01	7.775661e+01
1.560000e-06	2.674254e-06	1.275476e-09	1.922283e+01	8.101247e+01
1.570000e-06	2.736190e-06	1.327178e-09	1.966803e+01	8.421564e+01
1.580000e-06	2.797687e-06	1.373086e-09	2.011007e+01	8.736424e+01
1.590000e-06	2.858741e-06	1.415133e-09	2.054894e+01	9.045726e+01
1.600000e-06	2.919308e-06	1.458167e-09	2.098430e+01	9.349447e+01
1.610000e-06	2.979452e-06	1.503010e-09	2.141662e+01	9.647626e+01
1.620000e-06	3.039246e-06	1.547483e-09	2.184643e+01	9.940351e+01
1.630000e-06	3.098555e-06	1.590786e-09	2.227275e+01	1.022773e+02
1.640000e-06	3.157151e-06	1.634170e-09	2.269394e+01	1.050990e+02
1.650000e-06	3.214862e-06	1.677760e-09	2.310877e+01	1.078696e+02
1.660000e-06	3.271801e-06	1.719312e-09	2.351806e+01	1.105900e+02
1.670000e-06	3.328143e-06	1.758405e-09	2.392305e+01	1.132607e+02
1.680000e-06	3.383961e-06	1.795521e-09	2.432428e+01	1.158818e+02
1.690000e-06	3.439281e-06	1.832345e-09	2.472192e+01	1.184527e+02
1.700000e-06	3.493985e-06	1.869471e-09	2.511514e+01	1.209726e+02
1.710000e-06	3.548055e-06	1.905227e-09	2.550380e+01	1.234402e+02
1.720000e-06	3.601551e-06	1.939928e-09	2.588834e+01	1.258539e+02
1.730000e-06	3.654436e-06	1.974405e-09	2.626848e+01	1.282119e+02
1.740000e-06	3.706660e-06	2.007895e-09	2.664387e+01	1.305124e+02
1.750000e-06	3.758185e-06	2.041092e-09	2.701424e+01	1.327540e+02
1.760000e-06	3.808802e-06	2.072398e-09	2.737808e+01	1.349354e+02
1.770000e-06	3.858361e-06	2.102882e-09	2.773432e+01	1.370557e+02
1.780000e-06	3.907049e-06	2.134367e-09	2.808429e+01	1.391148e+02
1.790000e-06	3.955050e-06	2.163547e-09	2.842932e+01	1.411130e+02
1.800000e-06	4.002413e-06	2.190633e-09	2.876977e+01	1.430513e+02
1.810000e-06	4.049075e-06	2.218974e-09	2.910519e+01	1.449312e+02
1.820000e-06	4.095066e-06	2.247722e-09	2.943577e+01	1.467547e+02
1.830000e-06	4.140365e-06	2.273451e-09	2.976139e+01	1.485243e+02
1.840000e-06	4.184927e-06	2.297391e-09	3.008171e+01	1.502425e+02
1.850000e-06	4.228922e-06	2.320669e-09	3.039795e+01	1.519120e+02
1.860000e-06	4.272383e-06	2.343082e-09	3.071035e+01	1.535354e+02
1.870000e-06	4.315059e-06	2.365037e-09	3.101711e+01	1.551149e+02
1.880000e-06	4.356682e-06	2.387063e-09	3.131630e+01	1.566523e+02
1.890000e-06	4.397346e-06	2.409137e-09	3.160860e+01	1.581490e+02
1.900000e-06	4.437284e-06	2.430664e-09	3.189567e+01	1.596059e+02
1.910000e-06	4.476489e-06	2.451342e-09	3.217748e+01	1.610232e+02
1.920000e-06	4.514948e-06	2.470360e-09	3.245393e+01	1.624007e+02
1.930000e-06	4.552707e-06	2.489674e-09	3.272535e+01	1.637377e+02
1.940000e-06	4.589705e-06	2.510725e-09	3.299129e+01	1.650334e+02
1.950000e-06	4.625951e-06	2.530339e-09	3.325183e+01	1.662866e+02
1.960000e-06	4.661530e-06	2.545913e-09	3.350758e+01	1.674965e+02
1.970000e-06	4.696268e-06	2.561242e-09	3.375728e+01	1.686622e+02
1.980000e-06	4.729935e-06	2.578166e-09	3.399928e+01	1.697832e+02
1.990000e-06	4.762624e-06	2.594360e-09	3.423425e+01	1.708597e+02
2.000000e-06	4.794492e-06	2.608482e-09	3.446332e+01	1.718922e+02
2.010000e-06	4.825565e-06	2.622612e-09	3.468668e+01	1.728819e+02
2.020000e-06	4.855891e-06	2.638966e-09	3.490467e+01	1.738305e+02
2.030000e-06	4.885436e-06	2.655192e-09	3.511704e+01	1.747403e+02
2.040000e-06	4.914160e-06	2.668842e-09	3.532351e+01	1.756138e+02
2.050000e-06	4.942183e-06	2.681647e-09	3.552494e+01	1.764538e+02
2.060000e-06	4.969528e-06	2.695431e-09	3.572150e+01	1.772632e+02
2.070000e-06	4.995773e-06	2.709537e-09	3.591016e+01	1.780445e+02
2.080000e-06	5.020780e-06	2.721965e-09	3.608991e+01	1.788001e+02
2.090000e-06	5.044839e-06	2.731177e-09	3.626285e+01	1.795317e+02
2.100000e-06	5.068020e-06	2.740126e-09	3.642947e+01	1.802404e+02
2.110000e-06	5.090339e-06	2.749990e-09	3.658990e+01	1.809267e+02
2.120000e-06	5.111814e-06	2.759838e-09	3.674427e+01	1.815902e+02
2.130000e-06	5.132527e-06	2.769898e-09	3.689316e+01	1.822299e+02
2.140000e-06	5.152588e-06	2.780044e-09	3.703736e+01	1.828442e+02
2.150000e-06	5.171864e-06	2.788092e-09	3.717592e+01	1.834311e+02
2.160000e-06	5.190149e-06	2.795065e-09	3.730735e+01	1.839884e+02
2.170000e-06	5.207458e-06	2.803787e-09	3.743176e+01	1.845138e+02
2.180000e-06	5.223803e-06	2.813508e-09	3.754926e+01	1.850053e+02
2.190000e-06	5.239092e-06	2.820905e-09	3.765916e+01	1.854614e+02
2.200000e-06	5.253398e-06	2.826421e-09	3.776199e+01	1.858814e+02
2.210000e-06	5.266789e-06	2.834028e-09	3.785824e+01	1.862652e+02
2.220000e-06	5.279283e-06	2.842898e-09	3.794805e+01	1.866136e+02
2.230000e-06	5.290842e-06	2.849358e-09	3.803114e+01	1.869285e+02
2.240000e-06	5.301102e-06	2.853610e-09	3.810489e+01	1.872126e+02
2.250000e-06	5.310060e-06	2.858931e-09	3.816928e+01	1.874692e+02
2.260000e-06	5.318106e-06	2.864947e-09	3.822712e+01	1.877021e+02
2.270000e-06	5.325265e-06	2.870281e-09	3.827858e+01	1.879155e+02
2.280000e-06	5.331492e-06	2.874914e-09	3.832333e+01	1.881133e+02
2.290000e-06	5.336821e-06	2.878575e-09	3.836164e+01	1.882991e+02
2.300000e-06	5.341352e-06	2.881688e-09	3.839421e+01	1.884758e+02
2.310000e-06	5.345206e-06	2.885771e-09	3.842192e+01	1.886451e+02
2.320000e-06	5.348148e-06	2.889230e-09	3.844306e+01	1.888079e+02
2.330000e-06	5.349866e-06	2.892123e-09	3.845541e+01	1.889632e+02
2.340000e-06	5.350504e-06	2.894890e-09	3.846000e+01	1.891089e+02
2.350000e-06	5.350268e-06	2.897757e-09	3.845830e+01	1.892414e+02
2.360000e-06	5.349180e-06	2.897298e-09	3.845048e+01	1.893560e+02
2.370000e-06	5.347234e-06	2.898182e-09	3.843649e+01	1.894469e+02
2.380000e-06	5.344432e-06	2.898734e-09	3.841635e+01	1.895078e+02
2.390000e-06	5.340914e-06	2.899082e-09	3.839107e+01	1.895319e+02
2.400000e-06	5.336689e-06	2.898890e-09	3.836070e+01	1.895130e+02
2.410000e-06	5.331593e-06	2.897857e-09	3.832406e+01	1.894454e+02
2.420000e-06	5.325367e-06	2.894121e-09	3.827931e+01	1.893244e+02
2.430000e-06	5.318075e-06	2.850805e-09	3.822690e+01	1.891472e+02
2.440000e-06	5.309787e-06	2.897728e-09	3.816732e+01	1.889123e+02
2.450000e-06	5.300305e-06	2.941308e-09	3.809916e+01	1.886208e+02
2.460000e-06	5.289559e-06	2.972479e-09	3.802192e+01	1.882756e+02
2.470000e-06	5.278032e-06	2.813373e-09	3.793906e+01	1.878818e+02
2.480000e-06	5.266199e-06	2.709699e-09	3.785400e+01	1.874464e+02
2.490000e-06	5.253344e-06	2.968712e-09	3.776161e+01	1.869780e+02
2.500000e-06	5.238917e-06	2.915853e-09	3.765790e+01	1.864865e+02
2.510000e-06	5.223391e-06	2.757270e-09	3.754630e+01	1.859825e+02
2.520000e-06	5.207130e-06	2.951841e-09	3.742941e+01	1.854765e+02
2.530000e-06	5.189969e-06	2.815404e-09	3.730606e+01	1.849790e+02
2.540000e-06	5.171873e-06	2.605927e-09	3.717598e+01	1.844992e+02
2.550000e-06	5.153047e-06	2.952969e-09	3.704065e+01	1.840448e+02
2.560000e-06	5.133514e-06	2.909103e-09	3.690025e+01	1.836216e+02
2.570000e-06	5.113197e-06	2.521867e-09	3.675421e+01	1.832331e+02
2.580000e-06	5.091733e-06	2.742206e-09	3.659993e+01	1.828802e+02
2.590000e-06	5.068931e-06	2.907685e-09	3.643602e+01	1.825613e+02
2.600000e-06	5.045192e-06	2.639515e-09	3.626538e+01	1.822723e+02
2.610000e-06	5.020667e-06	2.708627e-09	3.608910e+01	1.820070e+02
2.620000e-06	4.995260e-06	2.828470e-09	3.590646e+01	1.817569e+02
2.630000e-06	4.969073e-06	2.755796e-09	3.571823e+01	1.815126e+02
2.640000e-06	4.942123e-06	2.753872e-09	3.552451e+01	1.812634e+02
2.650000e-06	4.914436e-06	2.644203e-09	3.532549e+01	1.809984e+02
2.660000e-06	4.886078e-06	2.747208e-09	3.512165e+01	1.807072e+02
2.670000e-06	4.856652e-06	2.914915e-09	3.491014e+01	1.803799e+02
2.680000e-06	4.825941e-06	2.629174e-09	3.468938e+01	1.800082e+02
2.690000e-06	4.794214e-06	2.632147e-09	3.446133e+01	1.795853e+02
2.700000e-06	4.761741e-06	2.831807e-09	3.422790e+01	1.791068e+02
2.710000e-06	4.728615e-06	2.711618e-09	3.398980e+01	1.785700e+02
2.720000e-06	4.694623e-06	2.688247e-09	3.374546e+01	1.779748e+02
2.730000e-06	4.659694e-06	2.639588e-09	3.349438e+01	1.773230e+02
2.740000e-06	4.624098e-06	2.636259e-09	3.323852e+01	1.766182e+02
2.750000e-06	4.587944e-06	2.722322e-09	3.297864e+01	1.758656e+02
2.760000e-06	4.550965e-06	2.639726e-09	3.271283e+01	1.750715e+02
2.770000e-06	4.512905e-06	2.636227e-09	3.243925e+01	1.742427e+02
2.780000e-06	4.473782e-06	2.589277e-09	3.215802e+01	1.733862e+02
2.790000e-06	4.433809e-06	2.564852e-09	3.187070e+01	1.725086e+02
2.800000e-06	4.393198e-06	2.659536e-09	3.157878e+01	1.716160e+02
2.810000e-06	4.351953e-06	2.594816e-09	3.128230e+01	1.707130e+02
2.820000e-06	4.309951e-06	2.546500e-09	3.098039e+01	1.698032e+02
2.830000e-06	4.267134e-06	2.505531e-09	3.067262e+01	1.688885e+02
2.840000e-06	4.223628e-06	2.537431e-09	3.035989e+01	1.679692e+02
2.850000e-06	4.179608e-06	2.600067e-09	3.004347e+01	1.670445e+02
2.860000e-06	4.135017e-06	2.490029e-09	2.972295e+01	1.661119e+02
2.870000e-06	4.089654e-06	2.464542e-09	2.939687e+01	1.651680e+02
2.880000e-06	4.043480e-06	2.475112e-09	2.906497e+01	1.642088e+02
2.890000e-06	3.996564e-06	2.471654e-09	2.872773e+01	1.632298e+02
2.900000e-06	3.948969e-06	2.489563e-09	2.838561e+01	1.622263e+02
2.910000e-06	3.900657e-06	2.427483e-09	2.803834e+01	1.611943e+02
2.920000e-06	3.851499e-06	2.395335e-09	2.768499e+01	1.601301e+02
2.930000e-06	3.801556e-06	2.369515e-09	2.732600e+01	1.590309e+02
2.940000e-06	3.751006e-06	2.394526e-09	2.696264e+01	1.578952e+02
