# Temperatura_=_20.0
# Concentracion g/m^3_=_12600.0
# C_Vs_to_Am_M_A/Vsm_=_65563218390.804596
# pendiente_HvsI_1/m_=_3716.3
# ordenada_HvsI_A/m_=_1297.0
# frecuencia_Hz_=_213061.76413536066

Tiempo_(s)	Campo_(V.s)	Magnetizacion_(V.s)	Campo_(kA/m)	Magnetizacion_(A/m)
0.000000e+00	-5.349585e-06	-2.892270e-09	-3.836102e+01	-1.889591e+02
1.000000e-08	-5.349305e-06	-2.891476e-09	-3.835902e+01	-1.889940e+02
2.000000e-08	-5.348161e-06	-2.891199e-09	-3.835081e+01	-1.890139e+02
3.000000e-08	-5.345816e-06	-2.890444e-09	-3.833400e+01	-1.890180e+02
4.000000e-08	-5.342370e-06	-2.888351e-09	-3.830929e+01	-1.890053e+02
5.000000e-08	-5.338154e-06	-2.886261e-09	-3.827906e+01	-1.889739e+02
6.000000e-08	-5.333180e-06	-2.885117e-09	-3.824338e+01	-1.889218e+02
7.000000e-08	-5.327332e-06	-2.883070e-09	-3.820145e+01	-1.888469e+02
8.000000e-08	-5.320592e-06	-2.883499e-09	-3.815312e+01	-1.887470e+02
9.000000e-08	-5.312948e-06	-2.886290e-09	-3.809831e+01	-1.886201e+02
1.000000e-07	-5.304216e-06	-2.896622e-09	-3.803569e+01	-1.884645e+02
1.100000e-07	-5.294008e-06	-2.891783e-09	-3.796249e+01	-1.882790e+02
1.200000e-07	-5.282543e-06	-2.867740e-09	-3.788028e+01	-1.880629e+02
1.300000e-07	-5.270300e-06	-2.848125e-09	-3.779248e+01	-1.878164e+02
1.400000e-07	-5.257185e-06	-2.868863e-09	-3.769843e+01	-1.875401e+02
1.500000e-07	-5.243132e-06	-2.878810e-09	-3.759767e+01	-1.872358e+02
1.600000e-07	-5.228263e-06	-2.860284e-09	-3.749104e+01	-1.869057e+02
1.700000e-07	-5.212412e-06	-2.862035e-09	-3.737738e+01	-1.865526e+02
1.800000e-07	-5.195263e-06	-2.833077e-09	-3.725440e+01	-1.861799e+02
1.900000e-07	-5.177139e-06	-2.825575e-09	-3.712444e+01	-1.857913e+02
2.000000e-07	-5.158470e-06	-2.852785e-09	-3.699057e+01	-1.853906e+02
2.100000e-07	-5.139020e-06	-2.851756e-09	-3.685110e+01	-1.849814e+02
2.200000e-07	-5.118554e-06	-2.832540e-09	-3.670433e+01	-1.845672e+02
2.300000e-07	-5.097208e-06	-2.831661e-09	-3.655127e+01	-1.841510e+02
2.400000e-07	-5.075090e-06	-2.836966e-09	-3.639266e+01	-1.837350e+02
2.500000e-07	-5.052101e-06	-2.823401e-09	-3.622781e+01	-1.833207e+02
2.600000e-07	-5.028247e-06	-2.833458e-09	-3.605676e+01	-1.829086e+02
2.700000e-07	-5.003507e-06	-2.834884e-09	-3.587935e+01	-1.824985e+02
2.800000e-07	-4.977812e-06	-2.797329e-09	-3.569510e+01	-1.820891e+02
2.900000e-07	-4.951055e-06	-2.765769e-09	-3.550323e+01	-1.816780e+02
3.000000e-07	-4.923253e-06	-2.761564e-09	-3.530386e+01	-1.812624e+02
3.100000e-07	-4.894625e-06	-2.798460e-09	-3.509857e+01	-1.808386e+02
3.200000e-07	-4.865206e-06	-2.810614e-09	-3.488762e+01	-1.804025e+02
3.300000e-07	-4.834946e-06	-2.735795e-09	-3.467063e+01	-1.799497e+02
3.400000e-07	-4.803871e-06	-2.677747e-09	-3.444780e+01	-1.794758e+02
3.500000e-07	-4.772101e-06	-2.735940e-09	-3.421998e+01	-1.789766e+02
3.600000e-07	-4.739656e-06	-2.796760e-09	-3.398732e+01	-1.784482e+02
3.700000e-07	-4.706233e-06	-2.724595e-09	-3.374765e+01	-1.778873e+02
3.800000e-07	-4.671648e-06	-2.637044e-09	-3.349965e+01	-1.772912e+02
3.900000e-07	-4.636121e-06	-2.663010e-09	-3.324489e+01	-1.766581e+02
4.000000e-07	-4.599857e-06	-2.734956e-09	-3.298484e+01	-1.759871e+02
4.100000e-07	-4.562801e-06	-2.736126e-09	-3.271912e+01	-1.752780e+02
4.200000e-07	-4.524933e-06	-2.637804e-09	-3.244757e+01	-1.745314e+02
4.300000e-07	-4.486302e-06	-2.578206e-09	-3.217056e+01	-1.737489e+02
4.400000e-07	-4.446940e-06	-2.637840e-09	-3.188830e+01	-1.729324e+02
4.500000e-07	-4.406980e-06	-2.700097e-09	-3.160176e+01	-1.720845e+02
4.600000e-07	-4.366462e-06	-2.649977e-09	-3.131120e+01	-1.712080e+02
4.700000e-07	-4.324973e-06	-2.542089e-09	-3.101369e+01	-1.703056e+02
4.800000e-07	-4.282298e-06	-2.531211e-09	-3.070768e+01	-1.693804e+02
4.900000e-07	-4.238766e-06	-2.605994e-09	-3.039552e+01	-1.684347e+02
5.000000e-07	-4.194628e-06	-2.623352e-09	-3.007901e+01	-1.674710e+02
5.100000e-07	-4.149829e-06	-2.543897e-09	-2.975777e+01	-1.664909e+02
5.200000e-07	-4.104221e-06	-2.468788e-09	-2.943072e+01	-1.654957e+02
5.300000e-07	-4.057837e-06	-2.492312e-09	-2.909810e+01	-1.644859e+02
5.400000e-07	-4.010748e-06	-2.543830e-09	-2.876044e+01	-1.634614e+02
5.500000e-07	-3.963060e-06	-2.521490e-09	-2.841847e+01	-1.624218e+02
5.600000e-07	-3.914714e-06	-2.447270e-09	-2.807179e+01	-1.613659e+02
5.700000e-07	-3.865454e-06	-2.401754e-09	-2.771855e+01	-1.602923e+02
5.800000e-07	-3.815102e-06	-2.425596e-09	-2.735749e+01	-1.591992e+02
5.900000e-07	-3.763798e-06	-2.451290e-09	-2.698960e+01	-1.580848e+02
6.000000e-07	-3.711725e-06	-2.417090e-09	-2.661619e+01	-1.569470e+02
6.100000e-07	-3.658902e-06	-2.353630e-09	-2.623740e+01	-1.557839e+02
6.200000e-07	-3.605410e-06	-2.321382e-09	-2.585382e+01	-1.545940e+02
6.300000e-07	-3.551336e-06	-2.339012e-09	-2.546606e+01	-1.533757e+02
6.400000e-07	-3.496686e-06	-2.350094e-09	-2.507418e+01	-1.521281e+02
6.500000e-07	-3.441508e-06	-2.315464e-09	-2.467850e+01	-1.508505e+02
6.600000e-07	-3.385834e-06	-2.260638e-09	-2.427927e+01	-1.495426e+02
6.700000e-07	-3.329639e-06	-2.233941e-09	-2.387631e+01	-1.482044e+02
6.800000e-07	-3.272865e-06	-2.249446e-09	-2.346919e+01	-1.468365e+02
6.900000e-07	-3.215353e-06	-2.251000e-09	-2.305678e+01	-1.454394e+02
7.000000e-07	-3.157021e-06	-2.203457e-09	-2.263850e+01	-1.440140e+02
7.100000e-07	-3.097941e-06	-2.146560e-09	-2.221484e+01	-1.425612e+02
7.200000e-07	-3.038316e-06	-2.129941e-09	-2.178728e+01	-1.410822e+02
7.300000e-07	-2.978275e-06	-2.142971e-09	-2.135674e+01	-1.395777e+02
7.400000e-07	-2.917797e-06	-2.125582e-09	-2.092306e+01	-1.380486e+02
7.500000e-07	-2.856834e-06	-2.070712e-09	-2.048590e+01	-1.364954e+02
7.600000e-07	-2.795374e-06	-2.026296e-09	-2.004518e+01	-1.349185e+02
7.700000e-07	-2.733448e-06	-2.016390e-09	-1.960112e+01	-1.333179e+02
7.800000e-07	-2.671073e-06	-2.015727e-09	-1.915384e+01	-1.316935e+02
7.900000e-07	-2.608235e-06	-1.984355e-09	-1.870324e+01	-1.300448e+02
8.000000e-07	-2.544964e-06	-1.934201e-09	-1.824953e+01	-1.283712e+02
8.100000e-07	-2.481337e-06	-1.900861e-09	-1.779328e+01	-1.266719e+02
8.200000e-07	-2.417378e-06	-1.889869e-09	-1.733463e+01	-1.249459e+02
8.300000e-07	-2.353089e-06	-1.878105e-09	-1.687363e+01	-1.231923e+02
8.400000e-07	-2.288364e-06	-1.844329e-09	-1.640949e+01	-1.214101e+02
8.500000e-07	-2.223107e-06	-1.801494e-09	-1.594155e+01	-1.195985e+02
8.600000e-07	-2.157239e-06	-1.769735e-09	-1.546922e+01	-1.177567e+02
8.700000e-07	-2.090766e-06	-1.750516e-09	-1.499255e+01	-1.158843e+02
8.800000e-07	-2.023803e-06	-1.730566e-09	-1.451237e+01	-1.139809e+02
8.900000e-07	-1.956444e-06	-1.694748e-09	-1.402935e+01	-1.120463e+02
9.000000e-07	-1.888827e-06	-1.652085e-09	-1.354447e+01	-1.100808e+02
9.100000e-07	-1.820974e-06	-1.616799e-09	-1.305791e+01	-1.080845e+02
9.200000e-07	-1.752986e-06	-1.592474e-09	-1.257038e+01	-1.060580e+02
9.300000e-07	-1.684819e-06	-1.571316e-09	-1.208157e+01	-1.040020e+02
9.400000e-07	-1.616296e-06	-1.537195e-09	-1.159020e+01	-1.019171e+02
9.500000e-07	-1.547410e-06	-1.493698e-09	-1.109623e+01	-9.980419e+01
9.600000e-07	-1.478260e-06	-1.455706e-09	-1.060037e+01	-9.766399e+01
9.700000e-07	-1.408950e-06	-1.432339e-09	-1.010336e+01	-9.549722e+01
9.800000e-07	-1.339452e-06	-1.410452e-09	-9.605000e+00	-9.330447e+01
9.900000e-07	-1.269689e-06	-1.370067e-09	-9.104740e+00	-9.108621e+01
1.000000e-06	-1.199675e-06	-1.321223e-09	-8.602679e+00	-8.884272e+01
1.010000e-06	-1.129418e-06	-1.285705e-09	-8.098873e+00	-8.657407e+01
1.020000e-06	-1.058938e-06	-1.265504e-09	-7.593475e+00	-8.428014e+01
1.030000e-06	-9.882781e-07	-1.238511e-09	-7.086785e+00	-8.196061e+01
1.040000e-06	-9.174083e-07	-1.191180e-09	-6.578589e+00	-7.961495e+01
1.050000e-06	-8.463763e-07	-1.142260e-09	-6.069229e+00	-7.724249e+01
1.060000e-06	-7.752607e-07	-1.108910e-09	-5.559271e+00	-7.484239e+01
1.070000e-06	-7.040491e-07	-1.085699e-09	-5.048624e+00	-7.241372e+01
1.080000e-06	-6.326940e-07	-1.050942e-09	-4.536948e+00	-6.995549e+01
1.090000e-06	-5.612608e-07	-9.993894e-10	-4.024712e+00	-6.746668e+01
1.100000e-06	-4.898018e-07	-9.549079e-10	-3.512291e+00	-6.494628e+01
1.110000e-06	-4.182838e-07	-9.244563e-10	-2.999447e+00	-6.239334e+01
1.120000e-06	-3.467047e-07	-8.945831e-10	-2.486165e+00	-5.980701e+01
1.130000e-06	-2.750890e-07	-8.514457e-10	-1.972619e+00	-5.718655e+01
1.140000e-06	-2.034382e-07	-8.003156e-10	-1.458823e+00	-5.453136e+01
1.150000e-06	-1.317298e-07	-7.569477e-10	-9.446135e-01	-5.184099e+01
1.160000e-06	-6.002958e-08	-7.194782e-10	-4.304626e-01	-4.911518e+01
1.170000e-06	1.164527e-08	-6.817459e-10	8.350637e-02	-4.635380e+01
1.180000e-06	8.332553e-08	-6.363276e-10	5.975141e-01	-4.355692e+01
1.190000e-06	1.549716e-07	-5.862305e-10	1.111277e+00	-4.072472e+01
1.200000e-06	2.265713e-07	-5.414444e-10	1.624707e+00	-3.785751e+01
1.210000e-06	2.981710e-07	-5.024103e-10	2.138137e+00	-3.495571e+01
1.220000e-06	3.697620e-07	-4.640865e-10	2.651504e+00	-3.201983e+01
1.230000e-06	4.413126e-07	-4.144349e-10	3.164583e+00	-2.905039e+01
1.240000e-06	5.127706e-07	-3.573893e-10	3.676996e+00	-2.604795e+01
1.250000e-06	5.841485e-07	-3.069228e-10	4.188836e+00	-2.301307e+01
1.260000e-06	6.554878e-07	-2.654627e-10	4.700398e+00	-1.994628e+01
1.270000e-06	7.267488e-07	-2.247631e-10	5.211400e+00	-1.684805e+01
1.280000e-06	7.978721e-07	-1.725634e-10	5.721414e+00	-1.371882e+01
1.290000e-06	8.688703e-07	-1.154902e-10	6.230531e+00	-1.055896e+01
1.300000e-06	9.397872e-07	-6.535637e-11	6.739064e+00	-7.368804e+00
1.310000e-06	1.010484e-06	-2.339481e-11	7.246020e+00	-4.148660e+00
1.320000e-06	1.080922e-06	2.148381e-11	7.751118e+00	-8.988397e-01
1.330000e-06	1.151150e-06	7.757810e-11	8.254711e+00	2.380305e+00
1.340000e-06	1.221151e-06	1.352298e-10	8.756681e+00	5.688337e+00
1.350000e-06	1.290931e-06	1.839135e-10	9.257062e+00	9.024684e+00
1.360000e-06	1.360512e-06	2.270392e-10	9.756013e+00	1.238858e+01
1.370000e-06	1.429881e-06	2.759081e-10	1.025345e+01	1.577901e+01
1.380000e-06	1.498940e-06	3.356599e-10	1.074866e+01	1.919467e+01
1.390000e-06	1.567671e-06	3.952676e-10	1.124152e+01	2.263388e+01
1.400000e-06	1.636117e-06	4.457359e-10	1.173234e+01	2.609459e+01
1.410000e-06	1.704266e-06	4.946107e-10	1.222102e+01	2.957432e+01
1.420000e-06	1.772197e-06	5.489948e-10	1.270814e+01	3.307013e+01
1.430000e-06	1.839983e-06	6.087336e-10	1.319422e+01	3.657867e+01
1.440000e-06	1.907576e-06	6.664016e-10	1.367892e+01	4.009614e+01
1.450000e-06	1.974877e-06	7.186149e-10	1.416153e+01	4.361837e+01
1.460000e-06	2.041788e-06	7.694628e-10	1.464134e+01	4.714081e+01
1.470000e-06	2.108190e-06	8.230752e-10	1.511749e+01	5.065869e+01
1.480000e-06	2.174048e-06	8.802951e-10	1.558975e+01	5.416699e+01
1.490000e-06	2.239323e-06	9.351863e-10	1.605783e+01	5.766063e+01
1.500000e-06	2.304008e-06	9.837967e-10	1.652167e+01	6.113450e+01
1.510000e-06	2.368230e-06	1.030818e-09	1.698220e+01	6.458359e+01
1.520000e-06	2.432117e-06	1.082228e-09	1.744032e+01	6.800309e+01
1.530000e-06	2.495746e-06	1.139263e-09	1.789660e+01	7.138844e+01
1.540000e-06	2.559071e-06	1.193990e-09	1.835069e+01	7.473549e+01
1.550000e-06	2.622026e-06	1.241921e-09	1.880213e+01	7.804048e+01
1.560000e-06	2.684547e-06	1.289086e-09	1.925046e+01	8.130015e+01
1.570000e-06	2.746641e-06	1.340155e-09	1.969573e+01	8.451172e+01
1.580000e-06	2.808328e-06	1.389286e-09	2.013807e+01	8.767294e+01
1.590000e-06	2.869537e-06	1.431520e-09	2.057699e+01	9.078205e+01
1.600000e-06	2.930223e-06	1.471293e-09	2.101216e+01	9.383774e+01
1.610000e-06	2.990423e-06	1.512787e-09	2.144385e+01	9.683914e+01
1.620000e-06	3.050242e-06	1.558231e-09	2.187280e+01	9.978572e+01
1.630000e-06	3.109694e-06	1.604419e-09	2.229912e+01	1.026772e+02
1.640000e-06	3.168529e-06	1.646224e-09	2.272102e+01	1.055137e+02
1.650000e-06	3.226476e-06	1.685384e-09	2.313655e+01	1.082951e+02
1.660000e-06	3.283552e-06	1.726899e-09	2.354583e+01	1.110217e+02
1.670000e-06	3.339923e-06	1.770161e-09	2.395006e+01	1.136936e+02
1.680000e-06	3.395765e-06	1.810275e-09	2.435049e+01	1.163111e+02
1.690000e-06	3.451098e-06	1.845038e-09	2.474727e+01	1.188740e+02
1.700000e-06	3.505875e-06	1.877677e-09	2.514007e+01	1.213825e+02
1.710000e-06	3.560088e-06	1.913078e-09	2.552883e+01	1.238363e+02
1.720000e-06	3.613735e-06	1.949585e-09	2.591352e+01	1.262354e+02
1.730000e-06	3.666807e-06	1.983209e-09	2.629409e+01	1.285793e+02
1.740000e-06	3.719210e-06	2.014098e-09	2.666986e+01	1.308679e+02
1.750000e-06	3.770853e-06	2.045138e-09	2.704019e+01	1.331010e+02
1.760000e-06	3.821565e-06	2.078008e-09	2.740383e+01	1.352783e+02
1.770000e-06	3.871201e-06	2.110906e-09	2.775977e+01	1.373998e+02
1.780000e-06	3.919907e-06	2.140481e-09	2.810903e+01	1.394656e+02
1.790000e-06	3.967915e-06	2.166081e-09	2.845329e+01	1.414761e+02
1.800000e-06	4.015324e-06	2.192542e-09	2.879325e+01	1.434316e+02
1.810000e-06	4.062126e-06	2.222414e-09	2.912886e+01	1.453328e+02
1.820000e-06	4.108259e-06	2.250740e-09	2.945967e+01	1.471806e+02
1.830000e-06	4.153681e-06	2.275010e-09	2.978539e+01	1.489759e+02
1.840000e-06	4.198383e-06	2.297585e-09	3.010593e+01	1.507199e+02
1.850000e-06	4.242494e-06	2.321614e-09	3.042225e+01	1.524138e+02
1.860000e-06	4.286096e-06	2.347537e-09	3.073491e+01	1.540586e+02
1.870000e-06	4.328923e-06	2.372647e-09	3.104202e+01	1.556557e+02
1.880000e-06	4.370712e-06	2.395577e-09	3.134168e+01	1.572061e+02
1.890000e-06	4.411452e-06	2.415966e-09	3.163382e+01	1.587108e+02
1.900000e-06	4.451294e-06	2.435988e-09	3.191952e+01	1.601706e+02
1.910000e-06	4.490495e-06	2.457942e-09	3.220063e+01	1.615864e+02
1.920000e-06	4.529040e-06	2.480391e-09	3.247702e+01	1.629587e+02
1.930000e-06	4.566789e-06	2.499537e-09	3.274772e+01	1.642879e+02
1.940000e-06	4.603785e-06	2.516944e-09	3.301301e+01	1.655744e+02
1.950000e-06	4.640074e-06	2.534351e-09	3.327323e+01	1.668184e+02
1.960000e-06	4.675721e-06	2.551152e-09	3.352885e+01	1.680204e+02
1.970000e-06	4.710518e-06	2.568049e-09	3.377837e+01	1.691805e+02
1.980000e-06	4.744182e-06	2.584288e-09	3.401977e+01	1.702993e+02
1.990000e-06	4.776814e-06	2.599845e-09	3.425378e+01	1.713773e+02
2.000000e-06	4.808641e-06	2.615484e-09	3.448200e+01	1.724151e+02
2.010000e-06	4.839732e-06	2.632864e-09	3.470495e+01	1.734138e+02
2.020000e-06	4.870035e-06	2.650740e-09	3.492225e+01	1.743745e+02
2.030000e-06	4.899543e-06	2.665811e-09	3.513384e+01	1.752984e+02
2.040000e-06	4.928261e-06	2.678094e-09	3.533978e+01	1.761870e+02
2.050000e-06	4.956274e-06	2.690670e-09	3.554065e+01	1.770418e+02
2.060000e-06	4.983581e-06	2.704270e-09	3.573647e+01	1.778645e+02
2.070000e-06	5.009871e-06	2.716910e-09	3.592499e+01	1.786567e+02
2.080000e-06	5.034897e-06	2.727937e-09	3.610445e+01	1.794197e+02
2.090000e-06	5.058869e-06	2.737996e-09	3.627634e+01	1.801549e+02
2.100000e-06	5.082067e-06	2.749549e-09	3.644270e+01	1.808634e+02
2.110000e-06	5.104465e-06	2.763804e-09	3.660331e+01	1.815457e+02
2.120000e-06	5.126010e-06	2.777123e-09	3.675780e+01	1.822025e+02
2.130000e-06	5.146722e-06	2.786611e-09	3.690632e+01	1.828336e+02
2.140000e-06	5.166654e-06	2.793965e-09	3.704925e+01	1.834387e+02
2.150000e-06	5.185760e-06	2.801698e-09	3.718626e+01	1.840174e+02
2.160000e-06	5.203902e-06	2.810873e-09	3.731635e+01	1.845686e+02
2.170000e-06	5.221072e-06	2.819079e-09	3.743947e+01	1.850914e+02
2.180000e-06	5.237335e-06	2.823500e-09	3.755609e+01	1.855846e+02
2.190000e-06	5.252645e-06	2.828765e-09	3.766588e+01	1.860471e+02
2.200000e-06	5.266927e-06	2.837742e-09	3.776830e+01	1.864778e+02
2.210000e-06	5.280266e-06	2.847994e-09	3.786395e+01	1.868761e+02
2.220000e-06	5.292707e-06	2.855483e-09	3.795316e+01	1.872414e+02
2.230000e-06	5.304109e-06	2.858425e-09	3.803492e+01	1.875736e+02
2.240000e-06	5.314284e-06	2.861437e-09	3.810788e+01	1.878731e+02
2.250000e-06	5.323236e-06	2.867384e-09	3.817208e+01	1.881407e+02
2.260000e-06	5.331208e-06	2.873842e-09	3.822924e+01	1.883776e+02
2.270000e-06	5.338344e-06	2.877710e-09	3.828041e+01	1.885854e+02
2.280000e-06	5.344632e-06	2.879718e-09	3.832551e+01	1.887659e+02
2.290000e-06	5.350049e-06	2.881434e-09	3.836435e+01	1.889214e+02
2.300000e-06	5.354588e-06	2.884428e-09	3.839689e+01	1.890540e+02
2.310000e-06	5.358339e-06	2.889035e-09	3.842380e+01	1.891658e+02
2.320000e-06	5.361227e-06	2.892057e-09	3.844451e+01	1.892590e+02
2.330000e-06	5.362891e-06	2.892901e-09	3.845644e+01	1.893350e+02
2.340000e-06	5.363388e-06	2.894564e-09	3.846000e+01	1.893953e+02
2.350000e-06	5.363033e-06	2.896732e-09	3.845746e+01	1.894406e+02
2.360000e-06	5.361857e-06	2.897321e-09	3.844902e+01	1.894712e+02
2.370000e-06	5.359825e-06	2.896183e-09	3.843445e+01	1.894866e+02
2.380000e-06	5.356956e-06	2.894963e-09	3.841388e+01	1.894859e+02
2.390000e-06	5.353318e-06	2.893292e-09	3.838779e+01	1.894679e+02
2.400000e-06	5.349010e-06	2.892222e-09	3.835690e+01	1.894306e+02
2.410000e-06	5.343855e-06	2.892565e-09	3.831993e+01	1.893720e+02
2.420000e-06	5.337562e-06	2.890741e-09	3.827481e+01	1.892900e+02
2.430000e-06	5.330167e-06	2.884379e-09	3.822178e+01	1.891823e+02
2.440000e-06	5.321822e-06	2.868585e-09	3.816194e+01	1.890471e+02
2.450000e-06	5.312296e-06	2.865808e-09	3.809363e+01	1.888827e+02
2.460000e-06	5.301437e-06	2.875580e-09	3.801576e+01	1.886882e+02
2.470000e-06	5.289720e-06	2.896023e-09	3.793174e+01	1.884630e+02
2.480000e-06	5.277661e-06	2.877285e-09	3.784527e+01	1.882076e+02
2.490000e-06	5.264844e-06	2.855563e-09	3.775336e+01	1.879229e+02
2.500000e-06	5.250376e-06	2.852967e-09	3.764961e+01	1.876107e+02
2.510000e-06	5.234645e-06	2.847369e-09	3.753680e+01	1.872734e+02
2.520000e-06	5.218348e-06	2.871074e-09	3.741995e+01	1.869142e+02
2.530000e-06	5.201218e-06	2.872901e-09	3.729711e+01	1.865365e+02
2.540000e-06	5.183057e-06	2.849320e-09	3.716688e+01	1.861439e+02
2.550000e-06	5.164076e-06	2.840052e-09	3.703077e+01	1.857404e+02
2.560000e-06	5.144455e-06	2.847432e-09	3.689007e+01	1.853295e+02
2.570000e-06	5.124112e-06	2.832765e-09	3.674419e+01	1.849145e+02
2.580000e-06	5.102630e-06	2.810682e-09	3.659015e+01	1.844982e+02
2.590000e-06	5.079785e-06	2.785489e-09	3.642633e+01	1.840827e+02
2.600000e-06	5.056018e-06	2.737447e-09	3.625590e+01	1.836692e+02
2.610000e-06	5.031558e-06	2.719850e-09	3.608050e+01	1.832580e+02
2.620000e-06	5.006078e-06	2.767917e-09	3.589779e+01	1.828484e+02
2.630000e-06	4.979719e-06	2.818731e-09	3.570877e+01	1.824388e+02
2.640000e-06	4.952742e-06	2.781909e-09	3.551533e+01	1.820269e+02
2.650000e-06	4.924973e-06	2.691473e-09	3.531620e+01	1.816093e+02
2.660000e-06	4.896372e-06	2.671811e-09	3.511111e+01	1.811824e+02
2.670000e-06	4.866753e-06	2.754559e-09	3.489871e+01	1.807418e+02
2.680000e-06	4.835911e-06	2.821094e-09	3.467755e+01	1.802833e+02
2.690000e-06	4.804125e-06	2.717820e-09	3.444962e+01	1.798023e+02
2.700000e-06	4.771565e-06	2.606940e-09	3.421614e+01	1.792949e+02
2.710000e-06	4.738223e-06	2.697178e-09	3.397704e+01	1.787571e+02
2.720000e-06	4.704108e-06	2.794632e-09	3.373241e+01	1.781860e+02
2.730000e-06	4.669111e-06	2.742768e-09	3.348145e+01	1.775791e+02
2.740000e-06	4.633375e-06	2.621981e-09	3.322520e+01	1.769348e+02
2.750000e-06	4.597108e-06	2.587875e-09	3.296513e+01	1.762525e+02
2.760000e-06	4.559985e-06	2.689672e-09	3.269892e+01	1.755321e+02
2.770000e-06	4.521654e-06	2.729438e-09	3.242406e+01	1.747747e+02
2.780000e-06	4.482309e-06	2.638343e-09	3.214193e+01	1.739819e+02
2.790000e-06	4.442235e-06	2.545342e-09	3.185456e+01	1.731559e+02
2.800000e-06	4.401505e-06	2.563593e-09	3.156249e+01	1.722992e+02
2.810000e-06	4.360107e-06	2.650292e-09	3.126564e+01	1.714147e+02
2.820000e-06	4.317997e-06	2.635935e-09	3.096367e+01	1.705053e+02
2.830000e-06	4.275114e-06	2.541563e-09	3.065616e+01	1.695738e+02
2.840000e-06	4.231517e-06	2.492731e-09	3.034354e+01	1.686226e+02
2.850000e-06	4.187433e-06	2.530905e-09	3.002742e+01	1.676539e+02
2.860000e-06	4.142732e-06	2.575756e-09	2.970687e+01	1.666693e+02
2.870000e-06	4.097155e-06	2.528264e-09	2.938005e+01	1.656698e+02
2.880000e-06	4.050725e-06	2.462664e-09	2.904710e+01	1.646557e+02
2.890000e-06	4.003614e-06	2.448347e-09	2.870928e+01	1.636269e+02
2.900000e-06	3.955923e-06	2.467529e-09	2.836729e+01	1.625827e+02
2.910000e-06	3.907383e-06	2.477991e-09	2.801922e+01	1.615218e+02
2.920000e-06	3.857954e-06	2.438763e-09	2.766477e+01	1.604426e+02
2.930000e-06	3.807843e-06	2.392343e-09	2.730544e+01	1.593435e+02
2.940000e-06	3.757139e-06	2.372907e-09	2.694184e+01	1.582223e+02
