# Temperatura_=_20.0
# Concentracion g/m^3_=_12600.0
# C_Vs_to_Am_M_A/Vsm_=_65563218390.804596
# pendiente_HvsI_1/m_=_3716.3
# ordenada_HvsI_A/m_=_1297.0
# frecuencia_Hz_=_213063.39412231796

Tiempo_(s)	Campo_(V.s)	Magnetizacion_(V.s)	Campo_(kA/m)	Magnetizacion_(A/m)
0.000000e+00	-5.343956e-06	-2.900790e-09	-3.835865e+01	-1.906902e+02
1.000000e-08	-5.343860e-06	-2.900262e-09	-3.835796e+01	-1.907217e+02
2.000000e-08	-5.342859e-06	-2.900685e-09	-3.835078e+01	-1.907300e+02
3.000000e-08	-5.340681e-06	-2.900118e-09	-3.833514e+01	-1.907153e+02
4.000000e-08	-5.337392e-06	-2.897902e-09	-3.831154e+01	-1.906777e+02
5.000000e-08	-5.333354e-06	-2.894848e-09	-3.828255e+01	-1.906176e+02
6.000000e-08	-5.328588e-06	-2.893370e-09	-3.824834e+01	-1.905352e+02
7.000000e-08	-5.322916e-06	-2.893541e-09	-3.820763e+01	-1.904307e+02
8.000000e-08	-5.316271e-06	-2.896236e-09	-3.815993e+01	-1.903046e+02
9.000000e-08	-5.308672e-06	-2.898568e-09	-3.810538e+01	-1.901572e+02
1.000000e-07	-5.300147e-06	-2.892911e-09	-3.804420e+01	-1.899890e+02
1.100000e-07	-5.290290e-06	-2.884547e-09	-3.797344e+01	-1.898007e+02
1.200000e-07	-5.279055e-06	-2.874317e-09	-3.789279e+01	-1.895929e+02
1.300000e-07	-5.266983e-06	-2.900373e-09	-3.780614e+01	-1.893665e+02
1.400000e-07	-5.254136e-06	-2.898053e-09	-3.771393e+01	-1.891222e+02
1.500000e-07	-5.240306e-06	-2.839977e-09	-3.761466e+01	-1.888614e+02
1.600000e-07	-5.225547e-06	-2.876820e-09	-3.750872e+01	-1.885850e+02
1.700000e-07	-5.209809e-06	-2.874128e-09	-3.739575e+01	-1.882944e+02
1.800000e-07	-5.192815e-06	-2.830004e-09	-3.727377e+01	-1.879911e+02
1.900000e-07	-5.174785e-06	-2.869958e-09	-3.714435e+01	-1.876763e+02
2.000000e-07	-5.156126e-06	-2.859001e-09	-3.701042e+01	-1.873516e+02
2.100000e-07	-5.136712e-06	-2.816753e-09	-3.687107e+01	-1.870182e+02
2.200000e-07	-5.116348e-06	-2.876551e-09	-3.672489e+01	-1.866772e+02
2.300000e-07	-5.095163e-06	-2.911546e-09	-3.657283e+01	-1.863296e+02
2.400000e-07	-5.073243e-06	-2.826163e-09	-3.641549e+01	-1.859760e+02
2.500000e-07	-5.050411e-06	-2.829883e-09	-3.625160e+01	-1.856168e+02
2.600000e-07	-5.026747e-06	-2.882569e-09	-3.608174e+01	-1.852518e+02
2.700000e-07	-5.002324e-06	-2.868529e-09	-3.590643e+01	-1.848806e+02
2.800000e-07	-4.976856e-06	-2.853940e-09	-3.572362e+01	-1.845020e+02
2.900000e-07	-4.950304e-06	-2.810361e-09	-3.553303e+01	-1.841148e+02
3.000000e-07	-4.922837e-06	-2.792784e-09	-3.533588e+01	-1.837170e+02
3.100000e-07	-4.894445e-06	-2.853128e-09	-3.513209e+01	-1.833066e+02
3.200000e-07	-4.865171e-06	-2.850648e-09	-3.492195e+01	-1.828810e+02
3.300000e-07	-4.835098e-06	-2.775302e-09	-3.470609e+01	-1.824376e+02
3.400000e-07	-4.804257e-06	-2.749224e-09	-3.448472e+01	-1.819737e+02
3.500000e-07	-4.772782e-06	-2.784932e-09	-3.425879e+01	-1.814865e+02
3.600000e-07	-4.740636e-06	-2.801801e-09	-3.402805e+01	-1.809736e+02
3.700000e-07	-4.707516e-06	-2.772317e-09	-3.379032e+01	-1.804325e+02
3.800000e-07	-4.673210e-06	-2.725850e-09	-3.354407e+01	-1.798615e+02
3.900000e-07	-4.637877e-06	-2.704757e-09	-3.329045e+01	-1.792589e+02
4.000000e-07	-4.601806e-06	-2.750486e-09	-3.303153e+01	-1.786237e+02
4.100000e-07	-4.564997e-06	-2.766885e-09	-3.276733e+01	-1.779554e+02
4.200000e-07	-4.527465e-06	-2.699755e-09	-3.249792e+01	-1.772540e+02
4.300000e-07	-4.489171e-06	-2.651222e-09	-3.222304e+01	-1.765200e+02
4.400000e-07	-4.450030e-06	-2.674023e-09	-3.194209e+01	-1.757543e+02
4.500000e-07	-4.410243e-06	-2.711587e-09	-3.165650e+01	-1.749582e+02
4.600000e-07	-4.369910e-06	-2.686311e-09	-3.136700e+01	-1.741333e+02
4.700000e-07	-4.328708e-06	-2.620712e-09	-3.107125e+01	-1.732811e+02
4.800000e-07	-4.286300e-06	-2.597613e-09	-3.076685e+01	-1.724034e+02
4.900000e-07	-4.242935e-06	-2.628488e-09	-3.045558e+01	-1.715019e+02
5.000000e-07	-4.198966e-06	-2.646450e-09	-3.013997e+01	-1.705778e+02
5.100000e-07	-4.154334e-06	-2.601914e-09	-2.981960e+01	-1.696325e+02
5.200000e-07	-4.108922e-06	-2.550322e-09	-2.949364e+01	-1.686666e+02
5.300000e-07	-4.062676e-06	-2.544567e-09	-2.916169e+01	-1.676806e+02
5.400000e-07	-4.015726e-06	-2.563927e-09	-2.882469e+01	-1.666745e+02
5.500000e-07	-3.968224e-06	-2.563077e-09	-2.848372e+01	-1.656478e+02
5.600000e-07	-3.920152e-06	-2.512764e-09	-2.813866e+01	-1.646000e+02
5.700000e-07	-3.871187e-06	-2.468969e-09	-2.778719e+01	-1.635299e+02
5.800000e-07	-3.821050e-06	-2.474195e-09	-2.742731e+01	-1.624363e+02
5.900000e-07	-3.769959e-06	-2.488405e-09	-2.706058e+01	-1.613179e+02
6.000000e-07	-3.718091e-06	-2.466139e-09	-2.668827e+01	-1.601735e+02
6.100000e-07	-3.665492e-06	-2.415740e-09	-2.631072e+01	-1.590017e+02
6.200000e-07	-3.612228e-06	-2.390723e-09	-2.592840e+01	-1.578017e+02
6.300000e-07	-3.558346e-06	-2.394012e-09	-2.554163e+01	-1.565725e+02
6.400000e-07	-3.503926e-06	-2.391655e-09	-2.515101e+01	-1.553138e+02
6.500000e-07	-3.448899e-06	-2.364783e-09	-2.475603e+01	-1.540254e+02
6.600000e-07	-3.393280e-06	-2.322643e-09	-2.435679e+01	-1.527077e+02
6.700000e-07	-3.337247e-06	-2.300983e-09	-2.395459e+01	-1.513611e+02
6.800000e-07	-3.280700e-06	-2.296578e-09	-2.354870e+01	-1.499865e+02
6.900000e-07	-3.223359e-06	-2.285011e-09	-2.313711e+01	-1.485849e+02
7.000000e-07	-3.165145e-06	-2.255138e-09	-2.271925e+01	-1.471576e+02
7.100000e-07	-3.106213e-06	-2.215558e-09	-2.229624e+01	-1.457057e+02
7.200000e-07	-3.046723e-06	-2.194644e-09	-2.186923e+01	-1.442303e+02
7.300000e-07	-2.986817e-06	-2.186414e-09	-2.143922e+01	-1.427324e+02
7.400000e-07	-2.926533e-06	-2.170359e-09	-2.100651e+01	-1.412128e+02
7.500000e-07	-2.865799e-06	-2.139768e-09	-2.057056e+01	-1.396718e+02
7.600000e-07	-2.804540e-06	-2.102047e-09	-2.013085e+01	-1.381095e+02
7.700000e-07	-2.742766e-06	-2.080138e-09	-1.968744e+01	-1.365257e+02
7.800000e-07	-2.680533e-06	-2.068612e-09	-1.924074e+01	-1.349197e+02
7.900000e-07	-2.617842e-06	-2.047227e-09	-1.879074e+01	-1.332906e+02
8.000000e-07	-2.554655e-06	-2.009521e-09	-1.833719e+01	-1.316371e+02
8.100000e-07	-2.491057e-06	-1.973109e-09	-1.788069e+01	-1.299580e+02
8.200000e-07	-2.427162e-06	-1.956627e-09	-1.742205e+01	-1.282516e+02
8.300000e-07	-2.363009e-06	-1.942090e-09	-1.696156e+01	-1.265165e+02
8.400000e-07	-2.298511e-06	-1.911624e-09	-1.649860e+01	-1.247512e+02
8.500000e-07	-2.233538e-06	-1.870783e-09	-1.603222e+01	-1.229547e+02
8.600000e-07	-2.167957e-06	-1.838414e-09	-1.556149e+01	-1.211258e+02
8.700000e-07	-2.101726e-06	-1.819784e-09	-1.508608e+01	-1.192638e+02
8.800000e-07	-2.034959e-06	-1.795223e-09	-1.460683e+01	-1.173685e+02
8.900000e-07	-1.967757e-06	-1.758808e-09	-1.412446e+01	-1.154398e+02
9.000000e-07	-1.900242e-06	-1.720754e-09	-1.363984e+01	-1.134780e+02
9.100000e-07	-1.832485e-06	-1.690478e-09	-1.315349e+01	-1.114838e+02
9.200000e-07	-1.764536e-06	-1.665978e-09	-1.266575e+01	-1.094579e+02
9.300000e-07	-1.696464e-06	-1.635041e-09	-1.217713e+01	-1.074014e+02
9.400000e-07	-1.628184e-06	-1.598496e-09	-1.168703e+01	-1.053155e+02
9.500000e-07	-1.559592e-06	-1.561196e-09	-1.119467e+01	-1.032010e+02
9.600000e-07	-1.490634e-06	-1.526647e-09	-1.069969e+01	-1.010591e+02
9.700000e-07	-1.421397e-06	-1.495801e-09	-1.020272e+01	-9.889055e+01
9.800000e-07	-1.352045e-06	-1.463201e-09	-9.704911e+00	-9.669594e+01
9.900000e-07	-1.282470e-06	-1.428405e-09	-9.205505e+00	-9.447559e+01
1.000000e-06	-1.212549e-06	-1.391795e-09	-8.703615e+00	-9.222953e+01
1.010000e-06	-1.142342e-06	-1.356277e-09	-8.199675e+00	-8.995749e+01
1.020000e-06	-1.072017e-06	-1.324031e-09	-7.694883e+00	-8.765889e+01
1.030000e-06	-1.001529e-06	-1.290820e-09	-7.188929e+00	-8.533296e+01
1.040000e-06	-9.307732e-07	-1.252483e-09	-6.681044e+00	-8.297870e+01
1.050000e-06	-8.598109e-07	-1.209536e-09	-6.171680e+00	-8.059501e+01
1.060000e-06	-7.887014e-07	-1.170979e-09	-5.661260e+00	-7.818072e+01
1.070000e-06	-7.175064e-07	-1.138302e-09	-5.150226e+00	-7.573471e+01
1.080000e-06	-6.461847e-07	-1.100378e-09	-4.638282e+00	-7.325593e+01
1.090000e-06	-5.747247e-07	-1.055676e-09	-4.125346e+00	-7.074348e+01
1.100000e-06	-5.032338e-07	-1.012718e-09	-3.612187e+00	-6.819666e+01
1.110000e-06	-4.317356e-07	-9.770029e-10	-3.098977e+00	-6.561500e+01
1.120000e-06	-3.602317e-07	-9.419224e-10	-2.585725e+00	-6.299824e+01
1.130000e-06	-2.887233e-07	-9.006893e-10	-2.072441e+00	-6.034638e+01
1.140000e-06	-2.172283e-07	-8.581559e-10	-1.559254e+00	-5.765960e+01
1.150000e-06	-1.457140e-07	-8.179799e-10	-1.045928e+00	-5.493826e+01
1.160000e-06	-7.410747e-08	-7.773747e-10	-5.319398e-01	-5.218285e+01
1.170000e-06	-2.487309e-09	-7.334048e-10	-1.785378e-02	-4.939389e+01
1.180000e-06	6.911526e-08	-6.888644e-10	4.961059e-01	-4.657194e+01
1.190000e-06	1.407580e-07	-6.462453e-10	1.010354e+00	-4.371751e+01
1.200000e-06	2.123502e-07	-6.003972e-10	1.524239e+00	-4.083101e+01
1.210000e-06	2.838364e-07	-5.536757e-10	2.037364e+00	-3.791271e+01
1.220000e-06	3.552957e-07	-5.110632e-10	2.550295e+00	-3.496277e+01
1.230000e-06	4.267558e-07	-4.663588e-10	3.063232e+00	-3.198115e+01
1.240000e-06	4.981773e-07	-4.162586e-10	3.575892e+00	-2.896771e+01
1.250000e-06	5.695431e-07	-3.634881e-10	4.088152e+00	-2.592215e+01
1.260000e-06	6.408002e-07	-3.174699e-10	4.599632e+00	-2.284411e+01
1.270000e-06	7.119599e-07	-2.751776e-10	5.110413e+00	-1.973319e+01
1.280000e-06	7.830622e-07	-2.263128e-10	5.620782e+00	-1.658903e+01
1.290000e-06	8.540241e-07	-1.715237e-10	6.130142e+00	-1.341133e+01
1.300000e-06	9.248324e-07	-1.174313e-10	6.638401e+00	-1.019993e+01
1.310000e-06	9.954702e-07	-6.927342e-11	7.145436e+00	-6.954865e+00
1.320000e-06	1.065878e-06	-2.377091e-11	7.650817e+00	-3.676409e+00
1.330000e-06	1.136021e-06	2.670944e-11	8.154304e+00	-3.651004e-01
1.340000e-06	1.205925e-06	8.218806e-11	8.656071e+00	2.978230e+00
1.350000e-06	1.275630e-06	1.341846e-10	9.156410e+00	6.352447e+00
1.360000e-06	1.345157e-06	1.807402e-10	9.655468e+00	9.756115e+00
1.370000e-06	1.414399e-06	2.288538e-10	1.015249e+01	1.318751e+01
1.380000e-06	1.483353e-06	2.844617e-10	1.064743e+01	1.664464e+01
1.390000e-06	1.552106e-06	3.428955e-10	1.114094e+01	2.012526e+01
1.400000e-06	1.620581e-06	3.968200e-10	1.163245e+01	2.362691e+01
1.410000e-06	1.688787e-06	4.481250e-10	1.212203e+01	2.714696e+01
1.420000e-06	1.756808e-06	5.032522e-10	1.261028e+01	3.068258e+01
1.430000e-06	1.824602e-06	5.607697e-10	1.309690e+01	3.423081e+01
1.440000e-06	1.892139e-06	6.164549e-10	1.358168e+01	3.778857e+01
1.450000e-06	1.959382e-06	6.699541e-10	1.406434e+01	4.135261e+01
1.460000e-06	2.026305e-06	7.225275e-10	1.454472e+01	4.491960e+01
1.470000e-06	2.092825e-06	7.758341e-10	1.502219e+01	4.848604e+01
1.480000e-06	2.158780e-06	8.308147e-10	1.549562e+01	5.204831e+01
1.490000e-06	2.224182e-06	8.859808e-10	1.596507e+01	5.560263e+01
1.500000e-06	2.289059e-06	9.393242e-10	1.643075e+01	5.914509e+01
1.510000e-06	2.353435e-06	9.902609e-10	1.689284e+01	6.267162e+01
1.520000e-06	2.417401e-06	1.043719e-09	1.735199e+01	6.617802e+01
1.530000e-06	2.481060e-06	1.100577e-09	1.780893e+01	6.965996e+01
1.540000e-06	2.544400e-06	1.153764e-09	1.826358e+01	7.311306e+01
1.550000e-06	2.607356e-06	1.201007e-09	1.871547e+01	7.653289e+01
1.560000e-06	2.669893e-06	1.248986e-09	1.916436e+01	7.991507e+01
1.570000e-06	2.731996e-06	1.302657e-09	1.961014e+01	8.325531e+01
1.580000e-06	2.793648e-06	1.354806e-09	2.005267e+01	8.654950e+01
1.590000e-06	2.854838e-06	1.400751e-09	2.049189e+01	8.979377e+01
1.600000e-06	2.915582e-06	1.443985e-09	2.092790e+01	9.298461e+01
1.610000e-06	2.975857e-06	1.488101e-09	2.136055e+01	9.611890e+01
1.620000e-06	3.035720e-06	1.534825e-09	2.179025e+01	9.919399e+01
1.630000e-06	3.095159e-06	1.581156e-09	2.221690e+01	1.022078e+02
1.640000e-06	3.153996e-06	1.624779e-09	2.263923e+01	1.051586e+02
1.650000e-06	3.212100e-06	1.666435e-09	2.305629e+01	1.080455e+02
1.660000e-06	3.269293e-06	1.708130e-09	2.346682e+01	1.108680e+02
1.670000e-06	3.325684e-06	1.751350e-09	2.387159e+01	1.136261e+02
1.680000e-06	3.381572e-06	1.791539e-09	2.427276e+01	1.163201e+02
1.690000e-06	3.436997e-06	1.828128e-09	2.467060e+01	1.189511e+02
1.700000e-06	3.491886e-06	1.863221e-09	2.506458e+01	1.215200e+02
1.710000e-06	3.546188e-06	1.899661e-09	2.545436e+01	1.240283e+02
1.720000e-06	3.599863e-06	1.937283e-09	2.583964e+01	1.264772e+02
1.730000e-06	3.652917e-06	1.972101e-09	2.622046e+01	1.288683e+02
1.740000e-06	3.705344e-06	2.004844e-09	2.659678e+01	1.312029e+02
1.750000e-06	3.757007e-06	2.038300e-09	2.696761e+01	1.334820e+02
1.760000e-06	3.807847e-06	2.072197e-09	2.733254e+01	1.357068e+02
1.770000e-06	3.857771e-06	2.104180e-09	2.769089e+01	1.378780e+02
1.780000e-06	3.906683e-06	2.134709e-09	2.804198e+01	1.399959e+02
1.790000e-06	3.954764e-06	2.163070e-09	2.838710e+01	1.420609e+02
1.800000e-06	4.002249e-06	2.189824e-09	2.872794e+01	1.440730e+02
1.810000e-06	4.049132e-06	2.217842e-09	2.906447e+01	1.460320e+02
1.820000e-06	4.095356e-06	2.247216e-09	2.939626e+01	1.479377e+02
1.830000e-06	4.140861e-06	2.275444e-09	2.972290e+01	1.497898e+02
1.840000e-06	4.185588e-06	2.301332e-09	3.004394e+01	1.515882e+02
1.850000e-06	4.229685e-06	2.325434e-09	3.036047e+01	1.533327e+02
1.860000e-06	4.273198e-06	2.350138e-09	3.067281e+01	1.550234e+02
1.870000e-06	4.316001e-06	2.375229e-09	3.098004e+01	1.566607e+02
1.880000e-06	4.357855e-06	2.398205e-09	3.128046e+01	1.582452e+02
1.890000e-06	4.398681e-06	2.418342e-09	3.157351e+01	1.597777e+02
1.900000e-06	4.438696e-06	2.437978e-09	3.186074e+01	1.612595e+02
1.910000e-06	4.478054e-06	2.458943e-09	3.214325e+01	1.626919e+02
1.920000e-06	4.516699e-06	2.479798e-09	3.242064e+01	1.640767e+02
1.930000e-06	4.554521e-06	2.500208e-09	3.269213e+01	1.654156e+02
1.940000e-06	4.591581e-06	2.521115e-09	3.295814e+01	1.667105e+02
1.950000e-06	4.627932e-06	2.540657e-09	3.321907e+01	1.679634e+02
1.960000e-06	4.663638e-06	2.557883e-09	3.347536e+01	1.691762e+02
1.970000e-06	4.698612e-06	2.576572e-09	3.372640e+01	1.703505e+02
1.980000e-06	4.732553e-06	2.595173e-09	3.397003e+01	1.714880e+02
1.990000e-06	4.765371e-06	2.610538e-09	3.420559e+01	1.725899e+02
2.000000e-06	4.797275e-06	2.624217e-09	3.443460e+01	1.736573e+02
2.010000e-06	4.828403e-06	2.640363e-09	3.465804e+01	1.746910e+02
2.020000e-06	4.858799e-06	2.658626e-09	3.487622e+01	1.756914e+02
2.030000e-06	4.888439e-06	2.674856e-09	3.508897e+01	1.766589e+02
2.040000e-06	4.917236e-06	2.688313e-09	3.529568e+01	1.775933e+02
2.050000e-06	4.945321e-06	2.701285e-09	3.549727e+01	1.784945e+02
2.060000e-06	4.972696e-06	2.716185e-09	3.569377e+01	1.793623e+02
2.070000e-06	4.999107e-06	2.731262e-09	3.588334e+01	1.801962e+02
2.080000e-06	5.024387e-06	2.744267e-09	3.606480e+01	1.809959e+02
2.090000e-06	5.048607e-06	2.754216e-09	3.623865e+01	1.817612e+02
2.100000e-06	5.071929e-06	2.764401e-09	3.640605e+01	1.824918e+02
2.110000e-06	5.094437e-06	2.777243e-09	3.656762e+01	1.831878e+02
2.120000e-06	5.116132e-06	2.789043e-09	3.672334e+01	1.838494e+02
2.130000e-06	5.136992e-06	2.798536e-09	3.687307e+01	1.844768e+02
2.140000e-06	5.157109e-06	2.807204e-09	3.701747e+01	1.850707e+02
2.150000e-06	5.176495e-06	2.815278e-09	3.715663e+01	1.856317e+02
2.160000e-06	5.194921e-06	2.823061e-09	3.728889e+01	1.861607e+02
2.170000e-06	5.212286e-06	2.831131e-09	3.741353e+01	1.866587e+02
2.180000e-06	5.228804e-06	2.836259e-09	3.753209e+01	1.871266e+02
2.190000e-06	5.244410e-06	2.840672e-09	3.764411e+01	1.875655e+02
2.200000e-06	5.258905e-06	2.848280e-09	3.774816e+01	1.879764e+02
2.210000e-06	5.272392e-06	2.857660e-09	3.784497e+01	1.883603e+02
2.220000e-06	5.284979e-06	2.865604e-09	3.793531e+01	1.887180e+02
2.230000e-06	5.296629e-06	2.868327e-09	3.801894e+01	1.890504e+02
2.240000e-06	5.307149e-06	2.871009e-09	3.809446e+01	1.893579e+02
2.250000e-06	5.316405e-06	2.877601e-09	3.816089e+01	1.896411e+02
2.260000e-06	5.324583e-06	2.884867e-09	3.821960e+01	1.899004e+02
2.270000e-06	5.331950e-06	2.888365e-09	3.827248e+01	1.901360e+02
2.280000e-06	5.338435e-06	2.891289e-09	3.831903e+01	1.903480e+02
2.290000e-06	5.343912e-06	2.895617e-09	3.835834e+01	1.905365e+02
2.300000e-06	5.348497e-06	2.899067e-09	3.839125e+01	1.907016e+02
2.310000e-06	5.352343e-06	2.901722e-09	3.841885e+01	1.908432e+02
2.320000e-06	5.355416e-06	2.903438e-09	3.844091e+01	1.909614e+02
2.330000e-06	5.357359e-06	2.904408e-09	3.845485e+01	1.910561e+02
2.340000e-06	5.358075e-06	2.906770e-09	3.846000e+01	1.911274e+02
2.350000e-06	5.357906e-06	2.909716e-09	3.845879e+01	1.911753e+02
2.360000e-06	5.356914e-06	2.910445e-09	3.845166e+01	1.911999e+02
2.370000e-06	5.355046e-06	2.911453e-09	3.843825e+01	1.912014e+02
2.380000e-06	5.352327e-06	2.912288e-09	3.841874e+01	1.911799e+02
2.390000e-06	5.348808e-06	2.912013e-09	3.839348e+01	1.911357e+02
2.400000e-06	5.344640e-06	2.910323e-09	3.836356e+01	1.910690e+02
2.410000e-06	5.339704e-06	2.906515e-09	3.832813e+01	1.909800e+02
2.420000e-06	5.333613e-06	2.900219e-09	3.828441e+01	1.908691e+02
2.430000e-06	5.326346e-06	2.887576e-09	3.823225e+01	1.907367e+02
2.440000e-06	5.318165e-06	2.897484e-09	3.817352e+01	1.905832e+02
2.450000e-06	5.308893e-06	2.904772e-09	3.810697e+01	1.904090e+02
2.460000e-06	5.298236e-06	2.916919e-09	3.803048e+01	1.902149e+02
2.470000e-06	5.286570e-06	2.879060e-09	3.794674e+01	1.900015e+02
2.480000e-06	5.274601e-06	2.858395e-09	3.786083e+01	1.897698e+02
2.490000e-06	5.262032e-06	2.915432e-09	3.777061e+01	1.895206e+02
2.500000e-06	5.247850e-06	2.863801e-09	3.766881e+01	1.892550e+02
2.510000e-06	5.232236e-06	2.842173e-09	3.755673e+01	1.889744e+02
2.520000e-06	5.216095e-06	2.889651e-09	3.744087e+01	1.886800e+02
2.530000e-06	5.199253e-06	2.838545e-09	3.731998e+01	1.883732e+02
2.540000e-06	5.181253e-06	2.823937e-09	3.719078e+01	1.880554e+02
2.550000e-06	5.162418e-06	2.892145e-09	3.705558e+01	1.877280e+02
2.560000e-06	5.142955e-06	2.840776e-09	3.691588e+01	1.873923e+02
2.570000e-06	5.122810e-06	2.781085e-09	3.677128e+01	1.870494e+02
2.580000e-06	5.101627e-06	2.868051e-09	3.661923e+01	1.867001e+02
2.590000e-06	5.079003e-06	2.853503e-09	3.645684e+01	1.863449e+02
2.600000e-06	5.055296e-06	2.757087e-09	3.628667e+01	1.859841e+02
2.610000e-06	5.030892e-06	2.770254e-09	3.611149e+01	1.856175e+02
2.620000e-06	5.005592e-06	2.802277e-09	3.592989e+01	1.852443e+02
2.630000e-06	4.979432e-06	2.832693e-09	3.574212e+01	1.848634e+02
2.640000e-06	4.952692e-06	2.817532e-09	3.555018e+01	1.844734e+02
2.650000e-06	4.925137e-06	2.739514e-09	3.535239e+01	1.840722e+02
2.660000e-06	4.896755e-06	2.741603e-09	3.514866e+01	1.836576e+02
2.670000e-06	4.867506e-06	2.800626e-09	3.493872e+01	1.832270e+02
2.680000e-06	4.836949e-06	2.804598e-09	3.471938e+01	1.827779e+02
2.690000e-06	4.805272e-06	2.779314e-09	3.449201e+01	1.823074e+02
2.700000e-06	4.772893e-06	2.734986e-09	3.425959e+01	1.818129e+02
2.710000e-06	4.739820e-06	2.728913e-09	3.402219e+01	1.812919e+02
2.720000e-06	4.705921e-06	2.794228e-09	3.377886e+01	1.807421e+02
2.730000e-06	4.671093e-06	2.783911e-09	3.352887e+01	1.801619e+02
2.740000e-06	4.635480e-06	2.712915e-09	3.327324e+01	1.795497e+02
2.750000e-06	4.599321e-06	2.681062e-09	3.301370e+01	1.789047e+02
2.760000e-06	4.562433e-06	2.704769e-09	3.274892e+01	1.782266e+02
2.770000e-06	4.524373e-06	2.750700e-09	3.247573e+01	1.775155e+02
2.780000e-06	4.485132e-06	2.707250e-09	3.219406e+01	1.767720e+02
2.790000e-06	4.445190e-06	2.634033e-09	3.190735e+01	1.759972e+02
2.800000e-06	4.404720e-06	2.634588e-09	3.161686e+01	1.751924e+02
2.810000e-06	4.363515e-06	2.663805e-09	3.132109e+01	1.743592e+02
2.820000e-06	4.321538e-06	2.676593e-09	3.101979e+01	1.734993e+02
2.830000e-06	4.278800e-06	2.619756e-09	3.071301e+01	1.726144e+02
2.840000e-06	4.235314e-06	2.573795e-09	3.040088e+01	1.717061e+02
2.850000e-06	4.191323e-06	2.589936e-09	3.008511e+01	1.707757e+02
2.860000e-06	4.146843e-06	2.598249e-09	2.976583e+01	1.698242e+02
2.870000e-06	4.101627e-06	2.588134e-09	2.944128e+01	1.688524e+02
2.880000e-06	4.055516e-06	2.541158e-09	2.911029e+01	1.678605e+02
2.890000e-06	4.008563e-06	2.509347e-09	2.877326e+01	1.668484e+02
2.900000e-06	3.960997e-06	2.524517e-09	2.843184e+01	1.658156e+02
2.910000e-06	3.912686e-06	2.525043e-09	2.808507e+01	1.647613e+02
2.920000e-06	3.863501e-06	2.497510e-09	2.773202e+01	1.636844e+02
2.930000e-06	3.813607e-06	2.450393e-09	2.737388e+01	1.625837e+02
2.940000e-06	3.763088e-06	2.434212e-09	2.701126e+01	1.614578e+02
