# Temperatura_=_20.0
# Concentracion g/m^3_=_12600.0
# C_Vs_to_Am_M_A/Vsm_=_65563218390.804596
# pendiente_HvsI_1/m_=_3716.3
# ordenada_HvsI_A/m_=_1297.0
# frecuencia_Hz_=_213062.87835405336

Tiempo_(s)	Campo_(V.s)	Magnetizacion_(V.s)	Campo_(kA/m)	Magnetizacion_(A/m)
0.000000e+00	-5.343663e-06	-2.928212e-09	-3.835700e+01	-1.927248e+02
1.000000e-08	-5.343584e-06	-2.927982e-09	-3.835643e+01	-1.927593e+02
2.000000e-08	-5.342579e-06	-2.929566e-09	-3.834921e+01	-1.927787e+02
3.000000e-08	-5.340265e-06	-2.927752e-09	-3.833261e+01	-1.927811e+02
4.000000e-08	-5.336907e-06	-2.923514e-09	-3.830850e+01	-1.927646e+02
5.000000e-08	-5.332896e-06	-2.919245e-09	-3.827971e+01	-1.927267e+02
6.000000e-08	-5.328097e-06	-2.918260e-09	-3.824526e+01	-1.926650e+02
7.000000e-08	-5.322324e-06	-2.916072e-09	-3.820382e+01	-1.925768e+02
8.000000e-08	-5.315610e-06	-2.912591e-09	-3.815563e+01	-1.924601e+02
9.000000e-08	-5.308079e-06	-2.933637e-09	-3.810157e+01	-1.923128e+02
1.000000e-07	-5.299463e-06	-2.939950e-09	-3.803972e+01	-1.921339e+02
1.100000e-07	-5.289311e-06	-2.924811e-09	-3.796686e+01	-1.919225e+02
1.200000e-07	-5.277947e-06	-2.860742e-09	-3.788528e+01	-1.916789e+02
1.300000e-07	-5.265826e-06	-2.878692e-09	-3.779828e+01	-1.914041e+02
1.400000e-07	-5.252874e-06	-2.973536e-09	-3.770531e+01	-1.910999e+02
1.500000e-07	-5.238926e-06	-2.902764e-09	-3.760519e+01	-1.907688e+02
1.600000e-07	-5.224123e-06	-2.846152e-09	-3.749893e+01	-1.904138e+02
1.700000e-07	-5.208316e-06	-2.916146e-09	-3.738547e+01	-1.900387e+02
1.800000e-07	-5.191166e-06	-2.854733e-09	-3.726236e+01	-1.896473e+02
1.900000e-07	-5.173126e-06	-2.823035e-09	-3.713287e+01	-1.892437e+02
2.000000e-07	-5.154529e-06	-2.954919e-09	-3.699939e+01	-1.888316e+02
2.100000e-07	-5.135074e-06	-2.865693e-09	-3.685973e+01	-1.884145e+02
2.200000e-07	-5.114646e-06	-2.772009e-09	-3.671310e+01	-1.879955e+02
2.300000e-07	-5.093392e-06	-2.941913e-09	-3.656054e+01	-1.875766e+02
2.400000e-07	-5.071306e-06	-2.951640e-09	-3.640201e+01	-1.871592e+02
2.500000e-07	-5.048332e-06	-2.816070e-09	-3.623710e+01	-1.867436e+02
2.600000e-07	-5.024547e-06	-2.848285e-09	-3.606637e+01	-1.863293e+02
2.700000e-07	-4.999847e-06	-2.892218e-09	-3.588907e+01	-1.859146e+02
2.800000e-07	-4.974154e-06	-2.862122e-09	-3.570465e+01	-1.854971e+02
2.900000e-07	-4.947450e-06	-2.844378e-09	-3.551296e+01	-1.850735e+02
3.000000e-07	-4.919814e-06	-2.824598e-09	-3.531459e+01	-1.846401e+02
3.100000e-07	-4.891393e-06	-2.830547e-09	-3.511058e+01	-1.841926e+02
3.200000e-07	-4.862115e-06	-2.834823e-09	-3.490043e+01	-1.837267e+02
3.300000e-07	-4.831965e-06	-2.801914e-09	-3.468401e+01	-1.832381e+02
3.400000e-07	-4.801022e-06	-2.808669e-09	-3.446190e+01	-1.827227e+02
3.500000e-07	-4.769416e-06	-2.795698e-09	-3.423503e+01	-1.821771e+02
3.600000e-07	-4.737108e-06	-2.749605e-09	-3.400312e+01	-1.815984e+02
3.700000e-07	-4.703823e-06	-2.766602e-09	-3.376420e+01	-1.809844e+02
3.800000e-07	-4.669397e-06	-2.772662e-09	-3.351709e+01	-1.803340e+02
3.900000e-07	-4.634017e-06	-2.736899e-09	-3.326313e+01	-1.796468e+02
4.000000e-07	-4.597908e-06	-2.718648e-09	-3.300394e+01	-1.789233e+02
4.100000e-07	-4.561040e-06	-2.720605e-09	-3.273930e+01	-1.781648e+02
4.200000e-07	-4.523385e-06	-2.731909e-09	-3.246901e+01	-1.773734e+02
4.300000e-07	-4.484931e-06	-2.704615e-09	-3.219298e+01	-1.765513e+02
4.400000e-07	-4.445726e-06	-2.669685e-09	-3.191157e+01	-1.757016e+02
4.500000e-07	-4.405966e-06	-2.672805e-09	-3.162617e+01	-1.748271e+02
4.600000e-07	-4.365659e-06	-2.680869e-09	-3.133685e+01	-1.739307e+02
4.700000e-07	-4.324389e-06	-2.659716e-09	-3.104061e+01	-1.730150e+02
4.800000e-07	-4.281938e-06	-2.613740e-09	-3.073590e+01	-1.720825e+02
4.900000e-07	-4.238522e-06	-2.604694e-09	-3.042425e+01	-1.711347e+02
5.000000e-07	-4.194440e-06	-2.617777e-09	-3.010783e+01	-1.701729e+02
5.100000e-07	-4.149749e-06	-2.606246e-09	-2.978704e+01	-1.691976e+02
5.200000e-07	-4.104300e-06	-2.577650e-09	-2.946080e+01	-1.682086e+02
5.300000e-07	-4.058128e-06	-2.544213e-09	-2.912938e+01	-1.672052e+02
5.400000e-07	-4.011238e-06	-2.541480e-09	-2.879280e+01	-1.661860e+02
5.500000e-07	-3.963665e-06	-2.550461e-09	-2.845132e+01	-1.651494e+02
5.600000e-07	-3.915426e-06	-2.522939e-09	-2.810506e+01	-1.640933e+02
5.700000e-07	-3.866334e-06	-2.480969e-09	-2.775268e+01	-1.630156e+02
5.800000e-07	-3.816164e-06	-2.462405e-09	-2.739255e+01	-1.619141e+02
5.900000e-07	-3.764945e-06	-2.478149e-09	-2.702490e+01	-1.607867e+02
6.000000e-07	-3.712985e-06	-2.466390e-09	-2.665193e+01	-1.596316e+02
6.100000e-07	-3.660445e-06	-2.415898e-09	-2.627480e+01	-1.584475e+02
6.200000e-07	-3.607242e-06	-2.391702e-09	-2.589290e+01	-1.572331e+02
6.300000e-07	-3.553352e-06	-2.397966e-09	-2.550608e+01	-1.559881e+02
6.400000e-07	-3.498843e-06	-2.393933e-09	-2.511481e+01	-1.547122e+02
6.500000e-07	-3.443747e-06	-2.355623e-09	-2.471933e+01	-1.534059e+02
6.600000e-07	-3.388154e-06	-2.319505e-09	-2.432029e+01	-1.520698e+02
6.700000e-07	-3.332097e-06	-2.313637e-09	-2.391790e+01	-1.507050e+02
6.800000e-07	-3.275377e-06	-2.305578e-09	-2.351077e+01	-1.493127e+02
6.900000e-07	-3.217916e-06	-2.276200e-09	-2.309831e+01	-1.478942e+02
7.000000e-07	-3.159668e-06	-2.236253e-09	-2.268020e+01	-1.464508e+02
7.100000e-07	-3.100631e-06	-2.216824e-09	-2.225643e+01	-1.449837e+02
7.200000e-07	-3.041105e-06	-2.212021e-09	-2.182916e+01	-1.434939e+02
7.300000e-07	-2.981212e-06	-2.185613e-09	-2.139924e+01	-1.419822e+02
7.400000e-07	-2.920876e-06	-2.149065e-09	-2.096615e+01	-1.404488e+02
7.500000e-07	-2.860075e-06	-2.124908e-09	-2.052971e+01	-1.388939e+02
7.600000e-07	-2.798751e-06	-2.112939e-09	-2.008953e+01	-1.373170e+02
7.700000e-07	-2.736932e-06	-2.089538e-09	-1.964579e+01	-1.357177e+02
7.800000e-07	-2.674664e-06	-2.050745e-09	-1.919883e+01	-1.340948e+02
7.900000e-07	-2.611929e-06	-2.020952e-09	-1.874851e+01	-1.324473e+02
8.000000e-07	-2.548771e-06	-1.999002e-09	-1.829516e+01	-1.307739e+02
8.100000e-07	-2.485232e-06	-1.976965e-09	-1.783908e+01	-1.290732e+02
8.200000e-07	-2.421338e-06	-1.949160e-09	-1.738045e+01	-1.273439e+02
8.300000e-07	-2.357092e-06	-1.917206e-09	-1.691928e+01	-1.255846e+02
8.400000e-07	-2.292477e-06	-1.890570e-09	-1.645548e+01	-1.237943e+02
8.500000e-07	-2.227352e-06	-1.864078e-09	-1.598801e+01	-1.219721e+02
8.600000e-07	-2.161649e-06	-1.837638e-09	-1.551639e+01	-1.201174e+02
8.700000e-07	-2.095419e-06	-1.807459e-09	-1.504099e+01	-1.182297e+02
8.800000e-07	-2.028665e-06	-1.771832e-09	-1.456183e+01	-1.163090e+02
8.900000e-07	-1.961470e-06	-1.737690e-09	-1.407950e+01	-1.143555e+02
9.000000e-07	-1.893951e-06	-1.706850e-09	-1.359484e+01	-1.123694e+02
9.100000e-07	-1.826235e-06	-1.680889e-09	-1.310877e+01	-1.103514e+02
9.200000e-07	-1.758365e-06	-1.649553e-09	-1.262160e+01	-1.083021e+02
9.300000e-07	-1.690274e-06	-1.610809e-09	-1.213285e+01	-1.062223e+02
9.400000e-07	-1.621884e-06	-1.576700e-09	-1.164194e+01	-1.041129e+02
9.500000e-07	-1.553133e-06	-1.549690e-09	-1.114844e+01	-1.019745e+02
9.600000e-07	-1.484109e-06	-1.522537e-09	-1.065298e+01	-9.980781e+01
9.700000e-07	-1.414917e-06	-1.482878e-09	-1.015632e+01	-9.761347e+01
9.800000e-07	-1.345555e-06	-1.438499e-09	-9.658441e+00	-9.539188e+01
9.900000e-07	-1.275916e-06	-1.406277e-09	-9.158570e+00	-9.314334e+01
1.000000e-06	-1.205997e-06	-1.380421e-09	-8.656686e+00	-9.086794e+01
1.010000e-06	-1.135872e-06	-1.346290e-09	-8.153330e+00	-8.856566e+01
1.020000e-06	-1.065502e-06	-1.301548e-09	-7.648207e+00	-8.623629e+01
1.030000e-06	-9.949900e-07	-1.263572e-09	-7.142072e+00	-8.387952e+01
1.040000e-06	-9.243308e-07	-1.236084e-09	-6.634878e+00	-8.149490e+01
1.050000e-06	-8.534431e-07	-1.203094e-09	-6.126044e+00	-7.908191e+01
1.060000e-06	-7.823650e-07	-1.159665e-09	-5.615843e+00	-7.663998e+01
1.070000e-06	-7.111882e-07	-1.113666e-09	-5.104933e+00	-7.416848e+01
1.080000e-06	-6.399461e-07	-1.074856e-09	-4.593555e+00	-7.166677e+01
1.090000e-06	-5.686061e-07	-1.040381e-09	-4.081474e+00	-6.913423e+01
1.100000e-06	-4.972094e-07	-1.000405e-09	-3.568986e+00	-6.657025e+01
1.110000e-06	-4.257670e-07	-9.564246e-10	-3.056170e+00	-6.397423e+01
1.120000e-06	-3.542693e-07	-9.125461e-10	-2.542957e+00	-6.134564e+01
1.130000e-06	-2.827105e-07	-8.738154e-10	-2.029306e+00	-5.868398e+01
1.140000e-06	-2.111118e-07	-8.376789e-10	-1.515368e+00	-5.598881e+01
1.150000e-06	-1.395099e-07	-7.971701e-10	-1.001406e+00	-5.325974e+01
1.160000e-06	-6.788231e-08	-7.519064e-10	-4.872615e-01	-5.049643e+01
1.170000e-06	3.750461e-09	-7.035682e-10	2.692094e-02	-4.769863e+01
1.180000e-06	7.535039e-08	-6.604284e-10	5.408676e-01	-4.486613e+01
1.190000e-06	1.469192e-07	-6.209409e-10	1.054591e+00	-4.199881e+01
1.200000e-06	2.184646e-07	-5.761115e-10	1.568146e+00	-3.909661e+01
1.210000e-06	2.900362e-07	-5.275014e-10	2.081890e+00	-3.615956e+01
1.220000e-06	3.615645e-07	-4.789082e-10	2.595322e+00	-3.318774e+01
1.230000e-06	4.330310e-07	-4.330187e-10	3.108311e+00	-3.018136e+01
1.240000e-06	5.044440e-07	-3.851458e-10	3.620916e+00	-2.714065e+01
1.250000e-06	5.757791e-07	-3.329682e-10	4.132962e+00	-2.406594e+01
1.260000e-06	6.470239e-07	-2.828010e-10	4.644360e+00	-2.095764e+01
1.270000e-06	7.181462e-07	-2.340778e-10	5.154878e+00	-1.781620e+01
1.280000e-06	7.891752e-07	-1.867740e-10	5.664726e+00	-1.464214e+01
1.290000e-06	8.600928e-07	-1.376929e-10	6.173775e+00	-1.143600e+01
1.300000e-06	9.308825e-07	-8.509668e-11	6.681906e+00	-8.198384e+00
1.310000e-06	1.001459e-06	-3.311299e-11	7.188509e+00	-4.929939e+00
1.320000e-06	1.071827e-06	1.573270e-11	7.693613e+00	-1.631345e+00
1.330000e-06	1.142000e-06	6.269699e-11	8.197315e+00	1.696665e+00
1.340000e-06	1.211907e-06	1.138574e-10	8.699112e+00	5.053288e+00
1.350000e-06	1.281635e-06	1.684353e-10	9.199622e+00	8.437633e+00
1.360000e-06	1.351183e-06	2.219740e-10	9.698838e+00	1.184869e+01
1.370000e-06	1.420481e-06	2.748960e-10	1.019626e+01	1.528529e+01
1.380000e-06	1.489535e-06	3.280181e-10	1.069193e+01	1.874609e+01
1.390000e-06	1.558268e-06	3.843396e-10	1.118530e+01	2.222949e+01
1.400000e-06	1.626639e-06	4.412046e-10	1.167607e+01	2.573363e+01
1.410000e-06	1.694775e-06	4.970197e-10	1.216515e+01	2.925634e+01
1.420000e-06	1.762728e-06	5.507987e-10	1.265292e+01	3.279508e+01
1.430000e-06	1.830478e-06	6.021030e-10	1.313923e+01	3.634696e+01
1.440000e-06	1.898051e-06	6.557455e-10	1.362428e+01	3.990873e+01
1.450000e-06	1.965373e-06	7.121869e-10	1.410751e+01	4.347672e+01
1.460000e-06	2.032304e-06	7.684303e-10	1.458795e+01	4.704694e+01
1.470000e-06	2.098760e-06	8.223866e-10	1.506497e+01	5.061507e+01
1.480000e-06	2.164619e-06	8.759883e-10	1.553771e+01	5.417652e+01
1.490000e-06	2.229842e-06	9.323840e-10	1.600588e+01	5.772649e+01
1.500000e-06	2.294547e-06	9.902562e-10	1.647033e+01	6.126008e+01
1.510000e-06	2.358840e-06	1.044919e-09	1.693183e+01	6.477233e+01
1.520000e-06	2.422819e-06	1.095925e-09	1.739107e+01	6.825837e+01
1.530000e-06	2.486490e-06	1.146319e-09	1.784811e+01	7.171345e+01
1.540000e-06	2.549751e-06	1.199837e-09	1.830220e+01	7.513310e+01
1.550000e-06	2.612587e-06	1.252799e-09	1.875324e+01	7.851315e+01
1.560000e-06	2.675049e-06	1.304497e-09	1.920159e+01	8.184986e+01
1.570000e-06	2.737107e-06	1.356062e-09	1.964704e+01	8.513991e+01
1.580000e-06	2.798726e-06	1.405375e-09	2.008935e+01	8.838050e+01
1.590000e-06	2.859895e-06	1.453572e-09	2.052842e+01	9.156931e+01
1.600000e-06	2.920547e-06	1.499802e-09	2.096378e+01	9.470454e+01
1.610000e-06	2.980729e-06	1.544525e-09	2.139577e+01	9.778486e+01
1.620000e-06	3.040563e-06	1.588921e-09	2.182526e+01	1.008094e+02
1.630000e-06	3.099971e-06	1.632976e-09	2.225170e+01	1.037775e+02
1.640000e-06	3.158644e-06	1.676422e-09	2.267285e+01	1.066892e+02
1.650000e-06	3.216452e-06	1.718912e-09	2.308780e+01	1.095443e+02
1.660000e-06	3.273482e-06	1.762443e-09	2.349716e+01	1.123431e+02
1.670000e-06	3.329898e-06	1.806794e-09	2.390212e+01	1.150860e+02
1.680000e-06	3.385814e-06	1.848376e-09	2.430348e+01	1.177731e+02
1.690000e-06	3.441206e-06	1.886583e-09	2.470109e+01	1.204049e+02
1.700000e-06	3.496003e-06	1.922325e-09	2.509443e+01	1.229817e+02
1.710000e-06	3.550217e-06	1.958843e-09	2.548358e+01	1.255035e+02
1.720000e-06	3.603884e-06	1.996160e-09	2.586880e+01	1.279705e+02
1.730000e-06	3.656890e-06	2.030827e-09	2.624928e+01	1.303827e+02
1.740000e-06	3.709213e-06	2.062958e-09	2.662486e+01	1.327399e+02
1.750000e-06	3.760781e-06	2.096638e-09	2.699501e+01	1.350422e+02
1.760000e-06	3.811492e-06	2.132863e-09	2.735902e+01	1.372893e+02
1.770000e-06	3.861248e-06	2.166108e-09	2.771617e+01	1.394812e+02
1.780000e-06	3.910029e-06	2.197232e-09	2.806632e+01	1.416179e+02
1.790000e-06	3.958088e-06	2.228117e-09	2.841129e+01	1.436993e+02
1.800000e-06	4.005569e-06	2.258136e-09	2.875211e+01	1.457258e+02
1.810000e-06	4.052425e-06	2.287643e-09	2.908844e+01	1.476976e+02
1.820000e-06	4.098585e-06	2.315818e-09	2.941978e+01	1.496153e+02
1.830000e-06	4.143965e-06	2.342513e-09	2.974552e+01	1.514794e+02
1.840000e-06	4.188580e-06	2.368356e-09	3.006577e+01	1.532906e+02
1.850000e-06	4.232633e-06	2.393517e-09	3.038199e+01	1.550500e+02
1.860000e-06	4.276235e-06	2.419203e-09	3.069496e+01	1.567583e+02
1.870000e-06	4.319145e-06	2.445878e-09	3.100297e+01	1.584166e+02
1.880000e-06	4.360990e-06	2.470442e-09	3.130334e+01	1.600258e+02
1.890000e-06	4.401743e-06	2.491875e-09	3.159586e+01	1.615870e+02
1.900000e-06	4.441722e-06	2.514065e-09	3.188283e+01	1.631011e+02
1.910000e-06	4.480998e-06	2.538577e-09	3.216476e+01	1.645690e+02
1.920000e-06	4.519523e-06	2.559720e-09	3.244129e+01	1.659916e+02
1.930000e-06	4.557334e-06	2.577615e-09	3.271270e+01	1.673697e+02
1.940000e-06	4.594369e-06	2.597378e-09	3.297853e+01	1.687040e+02
1.950000e-06	4.630683e-06	2.618512e-09	3.323920e+01	1.699954e+02
1.960000e-06	4.666468e-06	2.637592e-09	3.349606e+01	1.712444e+02
1.970000e-06	4.701461e-06	2.654746e-09	3.374724e+01	1.724520e+02
1.980000e-06	4.735315e-06	2.671704e-09	3.399025e+01	1.736189e+02
1.990000e-06	4.768073e-06	2.689261e-09	3.422539e+01	1.747459e+02
2.000000e-06	4.799933e-06	2.706765e-09	3.445408e+01	1.758340e+02
2.010000e-06	4.831016e-06	2.723866e-09	3.467720e+01	1.768842e+02
2.020000e-06	4.861395e-06	2.739680e-09	3.489526e+01	1.778976e+02
2.030000e-06	4.891051e-06	2.754440e-09	3.510813e+01	1.788751e+02
2.040000e-06	4.919835e-06	2.770559e-09	3.531474e+01	1.798180e+02
2.050000e-06	4.947899e-06	2.786134e-09	3.551619e+01	1.807272e+02
2.060000e-06	4.975294e-06	2.800750e-09	3.571283e+01	1.816036e+02
2.070000e-06	5.001680e-06	2.813923e-09	3.590223e+01	1.824482e+02
2.080000e-06	5.026841e-06	2.826228e-09	3.608284e+01	1.832614e+02
2.090000e-06	5.050968e-06	2.837564e-09	3.625602e+01	1.840438e+02
2.100000e-06	5.074225e-06	2.847523e-09	3.642296e+01	1.847954e+02
2.110000e-06	5.096577e-06	2.858232e-09	3.658340e+01	1.855162e+02
2.120000e-06	5.118067e-06	2.868104e-09	3.673766e+01	1.862058e+02
2.130000e-06	5.138795e-06	2.878144e-09	3.688644e+01	1.868636e+02
2.140000e-06	5.158829e-06	2.888838e-09	3.703025e+01	1.874888e+02
2.150000e-06	5.178046e-06	2.897981e-09	3.716819e+01	1.880806e+02
2.160000e-06	5.196314e-06	2.906505e-09	3.729931e+01	1.886380e+02
2.170000e-06	5.213672e-06	2.914776e-09	3.742392e+01	1.891601e+02
2.180000e-06	5.230129e-06	2.922349e-09	3.754204e+01	1.896462e+02
2.190000e-06	5.245577e-06	2.930462e-09	3.765293e+01	1.900956e+02
2.200000e-06	5.259952e-06	2.939074e-09	3.775611e+01	1.905084e+02
2.210000e-06	5.273386e-06	2.946718e-09	3.785254e+01	1.908845e+02
2.220000e-06	5.285954e-06	2.952537e-09	3.794276e+01	1.912246e+02
2.230000e-06	5.297545e-06	2.955667e-09	3.802595e+01	1.915298e+02
2.240000e-06	5.307950e-06	2.960073e-09	3.810065e+01	1.918016e+02
2.250000e-06	5.317047e-06	2.966355e-09	3.816594e+01	1.920418e+02
2.260000e-06	5.325110e-06	2.972330e-09	3.822382e+01	1.922527e+02
2.270000e-06	5.332343e-06	2.977103e-09	3.827574e+01	1.924367e+02
2.280000e-06	5.338707e-06	2.981721e-09	3.832142e+01	1.925964e+02
2.290000e-06	5.344149e-06	2.985575e-09	3.836048e+01	1.927345e+02
2.300000e-06	5.348740e-06	2.989264e-09	3.839343e+01	1.928533e+02
2.310000e-06	5.352613e-06	2.992272e-09	3.842124e+01	1.929549e+02
2.320000e-06	5.355627e-06	2.993324e-09	3.844287e+01	1.930411e+02
2.330000e-06	5.357425e-06	2.994723e-09	3.845578e+01	1.931131e+02
2.340000e-06	5.358013e-06	2.996126e-09	3.846000e+01	1.931714e+02
2.350000e-06	5.357776e-06	2.998330e-09	3.845830e+01	1.932160e+02
2.360000e-06	5.356779e-06	2.998011e-09	3.845114e+01	1.932462e+02
2.370000e-06	5.354936e-06	2.997277e-09	3.843791e+01	1.932608e+02
2.380000e-06	5.352168e-06	2.997748e-09	3.841805e+01	1.932579e+02
2.390000e-06	5.348548e-06	2.998537e-09	3.839206e+01	1.932354e+02
2.400000e-06	5.344228e-06	2.999255e-09	3.836105e+01	1.931907e+02
2.410000e-06	5.339115e-06	2.998388e-09	3.832435e+01	1.931214e+02
2.420000e-06	5.332937e-06	3.003170e-09	3.828000e+01	1.930250e+02
2.430000e-06	5.325606e-06	2.974709e-09	3.822738e+01	1.928994e+02
2.440000e-06	5.317296e-06	2.959064e-09	3.816773e+01	1.927429e+02
2.450000e-06	5.307853e-06	2.967119e-09	3.809995e+01	1.925543e+02
2.460000e-06	5.297054e-06	3.030508e-09	3.802243e+01	1.923333e+02
2.470000e-06	5.285333e-06	3.023712e-09	3.793830e+01	1.920804e+02
2.480000e-06	5.273364e-06	2.917696e-09	3.785239e+01	1.917967e+02
2.490000e-06	5.260690e-06	2.973414e-09	3.776141e+01	1.914842e+02
2.500000e-06	5.246321e-06	3.042522e-09	3.765827e+01	1.911456e+02
2.510000e-06	5.230657e-06	2.931559e-09	3.754583e+01	1.907844e+02
2.520000e-06	5.214482e-06	2.985529e-09	3.742973e+01	1.904041e+02
2.530000e-06	5.197510e-06	3.032785e-09	3.730790e+01	1.900087e+02
2.540000e-06	5.179464e-06	2.860291e-09	3.717837e+01	1.896022e+02
2.550000e-06	5.160639e-06	2.927124e-09	3.704324e+01	1.891884e+02
2.560000e-06	5.141146e-06	3.012313e-09	3.690332e+01	1.887706e+02
2.570000e-06	5.120893e-06	2.801292e-09	3.675795e+01	1.883515e+02
2.580000e-06	5.099553e-06	2.734751e-09	3.660476e+01	1.879331e+02
2.590000e-06	5.076820e-06	2.878457e-09	3.644159e+01	1.875164e+02
2.600000e-06	5.053071e-06	2.811491e-09	3.627112e+01	1.871014e+02
2.610000e-06	5.028601e-06	2.740211e-09	3.609547e+01	1.866873e+02
2.620000e-06	5.003222e-06	2.804359e-09	3.591330e+01	1.862722e+02
2.630000e-06	4.977017e-06	2.790108e-09	3.572520e+01	1.858533e+02
2.640000e-06	4.950158e-06	2.792827e-09	3.553240e+01	1.854274e+02
2.650000e-06	4.922504e-06	2.761467e-09	3.533390e+01	1.849903e+02
2.660000e-06	4.894057e-06	2.737101e-09	3.512971e+01	1.845378e+02
2.670000e-06	4.864617e-06	2.818929e-09	3.491838e+01	1.840657e+02
2.680000e-06	4.833902e-06	2.736760e-09	3.469791e+01	1.835695e+02
2.690000e-06	4.802131e-06	2.709754e-09	3.446986e+01	1.830456e+02
2.700000e-06	4.769593e-06	2.796858e-09	3.423630e+01	1.824904e+02
2.710000e-06	4.736390e-06	2.714995e-09	3.399797e+01	1.819014e+02
2.720000e-06	4.702430e-06	2.682247e-09	3.375420e+01	1.812767e+02
2.730000e-06	4.667539e-06	2.703071e-09	3.350376e+01	1.806153e+02
2.740000e-06	4.631860e-06	2.697683e-09	3.324765e+01	1.799173e+02
2.750000e-06	4.595626e-06	2.698690e-09	3.298756e+01	1.791832e+02
2.760000e-06	4.558660e-06	2.628000e-09	3.272222e+01	1.784147e+02
2.770000e-06	4.520613e-06	2.640253e-09	3.244911e+01	1.776139e+02
2.780000e-06	4.481452e-06	2.676274e-09	3.216802e+01	1.767834e+02
2.790000e-06	4.441490e-06	2.626512e-09	3.188117e+01	1.759260e+02
2.800000e-06	4.400852e-06	2.601042e-09	3.158947e+01	1.750448e+02
2.810000e-06	4.359504e-06	2.585416e-09	3.129267e+01	1.741425e+02
2.820000e-06	4.317440e-06	2.607334e-09	3.099073e+01	1.732216e+02
2.830000e-06	4.274626e-06	2.591939e-09	3.068341e+01	1.722845e+02
2.840000e-06	4.231089e-06	2.536452e-09	3.037090e+01	1.713325e+02
2.850000e-06	4.187019e-06	2.537134e-09	3.005456e+01	1.703667e+02
2.860000e-06	4.142484e-06	2.529841e-09	2.973489e+01	1.693875e+02
2.870000e-06	4.097198e-06	2.525391e-09	2.940982e+01	1.683944e+02
2.880000e-06	4.050971e-06	2.501467e-09	2.907801e+01	1.673865e+02
2.890000e-06	4.003966e-06	2.462838e-09	2.874060e+01	1.663624e+02
2.900000e-06	3.956354e-06	2.471740e-09	2.839884e+01	1.653203e+02
2.910000e-06	3.908027e-06	2.469503e-09	2.805195e+01	1.642581e+02
2.920000e-06	3.858815e-06	2.442427e-09	2.769870e+01	1.631736e+02
2.930000e-06	3.808839e-06	2.395516e-09	2.733997e+01	1.620646e+02
2.940000e-06	3.758218e-06	2.381487e-09	2.697662e+01	1.609292e+02
