# Temperatura_=_20.0
# Concentracion g/m^3_=_9000.0
# C_Vs_to_Am_M_A/Vsm_=_65563218390.804596
# pendiente_HvsI_1/m_=_3716.3
# ordenada_HvsI_A/m_=_1297.0
# frecuencia_Hz_=_212890.2918988388
# Promedio de 25 ciclos

Tiempo_(s)	Campo_(V.s)	Magnetizacion_(V.s)	Campo_(kA/m)	Magnetizacion_(A/m)
0.000000e+00	-5.288420e-09	-3.972105e-09	-1.666637e+00	-2.609104e+02
1.000000e-08	-5.287904e-09	-3.972098e-09	-1.666474e+00	-2.609081e+02
2.000000e-08	-5.286229e-09	-3.971594e-09	-1.665946e+00	-2.608943e+02
3.000000e-08	-5.283415e-09	-3.970981e-09	-1.665059e+00	-2.608688e+02
4.000000e-08	-5.279774e-09	-3.970321e-09	-1.663912e+00	-2.608316e+02
5.000000e-08	-5.275396e-09	-3.969684e-09	-1.662532e+00	-2.607826e+02
6.000000e-08	-5.270184e-09	-3.968094e-09	-1.660889e+00	-2.607216e+02
7.000000e-08	-5.264081e-09	-3.963688e-09	-1.658966e+00	-2.606482e+02
8.000000e-08	-5.257114e-09	-3.964223e-09	-1.656770e+00	-2.605623e+02
9.000000e-08	-5.249285e-09	-3.974084e-09	-1.654303e+00	-2.604636e+02
1.000000e-07	-5.240283e-09	-3.999561e-09	-1.651466e+00	-2.603517e+02
1.100000e-07	-5.229882e-09	-3.995327e-09	-1.648188e+00	-2.602263e+02
1.200000e-07	-5.218382e-09	-3.951224e-09	-1.644564e+00	-2.600869e+02
1.300000e-07	-5.206068e-09	-3.900063e-09	-1.640683e+00	-2.599330e+02
1.400000e-07	-5.192889e-09	-3.925577e-09	-1.636530e+00	-2.597641e+02
1.500000e-07	-5.178844e-09	-3.989989e-09	-1.632103e+00	-2.595792e+02
1.600000e-07	-5.163905e-09	-3.971920e-09	-1.627395e+00	-2.593777e+02
1.700000e-07	-5.147766e-09	-3.907004e-09	-1.622309e+00	-2.591586e+02
1.800000e-07	-5.130453e-09	-3.897274e-09	-1.616853e+00	-2.589208e+02
1.900000e-07	-5.112480e-09	-3.934226e-09	-1.611189e+00	-2.586631e+02
2.000000e-07	-5.093938e-09	-3.949060e-09	-1.605345e+00	-2.583843e+02
2.100000e-07	-5.074471e-09	-3.960336e-09	-1.599210e+00	-2.580833e+02
2.200000e-07	-5.054097e-09	-3.894117e-09	-1.592789e+00	-2.577588e+02
2.300000e-07	-5.033030e-09	-3.872404e-09	-1.586150e+00	-2.574098e+02
2.400000e-07	-5.011126e-09	-3.971578e-09	-1.579247e+00	-2.570354e+02
2.500000e-07	-4.988277e-09	-3.987158e-09	-1.572046e+00	-2.566349e+02
2.600000e-07	-4.964622e-09	-3.895584e-09	-1.564591e+00	-2.562080e+02
2.700000e-07	-4.940148e-09	-3.872202e-09	-1.556878e+00	-2.557547e+02
2.800000e-07	-4.914668e-09	-3.924554e-09	-1.548848e+00	-2.552752e+02
2.900000e-07	-4.888071e-09	-3.936247e-09	-1.540466e+00	-2.547703e+02
3.000000e-07	-4.860515e-09	-3.917578e-09	-1.531782e+00	-2.542411e+02
3.100000e-07	-4.832173e-09	-3.857901e-09	-1.522850e+00	-2.536889e+02
3.200000e-07	-4.802977e-09	-3.838408e-09	-1.513649e+00	-2.531156e+02
3.300000e-07	-4.772891e-09	-3.895731e-09	-1.504167e+00	-2.525229e+02
3.400000e-07	-4.742049e-09	-3.899894e-09	-1.494447e+00	-2.519129e+02
3.500000e-07	-4.710516e-09	-3.839016e-09	-1.484510e+00	-2.512876e+02
3.600000e-07	-4.678210e-09	-3.803778e-09	-1.474329e+00	-2.506490e+02
3.700000e-07	-4.645044e-09	-3.822663e-09	-1.463876e+00	-2.499987e+02
3.800000e-07	-4.610859e-09	-3.853384e-09	-1.453103e+00	-2.493381e+02
3.900000e-07	-4.575595e-09	-3.830210e-09	-1.441989e+00	-2.486683e+02
4.000000e-07	-4.539500e-09	-3.767973e-09	-1.430614e+00	-2.479898e+02
4.100000e-07	-4.502771e-09	-3.763520e-09	-1.419039e+00	-2.473027e+02
4.200000e-07	-4.465265e-09	-3.805009e-09	-1.407219e+00	-2.466064e+02
4.300000e-07	-4.426844e-09	-3.800525e-09	-1.395111e+00	-2.459001e+02
4.400000e-07	-4.387690e-09	-3.739645e-09	-1.382771e+00	-2.451822e+02
4.500000e-07	-4.348040e-09	-3.716017e-09	-1.370276e+00	-2.444510e+02
4.600000e-07	-4.307782e-09	-3.739523e-09	-1.357589e+00	-2.437044e+02
4.700000e-07	-4.266579e-09	-3.744314e-09	-1.344603e+00	-2.429402e+02
4.800000e-07	-4.224288e-09	-3.714501e-09	-1.331275e+00	-2.421560e+02
4.900000e-07	-4.181098e-09	-3.669325e-09	-1.317664e+00	-2.413497e+02
5.000000e-07	-4.137260e-09	-3.664257e-09	-1.303849e+00	-2.405191e+02
5.100000e-07	-4.092836e-09	-3.685662e-09	-1.289848e+00	-2.396625e+02
5.200000e-07	-4.047754e-09	-3.665947e-09	-1.275641e+00	-2.387784e+02
5.300000e-07	-4.001916e-09	-3.621041e-09	-1.261195e+00	-2.378659e+02
5.400000e-07	-3.955343e-09	-3.601608e-09	-1.246517e+00	-2.369241e+02
5.500000e-07	-3.908177e-09	-3.610121e-09	-1.231653e+00	-2.359530e+02
5.600000e-07	-3.860450e-09	-3.606993e-09	-1.216612e+00	-2.349524e+02
5.700000e-07	-3.811954e-09	-3.575590e-09	-1.201329e+00	-2.339229e+02
5.800000e-07	-3.762464e-09	-3.540719e-09	-1.185732e+00	-2.328650e+02
5.900000e-07	-3.711987e-09	-3.528526e-09	-1.169824e+00	-2.317791e+02
6.000000e-07	-3.660669e-09	-3.536749e-09	-1.153651e+00	-2.306659e+02
6.100000e-07	-3.608591e-09	-3.516551e-09	-1.137239e+00	-2.295258e+02
6.200000e-07	-3.555809e-09	-3.472722e-09	-1.120605e+00	-2.283589e+02
6.300000e-07	-3.502404e-09	-3.457957e-09	-1.103774e+00	-2.271650e+02
6.400000e-07	-3.448389e-09	-3.458957e-09	-1.086751e+00	-2.259435e+02
6.500000e-07	-3.393744e-09	-3.441542e-09	-1.069530e+00	-2.246936e+02
6.600000e-07	-3.338555e-09	-3.405976e-09	-1.052137e+00	-2.234140e+02
6.700000e-07	-3.282936e-09	-3.377258e-09	-1.034609e+00	-2.221028e+02
6.800000e-07	-3.226856e-09	-3.365081e-09	-1.016936e+00	-2.207582e+02
6.900000e-07	-3.170088e-09	-3.351087e-09	-9.990452e-01	-2.193782e+02
7.000000e-07	-3.112406e-09	-3.323972e-09	-9.808668e-01	-2.179604e+02
7.100000e-07	-3.053865e-09	-3.288804e-09	-9.624177e-01	-2.165027e+02
7.200000e-07	-2.994737e-09	-3.266471e-09	-9.437835e-01	-2.150030e+02
7.300000e-07	-2.935213e-09	-3.255213e-09	-9.250247e-01	-2.134597e+02
7.400000e-07	-2.875281e-09	-3.230462e-09	-9.061373e-01	-2.118711e+02
7.500000e-07	-2.814854e-09	-3.195611e-09	-8.870936e-01	-2.102362e+02
7.600000e-07	-2.753921e-09	-3.166722e-09	-8.678906e-01	-2.085542e+02
7.700000e-07	-2.692556e-09	-3.146486e-09	-8.485515e-01	-2.068245e+02
7.800000e-07	-2.630778e-09	-3.122047e-09	-8.290823e-01	-2.050471e+02
7.900000e-07	-2.568533e-09	-3.086843e-09	-8.094658e-01	-2.032219e+02
8.000000e-07	-2.505815e-09	-3.054779e-09	-7.897003e-01	-2.013491e+02
8.100000e-07	-2.442707e-09	-3.031784e-09	-7.698120e-01	-1.994287e+02
8.200000e-07	-2.379288e-09	-3.008890e-09	-7.498253e-01	-1.974605e+02
8.300000e-07	-2.315551e-09	-2.972598e-09	-7.297388e-01	-1.954440e+02
8.400000e-07	-2.251475e-09	-2.930513e-09	-7.095454e-01	-1.933782e+02
8.500000e-07	-2.187073e-09	-2.900255e-09	-6.892490e-01	-1.912617e+02
8.600000e-07	-2.122319e-09	-2.872020e-09	-6.688419e-01	-1.890922e+02
8.700000e-07	-2.057094e-09	-2.834444e-09	-6.482865e-01	-1.868671e+02
8.800000e-07	-1.991266e-09	-2.791268e-09	-6.275411e-01	-1.845827e+02
8.900000e-07	-1.924891e-09	-2.753750e-09	-6.066229e-01	-1.822349e+02
9.000000e-07	-1.858172e-09	-2.723890e-09	-5.855967e-01	-1.798192e+02
9.100000e-07	-1.791190e-09	-2.687409e-09	-5.644873e-01	-1.773303e+02
9.200000e-07	-1.723926e-09	-2.641983e-09	-5.432891e-01	-1.747628e+02
9.300000e-07	-1.656409e-09	-2.597635e-09	-5.220111e-01	-1.721110e+02
9.400000e-07	-1.588709e-09	-2.558739e-09	-5.006756e-01	-1.693692e+02
9.500000e-07	-1.520857e-09	-2.517894e-09	-4.792922e-01	-1.665315e+02
9.600000e-07	-1.452804e-09	-2.465461e-09	-4.578453e-01	-1.635923e+02
9.700000e-07	-1.384496e-09	-2.410987e-09	-4.363180e-01	-1.605460e+02
9.800000e-07	-1.315942e-09	-2.364099e-09	-4.147133e-01	-1.573869e+02
9.900000e-07	-1.247171e-09	-2.320510e-09	-3.930403e-01	-1.541098e+02
1.000000e-06	-1.178179e-09	-2.270505e-09	-3.712976e-01	-1.507090e+02
1.010000e-06	-1.108909e-09	-2.210488e-09	-3.494673e-01	-1.471789e+02
1.020000e-06	-1.039353e-09	-2.151709e-09	-3.275470e-01	-1.435134e+02
1.030000e-06	-9.696208e-10	-2.098256e-09	-3.055708e-01	-1.397060e+02
1.040000e-06	-8.997579e-10	-2.042184e-09	-2.835536e-01	-1.357493e+02
1.050000e-06	-8.297264e-10	-1.976006e-09	-2.614833e-01	-1.316352e+02
1.060000e-06	-7.595177e-10	-1.903073e-09	-2.393572e-01	-1.273547e+02
1.070000e-06	-6.891489e-10	-1.833376e-09	-2.171806e-01	-1.228977e+02
1.080000e-06	-6.186315e-10	-1.765439e-09	-1.949571e-01	-1.182532e+02
1.090000e-06	-5.479930e-10	-1.690240e-09	-1.726955e-01	-1.134095e+02
1.100000e-06	-4.772608e-10	-1.606979e-09	-1.504044e-01	-1.083540e+02
1.110000e-06	-4.064444e-10	-1.522986e-09	-1.280867e-01	-1.030741e+02
1.120000e-06	-3.355716e-10	-1.442151e-09	-1.057513e-01	-9.755725e+01
1.130000e-06	-2.646644e-10	-1.357556e-09	-8.340496e-02	-9.179147e+01
1.140000e-06	-1.937278e-10	-1.263491e-09	-6.104940e-02	-8.576609e+01
1.150000e-06	-1.227693e-10	-1.163295e-09	-3.868693e-02	-7.947225e+01
1.160000e-06	-5.180192e-11	-1.062613e-09	-1.632164e-02	-7.290358e+01
1.170000e-06	1.915907e-11	-9.622398e-10	6.041627e-03	-6.605677e+01
1.180000e-06	9.009541e-11	-8.550383e-10	2.839711e-02	-5.893224e+01
1.190000e-06	1.609927e-10	-7.404590e-10	5.074027e-02	-5.153456e+01
1.200000e-06	2.318382e-10	-6.236412e-10	7.306711e-02	-4.387288e+01
1.210000e-06	3.026331e-10	-5.050055e-10	9.537803e-02	-3.596119e+01
1.220000e-06	3.733657e-10	-3.831139e-10	1.176693e-01	-2.781844e+01
1.230000e-06	4.440181e-10	-2.560369e-10	1.399353e-01	-1.946845e+01
1.240000e-06	5.145811e-10	-1.253091e-10	1.621731e-01	-1.093966e+01
1.250000e-06	5.850186e-10	5.934498e-12	1.843713e-01	-2.264772e+00
1.260000e-06	6.553363e-10	1.382273e-10	2.065318e-01	6.519887e+00
1.270000e-06	7.255343e-10	2.727599e-10	2.286546e-01	1.537506e+01
1.280000e-06	7.955864e-10	4.106476e-10	2.507314e-01	2.425940e+01
1.290000e-06	8.654843e-10	5.474379e-10	2.727596e-01	3.313041e+01
1.300000e-06	9.352088e-10	6.826849e-10	2.947332e-01	4.194545e+01
1.310000e-06	1.004755e-09	8.168661e-10	3.166505e-01	5.066267e+01
1.320000e-06	1.074128e-09	9.488913e-10	3.385134e-01	5.924203e+01
1.330000e-06	1.143311e-09	1.078967e-09	3.603163e-01	6.764618e+01
1.340000e-06	1.212286e-09	1.205093e-09	3.820535e-01	7.584126e+01
1.350000e-06	1.281052e-09	1.325965e-09	4.037251e-01	8.379756e+01
1.360000e-06	1.349603e-09	1.441387e-09	4.253288e-01	9.149007e+01
1.370000e-06	1.417930e-09	1.552649e-09	4.468617e-01	9.889878e+01
1.380000e-06	1.486035e-09	1.658552e-09	4.683250e-01	1.060089e+02
1.390000e-06	1.553932e-09	1.757834e-09	4.897226e-01	1.128108e+02
1.400000e-06	1.621638e-09	1.852604e-09	5.110602e-01	1.192998e+02
1.410000e-06	1.689167e-09	1.945304e-09	5.323419e-01	1.254760e+02
1.420000e-06	1.756503e-09	2.034481e-09	5.535629e-01	1.313438e+02
1.430000e-06	1.823598e-09	2.118708e-09	5.747076e-01	1.369110e+02
1.440000e-06	1.890380e-09	2.198321e-09	5.957539e-01	1.421887e+02
1.450000e-06	1.956751e-09	2.274875e-09	6.166704e-01	1.471903e+02
1.460000e-06	2.022624e-09	2.347481e-09	6.374300e-01	1.519308e+02
1.470000e-06	2.087956e-09	2.415004e-09	6.580194e-01	1.564264e+02
1.480000e-06	2.152760e-09	2.479066e-09	6.784422e-01	1.606937e+02
1.490000e-06	2.217080e-09	2.541474e-09	6.987126e-01	1.647492e+02
1.500000e-06	2.280993e-09	2.600898e-09	7.188545e-01	1.686089e+02
1.510000e-06	2.344598e-09	2.657165e-09	7.388995e-01	1.722879e+02
1.520000e-06	2.407907e-09	2.710857e-09	7.588514e-01	1.757999e+02
1.530000e-06	2.470855e-09	2.762244e-09	7.786892e-01	1.791578e+02
1.540000e-06	2.533389e-09	2.811454e-09	7.983967e-01	1.823726e+02
1.550000e-06	2.595484e-09	2.856001e-09	8.179659e-01	1.854543e+02
1.560000e-06	2.657145e-09	2.896651e-09	8.373982e-01	1.884114e+02
1.570000e-06	2.718369e-09	2.936219e-09	8.566929e-01	1.912514e+02
1.580000e-06	2.779106e-09	2.976361e-09	8.758340e-01	1.939807e+02
1.590000e-06	2.839349e-09	3.016280e-09	8.948196e-01	1.966048e+02
1.600000e-06	2.899179e-09	3.053587e-09	9.136749e-01	1.991289e+02
1.610000e-06	2.958648e-09	3.088623e-09	9.324164e-01	2.015575e+02
1.620000e-06	3.017661e-09	3.123789e-09	9.510142e-01	2.038947e+02
1.630000e-06	3.076020e-09	3.158276e-09	9.694058e-01	2.061446e+02
1.640000e-06	3.133562e-09	3.189753e-09	9.875399e-01	2.083110e+02
1.650000e-06	3.190267e-09	3.218441e-09	1.005411e+00	2.103978e+02
1.660000e-06	3.246301e-09	3.247143e-09	1.023069e+00	2.124088e+02
1.670000e-06	3.301864e-09	3.275917e-09	1.040580e+00	2.143477e+02
1.680000e-06	3.356997e-09	3.303134e-09	1.057955e+00	2.162181e+02
1.690000e-06	3.411605e-09	3.329667e-09	1.075165e+00	2.180235e+02
1.700000e-06	3.465626e-09	3.355120e-09	1.092189e+00	2.197671e+02
1.710000e-06	3.519071e-09	3.379922e-09	1.109032e+00	2.214521e+02
1.720000e-06	3.571931e-09	3.404213e-09	1.125691e+00	2.230811e+02
1.730000e-06	3.624157e-09	3.427542e-09	1.142150e+00	2.246565e+02
1.740000e-06	3.675693e-09	3.449757e-09	1.158391e+00	2.261805e+02
1.750000e-06	3.726440e-09	3.471516e-09	1.174384e+00	2.276548e+02
1.760000e-06	3.776252e-09	3.493038e-09	1.190082e+00	2.290809e+02
1.770000e-06	3.825091e-09	3.513652e-09	1.205474e+00	2.304600e+02
1.780000e-06	3.873124e-09	3.533353e-09	1.220611e+00	2.317931e+02
1.790000e-06	3.920551e-09	3.551924e-09	1.235558e+00	2.330808e+02
1.800000e-06	3.967389e-09	3.570590e-09	1.250319e+00	2.343241e+02
1.810000e-06	4.013574e-09	3.589263e-09	1.264874e+00	2.355236e+02
1.820000e-06	4.059064e-09	3.607486e-09	1.279210e+00	2.366800e+02
1.830000e-06	4.103830e-09	3.625630e-09	1.293318e+00	2.377942e+02
1.840000e-06	4.147943e-09	3.643046e-09	1.307220e+00	2.388671e+02
1.850000e-06	4.191534e-09	3.659272e-09	1.320957e+00	2.398997e+02
1.860000e-06	4.234541e-09	3.674441e-09	1.334511e+00	2.408932e+02
1.870000e-06	4.276649e-09	3.689140e-09	1.347781e+00	2.418491e+02
1.880000e-06	4.317660e-09	3.703847e-09	1.360706e+00	2.427688e+02
1.890000e-06	4.357741e-09	3.717884e-09	1.373337e+00	2.436539e+02
1.900000e-06	4.397130e-09	3.730358e-09	1.385750e+00	2.445059e+02
1.910000e-06	4.435854e-09	3.742747e-09	1.397954e+00	2.453267e+02
1.920000e-06	4.473836e-09	3.755700e-09	1.409924e+00	2.461177e+02
1.930000e-06	4.511022e-09	3.768432e-09	1.421643e+00	2.468805e+02
1.940000e-06	4.547429e-09	3.780348e-09	1.433117e+00	2.476167e+02
1.950000e-06	4.583188e-09	3.791243e-09	1.444386e+00	2.483276e+02
1.960000e-06	4.618300e-09	3.802151e-09	1.455452e+00	2.490144e+02
1.970000e-06	4.652486e-09	3.812446e-09	1.466225e+00	2.496781e+02
1.980000e-06	4.685544e-09	3.822331e-09	1.476643e+00	2.503199e+02
1.990000e-06	4.717625e-09	3.832342e-09	1.486754e+00	2.509404e+02
2.000000e-06	4.748950e-09	3.841301e-09	1.496626e+00	2.515405e+02
2.010000e-06	4.779530e-09	3.850021e-09	1.506263e+00	2.521205e+02
2.020000e-06	4.809326e-09	3.859688e-09	1.515653e+00	2.526811e+02
2.030000e-06	4.838321e-09	3.869749e-09	1.524790e+00	2.532227e+02
2.040000e-06	4.866547e-09	3.879454e-09	1.533686e+00	2.537455e+02
2.050000e-06	4.894113e-09	3.887898e-09	1.542373e+00	2.542499e+02
2.060000e-06	4.920908e-09	3.896076e-09	1.550818e+00	2.547361e+02
2.070000e-06	4.946593e-09	3.905197e-09	1.558912e+00	2.552043e+02
2.080000e-06	4.971113e-09	3.913278e-09	1.566639e+00	2.556547e+02
2.090000e-06	4.994723e-09	3.919977e-09	1.574080e+00	2.560873e+02
2.100000e-06	5.017527e-09	3.927525e-09	1.581267e+00	2.565022e+02
2.110000e-06	5.039501e-09	3.934852e-09	1.588192e+00	2.568994e+02
2.120000e-06	5.060638e-09	3.940813e-09	1.594853e+00	2.572789e+02
2.130000e-06	5.080972e-09	3.947079e-09	1.601261e+00	2.576405e+02
2.140000e-06	5.100624e-09	3.953381e-09	1.607454e+00	2.579843e+02
2.150000e-06	5.119570e-09	3.959504e-09	1.613425e+00	2.583100e+02
2.160000e-06	5.137610e-09	3.964873e-09	1.619110e+00	2.586175e+02
2.170000e-06	5.154698e-09	3.969859e-09	1.624495e+00	2.589067e+02
2.180000e-06	5.170893e-09	3.975970e-09	1.629599e+00	2.591774e+02
2.190000e-06	5.186111e-09	3.981395e-09	1.634395e+00	2.594297e+02
2.200000e-06	5.200279e-09	3.985590e-09	1.638860e+00	2.596636e+02
2.210000e-06	5.213464e-09	3.990729e-09	1.643015e+00	2.598792e+02
2.220000e-06	5.225724e-09	3.996072e-09	1.646879e+00	2.600766e+02
2.230000e-06	5.237006e-09	4.000599e-09	1.650435e+00	2.602562e+02
2.240000e-06	5.247112e-09	4.003351e-09	1.653619e+00	2.604184e+02
2.250000e-06	5.255965e-09	4.005547e-09	1.656409e+00	2.605637e+02
2.260000e-06	5.263803e-09	4.008045e-09	1.658879e+00	2.606926e+02
2.270000e-06	5.270801e-09	4.010769e-09	1.661085e+00	2.608058e+02
2.280000e-06	5.276934e-09	4.012838e-09	1.663017e+00	2.609039e+02
2.290000e-06	5.282156e-09	4.014165e-09	1.664663e+00	2.609875e+02
2.300000e-06	5.286506e-09	4.016688e-09	1.666034e+00	2.610573e+02
2.310000e-06	5.290098e-09	4.019719e-09	1.667166e+00	2.611138e+02
2.320000e-06	5.292819e-09	4.023041e-09	1.668024e+00	2.611576e+02
2.330000e-06	5.294357e-09	4.024892e-09	1.668508e+00	2.611891e+02
2.340000e-06	5.294742e-09	4.026621e-09	1.668629e+00	2.612086e+02
2.350000e-06	5.294253e-09	4.028624e-09	1.668475e+00	2.612164e+02
2.360000e-06	5.292949e-09	4.028844e-09	1.668064e+00	2.612125e+02
2.370000e-06	5.290803e-09	4.026309e-09	1.667388e+00	2.611971e+02
2.380000e-06	5.287813e-09	4.023644e-09	1.666446e+00	2.611700e+02
2.390000e-06	5.284045e-09	4.024421e-09	1.665258e+00	2.611313e+02
2.400000e-06	5.279621e-09	4.026423e-09	1.663864e+00	2.610806e+02
2.410000e-06	5.274404e-09	4.029381e-09	1.662219e+00	2.610178e+02
2.420000e-06	5.268064e-09	4.030824e-09	1.660222e+00	2.609427e+02
2.430000e-06	5.260580e-09	4.022463e-09	1.657863e+00	2.608550e+02
2.440000e-06	5.252102e-09	3.995107e-09	1.655191e+00	2.607544e+02
2.450000e-06	5.242465e-09	3.971882e-09	1.652154e+00	2.606407e+02
2.460000e-06	5.231557e-09	3.999617e-09	1.648716e+00	2.605133e+02
2.470000e-06	5.219890e-09	4.059434e-09	1.645039e+00	2.603719e+02
2.480000e-06	5.207950e-09	4.060023e-09	1.641276e+00	2.602159e+02
2.490000e-06	5.195132e-09	4.002654e-09	1.637237e+00	2.600447e+02
2.500000e-06	5.180654e-09	3.971177e-09	1.632674e+00	2.598576e+02
2.510000e-06	5.165036e-09	4.042398e-09	1.627752e+00	2.596537e+02
2.520000e-06	5.148916e-09	4.047211e-09	1.622672e+00	2.594320e+02
2.530000e-06	5.131885e-09	4.009696e-09	1.617304e+00	2.591916e+02
2.540000e-06	5.113799e-09	4.006190e-09	1.611604e+00	2.589311e+02
2.550000e-06	5.095130e-09	3.939107e-09	1.605721e+00	2.586494e+02
2.560000e-06	5.075848e-09	3.944653e-09	1.599644e+00	2.583452e+02
2.570000e-06	5.055693e-09	3.989391e-09	1.593292e+00	2.580175e+02
2.580000e-06	5.034544e-09	3.924109e-09	1.586627e+00	2.576651e+02
2.590000e-06	5.012209e-09	3.855228e-09	1.579588e+00	2.572872e+02
2.600000e-06	4.988747e-09	3.927851e-09	1.572194e+00	2.568832e+02
2.610000e-06	4.964329e-09	3.923073e-09	1.564499e+00	2.564527e+02
2.620000e-06	4.939015e-09	3.832556e-09	1.556521e+00	2.559958e+02
2.630000e-06	4.912999e-09	3.834330e-09	1.548322e+00	2.555129e+02
2.640000e-06	4.886259e-09	3.824497e-09	1.539895e+00	2.550046e+02
2.650000e-06	4.858635e-09	3.838470e-09	1.531189e+00	2.544722e+02
2.660000e-06	4.830302e-09	3.865318e-09	1.522260e+00	2.539170e+02
2.670000e-06	4.801086e-09	3.795915e-09	1.513052e+00	2.533409e+02
2.680000e-06	4.770526e-09	3.764620e-09	1.503421e+00	2.527457e+02
2.690000e-06	4.738871e-09	3.793762e-09	1.493445e+00	2.521335e+02
2.700000e-06	4.706562e-09	3.806868e-09	1.483263e+00	2.515062e+02
2.710000e-06	4.673477e-09	3.794220e-09	1.472837e+00	2.508658e+02
2.720000e-06	4.639491e-09	3.732886e-09	1.462126e+00	2.502140e+02
2.730000e-06	4.604778e-09	3.719027e-09	1.451186e+00	2.495521e+02
2.740000e-06	4.569420e-09	3.771735e-09	1.440043e+00	2.488810e+02
2.750000e-06	4.533353e-09	3.765477e-09	1.428677e+00	2.482013e+02
2.760000e-06	4.496545e-09	3.706063e-09	1.417076e+00	2.475129e+02
2.770000e-06	4.458880e-09	3.676168e-09	1.405206e+00	2.468153e+02
2.780000e-06	4.420122e-09	3.703616e-09	1.392992e+00	2.461074e+02
2.790000e-06	4.380351e-09	3.720968e-09	1.380458e+00	2.453878e+02
2.800000e-06	4.339909e-09	3.680509e-09	1.367713e+00	2.446547e+02
2.810000e-06	4.298887e-09	3.645552e-09	1.354785e+00	2.439058e+02
2.820000e-06	4.257153e-09	3.642993e-09	1.341632e+00	2.431390e+02
2.830000e-06	4.214647e-09	3.658625e-09	1.328236e+00	2.423519e+02
2.840000e-06	4.171470e-09	3.651255e-09	1.314629e+00	2.415424e+02
2.850000e-06	4.127720e-09	3.609436e-09	1.300842e+00	2.407083e+02
2.860000e-06	4.083442e-09	3.591703e-09	1.286887e+00	2.398480e+02
2.870000e-06	4.038626e-09	3.598289e-09	1.272764e+00	2.389601e+02
2.880000e-06	3.993120e-09	3.595093e-09	1.258422e+00	2.380435e+02
2.890000e-06	3.946760e-09	3.572821e-09	1.243812e+00	2.370977e+02
2.900000e-06	3.899673e-09	3.539333e-09	1.228973e+00	2.361225e+02
2.910000e-06	3.852043e-09	3.530338e-09	1.213962e+00	2.351180e+02
2.920000e-06	3.803686e-09	3.538431e-09	1.198722e+00	2.340845e+02
2.930000e-06	3.754430e-09	3.524876e-09	1.183199e+00	2.330226e+02
2.940000e-06	3.704412e-09	3.487957e-09	1.167436e+00	2.319330e+02
