# Temperatura_=_20.0
# Concentracion g/m^3_=_12600.0
# C_Vs_to_Am_M_A/Vsm_=_65563218390.804596
# pendiente_HvsI_1/m_=_3716.3
# ordenada_HvsI_A/m_=_1297.0
# frecuencia_Hz_=_135036.54041592986

Tiempo_(s)	Campo_(V.s)	Magnetizacion_(V.s)	Campo_(kA/m)	Magnetizacion_(A/m)
0.000000e+00	-3.885611e-06	-3.410996e-09	-2.913353e+01	-2.238157e+02
1.000000e-08	-3.885782e-06	-3.412199e-09	-2.913482e+01	-2.237963e+02
2.000000e-08	-3.885785e-06	-3.411059e-09	-2.913484e+01	-2.237550e+02
3.000000e-08	-3.885636e-06	-3.409811e-09	-2.913372e+01	-2.236923e+02
4.000000e-08	-3.885351e-06	-3.412640e-09	-2.913158e+01	-2.236084e+02
5.000000e-08	-3.884798e-06	-3.433472e-09	-2.912743e+01	-2.235040e+02
6.000000e-08	-3.883783e-06	-3.446675e-09	-2.911982e+01	-2.233799e+02
7.000000e-08	-3.882304e-06	-3.420600e-09	-2.910873e+01	-2.232371e+02
8.000000e-08	-3.880309e-06	-3.371203e-09	-2.909377e+01	-2.230765e+02
9.000000e-08	-3.877780e-06	-3.357852e-09	-2.907482e+01	-2.228994e+02
1.000000e-07	-3.874814e-06	-3.330759e-09	-2.905257e+01	-2.227072e+02
1.100000e-07	-3.871547e-06	-3.338401e-09	-2.902808e+01	-2.225014e+02
1.200000e-07	-3.868040e-06	-3.448085e-09	-2.900178e+01	-2.222833e+02
1.300000e-07	-3.864328e-06	-3.355190e-09	-2.897395e+01	-2.220545e+02
1.400000e-07	-3.860446e-06	-3.327788e-09	-2.894485e+01	-2.218166e+02
1.500000e-07	-3.856404e-06	-3.345745e-09	-2.891454e+01	-2.215711e+02
1.600000e-07	-3.852262e-06	-3.358885e-09	-2.888349e+01	-2.213195e+02
1.700000e-07	-3.847947e-06	-3.401027e-09	-2.885113e+01	-2.210631e+02
1.800000e-07	-3.843364e-06	-3.386857e-09	-2.881677e+01	-2.208032e+02
1.900000e-07	-3.838455e-06	-3.358342e-09	-2.877997e+01	-2.205410e+02
2.000000e-07	-3.833186e-06	-3.309401e-09	-2.874046e+01	-2.202774e+02
2.100000e-07	-3.827612e-06	-3.363323e-09	-2.869867e+01	-2.200133e+02
2.200000e-07	-3.821805e-06	-3.389683e-09	-2.865513e+01	-2.197491e+02
2.300000e-07	-3.815736e-06	-3.389770e-09	-2.860962e+01	-2.194855e+02
2.400000e-07	-3.809317e-06	-3.289121e-09	-2.856149e+01	-2.192224e+02
2.500000e-07	-3.802636e-06	-3.298398e-09	-2.851140e+01	-2.189601e+02
2.600000e-07	-3.795719e-06	-3.357910e-09	-2.845954e+01	-2.186981e+02
2.700000e-07	-3.788587e-06	-3.388670e-09	-2.840606e+01	-2.184362e+02
2.800000e-07	-3.781280e-06	-3.312075e-09	-2.835128e+01	-2.181736e+02
2.900000e-07	-3.773745e-06	-3.281231e-09	-2.829478e+01	-2.179097e+02
3.000000e-07	-3.765955e-06	-3.316998e-09	-2.823638e+01	-2.176436e+02
3.100000e-07	-3.757984e-06	-3.350615e-09	-2.817661e+01	-2.173741e+02
3.200000e-07	-3.749889e-06	-3.325923e-09	-2.811592e+01	-2.171003e+02
3.300000e-07	-3.741566e-06	-3.289544e-09	-2.805351e+01	-2.168208e+02
3.400000e-07	-3.732938e-06	-3.298453e-09	-2.798882e+01	-2.165346e+02
3.500000e-07	-3.724063e-06	-3.297868e-09	-2.792228e+01	-2.162403e+02
3.600000e-07	-3.714778e-06	-3.301844e-09	-2.785266e+01	-2.159367e+02
3.700000e-07	-3.704960e-06	-3.292441e-09	-2.777904e+01	-2.156228e+02
3.800000e-07	-3.694759e-06	-3.287852e-09	-2.770256e+01	-2.152974e+02
3.900000e-07	-3.684114e-06	-3.247272e-09	-2.762275e+01	-2.149595e+02
4.000000e-07	-3.673042e-06	-3.265584e-09	-2.753973e+01	-2.146085e+02
4.100000e-07	-3.661629e-06	-3.290258e-09	-2.745416e+01	-2.142434e+02
4.200000e-07	-3.649936e-06	-3.284859e-09	-2.736649e+01	-2.138639e+02
4.300000e-07	-3.638017e-06	-3.227448e-09	-2.727712e+01	-2.134694e+02
4.400000e-07	-3.625816e-06	-3.233481e-09	-2.718564e+01	-2.130599e+02
4.500000e-07	-3.613355e-06	-3.249977e-09	-2.709221e+01	-2.126352e+02
4.600000e-07	-3.600718e-06	-3.250788e-09	-2.699746e+01	-2.121954e+02
4.700000e-07	-3.587818e-06	-3.218566e-09	-2.690074e+01	-2.117408e+02
4.800000e-07	-3.574599e-06	-3.209236e-09	-2.680162e+01	-2.112717e+02
4.900000e-07	-3.561077e-06	-3.196596e-09	-2.670024e+01	-2.107887e+02
5.000000e-07	-3.547283e-06	-3.198643e-09	-2.659682e+01	-2.102922e+02
5.100000e-07	-3.533283e-06	-3.206263e-09	-2.649184e+01	-2.097831e+02
5.200000e-07	-3.518959e-06	-3.197858e-09	-2.638445e+01	-2.092619e+02
5.300000e-07	-3.504280e-06	-3.162871e-09	-2.627439e+01	-2.087293e+02
5.400000e-07	-3.489227e-06	-3.152471e-09	-2.616152e+01	-2.081863e+02
5.500000e-07	-3.473687e-06	-3.173964e-09	-2.604501e+01	-2.076333e+02
5.600000e-07	-3.457800e-06	-3.170664e-09	-2.592589e+01	-2.070711e+02
5.700000e-07	-3.441611e-06	-3.136198e-09	-2.580451e+01	-2.065002e+02
5.800000e-07	-3.425131e-06	-3.111549e-09	-2.568095e+01	-2.059211e+02
5.900000e-07	-3.408396e-06	-3.117585e-09	-2.555547e+01	-2.053342e+02
6.000000e-07	-3.391378e-06	-3.118970e-09	-2.542787e+01	-2.047399e+02
6.100000e-07	-3.374227e-06	-3.112546e-09	-2.529928e+01	-2.041381e+02
6.200000e-07	-3.356957e-06	-3.089085e-09	-2.516979e+01	-2.035290e+02
6.300000e-07	-3.339480e-06	-3.073214e-09	-2.503875e+01	-2.029125e+02
6.400000e-07	-3.321777e-06	-3.069937e-09	-2.490602e+01	-2.022882e+02
6.500000e-07	-3.303892e-06	-3.077764e-09	-2.477192e+01	-2.016560e+02
6.600000e-07	-3.285779e-06	-3.062162e-09	-2.463611e+01	-2.010154e+02
6.700000e-07	-3.267365e-06	-3.039102e-09	-2.449804e+01	-2.003657e+02
6.800000e-07	-3.248730e-06	-3.018199e-09	-2.435832e+01	-1.997066e+02
6.900000e-07	-3.229919e-06	-3.015923e-09	-2.421728e+01	-1.990373e+02
7.000000e-07	-3.210815e-06	-3.013240e-09	-2.407405e+01	-1.983572e+02
7.100000e-07	-3.191448e-06	-3.002754e-09	-2.392884e+01	-1.976655e+02
7.200000e-07	-3.171918e-06	-2.974262e-09	-2.378241e+01	-1.969618e+02
7.300000e-07	-3.152214e-06	-2.956837e-09	-2.363467e+01	-1.962453e+02
7.400000e-07	-3.132386e-06	-2.961085e-09	-2.348600e+01	-1.955156e+02
7.500000e-07	-3.112468e-06	-2.965439e-09	-2.333666e+01	-1.947721e+02
7.600000e-07	-3.092476e-06	-2.942414e-09	-2.318676e+01	-1.940145e+02
7.700000e-07	-3.072349e-06	-2.914522e-09	-2.303585e+01	-1.932426e+02
7.800000e-07	-3.052018e-06	-2.902965e-09	-2.288342e+01	-1.924561e+02
7.900000e-07	-3.031456e-06	-2.904478e-09	-2.272925e+01	-1.916551e+02
8.000000e-07	-3.010676e-06	-2.897396e-09	-2.257345e+01	-1.908395e+02
8.100000e-07	-2.989665e-06	-2.875144e-09	-2.241591e+01	-1.900098e+02
8.200000e-07	-2.968323e-06	-2.854321e-09	-2.225589e+01	-1.891661e+02
8.300000e-07	-2.946781e-06	-2.848855e-09	-2.209437e+01	-1.883089e+02
8.400000e-07	-2.925098e-06	-2.848800e-09	-2.193180e+01	-1.874387e+02
8.500000e-07	-2.903193e-06	-2.831569e-09	-2.176756e+01	-1.865562e+02
8.600000e-07	-2.881169e-06	-2.804174e-09	-2.160242e+01	-1.856620e+02
8.700000e-07	-2.859004e-06	-2.786711e-09	-2.143624e+01	-1.847568e+02
8.800000e-07	-2.836608e-06	-2.783437e-09	-2.126832e+01	-1.838414e+02
8.900000e-07	-2.813938e-06	-2.775656e-09	-2.109834e+01	-1.829165e+02
9.000000e-07	-2.791020e-06	-2.755190e-09	-2.092651e+01	-1.819829e+02
9.100000e-07	-2.767960e-06	-2.729645e-09	-2.075361e+01	-1.810411e+02
9.200000e-07	-2.744652e-06	-2.715588e-09	-2.057885e+01	-1.800918e+02
9.300000e-07	-2.721114e-06	-2.709316e-09	-2.040237e+01	-1.791356e+02
9.400000e-07	-2.697466e-06	-2.699839e-09	-2.022506e+01	-1.781728e+02
9.500000e-07	-2.673715e-06	-2.679379e-09	-2.004698e+01	-1.772038e+02
9.600000e-07	-2.649879e-06	-2.660754e-09	-1.986826e+01	-1.762289e+02
9.700000e-07	-2.625932e-06	-2.650052e-09	-1.968871e+01	-1.752481e+02
9.800000e-07	-2.601888e-06	-2.642510e-09	-1.950843e+01	-1.742614e+02
9.900000e-07	-2.577700e-06	-2.626563e-09	-1.932708e+01	-1.732687e+02
1.000000e-06	-2.553314e-06	-2.607140e-09	-1.914424e+01	-1.722696e+02
1.010000e-06	-2.528762e-06	-2.588169e-09	-1.896015e+01	-1.712639e+02
1.020000e-06	-2.504028e-06	-2.574348e-09	-1.877470e+01	-1.702509e+02
1.030000e-06	-2.479027e-06	-2.561070e-09	-1.858725e+01	-1.692301e+02
1.040000e-06	-2.453763e-06	-2.545237e-09	-1.839783e+01	-1.682010e+02
1.050000e-06	-2.428197e-06	-2.526291e-09	-1.820614e+01	-1.671627e+02
1.060000e-06	-2.402141e-06	-2.508020e-09	-1.801077e+01	-1.661146e+02
1.070000e-06	-2.375708e-06	-2.493439e-09	-1.781258e+01	-1.650560e+02
1.080000e-06	-2.349138e-06	-2.479928e-09	-1.761336e+01	-1.639860e+02
1.090000e-06	-2.322327e-06	-2.462515e-09	-1.741234e+01	-1.629039e+02
1.100000e-06	-2.295244e-06	-2.442069e-09	-1.720928e+01	-1.618092e+02
1.110000e-06	-2.267943e-06	-2.424388e-09	-1.700458e+01	-1.607011e+02
1.120000e-06	-2.240468e-06	-2.408244e-09	-1.679858e+01	-1.595791e+02
1.130000e-06	-2.212898e-06	-2.389603e-09	-1.659187e+01	-1.584428e+02
1.140000e-06	-2.185191e-06	-2.368618e-09	-1.638412e+01	-1.572919e+02
1.150000e-06	-2.157375e-06	-2.346558e-09	-1.617556e+01	-1.561259e+02
1.160000e-06	-2.129493e-06	-2.328433e-09	-1.596651e+01	-1.549449e+02
1.170000e-06	-2.101552e-06	-2.313331e-09	-1.575701e+01	-1.537488e+02
1.180000e-06	-2.073541e-06	-2.295447e-09	-1.554699e+01	-1.525375e+02
1.190000e-06	-2.045472e-06	-2.274139e-09	-1.533654e+01	-1.513114e+02
1.200000e-06	-2.017377e-06	-2.253207e-09	-1.512588e+01	-1.500706e+02
1.210000e-06	-1.989137e-06	-2.233316e-09	-1.491415e+01	-1.488155e+02
1.220000e-06	-1.960650e-06	-2.213026e-09	-1.470056e+01	-1.475465e+02
1.230000e-06	-1.931998e-06	-2.194345e-09	-1.448573e+01	-1.462640e+02
1.240000e-06	-1.903253e-06	-2.173301e-09	-1.427021e+01	-1.449686e+02
1.250000e-06	-1.874394e-06	-2.152903e-09	-1.405383e+01	-1.436608e+02
1.260000e-06	-1.845357e-06	-2.132174e-09	-1.383612e+01	-1.423411e+02
1.270000e-06	-1.816113e-06	-2.114521e-09	-1.361685e+01	-1.410100e+02
1.280000e-06	-1.786757e-06	-2.096632e-09	-1.339675e+01	-1.396681e+02
1.290000e-06	-1.757380e-06	-2.075454e-09	-1.317648e+01	-1.383159e+02
1.300000e-06	-1.727886e-06	-2.053796e-09	-1.295534e+01	-1.369538e+02
1.310000e-06	-1.698188e-06	-2.035453e-09	-1.273268e+01	-1.355822e+02
1.320000e-06	-1.668412e-06	-2.016373e-09	-1.250942e+01	-1.342014e+02
1.330000e-06	-1.638631e-06	-1.992734e-09	-1.228613e+01	-1.328117e+02
1.340000e-06	-1.608751e-06	-1.967108e-09	-1.206210e+01	-1.314133e+02
1.350000e-06	-1.578719e-06	-1.943287e-09	-1.183692e+01	-1.300063e+02
1.360000e-06	-1.548583e-06	-1.922553e-09	-1.161097e+01	-1.285909e+02
1.370000e-06	-1.518317e-06	-1.901758e-09	-1.138403e+01	-1.271669e+02
1.380000e-06	-1.488001e-06	-1.878590e-09	-1.115673e+01	-1.257345e+02
1.390000e-06	-1.457635e-06	-1.855332e-09	-1.092906e+01	-1.242934e+02
1.400000e-06	-1.427165e-06	-1.835538e-09	-1.070060e+01	-1.228435e+02
1.410000e-06	-1.396533e-06	-1.816126e-09	-1.047093e+01	-1.213848e+02
1.420000e-06	-1.365747e-06	-1.793105e-09	-1.024010e+01	-1.199170e+02
1.430000e-06	-1.334922e-06	-1.766655e-09	-1.000898e+01	-1.184400e+02
1.440000e-06	-1.304020e-06	-1.740709e-09	-9.777277e+00	-1.169535e+02
1.450000e-06	-1.273011e-06	-1.715556e-09	-9.544780e+00	-1.154574e+02
1.460000e-06	-1.241843e-06	-1.692390e-09	-9.311089e+00	-1.139516e+02
1.470000e-06	-1.210584e-06	-1.669252e-09	-9.076715e+00	-1.124359e+02
1.480000e-06	-1.179338e-06	-1.645757e-09	-8.842437e+00	-1.109103e+02
1.490000e-06	-1.147981e-06	-1.622079e-09	-8.607332e+00	-1.093747e+02
1.500000e-06	-1.116444e-06	-1.598188e-09	-8.370874e+00	-1.078290e+02
1.510000e-06	-1.084837e-06	-1.575460e-09	-8.133887e+00	-1.062733e+02
1.520000e-06	-1.053184e-06	-1.550854e-09	-7.896559e+00	-1.047076e+02
1.530000e-06	-1.021489e-06	-1.526938e-09	-7.658916e+00	-1.031320e+02
1.540000e-06	-9.897187e-07	-1.507576e-09	-7.420712e+00	-1.015465e+02
1.550000e-06	-9.579047e-07	-1.486994e-09	-7.182177e+00	-9.995129e+01
1.560000e-06	-9.260908e-07	-1.462679e-09	-6.943643e+00	-9.834640e+01
1.570000e-06	-8.942524e-07	-1.436384e-09	-6.704925e+00	-9.673195e+01
1.580000e-06	-8.624157e-07	-1.411563e-09	-6.466220e+00	-9.510801e+01
1.590000e-06	-8.305427e-07	-1.388289e-09	-6.227242e+00	-9.347464e+01
1.600000e-06	-7.986353e-07	-1.363657e-09	-5.988007e+00	-9.183187e+01
1.610000e-06	-7.667280e-07	-1.336796e-09	-5.748772e+00	-9.017968e+01
1.620000e-06	-7.347699e-07	-1.310464e-09	-5.509157e+00	-8.851800e+01
1.630000e-06	-7.027743e-07	-1.285733e-09	-5.269261e+00	-8.684673e+01
1.640000e-06	-6.708007e-07	-1.260983e-09	-5.029529e+00	-8.516570e+01
1.650000e-06	-6.388171e-07	-1.234499e-09	-4.789723e+00	-8.347468e+01
1.660000e-06	-6.067596e-07	-1.209438e-09	-4.549362e+00	-8.177342e+01
1.670000e-06	-5.747027e-07	-1.184339e-09	-4.309005e+00	-8.006157e+01
1.680000e-06	-5.426358e-07	-1.157582e-09	-4.068574e+00	-7.833879e+01
1.690000e-06	-5.105410e-07	-1.131368e-09	-3.827934e+00	-7.660468e+01
1.700000e-06	-4.784228e-07	-1.103977e-09	-3.587118e+00	-7.485881e+01
1.710000e-06	-4.462609e-07	-1.075491e-09	-3.345975e+00	-7.310074e+01
1.720000e-06	-4.141040e-07	-1.048591e-09	-3.104869e+00	-7.133004e+01
1.730000e-06	-3.819206e-07	-1.023587e-09	-2.863564e+00	-6.954628e+01
1.740000e-06	-3.496875e-07	-9.982062e-10	-2.621887e+00	-6.774906e+01
1.750000e-06	-3.174279e-07	-9.714048e-10	-2.380011e+00	-6.593804e+01
1.760000e-06	-2.851950e-07	-9.426036e-10	-2.138335e+00	-6.411290e+01
1.770000e-06	-2.528841e-07	-9.129855e-10	-1.896074e+00	-6.227343e+01
1.780000e-06	-2.205371e-07	-8.836202e-10	-1.653543e+00	-6.041946e+01
1.790000e-06	-1.882563e-07	-8.574225e-10	-1.411508e+00	-5.855094e+01
1.800000e-06	-1.559410e-07	-8.297430e-10	-1.169214e+00	-5.666789e+01
1.810000e-06	-1.236037e-07	-7.982226e-10	-9.267554e-01	-5.477046e+01
1.820000e-06	-9.127731e-08	-7.689458e-10	-6.843789e-01	-5.285888e+01
1.830000e-06	-5.894988e-08	-7.425490e-10	-4.419944e-01	-5.093350e+01
1.840000e-06	-2.659918e-08	-7.125259e-10	-1.994353e-01	-4.899475e+01
1.850000e-06	5.798974e-09	-6.785295e-10	4.347954e-02	-4.704316e+01
1.860000e-06	3.824191e-08	-6.473688e-10	2.867302e-01	-4.507936e+01
1.870000e-06	7.065321e-08	-6.201600e-10	5.297436e-01	-4.310402e+01
1.880000e-06	1.030240e-07	-5.925542e-10	7.724532e-01	-4.111788e+01
1.890000e-06	1.353886e-07	-5.627617e-10	1.015116e+00	-3.912172e+01
1.900000e-06	1.677020e-07	-5.306795e-10	1.257396e+00	-3.711633e+01
1.910000e-06	2.000426e-07	-5.013630e-10	1.499879e+00	-3.510250e+01
1.920000e-06	2.323459e-07	-4.762176e-10	1.742083e+00	-3.308101e+01
1.930000e-06	2.645962e-07	-4.478322e-10	1.983889e+00	-3.105258e+01
1.940000e-06	2.969318e-07	-4.149712e-10	2.226335e+00	-2.901788e+01
1.950000e-06	3.291800e-07	-3.810265e-10	2.468126e+00	-2.697751e+01
1.960000e-06	3.613545e-07	-3.484907e-10	2.709364e+00	-2.493196e+01
1.970000e-06	3.936099e-07	-3.192627e-10	2.951208e+00	-2.288161e+01
1.980000e-06	4.258430e-07	-2.895359e-10	3.192885e+00	-2.082674e+01
1.990000e-06	4.580058e-07	-2.565172e-10	3.434036e+00	-1.876747e+01
2.000000e-06	4.901660e-07	-2.221769e-10	3.675166e+00	-1.670381e+01
2.010000e-06	5.222623e-07	-1.909335e-10	3.915818e+00	-1.463563e+01
2.020000e-06	5.542973e-07	-1.629689e-10	4.156010e+00	-1.256267e+01
2.030000e-06	5.863431e-07	-1.351150e-10	4.396283e+00	-1.048453e+01
2.040000e-06	6.183522e-07	-1.040649e-10	4.636281e+00	-8.400707e+00
2.050000e-06	6.503562e-07	-6.999849e-11	4.876240e+00	-6.310609e+00
2.060000e-06	6.823541e-07	-3.617591e-11	5.116154e+00	-4.213545e+00
2.070000e-06	7.143154e-07	-4.697244e-12	5.355794e+00	-2.108764e+00
2.080000e-06	7.462514e-07	2.612484e-11	5.595243e+00	4.525286e-03
2.090000e-06	7.781627e-07	5.855383e-11	5.834507e+00	2.127132e+00
2.100000e-06	8.100753e-07	9.219270e-11	6.073782e+00	4.259859e+00
2.110000e-06	8.419642e-07	1.229452e-10	6.312879e+00	6.403477e+00
2.120000e-06	8.738392e-07	1.508046e-10	6.551871e+00	8.558700e+00
2.130000e-06	9.057061e-07	1.817744e-10	6.790802e+00	1.072616e+01
2.140000e-06	9.375344e-07	2.171933e-10	7.029445e+00	1.290639e+01
2.150000e-06	9.693517e-07	2.531408e-10	7.268004e+00	1.509979e+01
2.160000e-06	1.001155e-06	2.864264e-10	7.506460e+00	1.730663e+01
2.170000e-06	1.032895e-06	3.189773e-10	7.744440e+00	1.952703e+01
2.180000e-06	1.064533e-06	3.535172e-10	7.981653e+00	2.176093e+01
2.190000e-06	1.096068e-06	3.911713e-10	8.218101e+00	2.400810e+01
2.200000e-06	1.127572e-06	4.267798e-10	8.454306e+00	2.626816e+01
2.210000e-06	1.159008e-06	4.574206e-10	8.690006e+00	2.854053e+01
2.220000e-06	1.190371e-06	4.853922e-10	8.925162e+00	3.082448e+01
2.230000e-06	1.221675e-06	5.162837e-10	9.159875e+00	3.311912e+01
2.240000e-06	1.252902e-06	5.513548e-10	9.394008e+00	3.542343e+01
2.250000e-06	1.283992e-06	5.865580e-10	9.627112e+00	3.773625e+01
2.260000e-06	1.314876e-06	6.201115e-10	9.858679e+00	4.005633e+01
2.270000e-06	1.345620e-06	6.545491e-10	1.008919e+01	4.238233e+01
2.280000e-06	1.376254e-06	6.901477e-10	1.031887e+01	4.471285e+01
2.290000e-06	1.406812e-06	7.248163e-10	1.054799e+01	4.704646e+01
2.300000e-06	1.437272e-06	7.592884e-10	1.077637e+01	4.938174e+01
2.310000e-06	1.467630e-06	7.936607e-10	1.100399e+01	5.171726e+01
2.320000e-06	1.497852e-06	8.263443e-10	1.123059e+01	5.405166e+01
2.330000e-06	1.527976e-06	8.590899e-10	1.145645e+01	5.638362e+01
2.340000e-06	1.558121e-06	8.943247e-10	1.168248e+01	5.871192e+01
2.350000e-06	1.588194e-06	9.308060e-10	1.190796e+01	6.103544e+01
2.360000e-06	1.618161e-06	9.667781e-10	1.213265e+01	6.335318e+01
2.370000e-06	1.648039e-06	1.001856e-09	1.235666e+01	6.566426e+01
2.380000e-06	1.677747e-06	1.037272e-09	1.257941e+01	6.796794e+01
2.390000e-06	1.707402e-06	1.071332e-09	1.280176e+01	7.026361e+01
2.400000e-06	1.737051e-06	1.104931e-09	1.302406e+01	7.255082e+01
2.410000e-06	1.766532e-06	1.138986e-09	1.324510e+01	7.482922e+01
2.420000e-06	1.795844e-06	1.172589e-09	1.346488e+01	7.709860e+01
2.430000e-06	1.825124e-06	1.206759e-09	1.368442e+01	7.935887e+01
2.440000e-06	1.854247e-06	1.241063e-09	1.390277e+01	8.161002e+01
2.450000e-06	1.883112e-06	1.277171e-09	1.411920e+01	8.385213e+01
2.460000e-06	1.911883e-06	1.313002e-09	1.433492e+01	8.608533e+01
2.470000e-06	1.940497e-06	1.345261e-09	1.454946e+01	8.830980e+01
2.480000e-06	1.968907e-06	1.379702e-09	1.476247e+01	9.052574e+01
2.490000e-06	1.997193e-06	1.413555e-09	1.497455e+01	9.273332e+01
2.500000e-06	2.025361e-06	1.444902e-09	1.518575e+01	9.493273e+01
2.510000e-06	2.053448e-06	1.475669e-09	1.539634e+01	9.712409e+01
2.520000e-06	2.081475e-06	1.505415e-09	1.560648e+01	9.930745e+01
2.530000e-06	2.109473e-06	1.535634e-09	1.581640e+01	1.014828e+02
2.540000e-06	2.137410e-06	1.566825e-09	1.602587e+01	1.036500e+02
2.550000e-06	2.165199e-06	1.599258e-09	1.623423e+01	1.058089e+02
2.560000e-06	2.192903e-06	1.633098e-09	1.644194e+01	1.079592e+02
2.570000e-06	2.220596e-06	1.667141e-09	1.664959e+01	1.101004e+02
2.580000e-06	2.248195e-06	1.699887e-09	1.685651e+01	1.122320e+02
2.590000e-06	2.275657e-06	1.731184e-09	1.706242e+01	1.143534e+02
2.600000e-06	2.302974e-06	1.760647e-09	1.726724e+01	1.164637e+02
2.610000e-06	2.330026e-06	1.789520e-09	1.747006e+01	1.185623e+02
2.620000e-06	2.356730e-06	1.820549e-09	1.767029e+01	1.206481e+02
2.630000e-06	2.383094e-06	1.850984e-09	1.786796e+01	1.227201e+02
2.640000e-06	2.409308e-06	1.879942e-09	1.806451e+01	1.247774e+02
2.650000e-06	2.435326e-06	1.910968e-09	1.825959e+01	1.268189e+02
2.660000e-06	2.460887e-06	1.941258e-09	1.845123e+01	1.288435e+02
2.670000e-06	2.486064e-06	1.969912e-09	1.864001e+01	1.308502e+02
2.680000e-06	2.510923e-06	1.999259e-09	1.882639e+01	1.328379e+02
2.690000e-06	2.535548e-06	2.027724e-09	1.901103e+01	1.348056e+02
2.700000e-06	2.560019e-06	2.054145e-09	1.919451e+01	1.367525e+02
2.710000e-06	2.584293e-06	2.080659e-09	1.937651e+01	1.386775e+02
2.720000e-06	2.608434e-06	2.109462e-09	1.955751e+01	1.405801e+02
2.730000e-06	2.632451e-06	2.138709e-09	1.973759e+01	1.424595e+02
2.740000e-06	2.656343e-06	2.167333e-09	1.991673e+01	1.443151e+02
2.750000e-06	2.680153e-06	2.197218e-09	2.009525e+01	1.461466e+02
2.760000e-06	2.703832e-06	2.226152e-09	2.027279e+01	1.479535e+02
2.770000e-06	2.727246e-06	2.254027e-09	2.044834e+01	1.497356e+02
2.780000e-06	2.750414e-06	2.283117e-09	2.062205e+01	1.514927e+02
2.790000e-06	2.773507e-06	2.310537e-09	2.079520e+01	1.532250e+02
2.800000e-06	2.796391e-06	2.335369e-09	2.096678e+01	1.549323e+02
2.810000e-06	2.818942e-06	2.359289e-09	2.113586e+01	1.566149e+02
2.820000e-06	2.841319e-06	2.383764e-09	2.130364e+01	1.582729e+02
2.830000e-06	2.863528e-06	2.409357e-09	2.147015e+01	1.599066e+02
2.840000e-06	2.885538e-06	2.434367e-09	2.163519e+01	1.615162e+02
2.850000e-06	2.907395e-06	2.458872e-09	2.179907e+01	1.631022e+02
2.860000e-06	2.929079e-06	2.482387e-09	2.196164e+01	1.646648e+02
2.870000e-06	2.950626e-06	2.503599e-09	2.212320e+01	1.662044e+02
2.880000e-06	2.971974e-06	2.524444e-09	2.228326e+01	1.677212e+02
2.890000e-06	2.993035e-06	2.547197e-09	2.244118e+01	1.692156e+02
2.900000e-06	3.013852e-06	2.570463e-09	2.259726e+01	1.706877e+02
