# Temperatura_=_20.0
# Concentracion g/m^3_=_12600.0
# C_Vs_to_Am_M_A/Vsm_=_65563218390.804596
# pendiente_HvsI_1/m_=_3716.3
# ordenada_HvsI_A/m_=_1297.0
# frecuencia_Hz_=_135037.08649232142

Tiempo_(s)	Campo_(V.s)	Magnetizacion_(V.s)	Campo_(kA/m)	Magnetizacion_(A/m)
0.000000e+00	-3.877905e-06	-3.611533e-09	-2.915206e+01	-2.368406e+02
1.000000e-08	-3.878014e-06	-3.615150e-09	-2.915287e+01	-2.368337e+02
2.000000e-08	-3.877976e-06	-3.617846e-09	-2.915259e+01	-2.368093e+02
3.000000e-08	-3.877787e-06	-3.616995e-09	-2.915117e+01	-2.367676e+02
4.000000e-08	-3.877249e-06	-3.616636e-09	-2.914712e+01	-2.367090e+02
5.000000e-08	-3.876267e-06	-3.629289e-09	-2.913975e+01	-2.366339e+02
6.000000e-08	-3.874900e-06	-3.647640e-09	-2.912947e+01	-2.365428e+02
7.000000e-08	-3.873069e-06	-3.656451e-09	-2.911570e+01	-2.364364e+02
8.000000e-08	-3.870722e-06	-3.616256e-09	-2.909806e+01	-2.363153e+02
9.000000e-08	-3.867993e-06	-3.527782e-09	-2.907754e+01	-2.361802e+02
1.000000e-07	-3.864907e-06	-3.516310e-09	-2.905434e+01	-2.360319e+02
1.100000e-07	-3.861478e-06	-3.566876e-09	-2.902857e+01	-2.358714e+02
1.200000e-07	-3.857889e-06	-3.592096e-09	-2.900159e+01	-2.356993e+02
1.300000e-07	-3.854250e-06	-3.661092e-09	-2.897423e+01	-2.355166e+02
1.400000e-07	-3.850454e-06	-3.651112e-09	-2.894570e+01	-2.353241e+02
1.500000e-07	-3.846404e-06	-3.525240e-09	-2.891525e+01	-2.351226e+02
1.600000e-07	-3.842194e-06	-3.497621e-09	-2.888360e+01	-2.349129e+02
1.700000e-07	-3.837791e-06	-3.603430e-09	-2.885050e+01	-2.346958e+02
1.800000e-07	-3.833107e-06	-3.653340e-09	-2.881529e+01	-2.344719e+02
1.900000e-07	-3.828109e-06	-3.581969e-09	-2.877771e+01	-2.342417e+02
2.000000e-07	-3.822785e-06	-3.527823e-09	-2.873769e+01	-2.340059e+02
2.100000e-07	-3.817184e-06	-3.554591e-09	-2.869559e+01	-2.337648e+02
2.200000e-07	-3.811273e-06	-3.603428e-09	-2.865115e+01	-2.335188e+02
2.300000e-07	-3.805168e-06	-3.595684e-09	-2.860526e+01	-2.332679e+02
2.400000e-07	-3.798879e-06	-3.549503e-09	-2.855798e+01	-2.330125e+02
2.500000e-07	-3.792190e-06	-3.496944e-09	-2.850770e+01	-2.327523e+02
2.600000e-07	-3.785157e-06	-3.502224e-09	-2.845482e+01	-2.324873e+02
2.700000e-07	-3.777893e-06	-3.582309e-09	-2.840022e+01	-2.322173e+02
2.800000e-07	-3.770471e-06	-3.618788e-09	-2.834443e+01	-2.319419e+02
2.900000e-07	-3.762885e-06	-3.504077e-09	-2.828740e+01	-2.316607e+02
3.000000e-07	-3.755087e-06	-3.412160e-09	-2.822878e+01	-2.313731e+02
3.100000e-07	-3.747124e-06	-3.513498e-09	-2.816892e+01	-2.310786e+02
3.200000e-07	-3.738931e-06	-3.639382e-09	-2.810732e+01	-2.307766e+02
3.300000e-07	-3.730476e-06	-3.563132e-09	-2.804376e+01	-2.304662e+02
3.400000e-07	-3.721630e-06	-3.402076e-09	-2.797726e+01	-2.301468e+02
3.500000e-07	-3.712379e-06	-3.424343e-09	-2.790772e+01	-2.298176e+02
3.600000e-07	-3.702843e-06	-3.569822e-09	-2.783603e+01	-2.294778e+02
3.700000e-07	-3.692807e-06	-3.574813e-09	-2.776059e+01	-2.291266e+02
3.800000e-07	-3.682269e-06	-3.437381e-09	-2.768137e+01	-2.287632e+02
3.900000e-07	-3.671362e-06	-3.386743e-09	-2.759938e+01	-2.283869e+02
4.000000e-07	-3.660154e-06	-3.471912e-09	-2.751512e+01	-2.279970e+02
4.100000e-07	-3.648642e-06	-3.533296e-09	-2.742858e+01	-2.275928e+02
4.200000e-07	-3.636842e-06	-3.484350e-09	-2.733987e+01	-2.271739e+02
4.300000e-07	-3.624915e-06	-3.401815e-09	-2.725021e+01	-2.267396e+02
4.400000e-07	-3.612813e-06	-3.382499e-09	-2.715924e+01	-2.262896e+02
4.500000e-07	-3.600385e-06	-3.451890e-09	-2.706581e+01	-2.258235e+02
4.600000e-07	-3.587599e-06	-3.506517e-09	-2.696969e+01	-2.253411e+02
4.700000e-07	-3.574536e-06	-3.441459e-09	-2.687149e+01	-2.248423e+02
4.800000e-07	-3.561190e-06	-3.333260e-09	-2.677116e+01	-2.243271e+02
4.900000e-07	-3.547604e-06	-3.354555e-09	-2.666903e+01	-2.237954e+02
5.000000e-07	-3.533827e-06	-3.460721e-09	-2.656546e+01	-2.232475e+02
5.100000e-07	-3.519739e-06	-3.452967e-09	-2.645955e+01	-2.226836e+02
5.200000e-07	-3.505234e-06	-3.333752e-09	-2.635051e+01	-2.221041e+02
5.300000e-07	-3.490334e-06	-3.298997e-09	-2.623850e+01	-2.215094e+02
5.400000e-07	-3.475090e-06	-3.375113e-09	-2.612390e+01	-2.208999e+02
5.500000e-07	-3.459421e-06	-3.410727e-09	-2.600612e+01	-2.202763e+02
5.600000e-07	-3.443506e-06	-3.349155e-09	-2.588648e+01	-2.196390e+02
5.700000e-07	-3.427263e-06	-3.291510e-09	-2.576436e+01	-2.189889e+02
5.800000e-07	-3.410686e-06	-3.302776e-09	-2.563975e+01	-2.183265e+02
5.900000e-07	-3.393863e-06	-3.340101e-09	-2.551328e+01	-2.176526e+02
6.000000e-07	-3.376843e-06	-3.334358e-09	-2.538533e+01	-2.169679e+02
6.100000e-07	-3.359680e-06	-3.279636e-09	-2.525631e+01	-2.162730e+02
6.200000e-07	-3.342295e-06	-3.240802e-09	-2.512562e+01	-2.155687e+02
6.300000e-07	-3.324793e-06	-3.261396e-09	-2.499405e+01	-2.148555e+02
6.400000e-07	-3.307040e-06	-3.289789e-09	-2.486059e+01	-2.141341e+02
6.500000e-07	-3.289012e-06	-3.262650e-09	-2.472507e+01	-2.134050e+02
6.600000e-07	-3.270777e-06	-3.211633e-09	-2.458799e+01	-2.126688e+02
6.700000e-07	-3.252385e-06	-3.203060e-09	-2.444973e+01	-2.119258e+02
6.800000e-07	-3.233738e-06	-3.229096e-09	-2.430955e+01	-2.111764e+02
6.900000e-07	-3.214776e-06	-3.225906e-09	-2.416700e+01	-2.104209e+02
7.000000e-07	-3.195498e-06	-3.180188e-09	-2.402208e+01	-2.096594e+02
7.100000e-07	-3.175993e-06	-3.144518e-09	-2.387545e+01	-2.088920e+02
7.200000e-07	-3.156388e-06	-3.151601e-09	-2.372807e+01	-2.081188e+02
7.300000e-07	-3.136639e-06	-3.163245e-09	-2.357961e+01	-2.073396e+02
7.400000e-07	-3.116792e-06	-3.142080e-09	-2.343041e+01	-2.065543e+02
7.500000e-07	-3.096875e-06	-3.107479e-09	-2.328068e+01	-2.057626e+02
7.600000e-07	-3.076832e-06	-3.096231e-09	-2.313001e+01	-2.049643e+02
7.700000e-07	-3.056609e-06	-3.100670e-09	-2.297798e+01	-2.041589e+02
7.800000e-07	-3.036210e-06	-3.092147e-09	-2.282463e+01	-2.033459e+02
7.900000e-07	-3.015599e-06	-3.065961e-09	-2.266969e+01	-2.025249e+02
8.000000e-07	-2.994754e-06	-3.042848e-09	-2.251299e+01	-2.016953e+02
8.100000e-07	-2.973683e-06	-3.036117e-09	-2.235459e+01	-2.008565e+02
8.200000e-07	-2.952327e-06	-3.036462e-09	-2.219405e+01	-2.000080e+02
8.300000e-07	-2.930773e-06	-3.023928e-09	-2.203202e+01	-1.991490e+02
8.400000e-07	-2.909130e-06	-2.998571e-09	-2.186931e+01	-1.982791e+02
8.500000e-07	-2.887329e-06	-2.979346e-09	-2.170542e+01	-1.973977e+02
8.600000e-07	-2.865256e-06	-2.973472e-09	-2.153949e+01	-1.965040e+02
8.700000e-07	-2.842989e-06	-2.963548e-09	-2.137210e+01	-1.955977e+02
8.800000e-07	-2.820602e-06	-2.941546e-09	-2.120381e+01	-1.946783e+02
8.900000e-07	-2.797900e-06	-2.919695e-09	-2.103314e+01	-1.937452e+02
9.000000e-07	-2.774938e-06	-2.908078e-09	-2.086053e+01	-1.927981e+02
9.100000e-07	-2.751846e-06	-2.899821e-09	-2.068693e+01	-1.918367e+02
9.200000e-07	-2.728576e-06	-2.883137e-09	-2.051201e+01	-1.908607e+02
9.300000e-07	-2.705181e-06	-2.860566e-09	-2.033613e+01	-1.898701e+02
9.400000e-07	-2.681644e-06	-2.844904e-09	-2.015919e+01	-1.888646e+02
9.500000e-07	-2.657937e-06	-2.836259e-09	-1.998097e+01	-1.878443e+02
9.600000e-07	-2.634122e-06	-2.823076e-09	-1.980195e+01	-1.868092e+02
9.700000e-07	-2.610180e-06	-2.801766e-09	-1.962197e+01	-1.857595e+02
9.800000e-07	-2.586047e-06	-2.784302e-09	-1.944054e+01	-1.846953e+02
9.900000e-07	-2.561797e-06	-2.774990e-09	-1.925825e+01	-1.836169e+02
1.000000e-06	-2.537416e-06	-2.762035e-09	-1.907496e+01	-1.825245e+02
1.010000e-06	-2.512835e-06	-2.739974e-09	-1.889017e+01	-1.814187e+02
1.020000e-06	-2.487971e-06	-2.717208e-09	-1.870326e+01	-1.802996e+02
1.030000e-06	-2.462819e-06	-2.702655e-09	-1.851418e+01	-1.791678e+02
1.040000e-06	-2.437363e-06	-2.689156e-09	-1.832281e+01	-1.780236e+02
1.050000e-06	-2.411519e-06	-2.669174e-09	-1.812853e+01	-1.768675e+02
1.060000e-06	-2.385301e-06	-2.647291e-09	-1.793144e+01	-1.756999e+02
1.070000e-06	-2.358830e-06	-2.630385e-09	-1.773245e+01	-1.745212e+02
1.080000e-06	-2.332233e-06	-2.616437e-09	-1.753250e+01	-1.733317e+02
1.090000e-06	-2.305332e-06	-2.598970e-09	-1.733028e+01	-1.721319e+02
1.100000e-06	-2.278167e-06	-2.575180e-09	-1.712606e+01	-1.709219e+02
1.110000e-06	-2.250805e-06	-2.552291e-09	-1.692037e+01	-1.697021e+02
1.120000e-06	-2.223271e-06	-2.533720e-09	-1.671338e+01	-1.684725e+02
1.130000e-06	-2.195657e-06	-2.518417e-09	-1.650580e+01	-1.672335e+02
1.140000e-06	-2.168005e-06	-2.499816e-09	-1.629793e+01	-1.659849e+02
1.150000e-06	-2.140300e-06	-2.475691e-09	-1.608965e+01	-1.647268e+02
1.160000e-06	-2.112469e-06	-2.455488e-09	-1.588043e+01	-1.634592e+02
1.170000e-06	-2.084629e-06	-2.439191e-09	-1.567115e+01	-1.621819e+02
1.180000e-06	-2.056694e-06	-2.421238e-09	-1.546115e+01	-1.608948e+02
1.190000e-06	-2.028578e-06	-2.398523e-09	-1.524979e+01	-1.595976e+02
1.200000e-06	-2.000388e-06	-2.374066e-09	-1.503787e+01	-1.582900e+02
1.210000e-06	-1.972103e-06	-2.354490e-09	-1.482524e+01	-1.569717e+02
1.220000e-06	-1.943687e-06	-2.340714e-09	-1.461162e+01	-1.556425e+02
1.230000e-06	-1.915045e-06	-2.321882e-09	-1.439631e+01	-1.543019e+02
1.240000e-06	-1.886247e-06	-2.296905e-09	-1.417982e+01	-1.529496e+02
1.250000e-06	-1.857382e-06	-2.274330e-09	-1.396282e+01	-1.515852e+02
1.260000e-06	-1.828308e-06	-2.255088e-09	-1.374426e+01	-1.502084e+02
1.270000e-06	-1.799062e-06	-2.236518e-09	-1.352440e+01	-1.488189e+02
1.280000e-06	-1.769714e-06	-2.212859e-09	-1.330378e+01	-1.474165e+02
1.290000e-06	-1.740274e-06	-2.185694e-09	-1.308246e+01	-1.460008e+02
1.300000e-06	-1.710683e-06	-2.161827e-09	-1.286002e+01	-1.445717e+02
1.310000e-06	-1.680981e-06	-2.144287e-09	-1.263673e+01	-1.431290e+02
1.320000e-06	-1.651236e-06	-2.124681e-09	-1.241313e+01	-1.416727e+02
1.330000e-06	-1.621430e-06	-2.097824e-09	-1.218906e+01	-1.402029e+02
1.340000e-06	-1.591501e-06	-2.069537e-09	-1.196407e+01	-1.387194e+02
1.350000e-06	-1.561441e-06	-2.048300e-09	-1.173810e+01	-1.372226e+02
1.360000e-06	-1.531322e-06	-2.029941e-09	-1.151168e+01	-1.357125e+02
1.370000e-06	-1.501200e-06	-2.005202e-09	-1.128523e+01	-1.341894e+02
1.380000e-06	-1.470990e-06	-1.977474e-09	-1.105814e+01	-1.326537e+02
1.390000e-06	-1.440586e-06	-1.953803e-09	-1.082957e+01	-1.311057e+02
1.400000e-06	-1.410016e-06	-1.934101e-09	-1.059976e+01	-1.295458e+02
1.410000e-06	-1.379387e-06	-1.912589e-09	-1.036951e+01	-1.279744e+02
1.420000e-06	-1.348667e-06	-1.886870e-09	-1.013857e+01	-1.263920e+02
1.430000e-06	-1.317829e-06	-1.860868e-09	-9.906749e+00	-1.247990e+02
1.440000e-06	-1.286878e-06	-1.836909e-09	-9.674072e+00	-1.231958e+02
1.450000e-06	-1.255865e-06	-1.813196e-09	-9.440938e+00	-1.215830e+02
1.460000e-06	-1.224826e-06	-1.788131e-09	-9.207600e+00	-1.199609e+02
1.470000e-06	-1.193595e-06	-1.764011e-09	-8.972821e+00	-1.183299e+02
1.480000e-06	-1.162249e-06	-1.742962e-09	-8.737179e+00	-1.166903e+02
1.490000e-06	-1.130883e-06	-1.718714e-09	-8.501386e+00	-1.150424e+02
1.500000e-06	-1.099439e-06	-1.691188e-09	-8.265005e+00	-1.133864e+02
1.510000e-06	-1.067895e-06	-1.663507e-09	-8.027877e+00	-1.117224e+02
1.520000e-06	-1.036270e-06	-1.636551e-09	-7.790133e+00	-1.100505e+02
1.530000e-06	-1.004603e-06	-1.612717e-09	-7.552077e+00	-1.083706e+02
1.540000e-06	-9.729253e-07	-1.591001e-09	-7.313943e+00	-1.066826e+02
1.550000e-06	-9.411788e-07	-1.566690e-09	-7.075289e+00	-1.049864e+02
1.560000e-06	-9.093722e-07	-1.539020e-09	-6.836184e+00	-1.032816e+02
1.570000e-06	-8.775764e-07	-1.509359e-09	-6.597159e+00	-1.015680e+02
1.580000e-06	-8.457668e-07	-1.479746e-09	-6.358032e+00	-9.984508e+01
1.590000e-06	-8.139144e-07	-1.452453e-09	-6.118582e+00	-9.811242e+01
1.600000e-06	-7.820365e-07	-1.426400e-09	-5.878940e+00	-9.636950e+01
1.610000e-06	-7.501169e-07	-1.399611e-09	-5.638986e+00	-9.461576e+01
1.620000e-06	-7.181735e-07	-1.373561e-09	-5.398852e+00	-9.285062e+01
1.630000e-06	-6.862047e-07	-1.348344e-09	-5.158528e+00	-9.107349e+01
1.640000e-06	-6.542285e-07	-1.319879e-09	-4.918147e+00	-8.928375e+01
1.650000e-06	-6.222491e-07	-1.290568e-09	-4.677743e+00	-8.748083e+01
1.660000e-06	-5.902066e-07	-1.262136e-09	-4.436864e+00	-8.566417e+01
1.670000e-06	-5.581328e-07	-1.233315e-09	-4.195750e+00	-8.383323e+01
1.680000e-06	-5.260569e-07	-1.204384e-09	-3.954620e+00	-8.198754e+01
1.690000e-06	-4.939375e-07	-1.178475e-09	-3.713163e+00	-8.012669e+01
1.700000e-06	-4.618528e-07	-1.151561e-09	-3.471967e+00	-7.825031e+01
1.710000e-06	-4.298271e-07	-1.120161e-09	-3.231214e+00	-7.635813e+01
1.720000e-06	-3.977278e-07	-1.091213e-09	-2.989909e+00	-7.444997e+01
1.730000e-06	-3.655559e-07	-1.066042e-09	-2.748057e+00	-7.252570e+01
1.740000e-06	-3.333332e-07	-1.039879e-09	-2.505824e+00	-7.058532e+01
1.750000e-06	-3.010975e-07	-1.009758e-09	-2.263493e+00	-6.862889e+01
1.760000e-06	-2.689275e-07	-9.788047e-10	-2.021656e+00	-6.665657e+01
1.770000e-06	-2.367391e-07	-9.492687e-10	-1.779680e+00	-6.466860e+01
1.780000e-06	-2.044691e-07	-9.196435e-10	-1.537092e+00	-6.266531e+01
1.790000e-06	-1.721702e-07	-8.886505e-10	-1.294285e+00	-6.064708e+01
1.800000e-06	-1.398578e-07	-8.579539e-10	-1.051378e+00	-5.861438e+01
1.810000e-06	-1.075357e-07	-8.285705e-10	-8.083968e-01	-5.656771e+01
1.820000e-06	-7.528998e-08	-7.985379e-10	-5.659906e-01	-5.450765e+01
1.830000e-06	-4.308846e-08	-7.653667e-10	-3.239164e-01	-5.243478e+01
1.840000e-06	-1.077619e-08	-7.317238e-10	-8.100978e-02	-5.034972e+01
1.850000e-06	2.155615e-08	-6.989076e-10	1.620479e-01	-4.825311e+01
1.860000e-06	5.387538e-08	-6.673445e-10	4.050069e-01	-4.614556e+01
1.870000e-06	8.615171e-08	-6.349121e-10	6.476434e-01	-4.402771e+01
1.880000e-06	1.183527e-07	-6.015139e-10	8.897135e-01	-4.190015e+01
1.890000e-06	1.506028e-07	-5.688192e-10	1.132153e+00	-3.976344e+01
1.900000e-06	1.829240e-07	-5.352255e-10	1.375126e+00	-3.761811e+01
1.910000e-06	2.152276e-07	-5.039959e-10	1.617968e+00	-3.546465e+01
1.920000e-06	2.474598e-07	-4.758521e-10	1.860273e+00	-3.330348e+01
1.930000e-06	2.796754e-07	-4.477601e-10	2.102453e+00	-3.113497e+01
1.940000e-06	3.118720e-07	-4.171321e-10	2.344490e+00	-2.895944e+01
1.950000e-06	3.440574e-07	-3.829061e-10	2.586443e+00	-2.677713e+01
1.960000e-06	3.762337e-07	-3.494047e-10	2.828328e+00	-2.458822e+01
1.970000e-06	4.083740e-07	-3.175311e-10	3.069942e+00	-2.239286e+01
1.980000e-06	4.404499e-07	-2.850044e-10	3.311072e+00	-2.019110e+01
1.990000e-06	4.725149e-07	-2.507553e-10	3.552120e+00	-1.798297e+01
2.000000e-06	5.046206e-07	-2.144921e-10	3.793473e+00	-1.576842e+01
2.010000e-06	5.366772e-07	-1.809666e-10	4.034458e+00	-1.354740e+01
2.020000e-06	5.686700e-07	-1.522239e-10	4.274963e+00	-1.131979e+01
2.030000e-06	6.006381e-07	-1.253409e-10	4.515282e+00	-9.085451e+00
2.040000e-06	6.325784e-07	-9.462480e-11	4.755393e+00	-6.844234e+00
2.050000e-06	6.645059e-07	-6.086300e-11	4.995407e+00	-4.595971e+00
2.060000e-06	6.964415e-07	-2.639343e-11	5.235482e+00	-2.340492e+00
2.070000e-06	7.283761e-07	6.742011e-12	5.475550e+00	-7.762966e-02
2.080000e-06	7.603025e-07	4.111789e-11	5.715556e+00	2.192771e+00
2.090000e-06	7.921929e-07	7.764536e-11	5.955291e+00	4.470846e+00
2.100000e-06	8.240468e-07	1.148729e-10	6.194752e+00	6.756711e+00
2.110000e-06	8.558735e-07	1.490145e-10	6.434009e+00	9.050448e+00
2.120000e-06	8.876746e-07	1.791538e-10	6.673072e+00	1.135211e+01
2.130000e-06	9.194372e-07	2.109673e-10	6.911847e+00	1.366171e+01
2.140000e-06	9.511660e-07	2.476537e-10	7.150368e+00	1.597921e+01
2.150000e-06	9.829316e-07	2.851188e-10	7.389164e+00	1.830456e+01
2.160000e-06	1.014703e-06	3.193242e-10	7.628008e+00	2.063764e+01
2.170000e-06	1.046373e-06	3.542282e-10	7.866083e+00	2.297830e+01
2.180000e-06	1.077973e-06	3.917313e-10	8.103636e+00	2.532634e+01
2.190000e-06	1.109579e-06	4.314083e-10	8.341236e+00	2.768153e+01
2.200000e-06	1.141071e-06	4.689522e-10	8.577970e+00	3.004360e+01
2.210000e-06	1.172435e-06	5.023591e-10	8.813750e+00	3.241222e+01
2.220000e-06	1.203780e-06	5.338949e-10	9.049387e+00	3.478706e+01
2.230000e-06	1.235049e-06	5.678082e-10	9.284451e+00	3.716774e+01
2.240000e-06	1.266178e-06	6.050839e-10	9.518459e+00	3.955386e+01
2.250000e-06	1.297121e-06	6.411303e-10	9.751075e+00	4.194498e+01
2.260000e-06	1.327896e-06	6.751392e-10	9.982424e+00	4.434065e+01
2.270000e-06	1.358500e-06	7.092145e-10	1.021249e+01	4.674040e+01
2.280000e-06	1.389030e-06	7.438749e-10	1.044200e+01	4.914372e+01
2.290000e-06	1.419502e-06	7.792855e-10	1.067107e+01	5.155010e+01
2.300000e-06	1.449750e-06	8.141599e-10	1.089846e+01	5.395903e+01
2.310000e-06	1.479824e-06	8.468536e-10	1.112454e+01	5.636995e+01
2.320000e-06	1.509931e-06	8.791916e-10	1.135087e+01	5.878231e+01
2.330000e-06	1.540052e-06	9.141770e-10	1.157730e+01	6.119554e+01
2.340000e-06	1.570100e-06	9.517619e-10	1.180319e+01	6.360905e+01
2.350000e-06	1.600053e-06	9.880081e-10	1.202836e+01	6.602226e+01
2.360000e-06	1.629847e-06	1.021255e-09	1.225233e+01	6.843455e+01
2.370000e-06	1.659574e-06	1.057236e-09	1.247580e+01	7.084530e+01
2.380000e-06	1.689289e-06	1.096280e-09	1.269919e+01	7.325389e+01
2.390000e-06	1.718819e-06	1.134553e-09	1.292118e+01	7.565966e+01
2.400000e-06	1.748150e-06	1.171815e-09	1.314168e+01	7.806195e+01
2.410000e-06	1.777507e-06	1.208212e-09	1.336237e+01	8.046010e+01
2.420000e-06	1.806807e-06	1.242863e-09	1.358263e+01	8.285344e+01
2.430000e-06	1.835919e-06	1.277615e-09	1.380148e+01	8.524126e+01
2.440000e-06	1.864793e-06	1.312988e-09	1.401854e+01	8.762287e+01
2.450000e-06	1.893409e-06	1.348276e-09	1.423366e+01	8.999757e+01
2.460000e-06	1.921878e-06	1.383166e-09	1.444767e+01	9.236466e+01
2.470000e-06	1.950246e-06	1.419396e-09	1.466092e+01	9.472343e+01
2.480000e-06	1.978519e-06	1.456927e-09	1.487347e+01	9.707318e+01
2.490000e-06	2.006698e-06	1.491297e-09	1.508530e+01	9.941320e+01
2.500000e-06	2.034777e-06	1.525871e-09	1.529639e+01	1.017428e+02
2.510000e-06	2.062769e-06	1.558507e-09	1.550682e+01	1.040613e+02
2.520000e-06	2.090674e-06	1.588777e-09	1.571659e+01	1.063681e+02
2.530000e-06	2.118490e-06	1.619231e-09	1.592570e+01	1.086625e+02
2.540000e-06	2.146224e-06	1.651828e-09	1.613419e+01	1.109439e+02
2.550000e-06	2.173908e-06	1.686126e-09	1.634230e+01	1.132116e+02
2.560000e-06	2.201551e-06	1.719252e-09	1.655011e+01	1.154652e+02
2.570000e-06	2.229113e-06	1.751725e-09	1.675730e+01	1.177041e+02
2.580000e-06	2.256543e-06	1.783782e-09	1.696351e+01	1.199277e+02
2.590000e-06	2.283784e-06	1.818002e-09	1.716829e+01	1.221357e+02
2.600000e-06	2.310847e-06	1.851689e-09	1.737173e+01	1.243275e+02
2.610000e-06	2.337703e-06	1.883022e-09	1.757363e+01	1.265027e+02
2.620000e-06	2.364229e-06	1.914582e-09	1.777304e+01	1.286610e+02
2.630000e-06	2.390388e-06	1.946518e-09	1.796968e+01	1.308019e+02
2.640000e-06	2.416135e-06	1.977973e-09	1.816324e+01	1.329252e+02
2.650000e-06	2.441608e-06	2.009038e-09	1.835473e+01	1.350305e+02
2.660000e-06	2.466937e-06	2.037477e-09	1.854514e+01	1.371175e+02
2.670000e-06	2.491838e-06	2.064795e-09	1.873233e+01	1.391860e+02
2.680000e-06	2.516424e-06	2.093813e-09	1.891716e+01	1.412356e+02
2.690000e-06	2.540887e-06	2.124527e-09	1.910105e+01	1.432660e+02
2.700000e-06	2.565117e-06	2.155455e-09	1.928321e+01	1.452771e+02
2.710000e-06	2.589172e-06	2.185596e-09	1.946403e+01	1.472686e+02
2.720000e-06	2.613116e-06	2.215780e-09	1.964404e+01	1.492401e+02
2.730000e-06	2.636972e-06	2.244644e-09	1.982337e+01	1.511913e+02
2.740000e-06	2.660706e-06	2.273264e-09	2.000179e+01	1.531221e+02
2.750000e-06	2.684352e-06	2.301945e-09	2.017955e+01	1.550320e+02
2.760000e-06	2.707871e-06	2.328736e-09	2.035635e+01	1.569207e+02
2.770000e-06	2.731100e-06	2.356412e-09	2.053098e+01	1.587880e+02
2.780000e-06	2.754143e-06	2.389183e-09	2.070420e+01	1.606335e+02
2.790000e-06	2.777036e-06	2.421428e-09	2.087630e+01	1.624567e+02
2.800000e-06	2.799619e-06	2.451456e-09	2.104607e+01	1.642574e+02
2.810000e-06	2.821974e-06	2.480174e-09	2.121412e+01	1.660353e+02
2.820000e-06	2.844195e-06	2.505666e-09	2.138117e+01	1.677898e+02
2.830000e-06	2.866292e-06	2.529533e-09	2.154728e+01	1.695207e+02
2.840000e-06	2.888219e-06	2.553048e-09	2.171211e+01	1.712276e+02
2.850000e-06	2.909906e-06	2.577518e-09	2.187515e+01	1.729102e+02
2.860000e-06	2.931372e-06	2.601526e-09	2.203652e+01	1.745681e+02
2.870000e-06	2.952653e-06	2.625365e-09	2.219649e+01	1.762012e+02
2.880000e-06	2.973746e-06	2.648639e-09	2.235506e+01	1.778091e+02
2.890000e-06	2.994624e-06	2.672699e-09	2.251202e+01	1.793917e+02
2.900000e-06	3.015292e-06	2.698497e-09	2.266738e+01	1.809488e+02
