# Temperatura_=_20.0
# Concentracion g/m^3_=_12600.0
# C_Vs_to_Am_M_A/Vsm_=_65563218390.804596
# pendiente_HvsI_1/m_=_3716.3
# ordenada_HvsI_A/m_=_1297.0
# frecuencia_Hz_=_135036.7263004385

Tiempo_(s)	Campo_(V.s)	Magnetizacion_(V.s)	Campo_(kA/m)	Magnetizacion_(A/m)
0.000000e+00	-3.884141e-06	-3.308596e-09	-2.913833e+01	-2.170351e+02
1.000000e-08	-3.884173e-06	-3.305323e-09	-2.913856e+01	-2.170489e+02
2.000000e-08	-3.883990e-06	-3.305357e-09	-2.913719e+01	-2.170437e+02
3.000000e-08	-3.883717e-06	-3.310514e-09	-2.913514e+01	-2.170200e+02
4.000000e-08	-3.883283e-06	-3.317817e-09	-2.913189e+01	-2.169784e+02
5.000000e-08	-3.882483e-06	-3.339083e-09	-2.912589e+01	-2.169197e+02
6.000000e-08	-3.881216e-06	-3.347342e-09	-2.911638e+01	-2.168447e+02
7.000000e-08	-3.879402e-06	-3.323709e-09	-2.910277e+01	-2.167543e+02
8.000000e-08	-3.877120e-06	-3.257250e-09	-2.908565e+01	-2.166496e+02
9.000000e-08	-3.874341e-06	-3.289688e-09	-2.906481e+01	-2.165316e+02
1.000000e-07	-3.871102e-06	-3.248142e-09	-2.904051e+01	-2.164014e+02
1.100000e-07	-3.867639e-06	-3.261226e-09	-2.901453e+01	-2.162602e+02
1.200000e-07	-3.863905e-06	-3.349878e-09	-2.898651e+01	-2.161090e+02
1.300000e-07	-3.859970e-06	-3.223756e-09	-2.895700e+01	-2.159491e+02
1.400000e-07	-3.856012e-06	-3.226875e-09	-2.892730e+01	-2.157813e+02
1.500000e-07	-3.851941e-06	-3.275831e-09	-2.889677e+01	-2.156067e+02
1.600000e-07	-3.847661e-06	-3.293793e-09	-2.886466e+01	-2.154262e+02
1.700000e-07	-3.843093e-06	-3.281911e-09	-2.883039e+01	-2.152405e+02
1.800000e-07	-3.838289e-06	-3.278305e-09	-2.879435e+01	-2.150503e+02
1.900000e-07	-3.833266e-06	-3.256160e-09	-2.875667e+01	-2.148562e+02
2.000000e-07	-3.828036e-06	-3.250154e-09	-2.871743e+01	-2.146585e+02
2.100000e-07	-3.822528e-06	-3.284919e-09	-2.867611e+01	-2.144576e+02
2.200000e-07	-3.816630e-06	-3.304064e-09	-2.863187e+01	-2.142534e+02
2.300000e-07	-3.810447e-06	-3.256077e-09	-2.858548e+01	-2.140461e+02
2.400000e-07	-3.804024e-06	-3.174054e-09	-2.853730e+01	-2.138353e+02
2.500000e-07	-3.797331e-06	-3.233661e-09	-2.848709e+01	-2.136209e+02
2.600000e-07	-3.790279e-06	-3.322873e-09	-2.843418e+01	-2.134023e+02
2.700000e-07	-3.782868e-06	-3.288200e-09	-2.837858e+01	-2.131790e+02
2.800000e-07	-3.775209e-06	-3.170482e-09	-2.832113e+01	-2.129503e+02
2.900000e-07	-3.767396e-06	-3.189091e-09	-2.826252e+01	-2.127156e+02
3.000000e-07	-3.759418e-06	-3.268230e-09	-2.820267e+01	-2.124740e+02
3.100000e-07	-3.751275e-06	-3.273083e-09	-2.814158e+01	-2.122248e+02
3.200000e-07	-3.742976e-06	-3.197809e-09	-2.807932e+01	-2.119669e+02
3.300000e-07	-3.734501e-06	-3.184478e-09	-2.801574e+01	-2.116997e+02
3.400000e-07	-3.725822e-06	-3.211059e-09	-2.795064e+01	-2.114222e+02
3.500000e-07	-3.716765e-06	-3.213810e-09	-2.788269e+01	-2.111336e+02
3.600000e-07	-3.707297e-06	-3.203630e-09	-2.781166e+01	-2.108331e+02
3.700000e-07	-3.697504e-06	-3.212185e-09	-2.773820e+01	-2.105200e+02
3.800000e-07	-3.687173e-06	-3.181276e-09	-2.766069e+01	-2.101937e+02
3.900000e-07	-3.676300e-06	-3.141573e-09	-2.757913e+01	-2.098537e+02
4.000000e-07	-3.665128e-06	-3.188762e-09	-2.749532e+01	-2.094995e+02
4.100000e-07	-3.653611e-06	-3.241521e-09	-2.740892e+01	-2.091308e+02
4.200000e-07	-3.641764e-06	-3.173374e-09	-2.732004e+01	-2.087473e+02
4.300000e-07	-3.629707e-06	-3.086961e-09	-2.722959e+01	-2.083490e+02
4.400000e-07	-3.617428e-06	-3.138504e-09	-2.713747e+01	-2.079357e+02
4.500000e-07	-3.604944e-06	-3.211624e-09	-2.704382e+01	-2.075077e+02
4.600000e-07	-3.592219e-06	-3.170140e-09	-2.694836e+01	-2.070650e+02
4.700000e-07	-3.579195e-06	-3.090206e-09	-2.685066e+01	-2.066081e+02
4.800000e-07	-3.565824e-06	-3.102480e-09	-2.675035e+01	-2.061371e+02
4.900000e-07	-3.552160e-06	-3.145663e-09	-2.664785e+01	-2.056526e+02
5.000000e-07	-3.538263e-06	-3.152041e-09	-2.654359e+01	-2.051550e+02
5.100000e-07	-3.524126e-06	-3.119310e-09	-2.643754e+01	-2.046449e+02
5.200000e-07	-3.509764e-06	-3.080664e-09	-2.632980e+01	-2.041227e+02
5.300000e-07	-3.495052e-06	-3.060563e-09	-2.621943e+01	-2.035890e+02
5.400000e-07	-3.479960e-06	-3.095530e-09	-2.610621e+01	-2.030444e+02
5.500000e-07	-3.464511e-06	-3.118218e-09	-2.599032e+01	-2.024894e+02
5.600000e-07	-3.448473e-06	-3.066385e-09	-2.587000e+01	-2.019245e+02
5.700000e-07	-3.432186e-06	-3.010539e-09	-2.574781e+01	-2.013503e+02
5.800000e-07	-3.415779e-06	-3.040012e-09	-2.562473e+01	-2.007671e+02
5.900000e-07	-3.398997e-06	-3.079917e-09	-2.549884e+01	-2.001753e+02
6.000000e-07	-3.381970e-06	-3.048709e-09	-2.537110e+01	-1.995752e+02
6.100000e-07	-3.364730e-06	-2.994191e-09	-2.524177e+01	-1.989671e+02
6.200000e-07	-3.347322e-06	-2.987001e-09	-2.511117e+01	-1.983512e+02
6.300000e-07	-3.329794e-06	-3.008358e-09	-2.497969e+01	-1.977277e+02
6.400000e-07	-3.312047e-06	-3.011520e-09	-2.484655e+01	-1.970965e+02
6.500000e-07	-3.294027e-06	-2.983907e-09	-2.471137e+01	-1.964577e+02
6.600000e-07	-3.275810e-06	-2.952887e-09	-2.457470e+01	-1.958114e+02
6.700000e-07	-3.257317e-06	-2.948976e-09	-2.443597e+01	-1.951573e+02
6.800000e-07	-3.238535e-06	-2.959061e-09	-2.429507e+01	-1.944954e+02
6.900000e-07	-3.219440e-06	-2.953531e-09	-2.415182e+01	-1.938254e+02
7.000000e-07	-3.200056e-06	-2.926908e-09	-2.400641e+01	-1.931473e+02
7.100000e-07	-3.180532e-06	-2.902179e-09	-2.385994e+01	-1.924607e+02
7.200000e-07	-3.160847e-06	-2.892523e-09	-2.371227e+01	-1.917656e+02
7.300000e-07	-3.141002e-06	-2.898297e-09	-2.356339e+01	-1.910616e+02
7.400000e-07	-3.121060e-06	-2.898159e-09	-2.341379e+01	-1.903485e+02
7.500000e-07	-3.101022e-06	-2.873886e-09	-2.326346e+01	-1.896262e+02
7.600000e-07	-3.080879e-06	-2.844910e-09	-2.311236e+01	-1.888944e+02
7.700000e-07	-3.060633e-06	-2.844605e-09	-2.296047e+01	-1.881530e+02
7.800000e-07	-3.040323e-06	-2.851213e-09	-2.280811e+01	-1.874018e+02
7.900000e-07	-3.019736e-06	-2.834538e-09	-2.265367e+01	-1.866406e+02
8.000000e-07	-2.998827e-06	-2.802444e-09	-2.249681e+01	-1.858695e+02
8.100000e-07	-2.977670e-06	-2.785726e-09	-2.233809e+01	-1.850883e+02
8.200000e-07	-2.956223e-06	-2.784895e-09	-2.217720e+01	-1.842969e+02
8.300000e-07	-2.934586e-06	-2.782580e-09	-2.201489e+01	-1.834954e+02
8.400000e-07	-2.912774e-06	-2.763338e-09	-2.185125e+01	-1.826837e+02
8.500000e-07	-2.890817e-06	-2.736416e-09	-2.168654e+01	-1.818619e+02
8.600000e-07	-2.868734e-06	-2.720019e-09	-2.152087e+01	-1.810299e+02
8.700000e-07	-2.846448e-06	-2.717685e-09	-2.135369e+01	-1.801877e+02
8.800000e-07	-2.823888e-06	-2.707819e-09	-2.118445e+01	-1.793355e+02
8.900000e-07	-2.801036e-06	-2.684627e-09	-2.101301e+01	-1.784732e+02
9.000000e-07	-2.778015e-06	-2.663331e-09	-2.084031e+01	-1.776009e+02
9.100000e-07	-2.754885e-06	-2.652062e-09	-2.066679e+01	-1.767185e+02
9.200000e-07	-2.731588e-06	-2.644423e-09	-2.049202e+01	-1.758262e+02
9.300000e-07	-2.708099e-06	-2.632333e-09	-2.031581e+01	-1.749238e+02
9.400000e-07	-2.684360e-06	-2.616471e-09	-2.013772e+01	-1.740114e+02
9.500000e-07	-2.660415e-06	-2.600284e-09	-1.995809e+01	-1.730890e+02
9.600000e-07	-2.636420e-06	-2.589601e-09	-1.977808e+01	-1.721564e+02
9.700000e-07	-2.612353e-06	-2.581259e-09	-1.959753e+01	-1.712136e+02
9.800000e-07	-2.588128e-06	-2.568556e-09	-1.941580e+01	-1.702606e+02
9.900000e-07	-2.563731e-06	-2.550994e-09	-1.923278e+01	-1.692973e+02
1.000000e-06	-2.539244e-06	-2.532408e-09	-1.904908e+01	-1.683236e+02
1.010000e-06	-2.514659e-06	-2.515090e-09	-1.886465e+01	-1.673393e+02
1.020000e-06	-2.489871e-06	-2.501515e-09	-1.867869e+01	-1.663445e+02
1.030000e-06	-2.464800e-06	-2.487564e-09	-1.849061e+01	-1.653389e+02
1.040000e-06	-2.439430e-06	-2.469326e-09	-1.830029e+01	-1.643225e+02
1.050000e-06	-2.413780e-06	-2.448302e-09	-1.810786e+01	-1.632953e+02
1.060000e-06	-2.387782e-06	-2.433053e-09	-1.791284e+01	-1.622571e+02
1.070000e-06	-2.361439e-06	-2.422530e-09	-1.771521e+01	-1.612079e+02
1.080000e-06	-2.334823e-06	-2.408101e-09	-1.751554e+01	-1.601477e+02
1.090000e-06	-2.307945e-06	-2.386330e-09	-1.731391e+01	-1.590764e+02
1.100000e-06	-2.280783e-06	-2.366255e-09	-1.711014e+01	-1.579941e+02
1.110000e-06	-2.253342e-06	-2.351711e-09	-1.690428e+01	-1.569008e+02
1.120000e-06	-2.225766e-06	-2.336750e-09	-1.669741e+01	-1.557964e+02
1.130000e-06	-2.198145e-06	-2.316268e-09	-1.649020e+01	-1.546811e+02
1.140000e-06	-2.170374e-06	-2.292874e-09	-1.628187e+01	-1.535548e+02
1.150000e-06	-2.142475e-06	-2.276163e-09	-1.607257e+01	-1.524178e+02
1.160000e-06	-2.114509e-06	-2.265903e-09	-1.586277e+01	-1.512699e+02
1.170000e-06	-2.086465e-06	-2.252422e-09	-1.565239e+01	-1.501114e+02
1.180000e-06	-2.058381e-06	-2.234188e-09	-1.544171e+01	-1.489423e+02
1.190000e-06	-2.030267e-06	-2.212855e-09	-1.523080e+01	-1.477627e+02
1.200000e-06	-2.002036e-06	-2.194199e-09	-1.501902e+01	-1.465726e+02
1.210000e-06	-1.973709e-06	-2.178705e-09	-1.480651e+01	-1.453721e+02
1.220000e-06	-1.945253e-06	-2.159858e-09	-1.459304e+01	-1.441612e+02
1.230000e-06	-1.916566e-06	-2.138402e-09	-1.437783e+01	-1.429400e+02
1.240000e-06	-1.887650e-06	-2.118294e-09	-1.416090e+01	-1.417085e+02
1.250000e-06	-1.858585e-06	-2.100043e-09	-1.394286e+01	-1.404666e+02
1.260000e-06	-1.829435e-06	-2.082444e-09	-1.372418e+01	-1.392143e+02
1.270000e-06	-1.800225e-06	-2.066121e-09	-1.350505e+01	-1.379516e+02
1.280000e-06	-1.770923e-06	-2.047766e-09	-1.328524e+01	-1.366783e+02
1.290000e-06	-1.741453e-06	-2.025957e-09	-1.306415e+01	-1.353945e+02
1.300000e-06	-1.711775e-06	-2.004903e-09	-1.284151e+01	-1.340999e+02
1.310000e-06	-1.681968e-06	-1.987318e-09	-1.261791e+01	-1.327946e+02
1.320000e-06	-1.652093e-06	-1.967988e-09	-1.239379e+01	-1.314784e+02
1.330000e-06	-1.622132e-06	-1.944523e-09	-1.216903e+01	-1.301511e+02
1.340000e-06	-1.592088e-06	-1.919776e-09	-1.194364e+01	-1.288127e+02
1.350000e-06	-1.561986e-06	-1.899440e-09	-1.171782e+01	-1.274630e+02
1.360000e-06	-1.531813e-06	-1.882715e-09	-1.149147e+01	-1.261021e+02
1.370000e-06	-1.501573e-06	-1.862549e-09	-1.126461e+01	-1.247297e+02
1.380000e-06	-1.471269e-06	-1.838216e-09	-1.103727e+01	-1.233460e+02
1.390000e-06	-1.440908e-06	-1.816198e-09	-1.080951e+01	-1.219509e+02
1.400000e-06	-1.410425e-06	-1.797521e-09	-1.058083e+01	-1.205444e+02
1.410000e-06	-1.379679e-06	-1.776929e-09	-1.035018e+01	-1.191266e+02
1.420000e-06	-1.348859e-06	-1.750892e-09	-1.011896e+01	-1.176976e+02
1.430000e-06	-1.318116e-06	-1.724951e-09	-9.888337e+00	-1.162575e+02
1.440000e-06	-1.287291e-06	-1.703933e-09	-9.657093e+00	-1.148064e+02
1.450000e-06	-1.256321e-06	-1.685527e-09	-9.424754e+00	-1.133446e+02
1.460000e-06	-1.225254e-06	-1.666197e-09	-9.191697e+00	-1.118722e+02
1.470000e-06	-1.194085e-06	-1.645203e-09	-8.957871e+00	-1.103895e+02
1.480000e-06	-1.162776e-06	-1.624302e-09	-8.722996e+00	-1.088967e+02
1.490000e-06	-1.131316e-06	-1.603011e-09	-8.486985e+00	-1.073941e+02
1.500000e-06	-1.099802e-06	-1.581478e-09	-8.250571e+00	-1.058818e+02
1.510000e-06	-1.068245e-06	-1.557624e-09	-8.013835e+00	-1.043602e+02
1.520000e-06	-1.036550e-06	-1.531428e-09	-7.776063e+00	-1.028294e+02
1.530000e-06	-1.004748e-06	-1.508238e-09	-7.537490e+00	-1.012896e+02
1.540000e-06	-9.729429e-07	-1.487627e-09	-7.298892e+00	-9.974102e+01
1.550000e-06	-9.411359e-07	-1.463711e-09	-7.060280e+00	-9.818368e+01
1.560000e-06	-9.092710e-07	-1.436779e-09	-6.821234e+00	-9.661768e+01
1.570000e-06	-8.773501e-07	-1.410479e-09	-6.581767e+00	-9.504303e+01
1.580000e-06	-8.453685e-07	-1.386756e-09	-6.341845e+00	-9.345968e+01
1.590000e-06	-8.133823e-07	-1.363492e-09	-6.101889e+00	-9.186751e+01
1.600000e-06	-7.813336e-07	-1.337712e-09	-5.861464e+00	-9.026638e+01
1.610000e-06	-7.492584e-07	-1.314429e-09	-5.620840e+00	-8.865604e+01
1.620000e-06	-7.172296e-07	-1.290729e-09	-5.380564e+00	-8.703623e+01
1.630000e-06	-6.851581e-07	-1.264462e-09	-5.139967e+00	-8.540661e+01
1.640000e-06	-6.530562e-07	-1.237661e-09	-4.899143e+00	-8.376681e+01
1.650000e-06	-6.209493e-07	-1.213718e-09	-4.658282e+00	-8.211640e+01
1.660000e-06	-5.888135e-07	-1.191332e-09	-4.417203e+00	-8.045495e+01
1.670000e-06	-5.566363e-07	-1.165888e-09	-4.175813e+00	-7.878200e+01
1.680000e-06	-5.244223e-07	-1.139829e-09	-3.934149e+00	-7.709708e+01
1.690000e-06	-4.922061e-07	-1.117199e-09	-3.692467e+00	-7.539973e+01
1.700000e-06	-4.599773e-07	-1.093888e-09	-3.450691e+00	-7.368949e+01
1.710000e-06	-4.276758e-07	-1.066846e-09	-3.208368e+00	-7.196597e+01
1.720000e-06	-3.953938e-07	-1.039737e-09	-2.966193e+00	-7.022877e+01
1.730000e-06	-3.631545e-07	-1.015867e-09	-2.724338e+00	-6.847758e+01
1.740000e-06	-3.308927e-07	-9.937434e-10	-2.482314e+00	-6.671215e+01
1.750000e-06	-2.986193e-07	-9.671146e-10	-2.240203e+00	-6.493229e+01
1.760000e-06	-2.662632e-07	-9.368156e-10	-1.997472e+00	-6.313788e+01
1.770000e-06	-2.338556e-07	-9.069060e-10	-1.754355e+00	-6.132892e+01
1.780000e-06	-2.014829e-07	-8.827668e-10	-1.511499e+00	-5.950547e+01
1.790000e-06	-1.690881e-07	-8.588618e-10	-1.268477e+00	-5.766769e+01
1.800000e-06	-1.366863e-07	-8.294096e-10	-1.025403e+00	-5.581584e+01
1.810000e-06	-1.043221e-07	-7.970334e-10	-7.826107e-01	-5.395025e+01
1.820000e-06	-7.192685e-08	-7.676260e-10	-5.395860e-01	-5.207134e+01
1.830000e-06	-3.947942e-08	-7.386608e-10	-2.961695e-01	-5.017962e+01
1.840000e-06	-7.115575e-09	-7.076270e-10	-5.338013e-02	-4.827563e+01
1.850000e-06	2.514822e-08	-6.752677e-10	1.886587e-01	-4.636001e+01
1.860000e-06	5.742991e-08	-6.451839e-10	4.308317e-01	-4.443340e+01
1.870000e-06	8.974840e-08	-6.179960e-10	6.732809e-01	-4.249649e+01
1.880000e-06	1.220758e-07	-5.893333e-10	9.157971e-01	-4.054997e+01
1.890000e-06	1.543978e-07	-5.588356e-10	1.158273e+00	-3.859455e+01
1.900000e-06	1.867700e-07	-5.290445e-10	1.401124e+00	-3.663090e+01
1.910000e-06	2.191981e-07	-5.025567e-10	1.644396e+00	-3.465967e+01
1.920000e-06	2.516455e-07	-4.760816e-10	1.887812e+00	-3.268144e+01
1.930000e-06	2.840245e-07	-4.470520e-10	2.130715e+00	-3.069675e+01
1.940000e-06	3.163627e-07	-4.166994e-10	2.373312e+00	-2.870606e+01
1.950000e-06	3.486812e-07	-3.861514e-10	2.615761e+00	-2.670975e+01
1.960000e-06	3.809302e-07	-3.558651e-10	2.857689e+00	-2.470811e+01
1.970000e-06	4.131724e-07	-3.270172e-10	3.099566e+00	-2.270131e+01
1.980000e-06	4.453928e-07	-2.984157e-10	3.341279e+00	-2.068944e+01
1.990000e-06	4.775647e-07	-2.682399e-10	3.582628e+00	-1.867249e+01
2.000000e-06	5.097529e-07	-2.366340e-10	3.824100e+00	-1.665034e+01
2.010000e-06	5.419291e-07	-2.050467e-10	4.065482e+00	-1.462276e+01
2.020000e-06	5.740442e-07	-1.766455e-10	4.306406e+00	-1.258946e+01
2.030000e-06	6.061177e-07	-1.511805e-10	4.547017e+00	-1.055005e+01
2.040000e-06	6.381707e-07	-1.220491e-10	4.787474e+00	-8.504082e+00
2.050000e-06	6.702320e-07	-8.894067e-11	5.027994e+00	-6.451045e+00
2.060000e-06	7.023019e-07	-5.743017e-11	5.268578e+00	-4.390395e+00
2.070000e-06	7.343464e-07	-2.938843e-11	5.508972e+00	-2.321561e+00
2.080000e-06	7.663726e-07	4.537295e-14	5.749229e+00	-2.439663e-01
2.090000e-06	7.984101e-07	3.253856e-11	5.989569e+00	1.842952e+00
2.100000e-06	8.304220e-07	6.516917e-11	6.229719e+00	3.939729e+00
2.110000e-06	8.623864e-07	9.448185e-11	6.469511e+00	6.046853e+00
2.120000e-06	8.942929e-07	1.229632e-10	6.708870e+00	8.164749e+00
2.130000e-06	9.261217e-07	1.555051e-10	6.947645e+00	1.029376e+01
2.140000e-06	9.579026e-07	1.913196e-10	7.186062e+00	1.243415e+01
2.150000e-06	9.897065e-07	2.264715e-10	7.424650e+00	1.458607e+01
2.160000e-06	1.021455e-06	2.588067e-10	7.662827e+00	1.674955e+01
2.170000e-06	1.053146e-06	2.902447e-10	7.900568e+00	1.892451e+01
2.180000e-06	1.084778e-06	3.244424e-10	8.137863e+00	2.111076e+01
2.190000e-06	1.116304e-06	3.603257e-10	8.374370e+00	2.330794e+01
2.200000e-06	1.147814e-06	3.956860e-10	8.610754e+00	2.551562e+01
2.210000e-06	1.179273e-06	4.283371e-10	8.846752e+00	2.773320e+01
2.220000e-06	1.210558e-06	4.578557e-10	9.081449e+00	2.996000e+01
2.230000e-06	1.241735e-06	4.897413e-10	9.315335e+00	3.219521e+01
2.240000e-06	1.272770e-06	5.220652e-10	9.548156e+00	3.443793e+01
2.250000e-06	1.303629e-06	5.556771e-10	9.779654e+00	3.668719e+01
2.260000e-06	1.334315e-06	5.861475e-10	1.000986e+01	3.894192e+01
2.270000e-06	1.364845e-06	6.171351e-10	1.023889e+01	4.120101e+01
2.280000e-06	1.395345e-06	6.515584e-10	1.046770e+01	4.346334e+01
2.290000e-06	1.425814e-06	6.867477e-10	1.069627e+01	4.572771e+01
2.300000e-06	1.456268e-06	7.203231e-10	1.092474e+01	4.799296e+01
2.310000e-06	1.486641e-06	7.511327e-10	1.115259e+01	5.025793e+01
2.320000e-06	1.516848e-06	7.815453e-10	1.137920e+01	5.252148e+01
2.330000e-06	1.546924e-06	8.129796e-10	1.160483e+01	5.478252e+01
2.340000e-06	1.576953e-06	8.467970e-10	1.183010e+01	5.703999e+01
2.350000e-06	1.606952e-06	8.824173e-10	1.205514e+01	5.929293e+01
2.360000e-06	1.636852e-06	9.164533e-10	1.227945e+01	6.154043e+01
2.370000e-06	1.666599e-06	9.487762e-10	1.250261e+01	6.378168e+01
2.380000e-06	1.696213e-06	9.822041e-10	1.272477e+01	6.601594e+01
2.390000e-06	1.725815e-06	1.016079e-09	1.294684e+01	6.824258e+01
2.400000e-06	1.755330e-06	1.050317e-09	1.316826e+01	7.046105e+01
2.410000e-06	1.784685e-06	1.081951e-09	1.338847e+01	7.267089e+01
2.420000e-06	1.813913e-06	1.113657e-09	1.360774e+01	7.487173e+01
2.430000e-06	1.842997e-06	1.147395e-09	1.382593e+01	7.706328e+01
2.440000e-06	1.871857e-06	1.181650e-09	1.404243e+01	7.924534e+01
2.450000e-06	1.900522e-06	1.213202e-09	1.425747e+01	8.141775e+01
2.460000e-06	1.929069e-06	1.244694e-09	1.447162e+01	8.358043e+01
2.470000e-06	1.957544e-06	1.279252e-09	1.468524e+01	8.573334e+01
2.480000e-06	1.985994e-06	1.314019e-09	1.489867e+01	8.787645e+01
2.490000e-06	2.014279e-06	1.345912e-09	1.511086e+01	9.000978e+01
2.500000e-06	2.042433e-06	1.377891e-09	1.532207e+01	9.213335e+01
2.510000e-06	2.070550e-06	1.409155e-09	1.553300e+01	9.424718e+01
2.520000e-06	2.098614e-06	1.438460e-09	1.574353e+01	9.635127e+01
2.530000e-06	2.126632e-06	1.467236e-09	1.595372e+01	9.844561e+01
2.540000e-06	2.154603e-06	1.498525e-09	1.616356e+01	1.005301e+02
2.550000e-06	2.182478e-06	1.532231e-09	1.637267e+01	1.026048e+02
2.560000e-06	2.210215e-06	1.566024e-09	1.658074e+01	1.046693e+02
2.570000e-06	2.237845e-06	1.597583e-09	1.678803e+01	1.067236e+02
2.580000e-06	2.265269e-06	1.627918e-09	1.699375e+01	1.087675e+02
2.590000e-06	2.292401e-06	1.659844e-09	1.719730e+01	1.108005e+02
2.600000e-06	2.319277e-06	1.691305e-09	1.739891e+01	1.128223e+02
2.610000e-06	2.345855e-06	1.720232e-09	1.759830e+01	1.148325e+02
2.620000e-06	2.372245e-06	1.747431e-09	1.779628e+01	1.168305e+02
2.630000e-06	2.398254e-06	1.776026e-09	1.799139e+01	1.188159e+02
2.640000e-06	2.423784e-06	1.806103e-09	1.818291e+01	1.207880e+02
2.650000e-06	2.449000e-06	1.835666e-09	1.837208e+01	1.227462e+02
2.660000e-06	2.474004e-06	1.863009e-09	1.855966e+01	1.246898e+02
2.670000e-06	2.498790e-06	1.890826e-09	1.874560e+01	1.266180e+02
2.680000e-06	2.523384e-06	1.919032e-09	1.893010e+01	1.285303e+02
2.690000e-06	2.547867e-06	1.947293e-09	1.911377e+01	1.304257e+02
2.700000e-06	2.572203e-06	1.976183e-09	1.929633e+01	1.323037e+02
2.710000e-06	2.596417e-06	2.006435e-09	1.947799e+01	1.341634e+02
2.720000e-06	2.620490e-06	2.037844e-09	1.965858e+01	1.360041e+02
2.730000e-06	2.644471e-06	2.068687e-09	1.983848e+01	1.378251e+02
2.740000e-06	2.668331e-06	2.097910e-09	2.001748e+01	1.396258e+02
2.750000e-06	2.692049e-06	2.126861e-09	2.019540e+01	1.414054e+02
2.760000e-06	2.715596e-06	2.155823e-09	2.037205e+01	1.431635e+02
2.770000e-06	2.738954e-06	2.183043e-09	2.054728e+01	1.448994e+02
2.780000e-06	2.762010e-06	2.208572e-09	2.072024e+01	1.466127e+02
2.790000e-06	2.784792e-06	2.234304e-09	2.089115e+01	1.483028e+02
2.800000e-06	2.807386e-06	2.261467e-09	2.106064e+01	1.499695e+02
2.810000e-06	2.829777e-06	2.287814e-09	2.122862e+01	1.516124e+02
2.820000e-06	2.852037e-06	2.311759e-09	2.139561e+01	1.532312e+02
2.830000e-06	2.874185e-06	2.336359e-09	2.156176e+01	1.548257e+02
2.840000e-06	2.896219e-06	2.363391e-09	2.172706e+01	1.563957e+02
2.850000e-06	2.918011e-06	2.389280e-09	2.189055e+01	1.579412e+02
2.860000e-06	2.939568e-06	2.411669e-09	2.205226e+01	1.594622e+02
2.870000e-06	2.960909e-06	2.431677e-09	2.221236e+01	1.609586e+02
2.880000e-06	2.982036e-06	2.454398e-09	2.237085e+01	1.624305e+02
2.890000e-06	3.003029e-06	2.476955e-09	2.252834e+01	1.638779e+02
2.900000e-06	3.023802e-06	2.496872e-09	2.268418e+01	1.653012e+02
