# Temperatura_=_20.0
# Concentracion g/m^3_=_12600.0
# C_Vs_to_Am_M_A/Vsm_=_65563218390.804596
# pendiente_HvsI_1/m_=_3716.3
# ordenada_HvsI_A/m_=_1297.0
# frecuencia_Hz_=_135036.4335655527

Tiempo_(s)	Campo_(V.s)	Magnetizacion_(V.s)	Campo_(kA/m)	Magnetizacion_(A/m)
0.000000e+00	-3.888599e-06	-3.544528e-09	-2.914462e+01	-2.322359e+02
1.000000e-08	-3.888896e-06	-3.545049e-09	-2.914685e+01	-2.322701e+02
2.000000e-08	-3.889060e-06	-3.545441e-09	-2.914808e+01	-2.322888e+02
3.000000e-08	-3.888956e-06	-3.547433e-09	-2.914730e+01	-2.322926e+02
4.000000e-08	-3.888549e-06	-3.546497e-09	-2.914425e+01	-2.322820e+02
5.000000e-08	-3.887831e-06	-3.547363e-09	-2.913887e+01	-2.322577e+02
6.000000e-08	-3.886750e-06	-3.544978e-09	-2.913076e+01	-2.322202e+02
7.000000e-08	-3.885068e-06	-3.543745e-09	-2.911816e+01	-2.321701e+02
8.000000e-08	-3.882708e-06	-3.557878e-09	-2.910048e+01	-2.321082e+02
9.000000e-08	-3.879831e-06	-3.594186e-09	-2.907891e+01	-2.320350e+02
1.000000e-07	-3.876721e-06	-3.523927e-09	-2.905560e+01	-2.319512e+02
1.100000e-07	-3.873469e-06	-3.516240e-09	-2.903123e+01	-2.318571e+02
1.200000e-07	-3.869939e-06	-3.505311e-09	-2.900477e+01	-2.317534e+02
1.300000e-07	-3.866228e-06	-3.435685e-09	-2.897696e+01	-2.316404e+02
1.400000e-07	-3.862422e-06	-3.541382e-09	-2.894843e+01	-2.315185e+02
1.500000e-07	-3.858479e-06	-3.557975e-09	-2.891888e+01	-2.313879e+02
1.600000e-07	-3.854261e-06	-3.507022e-09	-2.888726e+01	-2.312488e+02
1.700000e-07	-3.849860e-06	-3.463415e-09	-2.885428e+01	-2.311013e+02
1.800000e-07	-3.845303e-06	-3.496266e-09	-2.882013e+01	-2.309454e+02
1.900000e-07	-3.840356e-06	-3.504270e-09	-2.878305e+01	-2.307809e+02
2.000000e-07	-3.835069e-06	-3.495846e-09	-2.874342e+01	-2.306076e+02
2.100000e-07	-3.829528e-06	-3.506149e-09	-2.870190e+01	-2.304254e+02
2.200000e-07	-3.823768e-06	-3.500179e-09	-2.865873e+01	-2.302338e+02
2.300000e-07	-3.817730e-06	-3.470747e-09	-2.861347e+01	-2.300324e+02
2.400000e-07	-3.811436e-06	-3.451546e-09	-2.856630e+01	-2.298208e+02
2.500000e-07	-3.804767e-06	-3.506653e-09	-2.851631e+01	-2.295986e+02
2.600000e-07	-3.797698e-06	-3.490391e-09	-2.846334e+01	-2.293650e+02
2.700000e-07	-3.790383e-06	-3.434465e-09	-2.840851e+01	-2.291197e+02
2.800000e-07	-3.782879e-06	-3.435454e-09	-2.835227e+01	-2.288621e+02
2.900000e-07	-3.775270e-06	-3.518345e-09	-2.829524e+01	-2.285917e+02
3.000000e-07	-3.767465e-06	-3.478700e-09	-2.823674e+01	-2.283080e+02
3.100000e-07	-3.759539e-06	-3.395851e-09	-2.817734e+01	-2.280105e+02
3.200000e-07	-3.751477e-06	-3.409221e-09	-2.811691e+01	-2.276989e+02
3.300000e-07	-3.743254e-06	-3.507263e-09	-2.805528e+01	-2.273728e+02
3.400000e-07	-3.734826e-06	-3.481277e-09	-2.799212e+01	-2.270320e+02
3.500000e-07	-3.725826e-06	-3.379661e-09	-2.792466e+01	-2.266762e+02
3.600000e-07	-3.716212e-06	-3.375995e-09	-2.785260e+01	-2.263054e+02
3.700000e-07	-3.706174e-06	-3.462400e-09	-2.777737e+01	-2.259195e+02
3.800000e-07	-3.695634e-06	-3.456135e-09	-2.769837e+01	-2.255187e+02
3.900000e-07	-3.684569e-06	-3.373015e-09	-2.761544e+01	-2.251031e+02
4.000000e-07	-3.673226e-06	-3.366540e-09	-2.753043e+01	-2.246728e+02
4.100000e-07	-3.661756e-06	-3.413845e-09	-2.744446e+01	-2.242283e+02
4.200000e-07	-3.650025e-06	-3.414504e-09	-2.735654e+01	-2.237698e+02
4.300000e-07	-3.638090e-06	-3.375765e-09	-2.726709e+01	-2.232979e+02
4.400000e-07	-3.625965e-06	-3.363527e-09	-2.717622e+01	-2.228129e+02
4.500000e-07	-3.613520e-06	-3.353347e-09	-2.708294e+01	-2.223155e+02
4.600000e-07	-3.600745e-06	-3.362689e-09	-2.698719e+01	-2.218061e+02
4.700000e-07	-3.587706e-06	-3.376517e-09	-2.688947e+01	-2.212854e+02
4.800000e-07	-3.574402e-06	-3.358225e-09	-2.678975e+01	-2.207537e+02
4.900000e-07	-3.560856e-06	-3.296923e-09	-2.668823e+01	-2.202118e+02
5.000000e-07	-3.547136e-06	-3.306737e-09	-2.658540e+01	-2.196602e+02
5.100000e-07	-3.533127e-06	-3.358388e-09	-2.648040e+01	-2.190992e+02
5.200000e-07	-3.518634e-06	-3.349306e-09	-2.637178e+01	-2.185294e+02
5.300000e-07	-3.503716e-06	-3.276033e-09	-2.625997e+01	-2.179512e+02
5.400000e-07	-3.488488e-06	-3.268169e-09	-2.614584e+01	-2.173649e+02
5.500000e-07	-3.472879e-06	-3.307472e-09	-2.602885e+01	-2.167707e+02
5.600000e-07	-3.456929e-06	-3.309888e-09	-2.590931e+01	-2.161689e+02
5.700000e-07	-3.440668e-06	-3.262433e-09	-2.578743e+01	-2.155595e+02
5.800000e-07	-3.424108e-06	-3.239209e-09	-2.566332e+01	-2.149428e+02
5.900000e-07	-3.407355e-06	-3.240919e-09	-2.553776e+01	-2.143185e+02
6.000000e-07	-3.390408e-06	-3.249157e-09	-2.541074e+01	-2.136867e+02
6.100000e-07	-3.373215e-06	-3.239978e-09	-2.528188e+01	-2.130472e+02
6.200000e-07	-3.355822e-06	-3.210808e-09	-2.515152e+01	-2.123999e+02
6.300000e-07	-3.338373e-06	-3.184500e-09	-2.502074e+01	-2.117443e+02
6.400000e-07	-3.320813e-06	-3.191446e-09	-2.488913e+01	-2.110804e+02
6.500000e-07	-3.303019e-06	-3.204471e-09	-2.475577e+01	-2.104076e+02
6.600000e-07	-3.284909e-06	-3.180917e-09	-2.462004e+01	-2.097257e+02
6.700000e-07	-3.266497e-06	-3.141386e-09	-2.448204e+01	-2.090343e+02
6.800000e-07	-3.247804e-06	-3.129832e-09	-2.434194e+01	-2.083330e+02
6.900000e-07	-3.228737e-06	-3.147515e-09	-2.419903e+01	-2.076214e+02
7.000000e-07	-3.209357e-06	-3.143933e-09	-2.405378e+01	-2.068991e+02
7.100000e-07	-3.189836e-06	-3.105972e-09	-2.390747e+01	-2.061659e+02
7.200000e-07	-3.170213e-06	-3.072770e-09	-2.376040e+01	-2.054212e+02
7.300000e-07	-3.150483e-06	-3.084742e-09	-2.361253e+01	-2.046650e+02
7.400000e-07	-3.130651e-06	-3.099523e-09	-2.346389e+01	-2.038968e+02
7.500000e-07	-3.110730e-06	-3.075418e-09	-2.331458e+01	-2.031165e+02
7.600000e-07	-3.090696e-06	-3.032963e-09	-2.316443e+01	-2.023239e+02
7.700000e-07	-3.070491e-06	-3.026151e-09	-2.301300e+01	-2.015189e+02
7.800000e-07	-3.050042e-06	-3.037015e-09	-2.285973e+01	-2.007014e+02
7.900000e-07	-3.029290e-06	-3.026099e-09	-2.270420e+01	-1.998714e+02
8.000000e-07	-3.008382e-06	-2.989931e-09	-2.254750e+01	-1.990288e+02
8.100000e-07	-2.987253e-06	-2.967315e-09	-2.238914e+01	-1.981738e+02
8.200000e-07	-2.965866e-06	-2.968552e-09	-2.222884e+01	-1.973064e+02
8.300000e-07	-2.944306e-06	-2.975197e-09	-2.206725e+01	-1.964268e+02
8.400000e-07	-2.922619e-06	-2.955009e-09	-2.190471e+01	-1.955351e+02
8.500000e-07	-2.900768e-06	-2.919767e-09	-2.174094e+01	-1.946316e+02
8.600000e-07	-2.878611e-06	-2.902580e-09	-2.157488e+01	-1.937164e+02
8.700000e-07	-2.856254e-06	-2.907791e-09	-2.140731e+01	-1.927899e+02
8.800000e-07	-2.833842e-06	-2.899730e-09	-2.123933e+01	-1.918521e+02
8.900000e-07	-2.811205e-06	-2.868870e-09	-2.106967e+01	-1.909035e+02
9.000000e-07	-2.788327e-06	-2.841402e-09	-2.089821e+01	-1.899442e+02
9.100000e-07	-2.765251e-06	-2.835426e-09	-2.072525e+01	-1.889745e+02
9.200000e-07	-2.741885e-06	-2.832437e-09	-2.055013e+01	-1.879946e+02
9.300000e-07	-2.718299e-06	-2.815255e-09	-2.037335e+01	-1.870048e+02
9.400000e-07	-2.694592e-06	-2.791011e-09	-2.019567e+01	-1.860051e+02
9.500000e-07	-2.670814e-06	-2.777381e-09	-2.001746e+01	-1.849959e+02
9.600000e-07	-2.646909e-06	-2.774951e-09	-1.983829e+01	-1.839772e+02
9.700000e-07	-2.622887e-06	-2.764302e-09	-1.965825e+01	-1.829492e+02
9.800000e-07	-2.598826e-06	-2.742063e-09	-1.947792e+01	-1.819120e+02
9.900000e-07	-2.574665e-06	-2.719856e-09	-1.929684e+01	-1.808656e+02
1.000000e-06	-2.550313e-06	-2.708113e-09	-1.911432e+01	-1.798101e+02
1.010000e-06	-2.525647e-06	-2.697286e-09	-1.892945e+01	-1.787454e+02
1.020000e-06	-2.500643e-06	-2.681174e-09	-1.874204e+01	-1.776716e+02
1.030000e-06	-2.475435e-06	-2.659777e-09	-1.855312e+01	-1.765886e+02
1.040000e-06	-2.449975e-06	-2.641662e-09	-1.836229e+01	-1.754962e+02
1.050000e-06	-2.424171e-06	-2.626434e-09	-1.816890e+01	-1.743943e+02
1.060000e-06	-2.398010e-06	-2.614971e-09	-1.797283e+01	-1.732829e+02
1.070000e-06	-2.371556e-06	-2.601330e-09	-1.777456e+01	-1.721617e+02
1.080000e-06	-2.344852e-06	-2.582328e-09	-1.757441e+01	-1.710305e+02
1.090000e-06	-2.317866e-06	-2.560769e-09	-1.737215e+01	-1.698890e+02
1.100000e-06	-2.290641e-06	-2.542313e-09	-1.716810e+01	-1.687371e+02
1.110000e-06	-2.263235e-06	-2.525341e-09	-1.696270e+01	-1.675745e+02
1.120000e-06	-2.235664e-06	-2.502921e-09	-1.675606e+01	-1.664009e+02
1.130000e-06	-2.208019e-06	-2.476954e-09	-1.654886e+01	-1.652159e+02
1.140000e-06	-2.180351e-06	-2.456342e-09	-1.634149e+01	-1.640193e+02
1.150000e-06	-2.152596e-06	-2.442434e-09	-1.613347e+01	-1.628108e+02
1.160000e-06	-2.124791e-06	-2.428918e-09	-1.592508e+01	-1.615901e+02
1.170000e-06	-2.096924e-06	-2.406539e-09	-1.571622e+01	-1.603568e+02
1.180000e-06	-2.068951e-06	-2.383362e-09	-1.550656e+01	-1.591107e+02
1.190000e-06	-2.040875e-06	-2.365691e-09	-1.529614e+01	-1.578514e+02
1.200000e-06	-2.012630e-06	-2.352339e-09	-1.508445e+01	-1.565786e+02
1.210000e-06	-1.984216e-06	-2.333319e-09	-1.487148e+01	-1.552921e+02
1.220000e-06	-1.955646e-06	-2.308446e-09	-1.465735e+01	-1.539917e+02
1.230000e-06	-1.926981e-06	-2.286627e-09	-1.444251e+01	-1.526771e+02
1.240000e-06	-1.898229e-06	-2.268761e-09	-1.422702e+01	-1.513482e+02
1.250000e-06	-1.869237e-06	-2.250882e-09	-1.400973e+01	-1.500047e+02
1.260000e-06	-1.840007e-06	-2.226941e-09	-1.379065e+01	-1.486466e+02
1.270000e-06	-1.810659e-06	-2.205094e-09	-1.357069e+01	-1.472738e+02
1.280000e-06	-1.781206e-06	-2.185336e-09	-1.334995e+01	-1.458863e+02
1.290000e-06	-1.751646e-06	-2.164396e-09	-1.312840e+01	-1.444842e+02
1.300000e-06	-1.722018e-06	-2.143358e-09	-1.290633e+01	-1.430674e+02
1.310000e-06	-1.692318e-06	-2.124046e-09	-1.268374e+01	-1.416362e+02
1.320000e-06	-1.662486e-06	-2.102107e-09	-1.246015e+01	-1.401907e+02
1.330000e-06	-1.632550e-06	-2.078002e-09	-1.223578e+01	-1.387312e+02
1.340000e-06	-1.602569e-06	-2.052828e-09	-1.201108e+01	-1.372579e+02
1.350000e-06	-1.572432e-06	-2.030760e-09	-1.178521e+01	-1.357712e+02
1.360000e-06	-1.542240e-06	-2.008939e-09	-1.155892e+01	-1.342715e+02
1.370000e-06	-1.511995e-06	-1.983969e-09	-1.133224e+01	-1.327593e+02
1.380000e-06	-1.481611e-06	-1.958219e-09	-1.110451e+01	-1.312348e+02
1.390000e-06	-1.451102e-06	-1.936425e-09	-1.087585e+01	-1.296988e+02
1.400000e-06	-1.420510e-06	-1.916071e-09	-1.064656e+01	-1.281515e+02
1.410000e-06	-1.389801e-06	-1.891128e-09	-1.041641e+01	-1.265936e+02
1.420000e-06	-1.358947e-06	-1.863261e-09	-1.018516e+01	-1.250256e+02
1.430000e-06	-1.328028e-06	-1.837974e-09	-9.953425e+00	-1.234480e+02
1.440000e-06	-1.297084e-06	-1.814939e-09	-9.721504e+00	-1.218612e+02
1.450000e-06	-1.266144e-06	-1.790228e-09	-9.489608e+00	-1.202657e+02
1.460000e-06	-1.235030e-06	-1.764302e-09	-9.256415e+00	-1.186620e+02
1.470000e-06	-1.203733e-06	-1.739878e-09	-9.021846e+00	-1.170503e+02
1.480000e-06	-1.172346e-06	-1.718203e-09	-8.786606e+00	-1.154311e+02
1.490000e-06	-1.140866e-06	-1.693719e-09	-8.550663e+00	-1.138045e+02
1.500000e-06	-1.109294e-06	-1.667501e-09	-8.314035e+00	-1.121708e+02
1.510000e-06	-1.077678e-06	-1.641816e-09	-8.077077e+00	-1.105300e+02
1.520000e-06	-1.046012e-06	-1.617944e-09	-7.839745e+00	-1.088822e+02
1.530000e-06	-1.014327e-06	-1.595791e-09	-7.602272e+00	-1.072272e+02
1.540000e-06	-9.826733e-07	-1.572670e-09	-7.365029e+00	-1.055650e+02
1.550000e-06	-9.509753e-07	-1.547324e-09	-7.127456e+00	-1.038953e+02
1.560000e-06	-9.192146e-07	-1.519118e-09	-6.889413e+00	-1.022178e+02
1.570000e-06	-8.873999e-07	-1.490467e-09	-6.650966e+00	-1.005320e+02
1.580000e-06	-8.555545e-07	-1.465387e-09	-6.412287e+00	-9.883767e+01
1.590000e-06	-8.237275e-07	-1.439805e-09	-6.173748e+00	-9.713411e+01
1.600000e-06	-7.918747e-07	-1.413384e-09	-5.935015e+00	-9.542081e+01
1.610000e-06	-7.599302e-07	-1.387225e-09	-5.695594e+00	-9.369713e+01
1.620000e-06	-7.278904e-07	-1.360744e-09	-5.455459e+00	-9.196245e+01
1.630000e-06	-6.958614e-07	-1.334960e-09	-5.215406e+00	-9.021611e+01
1.640000e-06	-6.638610e-07	-1.307665e-09	-4.975566e+00	-8.845745e+01
1.650000e-06	-6.318511e-07	-1.279697e-09	-4.735655e+00	-8.668582e+01
1.660000e-06	-5.998333e-07	-1.253249e-09	-4.495685e+00	-8.490060e+01
1.670000e-06	-5.677922e-07	-1.227674e-09	-4.255540e+00	-8.310123e+01
1.680000e-06	-5.357308e-07	-1.201382e-09	-4.015244e+00	-8.128719e+01
1.690000e-06	-5.036374e-07	-1.174364e-09	-3.774708e+00	-7.945801e+01
1.700000e-06	-4.715108e-07	-1.146412e-09	-3.533922e+00	-7.761332e+01
1.710000e-06	-4.393165e-07	-1.117059e-09	-3.292630e+00	-7.575283e+01
1.720000e-06	-4.069770e-07	-1.089806e-09	-3.050248e+00	-7.387636e+01
1.730000e-06	-3.745632e-07	-1.064472e-09	-2.807310e+00	-7.198382e+01
1.740000e-06	-3.422519e-07	-1.036425e-09	-2.565141e+00	-7.007521e+01
1.750000e-06	-3.099716e-07	-1.004857e-09	-2.323204e+00	-6.815067e+01
1.760000e-06	-2.776886e-07	-9.736602e-10	-2.081246e+00	-6.621042e+01
1.770000e-06	-2.453318e-07	-9.438736e-10	-1.838735e+00	-6.425479e+01
1.780000e-06	-2.128736e-07	-9.157676e-10	-1.595464e+00	-6.228423e+01
1.790000e-06	-1.805233e-07	-8.878642e-10	-1.353003e+00	-6.029924e+01
1.800000e-06	-1.482368e-07	-8.577206e-10	-1.111018e+00	-5.830044e+01
1.810000e-06	-1.158898e-07	-8.260144e-10	-8.685813e-01	-5.628850e+01
1.820000e-06	-8.347776e-08	-7.966858e-10	-6.256567e-01	-5.426415e+01
1.830000e-06	-5.100252e-08	-7.663278e-10	-3.822584e-01	-5.222817e+01
1.840000e-06	-1.851130e-08	-7.340347e-10	-1.387402e-01	-5.018135e+01
1.850000e-06	1.399184e-08	-7.009790e-10	1.048673e-01	-4.812451e+01
1.860000e-06	4.647837e-08	-6.681765e-10	3.483503e-01	-4.605846e+01
1.870000e-06	7.890082e-08	-6.367832e-10	5.913531e-01	-4.398398e+01
1.880000e-06	1.113638e-07	-6.039842e-10	8.346592e-01	-4.190183e+01
1.890000e-06	1.438688e-07	-5.715621e-10	1.078281e+00	-3.981271e+01
1.900000e-06	1.763466e-07	-5.390707e-10	1.321699e+00	-3.771727e+01
1.910000e-06	2.087605e-07	-5.091526e-10	1.564637e+00	-3.561604e+01
1.920000e-06	2.411062e-07	-4.830135e-10	1.807064e+00	-3.350952e+01
1.930000e-06	2.733820e-07	-4.551801e-10	2.048968e+00	-3.139808e+01
1.940000e-06	3.055996e-07	-4.226680e-10	2.290436e+00	-2.928199e+01
1.950000e-06	3.378101e-07	-3.887346e-10	2.531850e+00	-2.716143e+01
1.960000e-06	3.700126e-07	-3.552200e-10	2.773204e+00	-2.503644e+01
1.970000e-06	4.021532e-07	-3.242192e-10	3.014094e+00	-2.290700e+01
1.980000e-06	4.342717e-07	-2.937491e-10	3.254819e+00	-2.077294e+01
1.990000e-06	4.664451e-07	-2.601437e-10	3.495955e+00	-1.863403e+01
2.000000e-06	4.985776e-07	-2.243034e-10	3.736785e+00	-1.648992e+01
2.010000e-06	5.306474e-07	-1.902986e-10	3.977145e+00	-1.434019e+01
2.020000e-06	5.627168e-07	-1.616049e-10	4.217501e+00	-1.218437e+01
2.030000e-06	5.947407e-07	-1.347542e-10	4.457517e+00	-1.002190e+01
2.040000e-06	6.266939e-07	-1.030094e-10	4.697002e+00	-7.852206e+00
2.050000e-06	6.586325e-07	-6.739177e-11	4.936379e+00	-5.674680e+00
2.060000e-06	6.906356e-07	-3.401414e-11	5.176239e+00	-3.488703e+00
2.070000e-06	7.226294e-07	-3.263349e-12	5.416029e+00	-1.293666e+00
2.080000e-06	7.545364e-07	2.974953e-11	5.655168e+00	9.110188e-01
2.090000e-06	7.863980e-07	6.480087e-11	5.893968e+00	3.125900e+00
2.100000e-06	8.182354e-07	9.962836e-11	6.132585e+00	5.351471e+00
2.110000e-06	8.500501e-07	1.296075e-10	6.371033e+00	7.588158e+00
2.120000e-06	8.818767e-07	1.589894e-10	6.609570e+00	9.836307e+00
2.130000e-06	9.136837e-07	1.939039e-10	6.847960e+00	1.209617e+01
2.140000e-06	9.454467e-07	2.324196e-10	7.086020e+00	1.436791e+01
2.150000e-06	9.771646e-07	2.700717e-10	7.323743e+00	1.665156e+01
2.160000e-06	1.008849e-06	3.043999e-10	7.561215e+00	1.894707e+01
2.170000e-06	1.040530e-06	3.388411e-10	7.798658e+00	2.125424e+01
2.180000e-06	1.072174e-06	3.735680e-10	8.035827e+00	2.357278e+01
2.190000e-06	1.103782e-06	4.099360e-10	8.272727e+00	2.590228e+01
2.200000e-06	1.135347e-06	4.443237e-10	8.509304e+00	2.824221e+01
2.210000e-06	1.166814e-06	4.769593e-10	8.745142e+00	3.059194e+01
2.220000e-06	1.198201e-06	5.090948e-10	8.980382e+00	3.295073e+01
2.230000e-06	1.229485e-06	5.422224e-10	9.214857e+00	3.531778e+01
2.240000e-06	1.260638e-06	5.793144e-10	9.448341e+00	3.769216e+01
2.250000e-06	1.291722e-06	6.132432e-10	9.681317e+00	4.007293e+01
2.260000e-06	1.322649e-06	6.453210e-10	9.913112e+00	4.245905e+01
2.270000e-06	1.353463e-06	6.797475e-10	1.014406e+01	4.484944e+01
2.280000e-06	1.384230e-06	7.171664e-10	1.037466e+01	4.724302e+01
2.290000e-06	1.414788e-06	7.516290e-10	1.060368e+01	4.963865e+01
2.300000e-06	1.445142e-06	7.826791e-10	1.083118e+01	5.203523e+01
2.310000e-06	1.475406e-06	8.151894e-10	1.105801e+01	5.443162e+01
2.320000e-06	1.505538e-06	8.517363e-10	1.128384e+01	5.682675e+01
2.330000e-06	1.535624e-06	8.879534e-10	1.150934e+01	5.921955e+01
2.340000e-06	1.565684e-06	9.222723e-10	1.173463e+01	6.160899e+01
2.350000e-06	1.595620e-06	9.577521e-10	1.195900e+01	6.399411e+01
2.360000e-06	1.625470e-06	9.948506e-10	1.218272e+01	6.637398e+01
2.370000e-06	1.655229e-06	1.031776e-09	1.240576e+01	6.874777e+01
2.380000e-06	1.684900e-06	1.066036e-09	1.262814e+01	7.111469e+01
2.390000e-06	1.714487e-06	1.099483e-09	1.284989e+01	7.347403e+01
2.400000e-06	1.744084e-06	1.135226e-09	1.307172e+01	7.582514e+01
2.410000e-06	1.773636e-06	1.171558e-09	1.329321e+01	7.816747e+01
2.420000e-06	1.802998e-06	1.204896e-09	1.351328e+01	8.050053e+01
2.430000e-06	1.832234e-06	1.238559e-09	1.373239e+01	8.282389e+01
2.440000e-06	1.861328e-06	1.272944e-09	1.395045e+01	8.513719e+01
2.450000e-06	1.890169e-06	1.308920e-09	1.416661e+01	8.744013e+01
2.460000e-06	1.918877e-06	1.343116e-09	1.438177e+01	8.973249e+01
2.470000e-06	1.947497e-06	1.374596e-09	1.459628e+01	9.201406e+01
2.480000e-06	1.975961e-06	1.408513e-09	1.480961e+01	9.428469e+01
2.490000e-06	2.004257e-06	1.443947e-09	1.502169e+01	9.654428e+01
2.500000e-06	2.032364e-06	1.479032e-09	1.523234e+01	9.879273e+01
2.510000e-06	2.060398e-06	1.512018e-09	1.544246e+01	1.010300e+02
2.520000e-06	2.088348e-06	1.540712e-09	1.565194e+01	1.032560e+02
2.530000e-06	2.116221e-06	1.568562e-09	1.586084e+01	1.054706e+02
2.540000e-06	2.144020e-06	1.599746e-09	1.606920e+01	1.076739e+02
2.550000e-06	2.171749e-06	1.636106e-09	1.627702e+01	1.098658e+02
2.560000e-06	2.199431e-06	1.669455e-09	1.648450e+01	1.120461e+02
2.570000e-06	2.227071e-06	1.699356e-09	1.669166e+01	1.142148e+02
2.580000e-06	2.254662e-06	1.730388e-09	1.689845e+01	1.163717e+02
2.590000e-06	2.282089e-06	1.765245e-09	1.710401e+01	1.185167e+02
2.600000e-06	2.309279e-06	1.799251e-09	1.730779e+01	1.206495e+02
2.610000e-06	2.336297e-06	1.829653e-09	1.751029e+01	1.227700e+02
2.620000e-06	2.363097e-06	1.859773e-09	1.771115e+01	1.248777e+02
2.630000e-06	2.389533e-06	1.891509e-09	1.790929e+01	1.269725e+02
2.640000e-06	2.415704e-06	1.925749e-09	1.810544e+01	1.290538e+02
2.650000e-06	2.441554e-06	1.958881e-09	1.829918e+01	1.311214e+02
2.660000e-06	2.466992e-06	1.988844e-09	1.848984e+01	1.331746e+02
2.670000e-06	2.492193e-06	2.016920e-09	1.867871e+01	1.352132e+02
2.680000e-06	2.517172e-06	2.046657e-09	1.886593e+01	1.372364e+02
2.690000e-06	2.541816e-06	2.077750e-09	1.905063e+01	1.392437e+02
2.700000e-06	2.566175e-06	2.107688e-09	1.923320e+01	1.412346e+02
2.710000e-06	2.590383e-06	2.136651e-09	1.941464e+01	1.432084e+02
2.720000e-06	2.614437e-06	2.167425e-09	1.959492e+01	1.451644e+02
2.730000e-06	2.638310e-06	2.199097e-09	1.977385e+01	1.471021e+02
2.740000e-06	2.662061e-06	2.231742e-09	1.995186e+01	1.490207e+02
2.750000e-06	2.685743e-06	2.262469e-09	2.012935e+01	1.509196e+02
2.760000e-06	2.709319e-06	2.289844e-09	2.030605e+01	1.527981e+02
2.770000e-06	2.732777e-06	2.315784e-09	2.048186e+01	1.546556e+02
2.780000e-06	2.756045e-06	2.345532e-09	2.065626e+01	1.564913e+02
2.790000e-06	2.779093e-06	2.375471e-09	2.082900e+01	1.583049e+02
2.800000e-06	2.801979e-06	2.400368e-09	2.100053e+01	1.600955e+02
2.810000e-06	2.824574e-06	2.424525e-09	2.116987e+01	1.618627e+02
2.820000e-06	2.846907e-06	2.451078e-09	2.133726e+01	1.636061e+02
2.830000e-06	2.869171e-06	2.479075e-09	2.150412e+01	1.653250e+02
2.840000e-06	2.891273e-06	2.505802e-09	2.166978e+01	1.670192e+02
2.850000e-06	2.913120e-06	2.531278e-09	2.183351e+01	1.686882e+02
2.860000e-06	2.934787e-06	2.555293e-09	2.199591e+01	1.703318e+02
2.870000e-06	2.956245e-06	2.579040e-09	2.215673e+01	1.719498e+02
2.880000e-06	2.977521e-06	2.602332e-09	2.231620e+01	1.735418e+02
2.890000e-06	2.998672e-06	2.625399e-09	2.247472e+01	1.751079e+02
2.900000e-06	3.019570e-06	2.649102e-09	2.263135e+01	1.766479e+02
