# Temperatura_=_20.0
# Concentracion g/m^3_=_12600.0
# C_Vs_to_Am_M_A/Vsm_=_65563218390.804596
# pendiente_HvsI_1/m_=_3716.3
# ordenada_HvsI_A/m_=_1297.0
# frecuencia_Hz_=_135034.3241820675

Tiempo_(s)	Campo_(V.s)	Magnetizacion_(V.s)	Campo_(kA/m)	Magnetizacion_(A/m)
0.000000e+00	-3.890353e-06	-3.238534e-09	-2.914243e+01	-2.130061e+02
1.000000e-08	-3.890506e-06	-3.240981e-09	-2.914358e+01	-2.130137e+02
2.000000e-08	-3.890504e-06	-3.240307e-09	-2.914356e+01	-2.130041e+02
3.000000e-08	-3.890289e-06	-3.241402e-09	-2.914195e+01	-2.129775e+02
4.000000e-08	-3.889926e-06	-3.251636e-09	-2.913923e+01	-2.129338e+02
5.000000e-08	-3.889289e-06	-3.268727e-09	-2.913446e+01	-2.128733e+02
6.000000e-08	-3.888314e-06	-3.272328e-09	-2.912716e+01	-2.127963e+02
7.000000e-08	-3.886867e-06	-3.217460e-09	-2.911632e+01	-2.127032e+02
8.000000e-08	-3.884790e-06	-3.172814e-09	-2.910076e+01	-2.125944e+02
9.000000e-08	-3.882163e-06	-3.215408e-09	-2.908108e+01	-2.124706e+02
1.000000e-07	-3.879028e-06	-3.253223e-09	-2.905760e+01	-2.123322e+02
1.100000e-07	-3.875580e-06	-3.260068e-09	-2.903177e+01	-2.121802e+02
1.200000e-07	-3.871964e-06	-3.293050e-09	-2.900468e+01	-2.120151e+02
1.300000e-07	-3.868125e-06	-3.202269e-09	-2.897592e+01	-2.118379e+02
1.400000e-07	-3.864163e-06	-3.148097e-09	-2.894624e+01	-2.116494e+02
1.500000e-07	-3.860139e-06	-3.201419e-09	-2.891610e+01	-2.114504e+02
1.600000e-07	-3.855970e-06	-3.265254e-09	-2.888487e+01	-2.112419e+02
1.700000e-07	-3.851606e-06	-3.260644e-09	-2.885218e+01	-2.110246e+02
1.800000e-07	-3.846973e-06	-3.185865e-09	-2.881748e+01	-2.107995e+02
1.900000e-07	-3.842031e-06	-3.160873e-09	-2.878046e+01	-2.105674e+02
2.000000e-07	-3.836725e-06	-3.182705e-09	-2.874070e+01	-2.103289e+02
2.100000e-07	-3.831062e-06	-3.254525e-09	-2.869828e+01	-2.100848e+02
2.200000e-07	-3.825112e-06	-3.250060e-09	-2.865371e+01	-2.098356e+02
2.300000e-07	-3.818912e-06	-3.187439e-09	-2.860727e+01	-2.095819e+02
2.400000e-07	-3.812490e-06	-3.093696e-09	-2.855916e+01	-2.093241e+02
2.500000e-07	-3.805839e-06	-3.155317e-09	-2.850934e+01	-2.090625e+02
2.600000e-07	-3.798907e-06	-3.271889e-09	-2.845742e+01	-2.087972e+02
2.700000e-07	-3.791681e-06	-3.263166e-09	-2.840328e+01	-2.085283e+02
2.800000e-07	-3.784189e-06	-3.115069e-09	-2.834717e+01	-2.082558e+02
2.900000e-07	-3.776431e-06	-3.088956e-09	-2.828905e+01	-2.079796e+02
3.000000e-07	-3.768532e-06	-3.198996e-09	-2.822988e+01	-2.076992e+02
3.100000e-07	-3.760540e-06	-3.248839e-09	-2.817001e+01	-2.074145e+02
3.200000e-07	-3.752409e-06	-3.165868e-09	-2.810910e+01	-2.071249e+02
3.300000e-07	-3.744126e-06	-3.100951e-09	-2.804705e+01	-2.068298e+02
3.400000e-07	-3.735575e-06	-3.134478e-09	-2.798300e+01	-2.065287e+02
3.500000e-07	-3.726585e-06	-3.165981e-09	-2.791565e+01	-2.062209e+02
3.600000e-07	-3.717194e-06	-3.168412e-09	-2.784531e+01	-2.059056e+02
3.700000e-07	-3.707411e-06	-3.145715e-09	-2.777202e+01	-2.055822e+02
3.800000e-07	-3.697171e-06	-3.118967e-09	-2.769532e+01	-2.052498e+02
3.900000e-07	-3.686434e-06	-3.078451e-09	-2.761488e+01	-2.049077e+02
4.000000e-07	-3.675284e-06	-3.125818e-09	-2.753136e+01	-2.045553e+02
4.100000e-07	-3.663822e-06	-3.182709e-09	-2.744550e+01	-2.041917e+02
4.200000e-07	-3.652029e-06	-3.140226e-09	-2.735716e+01	-2.038163e+02
4.300000e-07	-3.639971e-06	-3.023925e-09	-2.726684e+01	-2.034287e+02
4.400000e-07	-3.627714e-06	-3.040558e-09	-2.717502e+01	-2.030282e+02
4.500000e-07	-3.615264e-06	-3.141143e-09	-2.708175e+01	-2.026144e+02
4.600000e-07	-3.602603e-06	-3.154813e-09	-2.698691e+01	-2.021870e+02
4.700000e-07	-3.589674e-06	-3.045698e-09	-2.689006e+01	-2.017458e+02
4.800000e-07	-3.576419e-06	-2.998902e-09	-2.679077e+01	-2.012906e+02
4.900000e-07	-3.562872e-06	-3.052982e-09	-2.668929e+01	-2.008214e+02
5.000000e-07	-3.549052e-06	-3.111300e-09	-2.658576e+01	-2.003383e+02
5.100000e-07	-3.534961e-06	-3.080990e-09	-2.648021e+01	-1.998413e+02
5.200000e-07	-3.520680e-06	-3.006604e-09	-2.637323e+01	-1.993308e+02
5.300000e-07	-3.506067e-06	-2.971747e-09	-2.626377e+01	-1.988070e+02
5.400000e-07	-3.490921e-06	-3.020018e-09	-2.615031e+01	-1.982703e+02
5.500000e-07	-3.475410e-06	-3.070561e-09	-2.603411e+01	-1.977213e+02
5.600000e-07	-3.459694e-06	-3.026310e-09	-2.591639e+01	-1.971603e+02
5.700000e-07	-3.443641e-06	-2.942769e-09	-2.579613e+01	-1.965879e+02
5.800000e-07	-3.427201e-06	-2.946831e-09	-2.567298e+01	-1.960048e+02
5.900000e-07	-3.410535e-06	-3.017729e-09	-2.554814e+01	-1.954114e+02
6.000000e-07	-3.393616e-06	-3.019809e-09	-2.542140e+01	-1.948083e+02
6.100000e-07	-3.376405e-06	-2.947641e-09	-2.529248e+01	-1.941962e+02
6.200000e-07	-3.358973e-06	-2.903850e-09	-2.516189e+01	-1.935753e+02
6.300000e-07	-3.341357e-06	-2.935405e-09	-2.502993e+01	-1.929464e+02
6.400000e-07	-3.323582e-06	-2.965686e-09	-2.489678e+01	-1.923098e+02
6.500000e-07	-3.305677e-06	-2.943193e-09	-2.476265e+01	-1.916658e+02
6.600000e-07	-3.287613e-06	-2.889981e-09	-2.462734e+01	-1.910148e+02
6.700000e-07	-3.269294e-06	-2.875755e-09	-2.449011e+01	-1.903569e+02
6.800000e-07	-3.250566e-06	-2.895112e-09	-2.434982e+01	-1.896925e+02
6.900000e-07	-3.231457e-06	-2.908386e-09	-2.420667e+01	-1.890215e+02
7.000000e-07	-3.212206e-06	-2.882966e-09	-2.406247e+01	-1.883440e+02
7.100000e-07	-3.192776e-06	-2.845396e-09	-2.391692e+01	-1.876598e+02
7.200000e-07	-3.173123e-06	-2.823267e-09	-2.376970e+01	-1.869689e+02
7.300000e-07	-3.153351e-06	-2.833204e-09	-2.362159e+01	-1.862712e+02
7.400000e-07	-3.133448e-06	-2.843563e-09	-2.347250e+01	-1.855662e+02
7.500000e-07	-3.113422e-06	-2.823118e-09	-2.332248e+01	-1.848538e+02
7.600000e-07	-3.093306e-06	-2.781213e-09	-2.317179e+01	-1.841336e+02
7.700000e-07	-3.073068e-06	-2.768629e-09	-2.302019e+01	-1.834053e+02
7.800000e-07	-3.052685e-06	-2.784022e-09	-2.286750e+01	-1.826685e+02
7.900000e-07	-3.032146e-06	-2.784469e-09	-2.271365e+01	-1.819227e+02
8.000000e-07	-3.011368e-06	-2.750906e-09	-2.255800e+01	-1.811677e+02
8.100000e-07	-2.990280e-06	-2.717323e-09	-2.240003e+01	-1.804030e+02
8.200000e-07	-2.968873e-06	-2.711407e-09	-2.223967e+01	-1.796283e+02
8.300000e-07	-2.947241e-06	-2.720173e-09	-2.207763e+01	-1.788433e+02
8.400000e-07	-2.925423e-06	-2.711506e-09	-2.191419e+01	-1.780476e+02
8.500000e-07	-2.903393e-06	-2.677714e-09	-2.174916e+01	-1.772410e+02
8.600000e-07	-2.881197e-06	-2.649493e-09	-2.158289e+01	-1.764233e+02
8.700000e-07	-2.858855e-06	-2.649536e-09	-2.141553e+01	-1.755943e+02
8.800000e-07	-2.836387e-06	-2.657925e-09	-2.124723e+01	-1.747540e+02
8.900000e-07	-2.813739e-06	-2.642053e-09	-2.107757e+01	-1.739023e+02
9.000000e-07	-2.790827e-06	-2.609294e-09	-2.090594e+01	-1.730391e+02
9.100000e-07	-2.767642e-06	-2.587407e-09	-2.073226e+01	-1.721645e+02
9.200000e-07	-2.744255e-06	-2.586571e-09	-2.055707e+01	-1.712785e+02
9.300000e-07	-2.720718e-06	-2.585919e-09	-2.038076e+01	-1.703813e+02
9.400000e-07	-2.697056e-06	-2.570025e-09	-2.020350e+01	-1.694731e+02
9.500000e-07	-2.673219e-06	-2.545848e-09	-2.002495e+01	-1.685539e+02
9.600000e-07	-2.649223e-06	-2.532619e-09	-1.984519e+01	-1.676240e+02
9.700000e-07	-2.625112e-06	-2.528821e-09	-1.966458e+01	-1.666835e+02
9.800000e-07	-2.600845e-06	-2.523386e-09	-1.948279e+01	-1.657327e+02
9.900000e-07	-2.576435e-06	-2.505241e-09	-1.929994e+01	-1.647718e+02
1.000000e-06	-2.551936e-06	-2.480526e-09	-1.911642e+01	-1.638009e+02
1.010000e-06	-2.527278e-06	-2.458493e-09	-1.893170e+01	-1.628202e+02
1.020000e-06	-2.502396e-06	-2.446802e-09	-1.874532e+01	-1.618300e+02
1.030000e-06	-2.477361e-06	-2.436572e-09	-1.855778e+01	-1.608302e+02
1.040000e-06	-2.452101e-06	-2.417156e-09	-1.836856e+01	-1.598210e+02
1.050000e-06	-2.426507e-06	-2.391812e-09	-1.817684e+01	-1.588024e+02
1.060000e-06	-2.400555e-06	-2.375364e-09	-1.798243e+01	-1.577746e+02
1.070000e-06	-2.374341e-06	-2.371270e-09	-1.778606e+01	-1.567373e+02
1.080000e-06	-2.347851e-06	-2.364473e-09	-1.758763e+01	-1.556907e+02
1.090000e-06	-2.321041e-06	-2.342860e-09	-1.738679e+01	-1.546346e+02
1.100000e-06	-2.293983e-06	-2.315702e-09	-1.718411e+01	-1.535688e+02
1.110000e-06	-2.266657e-06	-2.298293e-09	-1.697941e+01	-1.524934e+02
1.120000e-06	-2.239053e-06	-2.289709e-09	-1.677263e+01	-1.514079e+02
1.130000e-06	-2.211275e-06	-2.274245e-09	-1.656454e+01	-1.503124e+02
1.140000e-06	-2.183460e-06	-2.247774e-09	-1.635618e+01	-1.492065e+02
1.150000e-06	-2.155590e-06	-2.223837e-09	-1.614741e+01	-1.480900e+02
1.160000e-06	-2.127639e-06	-2.214304e-09	-1.593804e+01	-1.469628e+02
1.170000e-06	-2.099609e-06	-2.209080e-09	-1.572806e+01	-1.458245e+02
1.180000e-06	-2.071477e-06	-2.194750e-09	-1.551733e+01	-1.446751e+02
1.190000e-06	-2.043296e-06	-2.171413e-09	-1.530623e+01	-1.435142e+02
1.200000e-06	-2.015052e-06	-2.149845e-09	-1.509465e+01	-1.423418e+02
1.210000e-06	-1.986626e-06	-2.136161e-09	-1.488171e+01	-1.411576e+02
1.220000e-06	-1.958092e-06	-2.121726e-09	-1.466797e+01	-1.399616e+02
1.230000e-06	-1.929485e-06	-2.100329e-09	-1.445367e+01	-1.387536e+02
1.240000e-06	-1.900638e-06	-2.074364e-09	-1.423758e+01	-1.375337e+02
1.250000e-06	-1.871627e-06	-2.055112e-09	-1.402026e+01	-1.363018e+02
1.260000e-06	-1.842489e-06	-2.044210e-09	-1.380199e+01	-1.350579e+02
1.270000e-06	-1.813175e-06	-2.034047e-09	-1.358240e+01	-1.338022e+02
1.280000e-06	-1.783768e-06	-2.014776e-09	-1.336212e+01	-1.325348e+02
1.290000e-06	-1.754246e-06	-1.987993e-09	-1.314097e+01	-1.312557e+02
1.300000e-06	-1.724560e-06	-1.966537e-09	-1.291859e+01	-1.299652e+02
1.310000e-06	-1.694750e-06	-1.953704e-09	-1.269528e+01	-1.286635e+02
1.320000e-06	-1.664846e-06	-1.936178e-09	-1.247127e+01	-1.273508e+02
1.330000e-06	-1.634859e-06	-1.909338e-09	-1.224664e+01	-1.260275e+02
1.340000e-06	-1.604749e-06	-1.881684e-09	-1.202109e+01	-1.246938e+02
1.350000e-06	-1.574587e-06	-1.861960e-09	-1.179515e+01	-1.233501e+02
1.360000e-06	-1.544368e-06	-1.848862e-09	-1.156878e+01	-1.219965e+02
1.370000e-06	-1.514039e-06	-1.833682e-09	-1.134159e+01	-1.206335e+02
1.380000e-06	-1.483656e-06	-1.809873e-09	-1.111399e+01	-1.192614e+02
1.390000e-06	-1.453214e-06	-1.787352e-09	-1.088595e+01	-1.178804e+02
1.400000e-06	-1.422646e-06	-1.772820e-09	-1.065697e+01	-1.164908e+02
1.410000e-06	-1.391902e-06	-1.756274e-09	-1.042666e+01	-1.150930e+02
1.420000e-06	-1.361055e-06	-1.730636e-09	-1.019559e+01	-1.136871e+02
1.430000e-06	-1.330156e-06	-1.701077e-09	-9.964132e+00	-1.122733e+02
1.440000e-06	-1.299173e-06	-1.675822e-09	-9.732035e+00	-1.108518e+02
1.450000e-06	-1.268042e-06	-1.654754e-09	-9.498835e+00	-1.094227e+02
1.460000e-06	-1.236816e-06	-1.634184e-09	-9.264922e+00	-1.079861e+02
1.470000e-06	-1.205533e-06	-1.612941e-09	-9.030587e+00	-1.065420e+02
1.480000e-06	-1.174112e-06	-1.592280e-09	-8.795213e+00	-1.050905e+02
1.490000e-06	-1.142657e-06	-1.571034e-09	-8.559585e+00	-1.036315e+02
1.500000e-06	-1.111162e-06	-1.548455e-09	-8.323658e+00	-1.021648e+02
1.510000e-06	-1.079514e-06	-1.524292e-09	-8.086584e+00	-1.006904e+02
1.520000e-06	-1.047829e-06	-1.497405e-09	-7.849230e+00	-9.920797e+01
1.530000e-06	-1.016076e-06	-1.472583e-09	-7.611375e+00	-9.771736e+01
1.540000e-06	-9.842307e-07	-1.449797e-09	-7.372821e+00	-9.621829e+01
1.550000e-06	-9.523615e-07	-1.427105e-09	-7.134090e+00	-9.471043e+01
1.560000e-06	-9.204374e-07	-1.402734e-09	-6.894949e+00	-9.319344e+01
1.570000e-06	-8.884660e-07	-1.378227e-09	-6.655453e+00	-9.166696e+01
1.580000e-06	-8.564960e-07	-1.354974e-09	-6.415967e+00	-9.013060e+01
1.590000e-06	-8.245612e-07	-1.332695e-09	-6.176745e+00	-8.858394e+01
1.600000e-06	-7.925767e-07	-1.310369e-09	-5.937151e+00	-8.702656e+01
1.610000e-06	-7.605290e-07	-1.286999e-09	-5.697083e+00	-8.545805e+01
1.620000e-06	-7.284524e-07	-1.262075e-09	-5.456799e+00	-8.387797e+01
1.630000e-06	-6.963674e-07	-1.238397e-09	-5.216452e+00	-8.228590e+01
1.640000e-06	-6.642802e-07	-1.214577e-09	-4.976088e+00	-8.068145e+01
1.650000e-06	-6.321553e-07	-1.191061e-09	-4.735442e+00	-7.906424e+01
1.660000e-06	-6.000344e-07	-1.166834e-09	-4.494826e+00	-7.743389e+01
1.670000e-06	-5.679163e-07	-1.139986e-09	-4.254232e+00	-7.579009e+01
1.680000e-06	-5.357044e-07	-1.115717e-09	-4.012934e+00	-7.413255e+01
1.690000e-06	-5.034153e-07	-1.093638e-09	-3.771058e+00	-7.246101e+01
1.700000e-06	-4.711487e-07	-1.070343e-09	-3.529350e+00	-7.077528e+01
1.710000e-06	-4.388893e-07	-1.039338e-09	-3.287697e+00	-6.907521e+01
1.720000e-06	-4.066103e-07	-1.010289e-09	-3.045897e+00	-6.736070e+01
1.730000e-06	-3.743180e-07	-9.866419e-10	-2.803996e+00	-6.563171e+01
1.740000e-06	-3.419155e-07	-9.653891e-10	-2.561271e+00	-6.388826e+01
1.750000e-06	-3.094653e-07	-9.395971e-10	-2.318188e+00	-6.213042e+01
1.760000e-06	-2.771362e-07	-9.109753e-10	-2.076013e+00	-6.035834e+01
1.770000e-06	-2.448371e-07	-8.815856e-10	-1.834062e+00	-5.857221e+01
1.780000e-06	-2.124298e-07	-8.551676e-10	-1.591300e+00	-5.677228e+01
1.790000e-06	-1.800383e-07	-8.300622e-10	-1.348658e+00	-5.495886e+01
1.800000e-06	-1.477667e-07	-8.022160e-10	-1.106913e+00	-5.313232e+01
1.810000e-06	-1.154668e-07	-7.727804e-10	-8.649561e-01	-5.129306e+01
1.820000e-06	-8.308425e-08	-7.451430e-10	-6.223798e-01	-4.944154e+01
1.830000e-06	-5.062716e-08	-7.153691e-10	-3.792454e-01	-4.757823e+01
1.840000e-06	-1.819786e-08	-6.839565e-10	-1.363192e-01	-4.570366e+01
1.850000e-06	1.414536e-08	-6.544789e-10	1.059622e-01	-4.381837e+01
1.860000e-06	4.650376e-08	-6.260565e-10	3.483573e-01	-4.192291e+01
1.870000e-06	7.892101e-08	-5.978912e-10	5.911932e-01	-4.001786e+01
1.880000e-06	1.113753e-07	-5.684021e-10	8.343069e-01	-3.810377e+01
1.890000e-06	1.438115e-07	-5.403832e-10	1.077284e+00	-3.618121e+01
1.900000e-06	1.762159e-07	-5.110194e-10	1.320024e+00	-3.425072e+01
1.910000e-06	2.086430e-07	-4.842883e-10	1.562934e+00	-3.231281e+01
1.920000e-06	2.410865e-07	-4.594211e-10	1.805967e+00	-3.036799e+01
1.930000e-06	2.734594e-07	-4.356481e-10	2.048470e+00	-2.841670e+01
1.940000e-06	3.057675e-07	-4.065082e-10	2.290488e+00	-2.645935e+01
1.950000e-06	3.380610e-07	-3.732325e-10	2.532397e+00	-2.449631e+01
1.960000e-06	3.703861e-07	-3.404117e-10	2.774543e+00	-2.252789e+01
1.970000e-06	4.027030e-07	-3.124272e-10	3.016627e+00	-2.055433e+01
1.980000e-06	4.349557e-07	-2.847203e-10	3.258231e+00	-1.857585e+01
1.990000e-06	4.671840e-07	-2.535322e-10	3.499651e+00	-1.659256e+01
2.000000e-06	4.994024e-07	-2.212135e-10	3.740997e+00	-1.460456e+01
2.010000e-06	5.315773e-07	-1.902341e-10	3.982018e+00	-1.261187e+01
2.020000e-06	5.636934e-07	-1.631098e-10	4.222598e+00	-1.061445e+01
2.030000e-06	5.958138e-07	-1.380837e-10	4.463210e+00	-8.612218e+00
2.040000e-06	6.279741e-07	-1.101057e-10	4.704121e+00	-6.605044e+00
2.050000e-06	6.601288e-07	-7.765822e-11	4.944990e+00	-4.592758e+00
2.060000e-06	6.922321e-07	-4.511472e-11	5.185474e+00	-2.575157e+00
2.070000e-06	7.242519e-07	-1.604993e-11	5.425333e+00	-5.520094e-01
2.080000e-06	7.562277e-07	1.346434e-11	5.664862e+00	1.476932e+00
2.090000e-06	7.882233e-07	4.586678e-11	5.904540e+00	3.511926e+00
2.100000e-06	8.202523e-07	7.845655e-11	6.144467e+00	5.553231e+00
2.110000e-06	8.522758e-07	1.101483e-10	6.384354e+00	7.601098e+00
2.120000e-06	8.842265e-07	1.392312e-10	6.623695e+00	9.655761e+00
2.130000e-06	9.161556e-07	1.703860e-10	6.862874e+00	1.171743e+01
2.140000e-06	9.480607e-07	2.042581e-10	7.101873e+00	1.378628e+01
2.150000e-06	9.798868e-07	2.398274e-10	7.340281e+00	1.586246e+01
2.160000e-06	1.011701e-06	2.750798e-10	7.578598e+00	1.794604e+01
2.170000e-06	1.043511e-06	3.076652e-10	7.816886e+00	2.003708e+01
2.180000e-06	1.075223e-06	3.371262e-10	8.054441e+00	2.213555e+01
2.190000e-06	1.106794e-06	3.688764e-10	8.290933e+00	2.424138e+01
2.200000e-06	1.138294e-06	4.031835e-10	8.526902e+00	2.635444e+01
2.210000e-06	1.169799e-06	4.337156e-10	8.762900e+00	2.847452e+01
2.220000e-06	1.201166e-06	4.594737e-10	8.997875e+00	3.060137e+01
2.230000e-06	1.232416e-06	4.873769e-10	9.231960e+00	3.273467e+01
2.240000e-06	1.263577e-06	5.215969e-10	9.465391e+00	3.487404e+01
2.250000e-06	1.294587e-06	5.552598e-10	9.697680e+00	3.701905e+01
2.260000e-06	1.325462e-06	5.843477e-10	9.928966e+00	3.916924e+01
2.270000e-06	1.356172e-06	6.140744e-10	1.015901e+01	4.132408e+01
2.280000e-06	1.386817e-06	6.465457e-10	1.038857e+01	4.348302e+01
2.290000e-06	1.417483e-06	6.802685e-10	1.061829e+01	4.564547e+01
2.300000e-06	1.448011e-06	7.136568e-10	1.084697e+01	4.781084e+01
2.310000e-06	1.478340e-06	7.447676e-10	1.107416e+01	4.997850e+01
2.320000e-06	1.508619e-06	7.754962e-10	1.130098e+01	5.214783e+01
2.330000e-06	1.538913e-06	8.084183e-10	1.152792e+01	5.431820e+01
2.340000e-06	1.569089e-06	8.426347e-10	1.175396e+01	5.648899e+01
2.350000e-06	1.599111e-06	8.769325e-10	1.197886e+01	5.865960e+01
2.360000e-06	1.629051e-06	9.092698e-10	1.220314e+01	6.082942e+01
2.370000e-06	1.658913e-06	9.410866e-10	1.242683e+01	6.299788e+01
2.380000e-06	1.688699e-06	9.750851e-10	1.264995e+01	6.516444e+01
2.390000e-06	1.718349e-06	1.008472e-09	1.287206e+01	6.732858e+01
2.400000e-06	1.747917e-06	1.040025e-09	1.309355e+01	6.948978e+01
2.410000e-06	1.777422e-06	1.071906e-09	1.331457e+01	7.164760e+01
2.420000e-06	1.806800e-06	1.105020e-09	1.353464e+01	7.380157e+01
2.430000e-06	1.836024e-06	1.138607e-09	1.375356e+01	7.595129e+01
2.440000e-06	1.865016e-06	1.171353e-09	1.397074e+01	7.809634e+01
2.450000e-06	1.893800e-06	1.202885e-09	1.418636e+01	8.023635e+01
2.460000e-06	1.922412e-06	1.234766e-09	1.440069e+01	8.237093e+01
2.470000e-06	1.950832e-06	1.268013e-09	1.461358e+01	8.449972e+01
2.480000e-06	1.979132e-06	1.301108e-09	1.482558e+01	8.662235e+01
2.490000e-06	2.007424e-06	1.329729e-09	1.503751e+01	8.873845e+01
2.500000e-06	2.035719e-06	1.359375e-09	1.524947e+01	9.084763e+01
2.510000e-06	2.063908e-06	1.390800e-09	1.546063e+01	9.294948e+01
2.520000e-06	2.092009e-06	1.420716e-09	1.567113e+01	9.504359e+01
2.530000e-06	2.120026e-06	1.449368e-09	1.588101e+01	9.712949e+01
2.540000e-06	2.147965e-06	1.481211e-09	1.609030e+01	9.920671e+01
2.550000e-06	2.175889e-06	1.515572e-09	1.629947e+01	1.012747e+02
2.560000e-06	2.203780e-06	1.547505e-09	1.650840e+01	1.033330e+02
2.570000e-06	2.231570e-06	1.576273e-09	1.671658e+01	1.053809e+02
2.580000e-06	2.259239e-06	1.604252e-09	1.692384e+01	1.074178e+02
2.590000e-06	2.286795e-06	1.635184e-09	1.713027e+01	1.094430e+02
2.600000e-06	2.314028e-06	1.664751e-09	1.733426e+01	1.114559e+02
2.610000e-06	2.340881e-06	1.690930e-09	1.753542e+01	1.134557e+02
2.620000e-06	2.367356e-06	1.720803e-09	1.773374e+01	1.154415e+02
2.630000e-06	2.393523e-06	1.753434e-09	1.792975e+01	1.174128e+02
2.640000e-06	2.419507e-06	1.783390e-09	1.812440e+01	1.193685e+02
2.650000e-06	2.445174e-06	1.811588e-09	1.831667e+01	1.213079e+02
2.660000e-06	2.470419e-06	1.839378e-09	1.850578e+01	1.232303e+02
2.670000e-06	2.495321e-06	1.867579e-09	1.869232e+01	1.251347e+02
2.680000e-06	2.520040e-06	1.894831e-09	1.887748e+01	1.270204e+02
2.690000e-06	2.544525e-06	1.921905e-09	1.906090e+01	1.288866e+02
2.700000e-06	2.568889e-06	1.947441e-09	1.924342e+01	1.307326e+02
2.710000e-06	2.593171e-06	1.973203e-09	1.942531e+01	1.325577e+02
2.720000e-06	2.617368e-06	2.000550e-09	1.960657e+01	1.343611e+02
2.730000e-06	2.641496e-06	2.028269e-09	1.978731e+01	1.361424e+02
2.740000e-06	2.665450e-06	2.057805e-09	1.996674e+01	1.379009e+02
2.750000e-06	2.689249e-06	2.088252e-09	2.014503e+01	1.396362e+02
2.760000e-06	2.712856e-06	2.115267e-09	2.032186e+01	1.413478e+02
2.770000e-06	2.736326e-06	2.140443e-09	2.049768e+01	1.430355e+02
2.780000e-06	2.759614e-06	2.166191e-09	2.067213e+01	1.446989e+02
2.790000e-06	2.782615e-06	2.190523e-09	2.084442e+01	1.463380e+02
2.800000e-06	2.805412e-06	2.215492e-09	2.101519e+01	1.479524e+02
2.810000e-06	2.827965e-06	2.241596e-09	2.118414e+01	1.495423e+02
2.820000e-06	2.850320e-06	2.266592e-09	2.135160e+01	1.511076e+02
2.830000e-06	2.872542e-06	2.289716e-09	2.151806e+01	1.526485e+02
2.840000e-06	2.894568e-06	2.314711e-09	2.168306e+01	1.541649e+02
2.850000e-06	2.916445e-06	2.341002e-09	2.184694e+01	1.556573e+02
2.860000e-06	2.938216e-06	2.364230e-09	2.201002e+01	1.571257e+02
2.870000e-06	2.959723e-06	2.385759e-09	2.217113e+01	1.585706e+02
2.880000e-06	2.980957e-06	2.406504e-09	2.233020e+01	1.599921e+02
2.890000e-06	3.002030e-06	2.425922e-09	2.248805e+01	1.613908e+02
2.900000e-06	3.022830e-06	2.444965e-09	2.264386e+01	1.627668e+02
