# Temperatura_=_20.0
# Concentracion g/m^3_=_12600.0
# C_Vs_to_Am_M_A/Vsm_=_65563218390.804596
# pendiente_HvsI_1/m_=_3716.3
# ordenada_HvsI_A/m_=_1297.0
# frecuencia_Hz_=_135032.08714394146

Tiempo_(s)	Campo_(V.s)	Magnetizacion_(V.s)	Campo_(kA/m)	Magnetizacion_(A/m)
0.000000e+00	-3.882552e-06	-3.379601e-09	-2.914285e+01	-2.214463e+02
1.000000e-08	-3.882663e-06	-3.382100e-09	-2.914368e+01	-2.214088e+02
2.000000e-08	-3.882564e-06	-3.381760e-09	-2.914294e+01	-2.213537e+02
3.000000e-08	-3.882166e-06	-3.381654e-09	-2.913995e+01	-2.212817e+02
4.000000e-08	-3.881527e-06	-3.392813e-09	-2.913515e+01	-2.211935e+02
5.000000e-08	-3.880598e-06	-3.417309e-09	-2.912818e+01	-2.210900e+02
6.000000e-08	-3.879233e-06	-3.433046e-09	-2.911793e+01	-2.209721e+02
7.000000e-08	-3.877238e-06	-3.400062e-09	-2.910295e+01	-2.208408e+02
8.000000e-08	-3.874689e-06	-3.348254e-09	-2.908382e+01	-2.206972e+02
9.000000e-08	-3.871804e-06	-3.290423e-09	-2.906217e+01	-2.205423e+02
1.000000e-07	-3.868623e-06	-3.253445e-09	-2.903829e+01	-2.203772e+02
1.100000e-07	-3.865238e-06	-3.289625e-09	-2.901288e+01	-2.202030e+02
1.200000e-07	-3.861587e-06	-3.367177e-09	-2.898548e+01	-2.200208e+02
1.300000e-07	-3.857717e-06	-3.411392e-09	-2.895643e+01	-2.198317e+02
1.400000e-07	-3.853727e-06	-3.402629e-09	-2.892648e+01	-2.196365e+02
1.500000e-07	-3.849619e-06	-3.367354e-09	-2.889564e+01	-2.194362e+02
1.600000e-07	-3.845346e-06	-3.328642e-09	-2.886358e+01	-2.192315e+02
1.700000e-07	-3.840818e-06	-3.351784e-09	-2.882958e+01	-2.190232e+02
1.800000e-07	-3.836007e-06	-3.383027e-09	-2.879347e+01	-2.188117e+02
1.900000e-07	-3.830936e-06	-3.361838e-09	-2.875541e+01	-2.185975e+02
2.000000e-07	-3.825585e-06	-3.328519e-09	-2.871525e+01	-2.183810e+02
2.100000e-07	-3.819959e-06	-3.332047e-09	-2.867301e+01	-2.181622e+02
2.200000e-07	-3.814109e-06	-3.347115e-09	-2.862910e+01	-2.179412e+02
2.300000e-07	-3.808010e-06	-3.330171e-09	-2.858332e+01	-2.177178e+02
2.400000e-07	-3.801610e-06	-3.291364e-09	-2.853529e+01	-2.174919e+02
2.500000e-07	-3.794875e-06	-3.293367e-09	-2.848473e+01	-2.172630e+02
2.600000e-07	-3.787778e-06	-3.329594e-09	-2.843146e+01	-2.170306e+02
2.700000e-07	-3.780387e-06	-3.337350e-09	-2.837598e+01	-2.167942e+02
2.800000e-07	-3.772793e-06	-3.311438e-09	-2.831898e+01	-2.165530e+02
2.900000e-07	-3.765076e-06	-3.291728e-09	-2.826106e+01	-2.163063e+02
3.000000e-07	-3.757193e-06	-3.291231e-09	-2.820189e+01	-2.160533e+02
3.100000e-07	-3.749036e-06	-3.307222e-09	-2.814066e+01	-2.157930e+02
3.200000e-07	-3.740706e-06	-3.323102e-09	-2.807814e+01	-2.155246e+02
3.300000e-07	-3.732212e-06	-3.302171e-09	-2.801438e+01	-2.152471e+02
3.400000e-07	-3.723289e-06	-3.259468e-09	-2.794740e+01	-2.149598e+02
3.500000e-07	-3.713817e-06	-3.252359e-09	-2.787630e+01	-2.146616e+02
3.600000e-07	-3.704081e-06	-3.300154e-09	-2.780322e+01	-2.143517e+02
3.700000e-07	-3.694017e-06	-3.318119e-09	-2.772768e+01	-2.140294e+02
3.800000e-07	-3.683456e-06	-3.262912e-09	-2.764841e+01	-2.136940e+02
3.900000e-07	-3.672566e-06	-3.218445e-09	-2.756667e+01	-2.133448e+02
4.000000e-07	-3.661341e-06	-3.261434e-09	-2.748241e+01	-2.129812e+02
4.100000e-07	-3.649826e-06	-3.302248e-09	-2.739598e+01	-2.126028e+02
4.200000e-07	-3.638058e-06	-3.253844e-09	-2.730764e+01	-2.122093e+02
4.300000e-07	-3.626055e-06	-3.186612e-09	-2.721755e+01	-2.118004e+02
4.400000e-07	-3.613768e-06	-3.205416e-09	-2.712532e+01	-2.113759e+02
4.500000e-07	-3.601187e-06	-3.262062e-09	-2.703089e+01	-2.109358e+02
4.600000e-07	-3.588289e-06	-3.258379e-09	-2.693408e+01	-2.104802e+02
4.700000e-07	-3.575058e-06	-3.203754e-09	-2.683477e+01	-2.100092e+02
4.800000e-07	-3.561578e-06	-3.173102e-09	-2.673358e+01	-2.095231e+02
4.900000e-07	-3.547860e-06	-3.193324e-09	-2.663061e+01	-2.090222e+02
5.000000e-07	-3.533855e-06	-3.222275e-09	-2.652548e+01	-2.085069e+02
5.100000e-07	-3.519508e-06	-3.202852e-09	-2.641780e+01	-2.079778e+02
5.200000e-07	-3.504893e-06	-3.144366e-09	-2.630810e+01	-2.074352e+02
5.300000e-07	-3.489870e-06	-3.123737e-09	-2.619534e+01	-2.068798e+02
5.400000e-07	-3.474476e-06	-3.162721e-09	-2.607978e+01	-2.063122e+02
5.500000e-07	-3.458814e-06	-3.184672e-09	-2.596222e+01	-2.057330e+02
5.600000e-07	-3.442832e-06	-3.139024e-09	-2.584226e+01	-2.051428e+02
5.700000e-07	-3.426540e-06	-3.093912e-09	-2.571997e+01	-2.045423e+02
5.800000e-07	-3.410001e-06	-3.108064e-09	-2.559583e+01	-2.039320e+02
5.900000e-07	-3.393160e-06	-3.135819e-09	-2.546942e+01	-2.033124e+02
6.000000e-07	-3.375985e-06	-3.117541e-09	-2.534050e+01	-2.026843e+02
6.100000e-07	-3.358736e-06	-3.075753e-09	-2.521103e+01	-2.020480e+02
6.200000e-07	-3.341356e-06	-3.060260e-09	-2.508057e+01	-2.014039e+02
6.300000e-07	-3.323763e-06	-3.073845e-09	-2.494852e+01	-2.007526e+02
6.400000e-07	-3.305982e-06	-3.080823e-09	-2.481505e+01	-2.000942e+02
6.500000e-07	-3.287911e-06	-3.059404e-09	-2.467941e+01	-1.994291e+02
6.600000e-07	-3.269601e-06	-3.029029e-09	-2.454197e+01	-1.987574e+02
6.700000e-07	-3.251077e-06	-3.021755e-09	-2.440293e+01	-1.980793e+02
6.800000e-07	-3.232323e-06	-3.029914e-09	-2.426216e+01	-1.973949e+02
6.900000e-07	-3.213343e-06	-3.022872e-09	-2.411969e+01	-1.967040e+02
7.000000e-07	-3.194041e-06	-2.994401e-09	-2.397481e+01	-1.960067e+02
7.100000e-07	-3.174464e-06	-2.965819e-09	-2.382786e+01	-1.953028e+02
7.200000e-07	-3.154719e-06	-2.955639e-09	-2.367965e+01	-1.945922e+02
7.300000e-07	-3.134857e-06	-2.959242e-09	-2.353057e+01	-1.938745e+02
7.400000e-07	-3.114944e-06	-2.953803e-09	-2.338110e+01	-1.931495e+02
7.500000e-07	-3.094981e-06	-2.930049e-09	-2.323126e+01	-1.924169e+02
7.600000e-07	-3.074870e-06	-2.909283e-09	-2.308030e+01	-1.916763e+02
7.700000e-07	-3.054566e-06	-2.906220e-09	-2.292789e+01	-1.909274e+02
7.800000e-07	-3.034059e-06	-2.907497e-09	-2.277397e+01	-1.901697e+02
7.900000e-07	-3.013283e-06	-2.892946e-09	-2.261802e+01	-1.894029e+02
8.000000e-07	-2.992273e-06	-2.866905e-09	-2.246032e+01	-1.886265e+02
8.100000e-07	-2.971049e-06	-2.847502e-09	-2.230101e+01	-1.878401e+02
8.200000e-07	-2.949619e-06	-2.840121e-09	-2.214015e+01	-1.870434e+02
8.300000e-07	-2.928075e-06	-2.833130e-09	-2.197844e+01	-1.862360e+02
8.400000e-07	-2.906380e-06	-2.815680e-09	-2.181560e+01	-1.854175e+02
8.500000e-07	-2.884434e-06	-2.791771e-09	-2.165087e+01	-1.845876e+02
8.600000e-07	-2.862295e-06	-2.777422e-09	-2.148469e+01	-1.837460e+02
8.700000e-07	-2.839943e-06	-2.774882e-09	-2.131691e+01	-1.828926e+02
8.800000e-07	-2.817344e-06	-2.768213e-09	-2.114728e+01	-1.820270e+02
8.900000e-07	-2.794578e-06	-2.749579e-09	-2.097640e+01	-1.811491e+02
9.000000e-07	-2.771609e-06	-2.728022e-09	-2.080399e+01	-1.802588e+02
9.100000e-07	-2.748418e-06	-2.713252e-09	-2.062991e+01	-1.793560e+02
9.200000e-07	-2.725071e-06	-2.703396e-09	-2.045467e+01	-1.784407e+02
9.300000e-07	-2.701531e-06	-2.690458e-09	-2.027798e+01	-1.775129e+02
9.400000e-07	-2.677789e-06	-2.673963e-09	-2.009977e+01	-1.765726e+02
9.500000e-07	-2.653876e-06	-2.658588e-09	-1.992027e+01	-1.756199e+02
9.600000e-07	-2.629884e-06	-2.646293e-09	-1.974019e+01	-1.746550e+02
9.700000e-07	-2.605854e-06	-2.634808e-09	-1.955982e+01	-1.736779e+02
9.800000e-07	-2.581693e-06	-2.621628e-09	-1.937846e+01	-1.726889e+02
9.900000e-07	-2.557380e-06	-2.605437e-09	-1.919596e+01	-1.716881e+02
1.000000e-06	-2.532942e-06	-2.585681e-09	-1.901253e+01	-1.706758e+02
1.010000e-06	-2.508316e-06	-2.565135e-09	-1.882769e+01	-1.696522e+02
1.020000e-06	-2.483502e-06	-2.547633e-09	-1.864142e+01	-1.686174e+02
1.030000e-06	-2.458366e-06	-2.534707e-09	-1.845276e+01	-1.675717e+02
1.040000e-06	-2.432866e-06	-2.518454e-09	-1.826135e+01	-1.665154e+02
1.050000e-06	-2.407051e-06	-2.497353e-09	-1.806758e+01	-1.654484e+02
1.060000e-06	-2.380802e-06	-2.478997e-09	-1.787055e+01	-1.643712e+02
1.070000e-06	-2.354213e-06	-2.467144e-09	-1.767097e+01	-1.632837e+02
1.080000e-06	-2.327357e-06	-2.454254e-09	-1.746938e+01	-1.621860e+02
1.090000e-06	-2.300254e-06	-2.433439e-09	-1.726595e+01	-1.610784e+02
1.100000e-06	-2.272945e-06	-2.410850e-09	-1.706097e+01	-1.599607e+02
1.110000e-06	-2.245482e-06	-2.391891e-09	-1.685483e+01	-1.588329e+02
1.120000e-06	-2.217907e-06	-2.376027e-09	-1.664785e+01	-1.576952e+02
1.130000e-06	-2.190221e-06	-2.359966e-09	-1.644003e+01	-1.565472e+02
1.140000e-06	-2.162436e-06	-2.339627e-09	-1.623147e+01	-1.553890e+02
1.150000e-06	-2.134555e-06	-2.318597e-09	-1.602219e+01	-1.542204e+02
1.160000e-06	-2.106619e-06	-2.302760e-09	-1.581250e+01	-1.530412e+02
1.170000e-06	-2.078656e-06	-2.290072e-09	-1.560261e+01	-1.518512e+02
1.180000e-06	-2.050615e-06	-2.273472e-09	-1.539213e+01	-1.506502e+02
1.190000e-06	-2.022443e-06	-2.250049e-09	-1.518067e+01	-1.494379e+02
1.200000e-06	-1.994139e-06	-2.226819e-09	-1.496822e+01	-1.482140e+02
1.210000e-06	-1.965749e-06	-2.210245e-09	-1.475512e+01	-1.469784e+02
1.220000e-06	-1.937238e-06	-2.195445e-09	-1.454111e+01	-1.457307e+02
1.230000e-06	-1.908541e-06	-2.175042e-09	-1.432571e+01	-1.444708e+02
1.240000e-06	-1.879677e-06	-2.153486e-09	-1.410905e+01	-1.431983e+02
1.250000e-06	-1.850639e-06	-2.134596e-09	-1.389109e+01	-1.419132e+02
1.260000e-06	-1.821402e-06	-2.119802e-09	-1.367163e+01	-1.406153e+02
1.270000e-06	-1.792072e-06	-2.104417e-09	-1.345148e+01	-1.393044e+02
1.280000e-06	-1.762602e-06	-2.082109e-09	-1.323028e+01	-1.379806e+02
1.290000e-06	-1.732979e-06	-2.058508e-09	-1.300792e+01	-1.366438e+02
1.300000e-06	-1.703310e-06	-2.038120e-09	-1.278523e+01	-1.352941e+02
1.310000e-06	-1.673515e-06	-2.020946e-09	-1.256158e+01	-1.339315e+02
1.320000e-06	-1.643636e-06	-1.999880e-09	-1.233731e+01	-1.325563e+02
1.330000e-06	-1.613707e-06	-1.974768e-09	-1.211265e+01	-1.311687e+02
1.340000e-06	-1.583688e-06	-1.950738e-09	-1.188733e+01	-1.297689e+02
1.350000e-06	-1.553586e-06	-1.930426e-09	-1.166138e+01	-1.283574e+02
1.360000e-06	-1.523368e-06	-1.912916e-09	-1.143456e+01	-1.269344e+02
1.370000e-06	-1.493065e-06	-1.891569e-09	-1.120710e+01	-1.255005e+02
1.380000e-06	-1.462719e-06	-1.866815e-09	-1.097933e+01	-1.240561e+02
1.390000e-06	-1.432307e-06	-1.844899e-09	-1.075105e+01	-1.226017e+02
1.400000e-06	-1.401762e-06	-1.824652e-09	-1.052178e+01	-1.211378e+02
1.410000e-06	-1.371096e-06	-1.802140e-09	-1.029159e+01	-1.196648e+02
1.420000e-06	-1.340391e-06	-1.777027e-09	-1.006112e+01	-1.181834e+02
1.430000e-06	-1.309614e-06	-1.753382e-09	-9.830098e+00	-1.166940e+02
1.440000e-06	-1.278666e-06	-1.732205e-09	-9.597804e+00	-1.151971e+02
1.450000e-06	-1.247571e-06	-1.710729e-09	-9.364403e+00	-1.136930e+02
1.460000e-06	-1.216393e-06	-1.690088e-09	-9.130372e+00	-1.121821e+02
1.470000e-06	-1.185097e-06	-1.667825e-09	-8.895466e+00	-1.106648e+02
1.480000e-06	-1.153631e-06	-1.644145e-09	-8.659274e+00	-1.091413e+02
1.490000e-06	-1.122060e-06	-1.620565e-09	-8.422302e+00	-1.076117e+02
1.500000e-06	-1.090437e-06	-1.597470e-09	-8.184937e+00	-1.060762e+02
1.510000e-06	-1.058785e-06	-1.573263e-09	-7.947355e+00	-1.045346e+02
1.520000e-06	-1.027094e-06	-1.549296e-09	-7.709479e+00	-1.029869e+02
1.530000e-06	-9.953750e-07	-1.528463e-09	-7.471390e+00	-1.014330e+02
1.540000e-06	-9.636264e-07	-1.507254e-09	-7.233082e+00	-9.987242e+01
1.550000e-06	-9.318036e-07	-1.482285e-09	-6.994216e+00	-9.830490e+01
1.560000e-06	-8.999525e-07	-1.455412e-09	-6.755138e+00	-9.672996e+01
1.570000e-06	-8.680754e-07	-1.429353e-09	-6.515866e+00	-9.514707e+01
1.580000e-06	-8.361864e-07	-1.404330e-09	-6.276503e+00	-9.355563e+01
1.590000e-06	-8.042677e-07	-1.380046e-09	-6.036919e+00	-9.195497e+01
1.600000e-06	-7.723257e-07	-1.355667e-09	-5.797158e+00	-9.034440e+01
1.610000e-06	-7.403788e-07	-1.330388e-09	-5.557361e+00	-8.872320e+01
1.620000e-06	-7.083719e-07	-1.305454e-09	-5.317114e+00	-8.709060e+01
1.630000e-06	-6.763433e-07	-1.279992e-09	-5.076704e+00	-8.544585e+01
1.640000e-06	-6.443178e-07	-1.254871e-09	-4.836317e+00	-8.378823e+01
1.650000e-06	-6.122598e-07	-1.230316e-09	-4.595687e+00	-8.211700e+01
1.660000e-06	-5.801892e-07	-1.204498e-09	-4.354962e+00	-8.043150e+01
1.670000e-06	-5.481006e-07	-1.177390e-09	-4.114101e+00	-7.873111e+01
1.680000e-06	-5.159864e-07	-1.150337e-09	-3.873048e+00	-7.701528e+01
1.690000e-06	-4.838820e-07	-1.124652e-09	-3.632069e+00	-7.528353e+01
1.700000e-06	-4.517590e-07	-1.097270e-09	-3.390950e+00	-7.353547e+01
1.710000e-06	-4.195932e-07	-1.067934e-09	-3.149511e+00	-7.177082e+01
1.720000e-06	-3.874147e-07	-1.041344e-09	-2.907975e+00	-6.998939e+01
1.730000e-06	-3.552905e-07	-1.016482e-09	-2.666848e+00	-6.819110e+01
1.740000e-06	-3.230586e-07	-9.920312e-10	-2.424912e+00	-6.637599e+01
1.750000e-06	-2.906667e-07	-9.648756e-10	-2.181775e+00	-6.454417e+01
1.760000e-06	-2.583198e-07	-9.357768e-10	-1.938975e+00	-6.269591e+01
1.770000e-06	-2.260567e-07	-9.065531e-10	-1.696806e+00	-6.083155e+01
1.780000e-06	-1.938076e-07	-8.772924e-10	-1.454740e+00	-5.895152e+01
1.790000e-06	-1.614883e-07	-8.481799e-10	-1.212148e+00	-5.705635e+01
1.800000e-06	-1.291712e-07	-8.177829e-10	-9.695726e-01	-5.514665e+01
1.810000e-06	-9.687569e-08	-7.871133e-10	-7.271592e-01	-5.322307e+01
1.820000e-06	-6.458131e-08	-7.593484e-10	-4.847541e-01	-5.128635e+01
1.830000e-06	-3.226068e-08	-7.316720e-10	-2.421521e-01	-4.933724e+01
1.840000e-06	1.344874e-10	-7.025762e-10	1.009477e-03	-4.737651e+01
1.850000e-06	3.244010e-08	-6.731319e-10	2.434988e-01	-4.540497e+01
1.860000e-06	6.474650e-08	-6.451722e-10	4.859941e-01	-4.342340e+01
1.870000e-06	9.716186e-08	-6.167671e-10	7.293072e-01	-4.143257e+01
1.880000e-06	1.295613e-07	-5.850308e-10	9.725010e-01	-3.943321e+01
1.890000e-06	1.619544e-07	-5.538051e-10	1.215646e+00	-3.742602e+01
1.900000e-06	1.943148e-07	-5.237912e-10	1.458547e+00	-3.541165e+01
1.910000e-06	2.265609e-07	-4.951757e-10	1.700590e+00	-3.339065e+01
1.920000e-06	2.587816e-07	-4.669841e-10	1.942442e+00	-3.136353e+01
1.930000e-06	2.910584e-07	-4.383600e-10	2.184715e+00	-2.933072e+01
1.940000e-06	3.233077e-07	-4.079802e-10	2.426782e+00	-2.729256e+01
1.950000e-06	3.555191e-07	-3.780587e-10	2.668564e+00	-2.524930e+01
1.960000e-06	3.876992e-07	-3.495253e-10	2.910111e+00	-2.320110e+01
1.970000e-06	4.198867e-07	-3.202934e-10	3.151714e+00	-2.114807e+01
1.980000e-06	4.521092e-07	-2.878951e-10	3.393579e+00	-1.909019e+01
1.990000e-06	4.843234e-07	-2.548968e-10	3.635383e+00	-1.702739e+01
2.000000e-06	5.164740e-07	-2.223374e-10	3.876708e+00	-1.495955e+01
2.010000e-06	5.485628e-07	-1.911024e-10	4.117570e+00	-1.288646e+01
2.020000e-06	5.806237e-07	-1.621883e-10	4.358223e+00	-1.080786e+01
2.030000e-06	6.126667e-07	-1.339842e-10	4.598741e+00	-8.723468e+00
2.040000e-06	6.447264e-07	-1.039442e-10	4.839384e+00	-6.632960e+00
2.050000e-06	6.767680e-07	-7.291460e-11	5.079892e+00	-4.535992e+00
2.060000e-06	7.087612e-07	-4.225863e-11	5.320036e+00	-2.432214e+00
2.070000e-06	7.407098e-07	-1.079925e-11	5.559846e+00	-3.212816e-01
2.080000e-06	7.726557e-07	2.258357e-11	5.799635e+00	1.797138e+00
2.090000e-06	8.046068e-07	5.566724e-11	6.039463e+00	3.923353e+00
2.100000e-06	8.365031e-07	8.649025e-11	6.278881e+00	6.057634e+00
2.110000e-06	8.683753e-07	1.159733e-10	6.518117e+00	8.200213e+00
2.120000e-06	9.002329e-07	1.475062e-10	6.757243e+00	1.035127e+01
2.130000e-06	9.320874e-07	1.809573e-10	6.996346e+00	1.251092e+01
2.140000e-06	9.638927e-07	2.148087e-10	7.235080e+00	1.467924e+01
2.150000e-06	9.956467e-07	2.498558e-10	7.473429e+00	1.685622e+01
2.160000e-06	1.027341e-06	2.830603e-10	7.711329e+00	1.904179e+01
2.170000e-06	1.058933e-06	3.167716e-10	7.948466e+00	2.123581e+01
2.180000e-06	1.090486e-06	3.502563e-10	8.185306e+00	2.343807e+01
2.190000e-06	1.121981e-06	3.844507e-10	8.421711e+00	2.564832e+01
2.200000e-06	1.153379e-06	4.185772e-10	8.657385e+00	2.786620e+01
2.210000e-06	1.184678e-06	4.492674e-10	8.892315e+00	3.009134e+01
2.220000e-06	1.215880e-06	4.786928e-10	9.126525e+00	3.232329e+01
2.230000e-06	1.246975e-06	5.118814e-10	9.359924e+00	3.456156e+01
2.240000e-06	1.277945e-06	5.482016e-10	9.592393e+00	3.680560e+01
2.250000e-06	1.308812e-06	5.817443e-10	9.824079e+00	3.905485e+01
2.260000e-06	1.339604e-06	6.112443e-10	1.005521e+01	4.130871e+01
2.270000e-06	1.370290e-06	6.435741e-10	1.028554e+01	4.356655e+01
2.280000e-06	1.400869e-06	6.791108e-10	1.051507e+01	4.582773e+01
2.290000e-06	1.431328e-06	7.142144e-10	1.074370e+01	4.809161e+01
2.300000e-06	1.461636e-06	7.478463e-10	1.097120e+01	5.035752e+01
2.310000e-06	1.491868e-06	7.805833e-10	1.119812e+01	5.262481e+01
2.320000e-06	1.521987e-06	8.143596e-10	1.142420e+01	5.489285e+01
2.330000e-06	1.551969e-06	8.500577e-10	1.164924e+01	5.716098e+01
2.340000e-06	1.581867e-06	8.867632e-10	1.187366e+01	5.942860e+01
2.350000e-06	1.611725e-06	9.212160e-10	1.209778e+01	6.169509e+01
2.360000e-06	1.641595e-06	9.537263e-10	1.232199e+01	6.395986e+01
2.370000e-06	1.671415e-06	9.857059e-10	1.254582e+01	6.622235e+01
2.380000e-06	1.701130e-06	1.019293e-09	1.276886e+01	6.848202e+01
2.390000e-06	1.730724e-06	1.053485e-09	1.299100e+01	7.073834e+01
2.400000e-06	1.760164e-06	1.087249e-09	1.321198e+01	7.299080e+01
2.410000e-06	1.789502e-06	1.121124e-09	1.343219e+01	7.523893e+01
2.420000e-06	1.818737e-06	1.155848e-09	1.365163e+01	7.748225e+01
2.430000e-06	1.847797e-06	1.190521e-09	1.386976e+01	7.972033e+01
2.440000e-06	1.876700e-06	1.224320e-09	1.408671e+01	8.195272e+01
2.450000e-06	1.905455e-06	1.257269e-09	1.430255e+01	8.417900e+01
2.460000e-06	1.934017e-06	1.290287e-09	1.451694e+01	8.639878e+01
2.470000e-06	1.962407e-06	1.324375e-09	1.473004e+01	8.861163e+01
2.480000e-06	1.990717e-06	1.359083e-09	1.494254e+01	9.081716e+01
2.490000e-06	2.018951e-06	1.392844e-09	1.515446e+01	9.301499e+01
2.500000e-06	2.047079e-06	1.425478e-09	1.536559e+01	9.520469e+01
2.510000e-06	2.075134e-06	1.455750e-09	1.557617e+01	9.738589e+01
2.520000e-06	2.103112e-06	1.485704e-09	1.578618e+01	9.955817e+01
2.530000e-06	2.131024e-06	1.517557e-09	1.599569e+01	1.017211e+02
2.540000e-06	2.158894e-06	1.549680e-09	1.620489e+01	1.038743e+02
2.550000e-06	2.186652e-06	1.581103e-09	1.641324e+01	1.060173e+02
2.560000e-06	2.214305e-06	1.611571e-09	1.662081e+01	1.081497e+02
2.570000e-06	2.241909e-06	1.642632e-09	1.682801e+01	1.102710e+02
2.580000e-06	2.269332e-06	1.674608e-09	1.703385e+01	1.123807e+02
2.590000e-06	2.296467e-06	1.705934e-09	1.723752e+01	1.144784e+02
2.600000e-06	2.323371e-06	1.734766e-09	1.743947e+01	1.165635e+02
2.610000e-06	2.349954e-06	1.763436e-09	1.763900e+01	1.186354e+02
2.620000e-06	2.376207e-06	1.793787e-09	1.783606e+01	1.206938e+02
2.630000e-06	2.402232e-06	1.823787e-09	1.803141e+01	1.227379e+02
2.640000e-06	2.427995e-06	1.855303e-09	1.822478e+01	1.247672e+02
2.650000e-06	2.453444e-06	1.886347e-09	1.841581e+01	1.267812e+02
2.660000e-06	2.478610e-06	1.914091e-09	1.860470e+01	1.287791e+02
2.670000e-06	2.503556e-06	1.941884e-09	1.879196e+01	1.307604e+02
2.680000e-06	2.528338e-06	1.971394e-09	1.897797e+01	1.327244e+02
2.690000e-06	2.552871e-06	2.001749e-09	1.916212e+01	1.346704e+02
2.700000e-06	2.577162e-06	2.032471e-09	1.934445e+01	1.365979e+02
2.710000e-06	2.601280e-06	2.062635e-09	1.952548e+01	1.385061e+02
2.720000e-06	2.625251e-06	2.092004e-09	1.970541e+01	1.403944e+02
2.730000e-06	2.649137e-06	2.122007e-09	1.988470e+01	1.422620e+02
2.740000e-06	2.672866e-06	2.152780e-09	2.006281e+01	1.441085e+02
2.750000e-06	2.696450e-06	2.182210e-09	2.023984e+01	1.459330e+02
2.760000e-06	2.719967e-06	2.209430e-09	2.041636e+01	1.477350e+02
2.770000e-06	2.743300e-06	2.236805e-09	2.059150e+01	1.495139e+02
2.780000e-06	2.766330e-06	2.265314e-09	2.076437e+01	1.512691e+02
2.790000e-06	2.789168e-06	2.293222e-09	2.093579e+01	1.530000e+02
2.800000e-06	2.811865e-06	2.319126e-09	2.110615e+01	1.547063e+02
2.810000e-06	2.834330e-06	2.343140e-09	2.127478e+01	1.563873e+02
2.820000e-06	2.856546e-06	2.367469e-09	2.144153e+01	1.580428e+02
2.830000e-06	2.878555e-06	2.393948e-09	2.160674e+01	1.596724e+02
2.840000e-06	2.900446e-06	2.420312e-09	2.177105e+01	1.612758e+02
2.850000e-06	2.922131e-06	2.444488e-09	2.193382e+01	1.628528e+02
2.860000e-06	2.943495e-06	2.467586e-09	2.209418e+01	1.644032e+02
2.870000e-06	2.964717e-06	2.491347e-09	2.225348e+01	1.659270e+02
2.880000e-06	2.985796e-06	2.515318e-09	2.241170e+01	1.674242e+02
2.890000e-06	3.006711e-06	2.536950e-09	2.256869e+01	1.688948e+02
2.900000e-06	3.027426e-06	2.557706e-09	2.272418e+01	1.703390e+02
