# Temperatura_=_20.0
# Concentracion g/m^3_=_12600.0
# C_Vs_to_Am_M_A/Vsm_=_65563218390.804596
# pendiente_HvsI_1/m_=_3716.3
# ordenada_HvsI_A/m_=_1297.0
# frecuencia_Hz_=_135035.01872101927

Tiempo_(s)	Campo_(V.s)	Magnetizacion_(V.s)	Campo_(kA/m)	Magnetizacion_(A/m)
0.000000e+00	-3.879802e-06	-3.407433e-09	-2.913841e+01	-2.234954e+02
1.000000e-08	-3.879959e-06	-3.409912e-09	-2.913958e+01	-2.235047e+02
2.000000e-08	-3.879962e-06	-3.410527e-09	-2.913960e+01	-2.234973e+02
3.000000e-08	-3.879770e-06	-3.408660e-09	-2.913816e+01	-2.234730e+02
4.000000e-08	-3.879231e-06	-3.408421e-09	-2.913412e+01	-2.234317e+02
5.000000e-08	-3.878380e-06	-3.412327e-09	-2.912772e+01	-2.233736e+02
6.000000e-08	-3.877082e-06	-3.417806e-09	-2.911797e+01	-2.232989e+02
7.000000e-08	-3.875160e-06	-3.413193e-09	-2.910354e+01	-2.232078e+02
8.000000e-08	-3.872716e-06	-3.444328e-09	-2.908519e+01	-2.231009e+02
9.000000e-08	-3.869856e-06	-3.446561e-09	-2.906371e+01	-2.229785e+02
1.000000e-07	-3.866670e-06	-3.404650e-09	-2.903978e+01	-2.228414e+02
1.100000e-07	-3.863219e-06	-3.389750e-09	-2.901386e+01	-2.226902e+02
1.200000e-07	-3.859550e-06	-3.357373e-09	-2.898630e+01	-2.225258e+02
1.300000e-07	-3.855765e-06	-3.370706e-09	-2.895788e+01	-2.223488e+02
1.400000e-07	-3.851896e-06	-3.427301e-09	-2.892882e+01	-2.221603e+02
1.500000e-07	-3.847810e-06	-3.376167e-09	-2.889814e+01	-2.219612e+02
1.600000e-07	-3.843531e-06	-3.348288e-09	-2.886600e+01	-2.217523e+02
1.700000e-07	-3.839090e-06	-3.366507e-09	-2.883265e+01	-2.215347e+02
1.800000e-07	-3.834326e-06	-3.380480e-09	-2.879687e+01	-2.213091e+02
1.900000e-07	-3.829214e-06	-3.362637e-09	-2.875847e+01	-2.210764e+02
2.000000e-07	-3.823813e-06	-3.351701e-09	-2.871791e+01	-2.208374e+02
2.100000e-07	-3.818184e-06	-3.374677e-09	-2.867564e+01	-2.205928e+02
2.200000e-07	-3.812328e-06	-3.358584e-09	-2.863165e+01	-2.203432e+02
2.300000e-07	-3.806129e-06	-3.346122e-09	-2.858510e+01	-2.200891e+02
2.400000e-07	-3.799647e-06	-3.337117e-09	-2.853642e+01	-2.198307e+02
2.500000e-07	-3.792880e-06	-3.354865e-09	-2.848559e+01	-2.195684e+02
2.600000e-07	-3.785830e-06	-3.322525e-09	-2.843265e+01	-2.193023e+02
2.700000e-07	-3.778519e-06	-3.318478e-09	-2.837774e+01	-2.190322e+02
2.800000e-07	-3.770951e-06	-3.335927e-09	-2.832091e+01	-2.187580e+02
2.900000e-07	-3.763253e-06	-3.342263e-09	-2.826309e+01	-2.184794e+02
3.000000e-07	-3.755375e-06	-3.290503e-09	-2.820392e+01	-2.181959e+02
3.100000e-07	-3.747352e-06	-3.288544e-09	-2.814367e+01	-2.179068e+02
3.200000e-07	-3.739233e-06	-3.330446e-09	-2.808269e+01	-2.176116e+02
3.300000e-07	-3.730884e-06	-3.337573e-09	-2.801999e+01	-2.173095e+02
3.400000e-07	-3.722165e-06	-3.276296e-09	-2.795451e+01	-2.169996e+02
3.500000e-07	-3.713115e-06	-3.244300e-09	-2.788653e+01	-2.166810e+02
3.600000e-07	-3.703687e-06	-3.288674e-09	-2.781573e+01	-2.163527e+02
3.700000e-07	-3.693517e-06	-3.309048e-09	-2.773935e+01	-2.160138e+02
3.800000e-07	-3.682772e-06	-3.265565e-09	-2.765865e+01	-2.156634e+02
3.900000e-07	-3.671737e-06	-3.224428e-09	-2.757578e+01	-2.153006e+02
4.000000e-07	-3.660313e-06	-3.257495e-09	-2.748998e+01	-2.149244e+02
4.100000e-07	-3.648644e-06	-3.280454e-09	-2.740234e+01	-2.145342e+02
4.200000e-07	-3.636800e-06	-3.264241e-09	-2.731339e+01	-2.141291e+02
4.300000e-07	-3.624718e-06	-3.223075e-09	-2.722265e+01	-2.137086e+02
4.400000e-07	-3.612391e-06	-3.214319e-09	-2.713007e+01	-2.132723e+02
4.500000e-07	-3.599856e-06	-3.219687e-09	-2.703593e+01	-2.128197e+02
4.600000e-07	-3.587073e-06	-3.241474e-09	-2.693993e+01	-2.123506e+02
4.700000e-07	-3.573983e-06	-3.222089e-09	-2.684162e+01	-2.118650e+02
4.800000e-07	-3.560604e-06	-3.179663e-09	-2.674113e+01	-2.113630e+02
4.900000e-07	-3.547027e-06	-3.165506e-09	-2.663917e+01	-2.108446e+02
5.000000e-07	-3.533221e-06	-3.212452e-09	-2.653549e+01	-2.103104e+02
5.100000e-07	-3.519035e-06	-3.218310e-09	-2.642894e+01	-2.097606e+02
5.200000e-07	-3.504476e-06	-3.160993e-09	-2.631960e+01	-2.091959e+02
5.300000e-07	-3.489612e-06	-3.121914e-09	-2.620797e+01	-2.086170e+02
5.400000e-07	-3.474383e-06	-3.154239e-09	-2.609359e+01	-2.080246e+02
5.500000e-07	-3.458699e-06	-3.174008e-09	-2.597580e+01	-2.074195e+02
5.600000e-07	-3.442629e-06	-3.136892e-09	-2.585511e+01	-2.068026e+02
5.700000e-07	-3.426278e-06	-3.093437e-09	-2.573231e+01	-2.061747e+02
5.800000e-07	-3.409690e-06	-3.092911e-09	-2.560773e+01	-2.055366e+02
5.900000e-07	-3.392808e-06	-3.110646e-09	-2.548094e+01	-2.048894e+02
6.000000e-07	-3.375784e-06	-3.108522e-09	-2.535309e+01	-2.042338e+02
6.100000e-07	-3.358680e-06	-3.079919e-09	-2.522463e+01	-2.035704e+02
6.200000e-07	-3.341324e-06	-3.050186e-09	-2.509428e+01	-2.029001e+02
6.300000e-07	-3.323782e-06	-3.050405e-09	-2.496254e+01	-2.022235e+02
6.400000e-07	-3.306067e-06	-3.061543e-09	-2.482949e+01	-2.015409e+02
6.500000e-07	-3.288106e-06	-3.045077e-09	-2.469460e+01	-2.008527e+02
6.600000e-07	-3.269858e-06	-3.005279e-09	-2.455755e+01	-2.001593e+02
6.700000e-07	-3.251260e-06	-2.989068e-09	-2.441788e+01	-1.994607e+02
6.800000e-07	-3.232385e-06	-2.997348e-09	-2.427612e+01	-1.987570e+02
6.900000e-07	-3.213285e-06	-3.003448e-09	-2.413267e+01	-1.980479e+02
7.000000e-07	-3.193946e-06	-2.982639e-09	-2.398743e+01	-1.973333e+02
7.100000e-07	-3.174431e-06	-2.959079e-09	-2.384087e+01	-1.966128e+02
7.200000e-07	-3.154770e-06	-2.949053e-09	-2.369321e+01	-1.958860e+02
7.300000e-07	-3.134991e-06	-2.954046e-09	-2.354466e+01	-1.951522e+02
7.400000e-07	-3.115159e-06	-2.944598e-09	-2.339572e+01	-1.944109e+02
7.500000e-07	-3.095253e-06	-2.920036e-09	-2.324622e+01	-1.936613e+02
7.600000e-07	-3.075188e-06	-2.898273e-09	-2.309553e+01	-1.929029e+02
7.700000e-07	-3.054936e-06	-2.893266e-09	-2.294343e+01	-1.921348e+02
7.800000e-07	-3.034518e-06	-2.889748e-09	-2.279008e+01	-1.913563e+02
7.900000e-07	-3.013922e-06	-2.881854e-09	-2.263540e+01	-1.905668e+02
8.000000e-07	-2.992945e-06	-2.866540e-09	-2.247786e+01	-1.897655e+02
8.100000e-07	-2.971657e-06	-2.850688e-09	-2.231798e+01	-1.889518e+02
8.200000e-07	-2.950218e-06	-2.838793e-09	-2.215697e+01	-1.881252e+02
8.300000e-07	-2.928565e-06	-2.834145e-09	-2.199435e+01	-1.872852e+02
8.400000e-07	-2.906757e-06	-2.821693e-09	-2.183056e+01	-1.864316e+02
8.500000e-07	-2.884887e-06	-2.799071e-09	-2.166631e+01	-1.855639e+02
8.600000e-07	-2.862904e-06	-2.779189e-09	-2.150121e+01	-1.846822e+02
8.700000e-07	-2.840626e-06	-2.771186e-09	-2.133390e+01	-1.837863e+02
8.800000e-07	-2.817985e-06	-2.767819e-09	-2.116386e+01	-1.828764e+02
8.900000e-07	-2.795087e-06	-2.754985e-09	-2.099189e+01	-1.819526e+02
9.000000e-07	-2.771976e-06	-2.732367e-09	-2.081832e+01	-1.810153e+02
9.100000e-07	-2.748662e-06	-2.712834e-09	-2.064323e+01	-1.800649e+02
9.200000e-07	-2.725219e-06	-2.705625e-09	-2.046716e+01	-1.791018e+02
9.300000e-07	-2.701673e-06	-2.699644e-09	-2.029032e+01	-1.781268e+02
9.400000e-07	-2.678016e-06	-2.683604e-09	-2.011265e+01	-1.771403e+02
9.500000e-07	-2.654230e-06	-2.659855e-09	-1.993402e+01	-1.761431e+02
9.600000e-07	-2.630364e-06	-2.643257e-09	-1.975478e+01	-1.751358e+02
9.700000e-07	-2.606389e-06	-2.632628e-09	-1.957471e+01	-1.741193e+02
9.800000e-07	-2.582283e-06	-2.621173e-09	-1.939367e+01	-1.730942e+02
9.900000e-07	-2.558085e-06	-2.602813e-09	-1.921194e+01	-1.720611e+02
1.000000e-06	-2.533712e-06	-2.583882e-09	-1.902889e+01	-1.710208e+02
1.010000e-06	-2.509092e-06	-2.568265e-09	-1.884398e+01	-1.699738e+02
1.020000e-06	-2.484259e-06	-2.557081e-09	-1.865748e+01	-1.689206e+02
1.030000e-06	-2.459161e-06	-2.541444e-09	-1.846899e+01	-1.678616e+02
1.040000e-06	-2.433696e-06	-2.519665e-09	-1.827774e+01	-1.667971e+02
1.050000e-06	-2.407906e-06	-2.497756e-09	-1.808405e+01	-1.657273e+02
1.060000e-06	-2.381748e-06	-2.482311e-09	-1.788760e+01	-1.646523e+02
1.070000e-06	-2.355234e-06	-2.468667e-09	-1.768847e+01	-1.635721e+02
1.080000e-06	-2.328440e-06	-2.452678e-09	-1.748724e+01	-1.624864e+02
1.090000e-06	-2.301423e-06	-2.435005e-09	-1.728433e+01	-1.613950e+02
1.100000e-06	-2.274240e-06	-2.419018e-09	-1.708018e+01	-1.602974e+02
1.110000e-06	-2.246881e-06	-2.403219e-09	-1.687471e+01	-1.591933e+02
1.120000e-06	-2.219348e-06	-2.385346e-09	-1.666793e+01	-1.580818e+02
1.130000e-06	-2.191702e-06	-2.364178e-09	-1.646030e+01	-1.569625e+02
1.140000e-06	-2.164023e-06	-2.341365e-09	-1.625242e+01	-1.558344e+02
1.150000e-06	-2.136244e-06	-2.320508e-09	-1.604379e+01	-1.546968e+02
1.160000e-06	-2.108348e-06	-2.304116e-09	-1.583429e+01	-1.535487e+02
1.170000e-06	-2.080416e-06	-2.288789e-09	-1.562451e+01	-1.523893e+02
1.180000e-06	-2.052443e-06	-2.272189e-09	-1.541442e+01	-1.512177e+02
1.190000e-06	-2.024323e-06	-2.254588e-09	-1.520323e+01	-1.500329e+02
1.200000e-06	-1.996077e-06	-2.235411e-09	-1.499110e+01	-1.488342e+02
1.210000e-06	-1.967753e-06	-2.216025e-09	-1.477838e+01	-1.476206e+02
1.220000e-06	-1.939221e-06	-2.197124e-09	-1.456409e+01	-1.463915e+02
1.230000e-06	-1.910561e-06	-2.176335e-09	-1.434885e+01	-1.451461e+02
1.240000e-06	-1.881819e-06	-2.153903e-09	-1.413299e+01	-1.438840e+02
1.250000e-06	-1.852903e-06	-2.133613e-09	-1.391582e+01	-1.426045e+02
1.260000e-06	-1.823807e-06	-2.115158e-09	-1.369730e+01	-1.413074e+02
1.270000e-06	-1.794468e-06	-2.098928e-09	-1.347696e+01	-1.399925e+02
1.280000e-06	-1.764979e-06	-2.080004e-09	-1.325549e+01	-1.386595e+02
1.290000e-06	-1.735435e-06	-2.058337e-09	-1.303360e+01	-1.373086e+02
1.300000e-06	-1.705777e-06	-2.036003e-09	-1.281086e+01	-1.359399e+02
1.310000e-06	-1.676028e-06	-2.017254e-09	-1.258744e+01	-1.345536e+02
1.320000e-06	-1.646236e-06	-1.999252e-09	-1.236370e+01	-1.331503e+02
1.330000e-06	-1.616364e-06	-1.976758e-09	-1.213935e+01	-1.317303e+02
1.340000e-06	-1.586394e-06	-1.951744e-09	-1.191426e+01	-1.302944e+02
1.350000e-06	-1.556334e-06	-1.931137e-09	-1.168851e+01	-1.288433e+02
1.360000e-06	-1.526181e-06	-1.913731e-09	-1.146205e+01	-1.273777e+02
1.370000e-06	-1.495930e-06	-1.892519e-09	-1.123485e+01	-1.258985e+02
1.380000e-06	-1.465592e-06	-1.865965e-09	-1.100701e+01	-1.244067e+02
1.390000e-06	-1.435169e-06	-1.842661e-09	-1.077852e+01	-1.229033e+02
1.400000e-06	-1.404616e-06	-1.822964e-09	-1.054906e+01	-1.213892e+02
1.410000e-06	-1.373971e-06	-1.800870e-09	-1.031891e+01	-1.198654e+02
1.420000e-06	-1.343264e-06	-1.776632e-09	-1.008829e+01	-1.183328e+02
1.430000e-06	-1.312451e-06	-1.751566e-09	-9.856877e+00	-1.167924e+02
1.440000e-06	-1.281460e-06	-1.728473e-09	-9.624123e+00	-1.152452e+02
1.450000e-06	-1.250424e-06	-1.707245e-09	-9.391032e+00	-1.136918e+02
1.460000e-06	-1.219352e-06	-1.684906e-09	-9.157675e+00	-1.121330e+02
1.470000e-06	-1.188149e-06	-1.660179e-09	-8.923332e+00	-1.105695e+02
1.480000e-06	-1.156866e-06	-1.636662e-09	-8.688386e+00	-1.090018e+02
1.490000e-06	-1.125511e-06	-1.613188e-09	-8.452901e+00	-1.074304e+02
1.500000e-06	-1.094046e-06	-1.589890e-09	-8.216591e+00	-1.058556e+02
1.510000e-06	-1.062453e-06	-1.568319e-09	-7.979324e+00	-1.042775e+02
1.520000e-06	-1.030823e-06	-1.546057e-09	-7.741771e+00	-1.026962e+02
1.530000e-06	-9.991788e-07	-1.522012e-09	-7.504114e+00	-1.011116e+02
1.540000e-06	-9.674954e-07	-1.499041e-09	-7.266162e+00	-9.952366e+01
1.550000e-06	-9.357312e-07	-1.476813e-09	-7.027604e+00	-9.793193e+01
1.560000e-06	-9.039229e-07	-1.451946e-09	-6.788715e+00	-9.633602e+01
1.570000e-06	-8.720986e-07	-1.427177e-09	-6.549706e+00	-9.473541e+01
1.580000e-06	-8.402457e-07	-1.402186e-09	-6.310482e+00	-9.312946e+01
1.590000e-06	-8.083730e-07	-1.377684e-09	-6.071109e+00	-9.151745e+01
1.600000e-06	-7.764691e-07	-1.354378e-09	-5.831501e+00	-8.989862e+01
1.610000e-06	-7.445552e-07	-1.329737e-09	-5.591819e+00	-8.827209e+01
1.620000e-06	-7.126108e-07	-1.304892e-09	-5.351908e+00	-8.663699e+01
1.630000e-06	-6.806508e-07	-1.278769e-09	-5.111878e+00	-8.499239e+01
1.640000e-06	-6.487293e-07	-1.252500e-09	-4.872139e+00	-8.333737e+01
1.650000e-06	-6.167344e-07	-1.228020e-09	-4.631849e+00	-8.167099e+01
1.660000e-06	-5.846818e-07	-1.204199e-09	-4.391125e+00	-7.999234e+01
1.670000e-06	-5.526262e-07	-1.177711e-09	-4.150378e+00	-7.830056e+01
1.680000e-06	-5.205363e-07	-1.150028e-09	-3.909374e+00	-7.659480e+01
1.690000e-06	-4.884246e-07	-1.126139e-09	-3.668206e+00	-7.487432e+01
1.700000e-06	-4.562886e-07	-1.102928e-09	-3.426855e+00	-7.313842e+01
1.710000e-06	-4.241422e-07	-1.075687e-09	-3.185427e+00	-7.138650e+01
1.720000e-06	-3.919761e-07	-1.047481e-09	-2.943851e+00	-6.961805e+01
1.730000e-06	-3.597923e-07	-1.021146e-09	-2.702141e+00	-6.783269e+01
1.740000e-06	-3.275867e-07	-9.956916e-10	-2.460268e+00	-6.603010e+01
1.750000e-06	-2.953873e-07	-9.672101e-10	-2.218442e+00	-6.421013e+01
1.760000e-06	-2.631769e-07	-9.351360e-10	-1.976532e+00	-6.237271e+01
1.770000e-06	-2.309346e-07	-9.037506e-10	-1.734384e+00	-6.051788e+01
1.780000e-06	-1.986595e-07	-8.779503e-10	-1.491989e+00	-5.864583e+01
1.790000e-06	-1.663388e-07	-8.546096e-10	-1.249251e+00	-5.675684e+01
1.800000e-06	-1.340282e-07	-8.268667e-10	-1.006589e+00	-5.485127e+01
1.810000e-06	-1.017755e-07	-7.957996e-10	-7.643623e-01	-5.292962e+01
1.820000e-06	-6.945357e-08	-7.655562e-10	-5.216158e-01	-5.099244e+01
1.830000e-06	-3.716760e-08	-7.336370e-10	-2.791392e-01	-4.904039e+01
1.840000e-06	-4.926501e-09	-7.005291e-10	-3.699941e-02	-4.707416e+01
1.850000e-06	2.741040e-08	-6.672614e-10	2.058598e-01	-4.509451e+01
1.860000e-06	5.979340e-08	-6.344013e-10	4.490652e-01	-4.310225e+01
1.870000e-06	9.214726e-08	-6.037146e-10	6.920518e-01	-4.109819e+01
1.880000e-06	1.243764e-07	-5.750562e-10	9.341017e-01	-3.908316e+01
1.890000e-06	1.566721e-07	-5.461510e-10	1.176651e+00	-3.705798e+01
1.900000e-06	1.890108e-07	-5.150994e-10	1.419524e+00	-3.502347e+01
1.910000e-06	2.213255e-07	-4.865719e-10	1.662217e+00	-3.298039e+01
1.920000e-06	2.536206e-07	-4.596376e-10	1.904762e+00	-3.092948e+01
1.930000e-06	2.858508e-07	-4.307037e-10	2.146820e+00	-2.887142e+01
1.940000e-06	3.180684e-07	-3.991055e-10	2.388783e+00	-2.680680e+01
1.950000e-06	3.502792e-07	-3.670441e-10	2.630695e+00	-2.473618e+01
1.960000e-06	3.824585e-07	-3.371473e-10	2.872371e+00	-2.266000e+01
1.970000e-06	4.145406e-07	-3.079498e-10	3.113316e+00	-2.057863e+01
1.980000e-06	4.466103e-07	-2.765564e-10	3.354169e+00	-1.849235e+01
1.990000e-06	4.787249e-07	-2.431175e-10	3.595358e+00	-1.640136e+01
2.000000e-06	5.108894e-07	-2.104186e-10	3.836923e+00	-1.430575e+01
2.010000e-06	5.430297e-07	-1.804168e-10	4.078305e+00	-1.220553e+01
2.020000e-06	5.750971e-07	-1.518672e-10	4.319141e+00	-1.010062e+01
2.030000e-06	6.071630e-07	-1.229883e-10	4.559965e+00	-7.990885e+00
2.040000e-06	6.391885e-07	-9.211613e-11	4.800485e+00	-5.876092e+00
2.050000e-06	6.711955e-07	-6.022012e-11	5.040867e+00	-3.755959e+00
2.060000e-06	7.031535e-07	-2.882671e-11	5.280880e+00	-1.630151e+00
2.070000e-06	7.350598e-07	1.976666e-12	5.520506e+00	5.017081e-01
2.080000e-06	7.669447e-07	3.368912e-11	5.759970e+00	2.640024e+00
2.090000e-06	7.988140e-07	6.553131e-11	5.999317e+00	4.785218e+00
2.100000e-06	8.306668e-07	9.609256e-11	6.238541e+00	6.937718e+00
2.110000e-06	8.624755e-07	1.251848e-10	6.477434e+00	9.097940e+00
2.120000e-06	8.942701e-07	1.561837e-10	6.716220e+00	1.126628e+01
2.130000e-06	9.260284e-07	1.908228e-10	6.954733e+00	1.344311e+01
2.140000e-06	9.577804e-07	2.256734e-10	7.193200e+00	1.562874e+01
2.150000e-06	9.895012e-07	2.582657e-10	7.431432e+00	1.782345e+01
2.160000e-06	1.021143e-06	2.912409e-10	7.669069e+00	2.002743e+01
2.170000e-06	1.052812e-06	3.249233e-10	7.906915e+00	2.224083e+01
2.180000e-06	1.084491e-06	3.577393e-10	8.144829e+00	2.446369e+01
2.190000e-06	1.116027e-06	3.910146e-10	8.381677e+00	2.669600e+01
2.200000e-06	1.147431e-06	4.238115e-10	8.617531e+00	2.893763e+01
2.210000e-06	1.178768e-06	4.546988e-10	8.852878e+00	3.118840e+01
2.220000e-06	1.210011e-06	4.853710e-10	9.087519e+00	3.344801e+01
2.230000e-06	1.241168e-06	5.182879e-10	9.321519e+00	3.571610e+01
2.240000e-06	1.272306e-06	5.523729e-10	9.555375e+00	3.799221e+01
2.250000e-06	1.303303e-06	5.843340e-10	9.788170e+00	4.027579e+01
2.260000e-06	1.334112e-06	6.148333e-10	1.001956e+01	4.256625e+01
2.270000e-06	1.364859e-06	6.481031e-10	1.025048e+01	4.486290e+01
2.280000e-06	1.395442e-06	6.827329e-10	1.048017e+01	4.716500e+01
2.290000e-06	1.425844e-06	7.164463e-10	1.070849e+01	4.947176e+01
2.300000e-06	1.456153e-06	7.483400e-10	1.093612e+01	5.178235e+01
2.310000e-06	1.486327e-06	7.812268e-10	1.116273e+01	5.409589e+01
2.320000e-06	1.516446e-06	8.161880e-10	1.138893e+01	5.641149e+01
2.330000e-06	1.546570e-06	8.526667e-10	1.161518e+01	5.872822e+01
2.340000e-06	1.576577e-06	8.887467e-10	1.184053e+01	6.104516e+01
2.350000e-06	1.606478e-06	9.232516e-10	1.206510e+01	6.336138e+01
2.360000e-06	1.636337e-06	9.576203e-10	1.228935e+01	6.567596e+01
2.370000e-06	1.666051e-06	9.920206e-10	1.251251e+01	6.798799e+01
2.380000e-06	1.695651e-06	1.025608e-09	1.273481e+01	7.029659e+01
2.390000e-06	1.725250e-06	1.058622e-09	1.295711e+01	7.260089e+01
2.400000e-06	1.754759e-06	1.094665e-09	1.317874e+01	7.490006e+01
2.410000e-06	1.784074e-06	1.130686e-09	1.339889e+01	7.719330e+01
2.420000e-06	1.813247e-06	1.164472e-09	1.361800e+01	7.947984e+01
2.430000e-06	1.842282e-06	1.196736e-09	1.383605e+01	8.175896e+01
2.440000e-06	1.871130e-06	1.229262e-09	1.405271e+01	8.402996e+01
2.450000e-06	1.899851e-06	1.264480e-09	1.426842e+01	8.629220e+01
2.460000e-06	1.928377e-06	1.299713e-09	1.448266e+01	8.854505e+01
2.470000e-06	1.956695e-06	1.333888e-09	1.469533e+01	9.078795e+01
2.480000e-06	1.984940e-06	1.367282e-09	1.490745e+01	9.302035e+01
2.490000e-06	2.013111e-06	1.401783e-09	1.511903e+01	9.524173e+01
2.500000e-06	2.041176e-06	1.437832e-09	1.532981e+01	9.745160e+01
2.510000e-06	2.069149e-06	1.469703e-09	1.553989e+01	9.964952e+01
2.520000e-06	2.097087e-06	1.497210e-09	1.574972e+01	1.018350e+02
2.530000e-06	2.124965e-06	1.527113e-09	1.595908e+01	1.040077e+02
2.540000e-06	2.152762e-06	1.562362e-09	1.616785e+01	1.061672e+02
2.550000e-06	2.180518e-06	1.597992e-09	1.637630e+01	1.083131e+02
2.560000e-06	2.208250e-06	1.631208e-09	1.658458e+01	1.104450e+02
2.570000e-06	2.235944e-06	1.662776e-09	1.679257e+01	1.125626e+02
2.580000e-06	2.263484e-06	1.693583e-09	1.699940e+01	1.146655e+02
2.590000e-06	2.290833e-06	1.725546e-09	1.720480e+01	1.167533e+02
2.600000e-06	2.317954e-06	1.756427e-09	1.740849e+01	1.188257e+02
2.610000e-06	2.344771e-06	1.786125e-09	1.760989e+01	1.208824e+02
2.620000e-06	2.371270e-06	1.816907e-09	1.780890e+01	1.229230e+02
2.630000e-06	2.397409e-06	1.847740e-09	1.800522e+01	1.249471e+02
2.640000e-06	2.423196e-06	1.877691e-09	1.819889e+01	1.269545e+02
2.650000e-06	2.448722e-06	1.907545e-09	1.839059e+01	1.289448e+02
2.660000e-06	2.473955e-06	1.936346e-09	1.858010e+01	1.309176e+02
2.670000e-06	2.498861e-06	1.963442e-09	1.876715e+01	1.328726e+02
2.680000e-06	2.523581e-06	1.989543e-09	1.895280e+01	1.348095e+02
2.690000e-06	2.548076e-06	2.016038e-09	1.913677e+01	1.367280e+02
2.700000e-06	2.572288e-06	2.042870e-09	1.931861e+01	1.386276e+02
2.710000e-06	2.596350e-06	2.068863e-09	1.949932e+01	1.405082e+02
2.720000e-06	2.620284e-06	2.095052e-09	1.967907e+01	1.423693e+02
2.730000e-06	2.644165e-06	2.122871e-09	1.985843e+01	1.442107e+02
2.740000e-06	2.667956e-06	2.151792e-09	2.003710e+01	1.460321e+02
2.750000e-06	2.691622e-06	2.179901e-09	2.021483e+01	1.478330e+02
2.760000e-06	2.715122e-06	2.206636e-09	2.039133e+01	1.496132e+02
2.770000e-06	2.738365e-06	2.233527e-09	2.056589e+01	1.513724e+02
2.780000e-06	2.761367e-06	2.260370e-09	2.073865e+01	1.531103e+02
2.790000e-06	2.784123e-06	2.286582e-09	2.090955e+01	1.548266e+02
2.800000e-06	2.806716e-06	2.312955e-09	2.107923e+01	1.565210e+02
2.810000e-06	2.829177e-06	2.338416e-09	2.124792e+01	1.581931e+02
2.820000e-06	2.851387e-06	2.362579e-09	2.141472e+01	1.598426e+02
2.830000e-06	2.873351e-06	2.387809e-09	2.157968e+01	1.614694e+02
2.840000e-06	2.895161e-06	2.413708e-09	2.174348e+01	1.630730e+02
2.850000e-06	2.916902e-06	2.437955e-09	2.190676e+01	1.646532e+02
2.860000e-06	2.938565e-06	2.460835e-09	2.206945e+01	1.662097e+02
2.870000e-06	2.959966e-06	2.484802e-09	2.223017e+01	1.677423e+02
2.880000e-06	2.981118e-06	2.508917e-09	2.238903e+01	1.692507e+02
2.890000e-06	3.002059e-06	2.530501e-09	2.254631e+01	1.707346e+02
2.900000e-06	3.022709e-06	2.550966e-09	2.270139e+01	1.721939e+02
