# Temperatura_=_20.0
# Concentracion g/m^3_=_12600.0
# C_Vs_to_Am_M_A/Vsm_=_65563218390.804596
# pendiente_HvsI_1/m_=_3716.3
# ordenada_HvsI_A/m_=_1297.0
# frecuencia_Hz_=_135035.84489042632

Tiempo_(s)	Campo_(V.s)	Magnetizacion_(V.s)	Campo_(kA/m)	Magnetizacion_(A/m)
0.000000e+00	-3.886590e-06	-3.438105e-09	-2.913258e+01	-2.240200e+02
1.000000e-08	-3.886729e-06	-3.435716e-09	-2.913362e+01	-2.240378e+02
2.000000e-08	-3.886716e-06	-3.434776e-09	-2.913353e+01	-2.240412e+02
3.000000e-08	-3.886468e-06	-3.437158e-09	-2.913166e+01	-2.240305e+02
4.000000e-08	-3.885955e-06	-3.444396e-09	-2.912782e+01	-2.240063e+02
5.000000e-08	-3.885097e-06	-3.466666e-09	-2.912139e+01	-2.239690e+02
6.000000e-08	-3.883727e-06	-3.490759e-09	-2.911112e+01	-2.239194e+02
7.000000e-08	-3.881894e-06	-3.471884e-09	-2.909738e+01	-2.238581e+02
8.000000e-08	-3.879599e-06	-3.431030e-09	-2.908018e+01	-2.237856e+02
9.000000e-08	-3.876817e-06	-3.391370e-09	-2.905933e+01	-2.237026e+02
1.000000e-07	-3.873627e-06	-3.338218e-09	-2.903541e+01	-2.236097e+02
1.100000e-07	-3.870163e-06	-3.345016e-09	-2.900945e+01	-2.235076e+02
1.200000e-07	-3.866551e-06	-3.465137e-09	-2.898238e+01	-2.233967e+02
1.300000e-07	-3.862863e-06	-3.428778e-09	-2.895473e+01	-2.232776e+02
1.400000e-07	-3.858995e-06	-3.395508e-09	-2.892574e+01	-2.231506e+02
1.500000e-07	-3.854927e-06	-3.376368e-09	-2.889525e+01	-2.230163e+02
1.600000e-07	-3.850706e-06	-3.374508e-09	-2.886360e+01	-2.228747e+02
1.700000e-07	-3.846174e-06	-3.388543e-09	-2.882964e+01	-2.227261e+02
1.800000e-07	-3.841343e-06	-3.398880e-09	-2.879343e+01	-2.225706e+02
1.900000e-07	-3.836245e-06	-3.405097e-09	-2.875522e+01	-2.224082e+02
2.000000e-07	-3.830890e-06	-3.357184e-09	-2.871507e+01	-2.222388e+02
2.100000e-07	-3.825245e-06	-3.377007e-09	-2.867276e+01	-2.220621e+02
2.200000e-07	-3.819332e-06	-3.381081e-09	-2.862844e+01	-2.218779e+02
2.300000e-07	-3.813263e-06	-3.400470e-09	-2.858295e+01	-2.216859e+02
2.400000e-07	-3.806956e-06	-3.315645e-09	-2.853567e+01	-2.214857e+02
2.500000e-07	-3.800287e-06	-3.326535e-09	-2.848568e+01	-2.212766e+02
2.600000e-07	-3.793221e-06	-3.376433e-09	-2.843272e+01	-2.210584e+02
2.700000e-07	-3.785878e-06	-3.411299e-09	-2.837767e+01	-2.208304e+02
2.800000e-07	-3.778363e-06	-3.334298e-09	-2.832135e+01	-2.205920e+02
2.900000e-07	-3.770717e-06	-3.312803e-09	-2.826404e+01	-2.203428e+02
3.000000e-07	-3.762895e-06	-3.339953e-09	-2.820541e+01	-2.200821e+02
3.100000e-07	-3.754896e-06	-3.373991e-09	-2.814545e+01	-2.198096e+02
3.200000e-07	-3.746729e-06	-3.351591e-09	-2.808423e+01	-2.195246e+02
3.300000e-07	-3.738281e-06	-3.319663e-09	-2.802091e+01	-2.192269e+02
3.400000e-07	-3.729392e-06	-3.309579e-09	-2.795428e+01	-2.189160e+02
3.500000e-07	-3.720029e-06	-3.300667e-09	-2.788409e+01	-2.185917e+02
3.600000e-07	-3.710207e-06	-3.316617e-09	-2.781047e+01	-2.182537e+02
3.700000e-07	-3.700127e-06	-3.317957e-09	-2.773492e+01	-2.179020e+02
3.800000e-07	-3.689792e-06	-3.306882e-09	-2.765745e+01	-2.175365e+02
3.900000e-07	-3.679010e-06	-3.257925e-09	-2.757663e+01	-2.171572e+02
4.000000e-07	-3.667847e-06	-3.287952e-09	-2.749295e+01	-2.167643e+02
4.100000e-07	-3.656408e-06	-3.321492e-09	-2.740721e+01	-2.163578e+02
4.200000e-07	-3.644693e-06	-3.304655e-09	-2.731940e+01	-2.159381e+02
4.300000e-07	-3.632691e-06	-3.222059e-09	-2.722944e+01	-2.155055e+02
4.400000e-07	-3.620437e-06	-3.235487e-09	-2.713759e+01	-2.150602e+02
4.500000e-07	-3.607920e-06	-3.279099e-09	-2.704377e+01	-2.146026e+02
4.600000e-07	-3.595092e-06	-3.284174e-09	-2.694761e+01	-2.141331e+02
4.700000e-07	-3.581997e-06	-3.218780e-09	-2.684946e+01	-2.136522e+02
4.800000e-07	-3.568699e-06	-3.208434e-09	-2.674978e+01	-2.131601e+02
4.900000e-07	-3.555110e-06	-3.227744e-09	-2.664791e+01	-2.126572e+02
5.000000e-07	-3.541158e-06	-3.248024e-09	-2.654334e+01	-2.121440e+02
5.100000e-07	-3.526930e-06	-3.224393e-09	-2.643669e+01	-2.116206e+02
5.200000e-07	-3.512543e-06	-3.191839e-09	-2.632885e+01	-2.110873e+02
5.300000e-07	-3.497839e-06	-3.164436e-09	-2.621863e+01	-2.105443e+02
5.400000e-07	-3.482740e-06	-3.177501e-09	-2.610546e+01	-2.099917e+02
5.500000e-07	-3.467246e-06	-3.195036e-09	-2.598932e+01	-2.094296e+02
5.600000e-07	-3.451298e-06	-3.171263e-09	-2.586978e+01	-2.088581e+02
5.700000e-07	-3.435033e-06	-3.130996e-09	-2.574786e+01	-2.082769e+02
5.800000e-07	-3.418524e-06	-3.133613e-09	-2.562411e+01	-2.076861e+02
5.900000e-07	-3.401795e-06	-3.157799e-09	-2.549872e+01	-2.070854e+02
6.000000e-07	-3.384842e-06	-3.142286e-09	-2.537165e+01	-2.064746e+02
6.100000e-07	-3.367658e-06	-3.106966e-09	-2.524284e+01	-2.058535e+02
6.200000e-07	-3.350328e-06	-3.088419e-09	-2.511294e+01	-2.052217e+02
6.300000e-07	-3.332834e-06	-3.096770e-09	-2.498181e+01	-2.045789e+02
6.400000e-07	-3.315113e-06	-3.093660e-09	-2.484898e+01	-2.039248e+02
6.500000e-07	-3.297135e-06	-3.077345e-09	-2.471422e+01	-2.032590e+02
6.600000e-07	-3.278863e-06	-3.050415e-09	-2.457726e+01	-2.025813e+02
6.700000e-07	-3.260306e-06	-3.041634e-09	-2.443816e+01	-2.018912e+02
6.800000e-07	-3.241498e-06	-3.037236e-09	-2.429718e+01	-2.011887e+02
6.900000e-07	-3.222464e-06	-3.034522e-09	-2.415451e+01	-2.004733e+02
7.000000e-07	-3.203184e-06	-3.015892e-09	-2.401000e+01	-1.997451e+02
7.100000e-07	-3.183647e-06	-2.996918e-09	-2.386355e+01	-1.990038e+02
7.200000e-07	-3.163931e-06	-2.975627e-09	-2.371577e+01	-1.982494e+02
7.300000e-07	-3.144116e-06	-2.970000e-09	-2.356725e+01	-1.974819e+02
7.400000e-07	-3.124218e-06	-2.966668e-09	-2.341809e+01	-1.967014e+02
7.500000e-07	-3.104215e-06	-2.954204e-09	-2.326816e+01	-1.959080e+02
7.600000e-07	-3.084078e-06	-2.924670e-09	-2.311722e+01	-1.951019e+02
7.700000e-07	-3.063718e-06	-2.912130e-09	-2.296461e+01	-1.942835e+02
7.800000e-07	-3.043170e-06	-2.914609e-09	-2.281058e+01	-1.934530e+02
7.900000e-07	-3.022465e-06	-2.909522e-09	-2.265539e+01	-1.926108e+02
8.000000e-07	-3.001485e-06	-2.882891e-09	-2.249813e+01	-1.917572e+02
8.100000e-07	-2.980209e-06	-2.858323e-09	-2.233865e+01	-1.908928e+02
8.200000e-07	-2.958731e-06	-2.850885e-09	-2.217766e+01	-1.900180e+02
8.300000e-07	-2.937041e-06	-2.852330e-09	-2.201508e+01	-1.891332e+02
8.400000e-07	-2.915243e-06	-2.836505e-09	-2.185169e+01	-1.882388e+02
8.500000e-07	-2.893424e-06	-2.804489e-09	-2.168814e+01	-1.873355e+02
8.600000e-07	-2.871369e-06	-2.784313e-09	-2.152282e+01	-1.864234e+02
8.700000e-07	-2.849068e-06	-2.786650e-09	-2.135566e+01	-1.855032e+02
8.800000e-07	-2.826559e-06	-2.786687e-09	-2.118694e+01	-1.845750e+02
8.900000e-07	-2.803805e-06	-2.760898e-09	-2.101639e+01	-1.836392e+02
9.000000e-07	-2.780856e-06	-2.727684e-09	-2.084437e+01	-1.826961e+02
9.100000e-07	-2.757671e-06	-2.713503e-09	-2.067058e+01	-1.817459e+02
9.200000e-07	-2.734272e-06	-2.715287e-09	-2.049519e+01	-1.807887e+02
9.300000e-07	-2.710801e-06	-2.704490e-09	-2.031926e+01	-1.798245e+02
9.400000e-07	-2.687179e-06	-2.679837e-09	-2.014220e+01	-1.788535e+02
9.500000e-07	-2.663335e-06	-2.659181e-09	-1.996347e+01	-1.778756e+02
9.600000e-07	-2.639384e-06	-2.655964e-09	-1.978394e+01	-1.768907e+02
9.700000e-07	-2.615360e-06	-2.652598e-09	-1.960387e+01	-1.758987e+02
9.800000e-07	-2.591250e-06	-2.636108e-09	-1.942315e+01	-1.748993e+02
9.900000e-07	-2.566970e-06	-2.611412e-09	-1.924115e+01	-1.738925e+02
1.000000e-06	-2.542482e-06	-2.595548e-09	-1.905759e+01	-1.728778e+02
1.010000e-06	-2.517737e-06	-2.583149e-09	-1.887211e+01	-1.718551e+02
1.020000e-06	-2.492781e-06	-2.567652e-09	-1.868505e+01	-1.708240e+02
1.030000e-06	-2.467538e-06	-2.545900e-09	-1.849584e+01	-1.697843e+02
1.040000e-06	-2.441960e-06	-2.526970e-09	-1.830411e+01	-1.687356e+02
1.050000e-06	-2.416124e-06	-2.511444e-09	-1.811046e+01	-1.676776e+02
1.060000e-06	-2.389969e-06	-2.497971e-09	-1.791441e+01	-1.666100e+02
1.070000e-06	-2.363534e-06	-2.485121e-09	-1.771626e+01	-1.655325e+02
1.080000e-06	-2.336858e-06	-2.473018e-09	-1.751631e+01	-1.644448e+02
1.090000e-06	-2.309910e-06	-2.455708e-09	-1.731431e+01	-1.633467e+02
1.100000e-06	-2.282709e-06	-2.434157e-09	-1.711043e+01	-1.622378e+02
1.110000e-06	-2.255276e-06	-2.413905e-09	-1.690479e+01	-1.611180e+02
1.120000e-06	-2.227669e-06	-2.398837e-09	-1.669786e+01	-1.599871e+02
1.130000e-06	-2.199957e-06	-2.383012e-09	-1.649015e+01	-1.588448e+02
1.140000e-06	-2.172161e-06	-2.359516e-09	-1.628180e+01	-1.576910e+02
1.150000e-06	-2.144292e-06	-2.335415e-09	-1.607289e+01	-1.565256e+02
1.160000e-06	-2.116353e-06	-2.321075e-09	-1.586348e+01	-1.553483e+02
1.170000e-06	-2.088337e-06	-2.311065e-09	-1.565347e+01	-1.541590e+02
1.180000e-06	-2.060252e-06	-2.293779e-09	-1.544296e+01	-1.529577e+02
1.190000e-06	-2.032107e-06	-2.268122e-09	-1.523200e+01	-1.517441e+02
1.200000e-06	-2.003846e-06	-2.245973e-09	-1.502016e+01	-1.505183e+02
1.210000e-06	-1.975475e-06	-2.231469e-09	-1.480750e+01	-1.492800e+02
1.220000e-06	-1.946966e-06	-2.213678e-09	-1.459381e+01	-1.480293e+02
1.230000e-06	-1.918268e-06	-2.188667e-09	-1.437870e+01	-1.467659e+02
1.240000e-06	-1.889356e-06	-2.161195e-09	-1.416198e+01	-1.454899e+02
1.250000e-06	-1.860304e-06	-2.142721e-09	-1.394421e+01	-1.442011e+02
1.260000e-06	-1.831176e-06	-2.130026e-09	-1.372588e+01	-1.428995e+02
1.270000e-06	-1.801897e-06	-2.115311e-09	-1.350642e+01	-1.415850e+02
1.280000e-06	-1.772462e-06	-2.091087e-09	-1.328579e+01	-1.402576e+02
1.290000e-06	-1.742927e-06	-2.065177e-09	-1.306440e+01	-1.389173e+02
1.300000e-06	-1.713270e-06	-2.046756e-09	-1.284210e+01	-1.375640e+02
1.310000e-06	-1.683495e-06	-2.033482e-09	-1.261892e+01	-1.361977e+02
1.320000e-06	-1.653671e-06	-2.011409e-09	-1.239536e+01	-1.348186e+02
1.330000e-06	-1.623761e-06	-1.982252e-09	-1.217117e+01	-1.334268e+02
1.340000e-06	-1.593777e-06	-1.956641e-09	-1.194642e+01	-1.320223e+02
1.350000e-06	-1.563728e-06	-1.937436e-09	-1.172118e+01	-1.306053e+02
1.360000e-06	-1.533538e-06	-1.920281e-09	-1.149489e+01	-1.291760e+02
1.370000e-06	-1.503251e-06	-1.899283e-09	-1.126787e+01	-1.277347e+02
1.380000e-06	-1.472878e-06	-1.875276e-09	-1.104020e+01	-1.262817e+02
1.390000e-06	-1.442437e-06	-1.853835e-09	-1.081202e+01	-1.248173e+02
1.400000e-06	-1.411917e-06	-1.835390e-09	-1.058325e+01	-1.233417e+02
1.410000e-06	-1.381253e-06	-1.813612e-09	-1.035341e+01	-1.218556e+02
1.420000e-06	-1.350414e-06	-1.786709e-09	-1.012225e+01	-1.203591e+02
1.430000e-06	-1.319466e-06	-1.757785e-09	-9.890277e+00	-1.188529e+02
1.440000e-06	-1.288456e-06	-1.732200e-09	-9.657837e+00	-1.173372e+02
1.450000e-06	-1.257382e-06	-1.710597e-09	-9.424914e+00	-1.158127e+02
1.460000e-06	-1.226194e-06	-1.692428e-09	-9.191139e+00	-1.142796e+02
1.470000e-06	-1.194845e-06	-1.671578e-09	-8.956156e+00	-1.127384e+02
1.480000e-06	-1.163486e-06	-1.645644e-09	-8.721103e+00	-1.111895e+02
1.490000e-06	-1.132064e-06	-1.620793e-09	-8.485573e+00	-1.096333e+02
1.500000e-06	-1.100541e-06	-1.600857e-09	-8.249287e+00	-1.080701e+02
1.510000e-06	-1.069031e-06	-1.579913e-09	-8.013100e+00	-1.065000e+02
1.520000e-06	-1.037444e-06	-1.553597e-09	-7.776336e+00	-1.049233e+02
1.530000e-06	-1.005715e-06	-1.528119e-09	-7.538502e+00	-1.033401e+02
1.540000e-06	-9.739421e-07	-1.507545e-09	-7.300345e+00	-1.017504e+02
1.550000e-06	-9.421513e-07	-1.488393e-09	-7.062052e+00	-1.001541e+02
1.560000e-06	-9.102933e-07	-1.464815e-09	-6.823255e+00	-9.855117e+01
1.570000e-06	-8.784185e-07	-1.437874e-09	-6.584332e+00	-9.694133e+01
1.580000e-06	-8.465390e-07	-1.413240e-09	-6.345373e+00	-9.532430e+01
1.590000e-06	-8.146231e-07	-1.391326e-09	-6.106143e+00	-9.369968e+01
1.600000e-06	-7.826995e-07	-1.368169e-09	-5.866854e+00	-9.206704e+01
1.610000e-06	-7.507371e-07	-1.340997e-09	-5.627274e+00	-9.042585e+01
1.620000e-06	-7.187088e-07	-1.313489e-09	-5.387201e+00	-8.877556e+01
1.630000e-06	-6.866844e-07	-1.287684e-09	-5.147157e+00	-8.711555e+01
1.640000e-06	-6.546610e-07	-1.262496e-09	-4.907120e+00	-8.544519e+01
1.650000e-06	-6.225894e-07	-1.238811e-09	-4.666722e+00	-8.376382e+01
1.660000e-06	-5.905027e-07	-1.215173e-09	-4.426211e+00	-8.207079e+01
1.670000e-06	-5.584276e-07	-1.188299e-09	-4.185786e+00	-8.036545e+01
1.680000e-06	-5.262835e-07	-1.162788e-09	-3.944845e+00	-7.864719e+01
1.690000e-06	-4.940308e-07	-1.138746e-09	-3.703090e+00	-7.691543e+01
1.700000e-06	-4.617363e-07	-1.111870e-09	-3.461021e+00	-7.516965e+01
1.710000e-06	-4.294935e-07	-1.081766e-09	-3.219340e+00	-7.340940e+01
1.720000e-06	-3.973174e-07	-1.052955e-09	-2.978158e+00	-7.163431e+01
1.730000e-06	-3.650335e-07	-1.027102e-09	-2.736169e+00	-6.984408e+01
1.740000e-06	-3.327149e-07	-1.001804e-09	-2.493919e+00	-6.803853e+01
1.750000e-06	-3.004545e-07	-9.737009e-10	-2.252107e+00	-6.621755e+01
1.760000e-06	-2.681518e-07	-9.424204e-10	-2.009976e+00	-6.438115e+01
1.770000e-06	-2.357608e-07	-9.118844e-10	-1.767184e+00	-6.252943e+01
1.780000e-06	-2.033120e-07	-8.858077e-10	-1.523959e+00	-6.066261e+01
1.790000e-06	-1.709075e-07	-8.617626e-10	-1.281066e+00	-5.878096e+01
1.800000e-06	-1.385088e-07	-8.325096e-10	-1.038215e+00	-5.688488e+01
1.810000e-06	-1.061156e-07	-7.999813e-10	-7.954072e-01	-5.497484e+01
1.820000e-06	-7.370881e-08	-7.703103e-10	-5.524966e-01	-5.305135e+01
1.830000e-06	-4.133421e-08	-7.418487e-10	-3.098275e-01	-5.111500e+01
1.840000e-06	-8.942854e-09	-7.097814e-10	-6.703265e-02	-4.916640e+01
1.850000e-06	2.351565e-08	-6.751124e-10	1.762655e-01	-4.720622e+01
1.860000e-06	5.596387e-08	-6.436338e-10	4.194865e-01	-4.523511e+01
1.870000e-06	8.837599e-08	-6.173993e-10	6.624369e-01	-4.325372e+01
1.880000e-06	1.206958e-07	-5.921109e-10	9.046957e-01	-4.126269e+01
1.890000e-06	1.530342e-07	-5.623814e-10	1.147094e+00	-3.926262e+01
1.900000e-06	1.853442e-07	-5.296849e-10	1.389278e+00	-3.725407e+01
1.910000e-06	2.176317e-07	-5.009051e-10	1.631294e+00	-3.523754e+01
1.920000e-06	2.499580e-07	-4.741702e-10	1.873602e+00	-3.321347e+01
1.930000e-06	2.822531e-07	-4.425672e-10	2.115675e+00	-3.118221e+01
1.940000e-06	3.145249e-07	-4.077025e-10	2.357573e+00	-2.914404e+01
1.950000e-06	3.467493e-07	-3.749099e-10	2.599117e+00	-2.709915e+01
1.960000e-06	3.789545e-07	-3.466290e-10	2.840516e+00	-2.504766e+01
1.970000e-06	4.112069e-07	-3.199470e-10	3.082270e+00	-2.298960e+01
1.980000e-06	4.434195e-07	-2.890411e-10	3.323725e+00	-2.092490e+01
1.990000e-06	4.756021e-07	-2.550183e-10	3.564955e+00	-1.885345e+01
2.000000e-06	5.077696e-07	-2.207462e-10	3.806071e+00	-1.677505e+01
2.010000e-06	5.398745e-07	-1.872684e-10	4.046719e+00	-1.468946e+01
2.020000e-06	5.719972e-07	-1.554123e-10	4.287500e+00	-1.259639e+01
2.030000e-06	6.041321e-07	-1.247755e-10	4.528372e+00	-1.049551e+01
2.040000e-06	6.361805e-07	-9.190564e-11	4.768596e+00	-8.386470e+00
2.050000e-06	6.681824e-07	-5.857003e-11	5.008472e+00	-6.268936e+00
2.060000e-06	7.002230e-07	-2.958549e-11	5.248638e+00	-4.142561e+00
2.070000e-06	7.322423e-07	-3.578108e-12	5.488643e+00	-2.007026e+00
2.080000e-06	7.642147e-07	2.626697e-11	5.728298e+00	1.379533e-01
2.090000e-06	7.961385e-07	6.039256e-11	5.967588e+00	2.292617e+00
2.100000e-06	8.280438e-07	9.355056e-11	6.206740e+00	4.457148e+00
2.110000e-06	8.598928e-07	1.240191e-10	6.445469e+00	6.631667e+00
2.120000e-06	8.916969e-07	1.555934e-10	6.683863e+00	8.816218e+00
2.130000e-06	9.234973e-07	1.905275e-10	6.922228e+00	1.101077e+01
2.140000e-06	9.553001e-07	2.270098e-10	7.160611e+00	1.321522e+01
2.150000e-06	9.870986e-07	2.620946e-10	7.398962e+00	1.542936e+01
2.160000e-06	1.018852e-06	2.932181e-10	7.636971e+00	1.765294e+01
2.170000e-06	1.050516e-06	3.247777e-10	7.874317e+00	1.988558e+01
2.180000e-06	1.082143e-06	3.579589e-10	8.111384e+00	2.212688e+01
2.190000e-06	1.113681e-06	3.912512e-10	8.347784e+00	2.437633e+01
2.200000e-06	1.145110e-06	4.238562e-10	8.583363e+00	2.663339e+01
2.210000e-06	1.176539e-06	4.548553e-10	8.818945e+00	2.889744e+01
2.220000e-06	1.207821e-06	4.862144e-10	9.053422e+00	3.116784e+01
2.230000e-06	1.238953e-06	5.195952e-10	9.286782e+00	3.344392e+01
2.240000e-06	1.270085e-06	5.542960e-10	9.520133e+00	3.572496e+01
2.250000e-06	1.301082e-06	5.878350e-10	9.752476e+00	3.801025e+01
2.260000e-06	1.331935e-06	6.199876e-10	9.983742e+00	4.029906e+01
2.270000e-06	1.362691e-06	6.529486e-10	1.021427e+01	4.259070e+01
2.280000e-06	1.393248e-06	6.859942e-10	1.044332e+01	4.488444e+01
2.290000e-06	1.423721e-06	7.181541e-10	1.067173e+01	4.717962e+01
2.300000e-06	1.454084e-06	7.499950e-10	1.089933e+01	4.947557e+01
2.310000e-06	1.484347e-06	7.840075e-10	1.112617e+01	5.177166e+01
2.320000e-06	1.514630e-06	8.201490e-10	1.135316e+01	5.406730e+01
2.330000e-06	1.544778e-06	8.546284e-10	1.157914e+01	5.636192e+01
2.340000e-06	1.574838e-06	8.892344e-10	1.180446e+01	5.865499e+01
2.350000e-06	1.604841e-06	9.261041e-10	1.202935e+01	6.094601e+01
2.360000e-06	1.634771e-06	9.626552e-10	1.225370e+01	6.323450e+01
2.370000e-06	1.664669e-06	9.957716e-10	1.247780e+01	6.552001e+01
2.380000e-06	1.694468e-06	1.026237e-09	1.270116e+01	6.780212e+01
2.390000e-06	1.724130e-06	1.058280e-09	1.292350e+01	7.008039e+01
2.400000e-06	1.753622e-06	1.093911e-09	1.314456e+01	7.235443e+01
2.410000e-06	1.782925e-06	1.128917e-09	1.336421e+01	7.462381e+01
2.420000e-06	1.812179e-06	1.162598e-09	1.358349e+01	7.688813e+01
2.430000e-06	1.841363e-06	1.195783e-09	1.380224e+01	7.914695e+01
2.440000e-06	1.870334e-06	1.228969e-09	1.401940e+01	8.139985e+01
2.450000e-06	1.899141e-06	1.264203e-09	1.423533e+01	8.364635e+01
2.460000e-06	1.927848e-06	1.297829e-09	1.445050e+01	8.588598e+01
2.470000e-06	1.956441e-06	1.330001e-09	1.466483e+01	8.811823e+01
2.480000e-06	1.984794e-06	1.364273e-09	1.487735e+01	9.034258e+01
2.490000e-06	2.013025e-06	1.397752e-09	1.508896e+01	9.255846e+01
2.500000e-06	2.041228e-06	1.431375e-09	1.530036e+01	9.476531e+01
2.510000e-06	2.069271e-06	1.461401e-09	1.551056e+01	9.696253e+01
2.520000e-06	2.097206e-06	1.490207e-09	1.571995e+01	9.914950e+01
2.530000e-06	2.125135e-06	1.521217e-09	1.592930e+01	1.013256e+02
2.540000e-06	2.152983e-06	1.555135e-09	1.613804e+01	1.034902e+02
2.550000e-06	2.180776e-06	1.591607e-09	1.634637e+01	1.056427e+02
2.560000e-06	2.208533e-06	1.625386e-09	1.655443e+01	1.077825e+02
2.570000e-06	2.236224e-06	1.657082e-09	1.676199e+01	1.099089e+02
2.580000e-06	2.263825e-06	1.688244e-09	1.696888e+01	1.120214e+02
2.590000e-06	2.291166e-06	1.721431e-09	1.717381e+01	1.141195e+02
2.600000e-06	2.318208e-06	1.753781e-09	1.737651e+01	1.162025e+02
2.610000e-06	2.344979e-06	1.782490e-09	1.757718e+01	1.182701e+02
2.620000e-06	2.371401e-06	1.810630e-09	1.777523e+01	1.203218e+02
2.630000e-06	2.397581e-06	1.839804e-09	1.797147e+01	1.223572e+02
2.640000e-06	2.423611e-06	1.870341e-09	1.816658e+01	1.243760e+02
2.650000e-06	2.449273e-06	1.901222e-09	1.835894e+01	1.263779e+02
2.660000e-06	2.474512e-06	1.929408e-09	1.854812e+01	1.283625e+02
2.670000e-06	2.499542e-06	1.955971e-09	1.873573e+01	1.303298e+02
2.680000e-06	2.524358e-06	1.982687e-09	1.892174e+01	1.322795e+02
2.690000e-06	2.548911e-06	2.010488e-09	1.910578e+01	1.342116e+02
2.700000e-06	2.573263e-06	2.037421e-09	1.928832e+01	1.361258e+02
2.710000e-06	2.597516e-06	2.065645e-09	1.947011e+01	1.380222e+02
2.720000e-06	2.621619e-06	2.094112e-09	1.965078e+01	1.399006e+02
2.730000e-06	2.645542e-06	2.121120e-09	1.983010e+01	1.417610e+02
2.740000e-06	2.669373e-06	2.151141e-09	2.000873e+01	1.436033e+02
2.750000e-06	2.693045e-06	2.184246e-09	2.018617e+01	1.454274e+02
2.760000e-06	2.716543e-06	2.214083e-09	2.036230e+01	1.472333e+02
2.770000e-06	2.739880e-06	2.239788e-09	2.053722e+01	1.490207e+02
2.780000e-06	2.763048e-06	2.265817e-09	2.071088e+01	1.507895e+02
2.790000e-06	2.786025e-06	2.293128e-09	2.088311e+01	1.525396e+02
2.800000e-06	2.808836e-06	2.319634e-09	2.105410e+01	1.542706e+02
2.810000e-06	2.831437e-06	2.344407e-09	2.122351e+01	1.559822e+02
2.820000e-06	2.853813e-06	2.367202e-09	2.139123e+01	1.576743e+02
2.830000e-06	2.875980e-06	2.391428e-09	2.155739e+01	1.593462e+02
2.840000e-06	2.897948e-06	2.418312e-09	2.172205e+01	1.609977e+02
2.850000e-06	2.919790e-06	2.445033e-09	2.188577e+01	1.626283e+02
2.860000e-06	2.941471e-06	2.469846e-09	2.204828e+01	1.642375e+02
2.870000e-06	2.962903e-06	2.491931e-09	2.220893e+01	1.658247e+02
2.880000e-06	2.984043e-06	2.513997e-09	2.236739e+01	1.673895e+02
2.890000e-06	3.004899e-06	2.536552e-09	2.252372e+01	1.689312e+02
2.900000e-06	3.025587e-06	2.558341e-09	2.267879e+01	1.704495e+02
