# Temperatura_=_20.0
# Concentracion g/m^3_=_12600.0
# C_Vs_to_Am_M_A/Vsm_=_65563218390.804596
# pendiente_HvsI_1/m_=_3716.3
# ordenada_HvsI_A/m_=_1297.0
# frecuencia_Hz_=_135034.90287835

Tiempo_(s)	Campo_(V.s)	Magnetizacion_(V.s)	Campo_(kA/m)	Magnetizacion_(A/m)
0.000000e+00	-3.883056e-06	-3.343939e-09	-2.913366e+01	-2.190586e+02
1.000000e-08	-3.883103e-06	-3.346286e-09	-2.913401e+01	-2.190844e+02
2.000000e-08	-3.883047e-06	-3.348548e-09	-2.913359e+01	-2.190961e+02
3.000000e-08	-3.882768e-06	-3.354991e-09	-2.913150e+01	-2.190940e+02
4.000000e-08	-3.882170e-06	-3.366515e-09	-2.912701e+01	-2.190780e+02
5.000000e-08	-3.881283e-06	-3.367741e-09	-2.912036e+01	-2.190483e+02
6.000000e-08	-3.879983e-06	-3.323842e-09	-2.911060e+01	-2.190052e+02
7.000000e-08	-3.878138e-06	-3.296690e-09	-2.909676e+01	-2.189489e+02
8.000000e-08	-3.875689e-06	-3.313573e-09	-2.907839e+01	-2.188797e+02
9.000000e-08	-3.872655e-06	-3.374384e-09	-2.905562e+01	-2.187981e+02
1.000000e-07	-3.869297e-06	-3.442992e-09	-2.903042e+01	-2.187044e+02
1.100000e-07	-3.865772e-06	-3.420174e-09	-2.900398e+01	-2.185992e+02
1.200000e-07	-3.862066e-06	-3.301098e-09	-2.897617e+01	-2.184829e+02
1.300000e-07	-3.858209e-06	-3.199839e-09	-2.894724e+01	-2.183560e+02
1.400000e-07	-3.854212e-06	-3.273156e-09	-2.891725e+01	-2.182190e+02
1.500000e-07	-3.850077e-06	-3.345078e-09	-2.888623e+01	-2.180725e+02
1.600000e-07	-3.845744e-06	-3.329638e-09	-2.885372e+01	-2.179169e+02
1.700000e-07	-3.841179e-06	-3.281989e-09	-2.881947e+01	-2.177526e+02
1.800000e-07	-3.836412e-06	-3.272629e-09	-2.878370e+01	-2.175801e+02
1.900000e-07	-3.831356e-06	-3.278953e-09	-2.874577e+01	-2.173996e+02
2.000000e-07	-3.825947e-06	-3.305671e-09	-2.870518e+01	-2.172116e+02
2.100000e-07	-3.820276e-06	-3.341481e-09	-2.866264e+01	-2.170161e+02
2.200000e-07	-3.814389e-06	-3.300879e-09	-2.861847e+01	-2.168134e+02
2.300000e-07	-3.808217e-06	-3.242412e-09	-2.857216e+01	-2.166035e+02
2.400000e-07	-3.801760e-06	-3.247158e-09	-2.852371e+01	-2.163863e+02
2.500000e-07	-3.795109e-06	-3.340129e-09	-2.847382e+01	-2.161617e+02
2.600000e-07	-3.788219e-06	-3.331089e-09	-2.842212e+01	-2.159297e+02
2.700000e-07	-3.780876e-06	-3.234144e-09	-2.836703e+01	-2.156899e+02
2.800000e-07	-3.773154e-06	-3.204996e-09	-2.830909e+01	-2.154419e+02
2.900000e-07	-3.765373e-06	-3.302021e-09	-2.825071e+01	-2.151855e+02
3.000000e-07	-3.757544e-06	-3.327897e-09	-2.819197e+01	-2.149202e+02
3.100000e-07	-3.749533e-06	-3.246631e-09	-2.813187e+01	-2.146456e+02
3.200000e-07	-3.741265e-06	-3.200377e-09	-2.806983e+01	-2.143611e+02
3.300000e-07	-3.732706e-06	-3.261177e-09	-2.800562e+01	-2.140662e+02
3.400000e-07	-3.723835e-06	-3.289185e-09	-2.793906e+01	-2.137604e+02
3.500000e-07	-3.714534e-06	-3.232184e-09	-2.786928e+01	-2.134433e+02
3.600000e-07	-3.704730e-06	-3.199611e-09	-2.779572e+01	-2.131145e+02
3.700000e-07	-3.694450e-06	-3.227388e-09	-2.771859e+01	-2.127733e+02
3.800000e-07	-3.683838e-06	-3.236992e-09	-2.763897e+01	-2.124196e+02
3.900000e-07	-3.672946e-06	-3.208934e-09	-2.755726e+01	-2.120530e+02
4.000000e-07	-3.661607e-06	-3.217253e-09	-2.747218e+01	-2.116731e+02
4.100000e-07	-3.649939e-06	-3.224389e-09	-2.738463e+01	-2.112800e+02
4.200000e-07	-3.638099e-06	-3.200986e-09	-2.729580e+01	-2.108734e+02
4.300000e-07	-3.625990e-06	-3.181808e-09	-2.720495e+01	-2.104534e+02
4.400000e-07	-3.613648e-06	-3.201280e-09	-2.711236e+01	-2.100200e+02
4.500000e-07	-3.601075e-06	-3.191039e-09	-2.701802e+01	-2.095734e+02
4.600000e-07	-3.588202e-06	-3.165575e-09	-2.692144e+01	-2.091138e+02
4.700000e-07	-3.575046e-06	-3.160454e-09	-2.682273e+01	-2.086415e+02
4.800000e-07	-3.561574e-06	-3.166110e-09	-2.672165e+01	-2.081569e+02
4.900000e-07	-3.547795e-06	-3.143386e-09	-2.661828e+01	-2.076602e+02
5.000000e-07	-3.533812e-06	-3.139984e-09	-2.651337e+01	-2.071521e+02
5.100000e-07	-3.519580e-06	-3.151896e-09	-2.640658e+01	-2.066329e+02
5.200000e-07	-3.505067e-06	-3.136236e-09	-2.629770e+01	-2.061032e+02
5.300000e-07	-3.490318e-06	-3.098992e-09	-2.618704e+01	-2.055635e+02
5.400000e-07	-3.475084e-06	-3.103337e-09	-2.607274e+01	-2.050142e+02
5.500000e-07	-3.459279e-06	-3.123737e-09	-2.595416e+01	-2.044558e+02
5.600000e-07	-3.443040e-06	-3.106126e-09	-2.583232e+01	-2.038888e+02
5.700000e-07	-3.426478e-06	-3.070260e-09	-2.570806e+01	-2.033135e+02
5.800000e-07	-3.409709e-06	-3.065782e-09	-2.558225e+01	-2.027304e+02
5.900000e-07	-3.392714e-06	-3.080098e-09	-2.545474e+01	-2.021397e+02
6.000000e-07	-3.375595e-06	-3.078758e-09	-2.532630e+01	-2.015416e+02
6.100000e-07	-3.358407e-06	-3.056747e-09	-2.519734e+01	-2.009363e+02
6.200000e-07	-3.340962e-06	-3.029776e-09	-2.506645e+01	-2.003238e+02
6.300000e-07	-3.323334e-06	-3.020418e-09	-2.493419e+01	-1.997043e+02
6.400000e-07	-3.305538e-06	-3.027738e-09	-2.480068e+01	-1.990775e+02
6.500000e-07	-3.287473e-06	-3.026035e-09	-2.466514e+01	-1.984435e+02
6.600000e-07	-3.269109e-06	-2.997897e-09	-2.452736e+01	-1.978019e+02
6.700000e-07	-3.250474e-06	-2.971333e-09	-2.438755e+01	-1.971526e+02
6.800000e-07	-3.231629e-06	-2.970259e-09	-2.424615e+01	-1.964953e+02
6.900000e-07	-3.212545e-06	-2.983323e-09	-2.410297e+01	-1.958296e+02
7.000000e-07	-3.193191e-06	-2.973268e-09	-2.395776e+01	-1.951552e+02
7.100000e-07	-3.173600e-06	-2.939179e-09	-2.381078e+01	-1.944716e+02
7.200000e-07	-3.153860e-06	-2.914878e-09	-2.366267e+01	-1.937786e+02
7.300000e-07	-3.134010e-06	-2.924244e-09	-2.351374e+01	-1.930756e+02
7.400000e-07	-3.114095e-06	-2.930226e-09	-2.336433e+01	-1.923623e+02
7.500000e-07	-3.094099e-06	-2.903881e-09	-2.321430e+01	-1.916384e+02
7.600000e-07	-3.073988e-06	-2.869539e-09	-2.306341e+01	-1.909035e+02
7.700000e-07	-3.053704e-06	-2.865119e-09	-2.291123e+01	-1.901573e+02
7.800000e-07	-3.033181e-06	-2.874403e-09	-2.275725e+01	-1.893996e+02
7.900000e-07	-3.012389e-06	-2.864688e-09	-2.260125e+01	-1.886301e+02
8.000000e-07	-2.991329e-06	-2.836387e-09	-2.244324e+01	-1.878487e+02
8.100000e-07	-2.969957e-06	-2.815906e-09	-2.228289e+01	-1.870554e+02
8.200000e-07	-2.948378e-06	-2.811044e-09	-2.212099e+01	-1.862500e+02
8.300000e-07	-2.926725e-06	-2.808302e-09	-2.195853e+01	-1.854326e+02
8.400000e-07	-2.904935e-06	-2.790530e-09	-2.179505e+01	-1.846032e+02
8.500000e-07	-2.883000e-06	-2.764531e-09	-2.163048e+01	-1.837619e+02
8.600000e-07	-2.860820e-06	-2.748587e-09	-2.146406e+01	-1.829088e+02
8.700000e-07	-2.838511e-06	-2.746112e-09	-2.129668e+01	-1.820441e+02
8.800000e-07	-2.816056e-06	-2.740066e-09	-2.112821e+01	-1.811681e+02
8.900000e-07	-2.793266e-06	-2.722746e-09	-2.095722e+01	-1.802808e+02
9.000000e-07	-2.770246e-06	-2.703060e-09	-2.078451e+01	-1.793826e+02
9.100000e-07	-2.747066e-06	-2.688618e-09	-2.061059e+01	-1.784737e+02
9.200000e-07	-2.723687e-06	-2.679508e-09	-2.043518e+01	-1.775542e+02
9.300000e-07	-2.700047e-06	-2.668847e-09	-2.025782e+01	-1.766244e+02
9.400000e-07	-2.676273e-06	-2.651483e-09	-2.007945e+01	-1.756845e+02
9.500000e-07	-2.652408e-06	-2.631623e-09	-1.990040e+01	-1.747346e+02
9.600000e-07	-2.628457e-06	-2.617143e-09	-1.972070e+01	-1.737749e+02
9.700000e-07	-2.604395e-06	-2.607981e-09	-1.954016e+01	-1.728055e+02
9.800000e-07	-2.580172e-06	-2.596099e-09	-1.935843e+01	-1.718265e+02
9.900000e-07	-2.555891e-06	-2.577866e-09	-1.917625e+01	-1.708379e+02
1.000000e-06	-2.531496e-06	-2.558823e-09	-1.899322e+01	-1.698397e+02
1.010000e-06	-2.506862e-06	-2.541562e-09	-1.880840e+01	-1.688318e+02
1.020000e-06	-2.481948e-06	-2.527913e-09	-1.862147e+01	-1.678143e+02
1.030000e-06	-2.456855e-06	-2.513015e-09	-1.843320e+01	-1.667870e+02
1.040000e-06	-2.431562e-06	-2.492755e-09	-1.824344e+01	-1.657498e+02
1.050000e-06	-2.405778e-06	-2.472137e-09	-1.804999e+01	-1.647026e+02
1.060000e-06	-2.379549e-06	-2.458568e-09	-1.785320e+01	-1.636452e+02
1.070000e-06	-2.353071e-06	-2.447607e-09	-1.765454e+01	-1.625775e+02
1.080000e-06	-2.326255e-06	-2.433090e-09	-1.745335e+01	-1.614993e+02
1.090000e-06	-2.299096e-06	-2.414545e-09	-1.724957e+01	-1.604104e+02
1.100000e-06	-2.271794e-06	-2.398413e-09	-1.704474e+01	-1.593107e+02
1.110000e-06	-2.244350e-06	-2.382785e-09	-1.683883e+01	-1.582001e+02
1.120000e-06	-2.216742e-06	-2.364551e-09	-1.663170e+01	-1.570785e+02
1.130000e-06	-2.189050e-06	-2.343608e-09	-1.642393e+01	-1.559457e+02
1.140000e-06	-2.161255e-06	-2.325011e-09	-1.621539e+01	-1.548016e+02
1.150000e-06	-2.133368e-06	-2.307867e-09	-1.600616e+01	-1.536462e+02
1.160000e-06	-2.105433e-06	-2.289607e-09	-1.579657e+01	-1.524795e+02
1.170000e-06	-2.077432e-06	-2.271328e-09	-1.558649e+01	-1.513014e+02
1.180000e-06	-2.049358e-06	-2.253663e-09	-1.537585e+01	-1.501120e+02
1.190000e-06	-2.021150e-06	-2.236011e-09	-1.516421e+01	-1.489113e+02
1.200000e-06	-1.992823e-06	-2.217173e-09	-1.495169e+01	-1.476993e+02
1.210000e-06	-1.964425e-06	-2.197053e-09	-1.473862e+01	-1.464761e+02
1.220000e-06	-1.935938e-06	-2.175750e-09	-1.452489e+01	-1.452419e+02
1.230000e-06	-1.907341e-06	-2.155111e-09	-1.431033e+01	-1.439966e+02
1.240000e-06	-1.878576e-06	-2.135110e-09	-1.409451e+01	-1.427404e+02
1.250000e-06	-1.849635e-06	-2.115115e-09	-1.387737e+01	-1.414734e+02
1.260000e-06	-1.820528e-06	-2.096766e-09	-1.365900e+01	-1.401957e+02
1.270000e-06	-1.791313e-06	-2.082488e-09	-1.343980e+01	-1.389073e+02
1.280000e-06	-1.761916e-06	-2.065222e-09	-1.321925e+01	-1.376083e+02
1.290000e-06	-1.732229e-06	-2.044659e-09	-1.299651e+01	-1.362988e+02
1.300000e-06	-1.702399e-06	-2.025173e-09	-1.277270e+01	-1.349788e+02
1.310000e-06	-1.672581e-06	-2.006030e-09	-1.254898e+01	-1.336483e+02
1.320000e-06	-1.642742e-06	-1.985824e-09	-1.232511e+01	-1.323074e+02
1.330000e-06	-1.612820e-06	-1.964040e-09	-1.210061e+01	-1.309561e+02
1.340000e-06	-1.582806e-06	-1.939717e-09	-1.187543e+01	-1.295943e+02
1.350000e-06	-1.552715e-06	-1.917234e-09	-1.164965e+01	-1.282221e+02
1.360000e-06	-1.522575e-06	-1.898051e-09	-1.142353e+01	-1.268393e+02
1.370000e-06	-1.492349e-06	-1.880313e-09	-1.119674e+01	-1.254460e+02
1.380000e-06	-1.462013e-06	-1.860021e-09	-1.096914e+01	-1.240420e+02
1.390000e-06	-1.431569e-06	-1.838049e-09	-1.074073e+01	-1.226274e+02
1.400000e-06	-1.401138e-06	-1.819029e-09	-1.051241e+01	-1.212021e+02
1.410000e-06	-1.370608e-06	-1.798966e-09	-1.028335e+01	-1.197661e+02
1.420000e-06	-1.339904e-06	-1.774876e-09	-1.005298e+01	-1.183194e+02
1.430000e-06	-1.309161e-06	-1.749560e-09	-9.822326e+00	-1.168618e+02
1.440000e-06	-1.278270e-06	-1.725461e-09	-9.590561e+00	-1.153936e+02
1.450000e-06	-1.247213e-06	-1.702398e-09	-9.357547e+00	-1.139146e+02
1.460000e-06	-1.216113e-06	-1.681320e-09	-9.124208e+00	-1.124250e+02
1.470000e-06	-1.184977e-06	-1.663649e-09	-8.890604e+00	-1.109248e+02
1.480000e-06	-1.153649e-06	-1.645969e-09	-8.655558e+00	-1.094141e+02
1.490000e-06	-1.122185e-06	-1.622612e-09	-8.419494e+00	-1.078930e+02
1.500000e-06	-1.090668e-06	-1.596212e-09	-8.183024e+00	-1.063616e+02
1.510000e-06	-1.059007e-06	-1.571035e-09	-7.945483e+00	-1.048201e+02
1.520000e-06	-1.027240e-06	-1.546747e-09	-7.707142e+00	-1.032686e+02
1.530000e-06	-9.954694e-07	-1.522784e-09	-7.468774e+00	-1.017073e+02
1.540000e-06	-9.637085e-07	-1.498021e-09	-7.230479e+00	-1.001363e+02
1.550000e-06	-9.318983e-07	-1.473114e-09	-6.991814e+00	-9.855577e+01
1.560000e-06	-9.000303e-07	-1.448144e-09	-6.752716e+00	-9.696579e+01
1.570000e-06	-8.681546e-07	-1.423288e-09	-6.513560e+00	-9.536648e+01
1.580000e-06	-8.362546e-07	-1.398919e-09	-6.274222e+00	-9.375794e+01
1.590000e-06	-8.043171e-07	-1.376761e-09	-6.034603e+00	-9.214022e+01
1.600000e-06	-7.723587e-07	-1.355646e-09	-5.794826e+00	-9.051334e+01
1.610000e-06	-7.403839e-07	-1.332690e-09	-5.554927e+00	-8.887728e+01
1.620000e-06	-7.084203e-07	-1.307776e-09	-5.315111e+00	-8.723199e+01
1.630000e-06	-6.764525e-07	-1.279538e-09	-5.075264e+00	-8.557737e+01
1.640000e-06	-6.444405e-07	-1.251422e-09	-4.835086e+00	-8.391328e+01
1.650000e-06	-6.123907e-07	-1.226721e-09	-4.594624e+00	-8.223955e+01
1.660000e-06	-5.803237e-07	-1.203569e-09	-4.354033e+00	-8.055596e+01
1.670000e-06	-5.482157e-07	-1.177304e-09	-4.113134e+00	-7.886226e+01
1.680000e-06	-5.161196e-07	-1.151153e-09	-3.872324e+00	-7.715818e+01
1.690000e-06	-4.840089e-07	-1.126955e-09	-3.631405e+00	-7.544340e+01
1.700000e-06	-4.518274e-07	-1.101738e-09	-3.389955e+00	-7.371761e+01
1.710000e-06	-4.196485e-07	-1.075146e-09	-3.148525e+00	-7.198048e+01
1.720000e-06	-3.874738e-07	-1.049725e-09	-2.907125e+00	-7.023167e+01
1.730000e-06	-3.552643e-07	-1.025236e-09	-2.665465e+00	-6.847085e+01
1.740000e-06	-3.229896e-07	-9.990717e-10	-2.423315e+00	-6.669773e+01
1.750000e-06	-2.907366e-07	-9.697107e-10	-2.181329e+00	-6.491201e+01
1.760000e-06	-2.584614e-07	-9.395248e-10	-1.939175e+00	-6.311344e+01
1.770000e-06	-2.261004e-07	-9.107579e-10	-1.696378e+00	-6.130181e+01
1.780000e-06	-1.938096e-07	-8.830593e-10	-1.454108e+00	-5.947696e+01
1.790000e-06	-1.615831e-07	-8.566194e-10	-1.212320e+00	-5.763877e+01
1.800000e-06	-1.292335e-07	-8.298647e-10	-9.696086e-01	-5.578719e+01
1.810000e-06	-9.684582e-08	-8.030077e-10	-7.266115e-01	-5.392222e+01
1.820000e-06	-6.453671e-08	-7.754193e-10	-4.842038e-01	-5.204394e+01
1.830000e-06	-3.227162e-08	-7.454398e-10	-2.421264e-01	-5.015249e+01
1.840000e-06	-1.767176e-11	-7.136094e-10	-1.325871e-04	-4.824805e+01
1.850000e-06	3.228619e-08	-6.823822e-10	2.422357e-01	-4.633088e+01
1.860000e-06	6.466812e-08	-6.521002e-10	4.851897e-01	-4.440130e+01
1.870000e-06	9.706764e-08	-6.214773e-10	7.282757e-01	-4.245965e+01
1.880000e-06	1.294239e-07	-5.917439e-10	9.710373e-01	-4.050634e+01
1.890000e-06	1.618270e-07	-5.632867e-10	1.214150e+00	-3.854180e+01
1.900000e-06	1.942442e-07	-5.361879e-10	1.457369e+00	-3.656648e+01
1.910000e-06	2.266358e-07	-5.114320e-10	1.700395e+00	-3.458084e+01
1.920000e-06	2.590296e-07	-4.851632e-10	1.943438e+00	-3.258536e+01
1.930000e-06	2.913932e-07	-4.549083e-10	2.186255e+00	-3.058050e+01
1.940000e-06	3.236567e-07	-4.225676e-10	2.428320e+00	-2.856670e+01
1.950000e-06	3.559156e-07	-3.908575e-10	2.670351e+00	-2.654438e+01
1.960000e-06	3.882125e-07	-3.607284e-10	2.912667e+00	-2.451392e+01
1.970000e-06	4.204725e-07	-3.311726e-10	3.154707e+00	-2.247565e+01
1.980000e-06	4.526702e-07	-2.998755e-10	3.396278e+00	-2.042986e+01
1.990000e-06	4.848200e-07	-2.672244e-10	3.637491e+00	-1.837677e+01
2.000000e-06	5.169508e-07	-2.355146e-10	3.878560e+00	-1.631655e+01
2.010000e-06	5.490718e-07	-2.060561e-10	4.119557e+00	-1.424931e+01
2.020000e-06	5.811861e-07	-1.786070e-10	4.360503e+00	-1.217507e+01
2.030000e-06	6.133259e-07	-1.502957e-10	4.601640e+00	-1.009383e+01
2.040000e-06	6.454776e-07	-1.183075e-10	4.842867e+00	-8.005514e+00
2.050000e-06	6.775273e-07	-8.431683e-11	5.083328e+00	-5.909982e+00
2.060000e-06	7.095104e-07	-5.199353e-11	5.323290e+00	-3.807067e+00
2.070000e-06	7.414750e-07	-2.172517e-11	5.563113e+00	-1.696559e+00
2.080000e-06	7.734211e-07	9.588132e-12	5.802797e+00	4.217797e-01
2.090000e-06	8.053514e-07	4.324562e-11	6.042363e+00	2.548202e+00
2.100000e-06	8.372651e-07	7.541435e-11	6.281804e+00	4.682965e+00
2.110000e-06	8.691535e-07	1.034465e-10	6.521055e+00	6.826322e+00
2.120000e-06	9.010391e-07	1.332474e-10	6.760285e+00	8.978506e+00
2.130000e-06	9.328764e-07	1.676157e-10	6.999153e+00	1.113972e+01
2.140000e-06	9.646288e-07	2.024911e-10	7.237383e+00	1.331012e+01
2.150000e-06	9.963564e-07	2.358156e-10	7.475428e+00	1.548983e+01
2.160000e-06	1.028066e-06	2.692692e-10	7.713335e+00	1.767889e+01
2.170000e-06	1.059702e-06	3.038041e-10	7.950693e+00	1.987728e+01
2.180000e-06	1.091195e-06	3.366793e-10	8.186981e+00	2.208490e+01
2.190000e-06	1.122660e-06	3.698053e-10	8.423055e+00	2.430158e+01
2.200000e-06	1.154100e-06	4.021797e-10	8.658941e+00	2.652706e+01
2.210000e-06	1.185464e-06	4.316786e-10	8.894262e+00	2.876100e+01
2.220000e-06	1.216694e-06	4.607306e-10	9.128567e+00	3.100295e+01
2.230000e-06	1.247807e-06	4.936046e-10	9.362006e+00	3.325241e+01
2.240000e-06	1.278895e-06	5.295363e-10	9.595249e+00	3.550878e+01
2.250000e-06	1.309836e-06	5.638982e-10	9.827390e+00	3.777140e+01
2.260000e-06	1.340552e-06	5.968722e-10	1.005784e+01	4.003953e+01
2.270000e-06	1.371197e-06	6.312451e-10	1.028777e+01	4.231239e+01
2.280000e-06	1.401778e-06	6.658374e-10	1.051721e+01	4.458913e+01
2.290000e-06	1.432206e-06	6.978920e-10	1.074551e+01	4.686888e+01
2.300000e-06	1.462554e-06	7.280350e-10	1.097320e+01	4.915073e+01
2.310000e-06	1.492830e-06	7.585013e-10	1.120035e+01	5.143376e+01
2.320000e-06	1.522991e-06	7.922481e-10	1.142664e+01	5.371704e+01
2.330000e-06	1.553032e-06	8.285100e-10	1.165203e+01	5.599964e+01
2.340000e-06	1.583010e-06	8.656792e-10	1.187696e+01	5.828065e+01
2.350000e-06	1.612926e-06	9.030441e-10	1.210140e+01	6.055919e+01
2.360000e-06	1.642782e-06	9.401864e-10	1.232541e+01	6.283440e+01
2.370000e-06	1.672586e-06	9.763491e-10	1.254902e+01	6.510545e+01
2.380000e-06	1.702305e-06	1.011207e-09	1.277199e+01	6.737159e+01
2.390000e-06	1.731925e-06	1.043032e-09	1.299423e+01	6.963207e+01
2.400000e-06	1.761397e-06	1.072571e-09	1.321535e+01	7.188624e+01
2.410000e-06	1.790708e-06	1.103940e-09	1.343526e+01	7.413345e+01
2.420000e-06	1.819904e-06	1.138046e-09	1.365432e+01	7.637315e+01
2.430000e-06	1.848974e-06	1.171893e-09	1.387242e+01	7.860482e+01
2.440000e-06	1.877872e-06	1.204824e-09	1.408923e+01	8.082798e+01
2.450000e-06	1.906532e-06	1.238709e-09	1.430426e+01	8.304221e+01
2.460000e-06	1.935023e-06	1.272633e-09	1.451803e+01	8.524713e+01
2.470000e-06	1.963375e-06	1.307289e-09	1.473074e+01	8.744238e+01
2.480000e-06	1.991682e-06	1.340642e-09	1.494312e+01	8.962763e+01
2.490000e-06	2.019977e-06	1.371519e-09	1.515541e+01	9.180259e+01
2.500000e-06	2.048142e-06	1.401692e-09	1.536673e+01	9.396697e+01
2.510000e-06	2.076163e-06	1.430741e-09	1.557696e+01	9.612049e+01
2.520000e-06	2.104118e-06	1.458633e-09	1.578670e+01	9.826287e+01
2.530000e-06	2.132044e-06	1.488957e-09	1.599623e+01	1.003938e+02
2.540000e-06	2.159891e-06	1.522758e-09	1.620515e+01	1.025131e+02
2.550000e-06	2.187668e-06	1.557087e-09	1.641356e+01	1.046204e+02
2.560000e-06	2.215318e-06	1.590686e-09	1.662101e+01	1.067153e+02
2.570000e-06	2.242864e-06	1.623151e-09	1.682768e+01	1.087976e+02
2.580000e-06	2.270321e-06	1.656081e-09	1.703368e+01	1.108669e+02
2.590000e-06	2.297556e-06	1.687716e-09	1.723802e+01	1.129227e+02
2.600000e-06	2.324495e-06	1.715967e-09	1.744014e+01	1.149648e+02
2.610000e-06	2.351123e-06	1.743768e-09	1.763993e+01	1.169927e+02
2.620000e-06	2.377448e-06	1.773360e-09	1.783744e+01	1.190060e+02
2.630000e-06	2.403501e-06	1.803887e-09	1.803291e+01	1.210041e+02
2.640000e-06	2.429296e-06	1.833841e-09	1.822644e+01	1.229867e+02
2.650000e-06	2.454723e-06	1.863580e-09	1.841721e+01	1.249533e+02
2.660000e-06	2.479817e-06	1.893346e-09	1.860549e+01	1.269033e+02
2.670000e-06	2.504743e-06	1.923453e-09	1.879250e+01	1.288364e+02
2.680000e-06	2.529400e-06	1.953287e-09	1.897750e+01	1.307519e+02
2.690000e-06	2.553780e-06	1.980206e-09	1.916041e+01	1.326496e+02
2.700000e-06	2.577990e-06	2.004696e-09	1.934206e+01	1.345289e+02
2.710000e-06	2.602081e-06	2.029293e-09	1.952280e+01	1.363894e+02
2.720000e-06	2.626070e-06	2.056345e-09	1.970279e+01	1.382307e+02
2.730000e-06	2.649965e-06	2.085209e-09	1.988207e+01	1.400523e+02
2.740000e-06	2.673748e-06	2.114212e-09	2.006051e+01	1.418539e+02
2.750000e-06	2.697393e-06	2.142721e-09	2.023791e+01	1.436352e+02
2.760000e-06	2.720891e-06	2.171260e-09	2.041421e+01	1.453958e+02
2.770000e-06	2.744258e-06	2.200495e-09	2.058953e+01	1.471355e+02
2.780000e-06	2.767498e-06	2.229606e-09	2.076389e+01	1.488538e+02
2.790000e-06	2.790430e-06	2.255972e-09	2.093594e+01	1.505507e+02
2.800000e-06	2.812989e-06	2.279090e-09	2.110520e+01	1.522259e+02
2.810000e-06	2.835400e-06	2.302486e-09	2.127334e+01	1.538791e+02
2.820000e-06	2.857712e-06	2.327312e-09	2.144074e+01	1.555101e+02
2.830000e-06	2.879798e-06	2.352015e-09	2.160645e+01	1.571189e+02
2.840000e-06	2.901686e-06	2.376237e-09	2.177067e+01	1.587051e+02
2.850000e-06	2.923383e-06	2.399607e-09	2.193346e+01	1.602687e+02
2.860000e-06	2.944885e-06	2.423044e-09	2.209478e+01	1.618096e+02
2.870000e-06	2.966198e-06	2.448224e-09	2.225468e+01	1.633275e+02
2.880000e-06	2.987303e-06	2.471004e-09	2.241304e+01	1.648225e+02
2.890000e-06	3.008149e-06	2.490240e-09	2.256944e+01	1.662942e+02
2.900000e-06	3.028676e-06	2.510927e-09	2.272345e+01	1.677428e+02
