# Temperatura_=_20.0
# Concentracion g/m^3_=_12600.0
# C_Vs_to_Am_M_A/Vsm_=_65563218390.804596
# pendiente_HvsI_1/m_=_3716.3
# ordenada_HvsI_A/m_=_1297.0
# frecuencia_Hz_=_135034.21238790106

Tiempo_(s)	Campo_(V.s)	Magnetizacion_(V.s)	Campo_(kA/m)	Magnetizacion_(A/m)
0.000000e+00	-3.888450e-06	-3.272834e-09	-2.913205e+01	-2.142330e+02
1.000000e-08	-3.888516e-06	-3.273310e-09	-2.913255e+01	-2.141944e+02
2.000000e-08	-3.888423e-06	-3.270319e-09	-2.913185e+01	-2.141397e+02
3.000000e-08	-3.888190e-06	-3.271223e-09	-2.913011e+01	-2.140695e+02
4.000000e-08	-3.887683e-06	-3.286379e-09	-2.912631e+01	-2.139848e+02
5.000000e-08	-3.886830e-06	-3.311726e-09	-2.911992e+01	-2.138863e+02
6.000000e-08	-3.885643e-06	-3.310170e-09	-2.911103e+01	-2.137749e+02
7.000000e-08	-3.883955e-06	-3.229728e-09	-2.909838e+01	-2.136518e+02
8.000000e-08	-3.881720e-06	-3.183915e-09	-2.908164e+01	-2.135178e+02
9.000000e-08	-3.879056e-06	-3.201110e-09	-2.906168e+01	-2.133741e+02
1.000000e-07	-3.875933e-06	-3.228025e-09	-2.903828e+01	-2.132217e+02
1.100000e-07	-3.872512e-06	-3.282975e-09	-2.901265e+01	-2.130615e+02
1.200000e-07	-3.868925e-06	-3.325982e-09	-2.898578e+01	-2.128946e+02
1.300000e-07	-3.865128e-06	-3.215441e-09	-2.895733e+01	-2.127219e+02
1.400000e-07	-3.861121e-06	-3.158316e-09	-2.892731e+01	-2.125441e+02
1.500000e-07	-3.856933e-06	-3.202806e-09	-2.889593e+01	-2.123619e+02
1.600000e-07	-3.852624e-06	-3.262009e-09	-2.886365e+01	-2.121761e+02
1.700000e-07	-3.848141e-06	-3.279450e-09	-2.883007e+01	-2.119870e+02
1.800000e-07	-3.843411e-06	-3.222684e-09	-2.879463e+01	-2.117950e+02
1.900000e-07	-3.838408e-06	-3.193065e-09	-2.875715e+01	-2.116003e+02
2.000000e-07	-3.833111e-06	-3.188607e-09	-2.871746e+01	-2.114030e+02
2.100000e-07	-3.827528e-06	-3.263715e-09	-2.867563e+01	-2.112029e+02
2.200000e-07	-3.821623e-06	-3.281642e-09	-2.863140e+01	-2.110000e+02
2.300000e-07	-3.815493e-06	-3.231515e-09	-2.858547e+01	-2.107938e+02
2.400000e-07	-3.809134e-06	-3.123562e-09	-2.853782e+01	-2.105839e+02
2.500000e-07	-3.802457e-06	-3.182052e-09	-2.848780e+01	-2.103697e+02
2.600000e-07	-3.795492e-06	-3.295677e-09	-2.843562e+01	-2.101506e+02
2.700000e-07	-3.788173e-06	-3.279373e-09	-2.838078e+01	-2.099258e+02
2.800000e-07	-3.780538e-06	-3.135854e-09	-2.832359e+01	-2.096946e+02
2.900000e-07	-3.772732e-06	-3.124000e-09	-2.826511e+01	-2.094563e+02
3.000000e-07	-3.764769e-06	-3.234116e-09	-2.820545e+01	-2.092098e+02
3.100000e-07	-3.756647e-06	-3.266163e-09	-2.814460e+01	-2.089546e+02
3.200000e-07	-3.748385e-06	-3.178519e-09	-2.808270e+01	-2.086896e+02
3.300000e-07	-3.739963e-06	-3.129617e-09	-2.801960e+01	-2.084143e+02
3.400000e-07	-3.731279e-06	-3.179614e-09	-2.795454e+01	-2.081280e+02
3.500000e-07	-3.722216e-06	-3.195718e-09	-2.788664e+01	-2.078299e+02
3.600000e-07	-3.712841e-06	-3.178029e-09	-2.781640e+01	-2.075197e+02
3.700000e-07	-3.703009e-06	-3.162080e-09	-2.774274e+01	-2.071969e+02
3.800000e-07	-3.692647e-06	-3.162945e-09	-2.766511e+01	-2.068611e+02
3.900000e-07	-3.681794e-06	-3.121984e-09	-2.758380e+01	-2.065122e+02
4.000000e-07	-3.670514e-06	-3.141365e-09	-2.749929e+01	-2.061500e+02
4.100000e-07	-3.658988e-06	-3.175114e-09	-2.741294e+01	-2.057746e+02
4.200000e-07	-3.647179e-06	-3.155762e-09	-2.732447e+01	-2.053860e+02
4.300000e-07	-3.635063e-06	-3.075716e-09	-2.723370e+01	-2.049844e+02
4.400000e-07	-3.622667e-06	-3.087874e-09	-2.714083e+01	-2.045701e+02
4.500000e-07	-3.610139e-06	-3.142771e-09	-2.704696e+01	-2.041435e+02
4.600000e-07	-3.597490e-06	-3.147334e-09	-2.695220e+01	-2.037048e+02
4.700000e-07	-3.584462e-06	-3.082541e-09	-2.685460e+01	-2.032546e+02
4.800000e-07	-3.571113e-06	-3.058563e-09	-2.675459e+01	-2.027933e+02
4.900000e-07	-3.557546e-06	-3.071189e-09	-2.665294e+01	-2.023213e+02
5.000000e-07	-3.543698e-06	-3.094390e-09	-2.654919e+01	-2.018390e+02
5.100000e-07	-3.529500e-06	-3.091680e-09	-2.644282e+01	-2.013470e+02
5.200000e-07	-3.515011e-06	-3.057761e-09	-2.633428e+01	-2.008455e+02
5.300000e-07	-3.500209e-06	-3.015422e-09	-2.622337e+01	-2.003349e+02
5.400000e-07	-3.484982e-06	-3.027166e-09	-2.610929e+01	-1.998154e+02
5.500000e-07	-3.469452e-06	-3.073431e-09	-2.599295e+01	-1.992872e+02
5.600000e-07	-3.453727e-06	-3.059589e-09	-2.587514e+01	-1.987506e+02
5.700000e-07	-3.437783e-06	-2.996698e-09	-2.575569e+01	-1.982053e+02
5.800000e-07	-3.421522e-06	-2.976390e-09	-2.563386e+01	-1.976516e+02
5.900000e-07	-3.404985e-06	-3.015252e-09	-2.550997e+01	-1.970891e+02
6.000000e-07	-3.388060e-06	-3.025618e-09	-2.538316e+01	-1.965178e+02
6.100000e-07	-3.370779e-06	-2.988636e-09	-2.525370e+01	-1.959374e+02
6.200000e-07	-3.353330e-06	-2.945361e-09	-2.512297e+01	-1.953476e+02
6.300000e-07	-3.335716e-06	-2.946926e-09	-2.499101e+01	-1.947480e+02
6.400000e-07	-3.317925e-06	-2.967267e-09	-2.485772e+01	-1.941382e+02
6.500000e-07	-3.299956e-06	-2.965707e-09	-2.472310e+01	-1.935179e+02
6.600000e-07	-3.281795e-06	-2.931395e-09	-2.458703e+01	-1.928867e+02
6.700000e-07	-3.263306e-06	-2.908039e-09	-2.444851e+01	-1.922442e+02
6.800000e-07	-3.244446e-06	-2.907767e-09	-2.430722e+01	-1.915900e+02
6.900000e-07	-3.225340e-06	-2.920006e-09	-2.416407e+01	-1.909239e+02
7.000000e-07	-3.205993e-06	-2.909392e-09	-2.401913e+01	-1.902455e+02
7.100000e-07	-3.186443e-06	-2.880879e-09	-2.387266e+01	-1.895548e+02
7.200000e-07	-3.166736e-06	-2.850178e-09	-2.372502e+01	-1.888516e+02
7.300000e-07	-3.146850e-06	-2.848417e-09	-2.357603e+01	-1.881358e+02
7.400000e-07	-3.126869e-06	-2.859679e-09	-2.342634e+01	-1.874075e+02
7.500000e-07	-3.106780e-06	-2.851442e-09	-2.327583e+01	-1.866668e+02
7.600000e-07	-3.086553e-06	-2.817592e-09	-2.312429e+01	-1.859140e+02
7.700000e-07	-3.066236e-06	-2.796501e-09	-2.297207e+01	-1.851493e+02
7.800000e-07	-3.045760e-06	-2.800143e-09	-2.281867e+01	-1.843731e+02
7.900000e-07	-3.025010e-06	-2.805306e-09	-2.266321e+01	-1.835860e+02
8.000000e-07	-3.004013e-06	-2.785758e-09	-2.250590e+01	-1.827882e+02
8.100000e-07	-2.982842e-06	-2.752499e-09	-2.234729e+01	-1.819804e+02
8.200000e-07	-2.961461e-06	-2.732764e-09	-2.218711e+01	-1.811632e+02
8.300000e-07	-2.939832e-06	-2.736909e-09	-2.202507e+01	-1.803370e+02
8.400000e-07	-2.917986e-06	-2.738339e-09	-2.186140e+01	-1.795026e+02
8.500000e-07	-2.895951e-06	-2.714061e-09	-2.169631e+01	-1.786603e+02
8.600000e-07	-2.873769e-06	-2.683665e-09	-2.153012e+01	-1.778108e+02
8.700000e-07	-2.851449e-06	-2.676064e-09	-2.136290e+01	-1.769545e+02
8.800000e-07	-2.828864e-06	-2.684311e-09	-2.119370e+01	-1.760917e+02
8.900000e-07	-2.806092e-06	-2.675584e-09	-2.102309e+01	-1.752229e+02
9.000000e-07	-2.783177e-06	-2.646500e-09	-2.085141e+01	-1.743482e+02
9.100000e-07	-2.759977e-06	-2.617730e-09	-2.067760e+01	-1.734679e+02
9.200000e-07	-2.736530e-06	-2.609171e-09	-2.050194e+01	-1.725819e+02
9.300000e-07	-2.712914e-06	-2.609778e-09	-2.032500e+01	-1.716901e+02
9.400000e-07	-2.689128e-06	-2.600636e-09	-2.014680e+01	-1.707926e+02
9.500000e-07	-2.665225e-06	-2.577407e-09	-1.996773e+01	-1.698889e+02
9.600000e-07	-2.641273e-06	-2.558153e-09	-1.978827e+01	-1.689788e+02
9.700000e-07	-2.617223e-06	-2.551169e-09	-1.960809e+01	-1.680618e+02
9.800000e-07	-2.593035e-06	-2.546324e-09	-1.942687e+01	-1.671373e+02
9.900000e-07	-2.568750e-06	-2.530123e-09	-1.924493e+01	-1.662049e+02
1.000000e-06	-2.544297e-06	-2.508468e-09	-1.906173e+01	-1.652639e+02
1.010000e-06	-2.519579e-06	-2.488383e-09	-1.887655e+01	-1.643136e+02
1.020000e-06	-2.494696e-06	-2.476621e-09	-1.869013e+01	-1.633534e+02
1.030000e-06	-2.469641e-06	-2.465993e-09	-1.850242e+01	-1.623824e+02
1.040000e-06	-2.444284e-06	-2.449386e-09	-1.831244e+01	-1.614001e+02
1.050000e-06	-2.418653e-06	-2.426048e-09	-1.812042e+01	-1.604058e+02
1.060000e-06	-2.392620e-06	-2.407852e-09	-1.792538e+01	-1.593989e+02
1.070000e-06	-2.366194e-06	-2.398978e-09	-1.772740e+01	-1.583787e+02
1.080000e-06	-2.339577e-06	-2.390627e-09	-1.752798e+01	-1.573447e+02
1.090000e-06	-2.312703e-06	-2.372654e-09	-1.732665e+01	-1.562966e+02
1.100000e-06	-2.285594e-06	-2.347093e-09	-1.712355e+01	-1.552339e+02
1.110000e-06	-2.258241e-06	-2.327234e-09	-1.691862e+01	-1.541564e+02
1.120000e-06	-2.230684e-06	-2.316417e-09	-1.671216e+01	-1.530639e+02
1.130000e-06	-2.202982e-06	-2.303368e-09	-1.650462e+01	-1.519564e+02
1.140000e-06	-2.175112e-06	-2.281208e-09	-1.629582e+01	-1.508337e+02
1.150000e-06	-2.147157e-06	-2.258064e-09	-1.608639e+01	-1.496961e+02
1.160000e-06	-2.119191e-06	-2.242291e-09	-1.587687e+01	-1.485436e+02
1.170000e-06	-2.091193e-06	-2.230723e-09	-1.566710e+01	-1.473766e+02
1.180000e-06	-2.063097e-06	-2.214393e-09	-1.545661e+01	-1.461954e+02
1.190000e-06	-2.034863e-06	-2.191617e-09	-1.524508e+01	-1.450003e+02
1.200000e-06	-2.006548e-06	-2.170152e-09	-1.503295e+01	-1.437917e+02
1.210000e-06	-1.978138e-06	-2.154381e-09	-1.482010e+01	-1.425702e+02
1.220000e-06	-1.949606e-06	-2.137649e-09	-1.460634e+01	-1.413361e+02
1.230000e-06	-1.920950e-06	-2.115530e-09	-1.439165e+01	-1.400901e+02
1.240000e-06	-1.892147e-06	-2.090021e-09	-1.417586e+01	-1.388326e+02
1.250000e-06	-1.863166e-06	-2.070420e-09	-1.395874e+01	-1.375641e+02
1.260000e-06	-1.834057e-06	-2.055087e-09	-1.374066e+01	-1.362850e+02
1.270000e-06	-1.804910e-06	-2.039413e-09	-1.352229e+01	-1.349959e+02
1.280000e-06	-1.775546e-06	-2.017731e-09	-1.330229e+01	-1.336971e+02
1.290000e-06	-1.745966e-06	-1.993799e-09	-1.308068e+01	-1.323890e+02
1.300000e-06	-1.716340e-06	-1.973767e-09	-1.285872e+01	-1.310720e+02
1.310000e-06	-1.686612e-06	-1.955158e-09	-1.263601e+01	-1.297463e+02
1.320000e-06	-1.656751e-06	-1.934106e-09	-1.241229e+01	-1.284122e+02
1.330000e-06	-1.626783e-06	-1.910627e-09	-1.218777e+01	-1.270699e+02
1.340000e-06	-1.596707e-06	-1.886876e-09	-1.196244e+01	-1.257196e+02
1.350000e-06	-1.566531e-06	-1.865213e-09	-1.173636e+01	-1.243613e+02
1.360000e-06	-1.536281e-06	-1.847069e-09	-1.150973e+01	-1.229952e+02
1.370000e-06	-1.505984e-06	-1.826493e-09	-1.128275e+01	-1.216213e+02
1.380000e-06	-1.475585e-06	-1.804686e-09	-1.105500e+01	-1.202397e+02
1.390000e-06	-1.444986e-06	-1.785886e-09	-1.082575e+01	-1.188503e+02
1.400000e-06	-1.414260e-06	-1.769535e-09	-1.059556e+01	-1.174532e+02
1.410000e-06	-1.383520e-06	-1.749334e-09	-1.036526e+01	-1.160483e+02
1.420000e-06	-1.352836e-06	-1.726724e-09	-1.013537e+01	-1.146357e+02
1.430000e-06	-1.322089e-06	-1.703680e-09	-9.905017e+00	-1.132152e+02
1.440000e-06	-1.291174e-06	-1.679269e-09	-9.673409e+00	-1.117870e+02
1.450000e-06	-1.260130e-06	-1.655349e-09	-9.440827e+00	-1.103509e+02
1.460000e-06	-1.229025e-06	-1.633865e-09	-9.207791e+00	-1.089070e+02
1.470000e-06	-1.197829e-06	-1.613462e-09	-8.974067e+00	-1.074552e+02
1.480000e-06	-1.166422e-06	-1.590780e-09	-8.738773e+00	-1.059956e+02
1.490000e-06	-1.134989e-06	-1.566963e-09	-8.503275e+00	-1.045281e+02
1.500000e-06	-1.103565e-06	-1.544443e-09	-8.267847e+00	-1.030527e+02
1.510000e-06	-1.071958e-06	-1.524942e-09	-8.031049e+00	-1.015694e+02
1.520000e-06	-1.040167e-06	-1.504222e-09	-7.792874e+00	-1.000782e+02
1.530000e-06	-1.008366e-06	-1.483393e-09	-7.554621e+00	-9.857901e+01
1.540000e-06	-9.765424e-07	-1.460406e-09	-7.316203e+00	-9.707177e+01
1.550000e-06	-9.446667e-07	-1.436151e-09	-7.077392e+00	-9.555637e+01
1.560000e-06	-9.127825e-07	-1.411143e-09	-6.838517e+00	-9.403269e+01
1.570000e-06	-8.808615e-07	-1.387530e-09	-6.599367e+00	-9.250054e+01
1.580000e-06	-8.488856e-07	-1.364278e-09	-6.359805e+00	-9.095972e+01
1.590000e-06	-8.168525e-07	-1.341776e-09	-6.119815e+00	-8.940998e+01
1.600000e-06	-7.847926e-07	-1.319274e-09	-5.879624e+00	-8.785102e+01
1.610000e-06	-7.527371e-07	-1.295477e-09	-5.639466e+00	-8.628250e+01
1.620000e-06	-7.206672e-07	-1.271656e-09	-5.399199e+00	-8.470404e+01
1.630000e-06	-6.885773e-07	-1.246866e-09	-5.158784e+00	-8.311521e+01
1.640000e-06	-6.564801e-07	-1.220389e-09	-4.918314e+00	-8.151558e+01
1.650000e-06	-6.243625e-07	-1.194935e-09	-4.677690e+00	-7.990465e+01
1.660000e-06	-5.922224e-07	-1.171890e-09	-4.436898e+00	-7.828193e+01
1.670000e-06	-5.600149e-07	-1.146892e-09	-4.195602e+00	-7.664691e+01
1.680000e-06	-5.277804e-07	-1.121247e-09	-3.954102e+00	-7.499907e+01
1.690000e-06	-4.955602e-07	-1.096267e-09	-3.712710e+00	-7.333791e+01
1.700000e-06	-4.632851e-07	-1.070799e-09	-3.470907e+00	-7.166295e+01
1.710000e-06	-4.310146e-07	-1.042470e-09	-3.229138e+00	-6.997374e+01
1.720000e-06	-3.987517e-07	-1.017240e-09	-2.987426e+00	-6.826984e+01
1.730000e-06	-3.664524e-07	-9.936619e-10	-2.745442e+00	-6.655092e+01
1.740000e-06	-3.341422e-07	-9.680306e-10	-2.503375e+00	-6.481666e+01
1.750000e-06	-3.018475e-07	-9.391553e-10	-2.261425e+00	-6.306683e+01
1.760000e-06	-2.695652e-07	-9.108047e-10	-2.019568e+00	-6.130128e+01
1.770000e-06	-2.372347e-07	-8.823176e-10	-1.777350e+00	-5.951993e+01
1.780000e-06	-2.048341e-07	-8.541720e-10	-1.534606e+00	-5.772279e+01
1.790000e-06	-1.724117e-07	-8.269939e-10	-1.291699e+00	-5.590998e+01
1.800000e-06	-1.400213e-07	-7.980362e-10	-1.049032e+00	-5.408166e+01
1.810000e-06	-1.076346e-07	-7.685247e-10	-8.063925e-01	-5.223813e+01
1.820000e-06	-7.515500e-08	-7.406578e-10	-5.630572e-01	-5.037974e+01
1.830000e-06	-4.268941e-08	-7.110249e-10	-3.198267e-01	-4.850693e+01
1.840000e-06	-1.028775e-08	-6.808082e-10	-7.707527e-02	-4.662020e+01
1.850000e-06	2.214912e-08	-6.503478e-10	1.659400e-01	-4.472011e+01
1.860000e-06	5.458091e-08	-6.195585e-10	4.089172e-01	-4.280729e+01
1.870000e-06	8.701898e-08	-5.890882e-10	6.519415e-01	-4.088238e+01
1.880000e-06	1.194573e-07	-5.594209e-10	8.949678e-01	-3.894607e+01
1.890000e-06	1.518625e-07	-5.301714e-10	1.137746e+00	-3.699903e+01
1.900000e-06	1.842214e-07	-5.002542e-10	1.380177e+00	-3.504198e+01
1.910000e-06	2.165270e-07	-4.740959e-10	1.622208e+00	-3.307557e+01
1.920000e-06	2.488902e-07	-4.483200e-10	1.864672e+00	-3.110045e+01
1.930000e-06	2.812864e-07	-4.199955e-10	2.107383e+00	-2.911725e+01
1.940000e-06	3.136091e-07	-3.898287e-10	2.349543e+00	-2.712651e+01
1.950000e-06	3.459238e-07	-3.593015e-10	2.591642e+00	-2.512875e+01
1.960000e-06	3.783248e-07	-3.281942e-10	2.834389e+00	-2.312440e+01
1.970000e-06	4.106975e-07	-2.981412e-10	3.076924e+00	-2.111384e+01
1.980000e-06	4.429965e-07	-2.689943e-10	3.318906e+00	-1.909735e+01
1.990000e-06	4.752809e-07	-2.396606e-10	3.560779e+00	-1.707516e+01
2.000000e-06	5.075359e-07	-2.094370e-10	3.802431e+00	-1.504741e+01
2.010000e-06	5.397508e-07	-1.786602e-10	4.043784e+00	-1.301417e+01
2.020000e-06	5.719231e-07	-1.497343e-10	4.284817e+00	-1.097545e+01
2.030000e-06	6.041145e-07	-1.231116e-10	4.525994e+00	-8.931194e+00
2.040000e-06	6.362698e-07	-9.419661e-11	4.766899e+00	-6.881288e+00
2.050000e-06	6.683778e-07	-6.081101e-11	5.007450e+00	-4.825583e+00
2.060000e-06	7.004788e-07	-2.736110e-11	5.247949e+00	-2.763891e+00
2.070000e-06	7.325469e-07	2.038285e-12	5.488202e+00	-6.960055e-01
2.080000e-06	7.646046e-07	3.242355e-11	5.728376e+00	1.378290e+00
2.090000e-06	7.966689e-07	6.483929e-11	5.968600e+00	3.459211e+00
2.100000e-06	8.287070e-07	9.642974e-11	6.208629e+00	5.546959e+00
2.110000e-06	8.607173e-07	1.252100e-10	6.448448e+00	7.641709e+00
2.120000e-06	8.927036e-07	1.539375e-10	6.688087e+00	9.743601e+00
2.130000e-06	9.246284e-07	1.863647e-10	6.927266e+00	1.185273e+01
2.140000e-06	9.565621e-07	2.212279e-10	7.166511e+00	1.396914e+01
2.150000e-06	9.885009e-07	2.562371e-10	7.405795e+00	1.609281e+01
2.160000e-06	1.020316e-06	2.884382e-10	7.644152e+00	1.822365e+01
2.170000e-06	1.052059e-06	3.186680e-10	7.881966e+00	2.036153e+01
2.180000e-06	1.083792e-06	3.493175e-10	8.119714e+00	2.250621e+01
2.190000e-06	1.115421e-06	3.831249e-10	8.356673e+00	2.465741e+01
2.200000e-06	1.146809e-06	4.182631e-10	8.591829e+00	2.681476e+01
2.210000e-06	1.178105e-06	4.499471e-10	8.826301e+00	2.897786e+01
2.220000e-06	1.209453e-06	4.785650e-10	9.061153e+00	3.114622e+01
2.230000e-06	1.240721e-06	5.102948e-10	9.295415e+00	3.331931e+01
2.240000e-06	1.271837e-06	5.455072e-10	9.528532e+00	3.549656e+01
2.250000e-06	1.302783e-06	5.794564e-10	9.760377e+00	3.767736e+01
2.260000e-06	1.333582e-06	6.105345e-10	9.991125e+00	3.986107e+01
2.270000e-06	1.364308e-06	6.415282e-10	1.022132e+01	4.204704e+01
2.280000e-06	1.394959e-06	6.738560e-10	1.045096e+01	4.423459e+01
2.290000e-06	1.425507e-06	7.064181e-10	1.067982e+01	4.642306e+01
2.300000e-06	1.455902e-06	7.377017e-10	1.090754e+01	4.861180e+01
2.310000e-06	1.486241e-06	7.683921e-10	1.113484e+01	5.080015e+01
2.320000e-06	1.516579e-06	8.007761e-10	1.136213e+01	5.298751e+01
2.330000e-06	1.546797e-06	8.351009e-10	1.158852e+01	5.517327e+01
2.340000e-06	1.576891e-06	8.687194e-10	1.181398e+01	5.735687e+01
2.350000e-06	1.606951e-06	9.020677e-10	1.203919e+01	5.953778e+01
2.360000e-06	1.636972e-06	9.368331e-10	1.226410e+01	6.171551e+01
2.370000e-06	1.666824e-06	9.706812e-10	1.248776e+01	6.388960e+01
2.380000e-06	1.696591e-06	1.004012e-09	1.271076e+01	6.605962e+01
2.390000e-06	1.726329e-06	1.035087e-09	1.293357e+01	6.822518e+01
2.400000e-06	1.755923e-06	1.064622e-09	1.315528e+01	7.038593e+01
2.410000e-06	1.785349e-06	1.097418e-09	1.337574e+01	7.254153e+01
2.420000e-06	1.814615e-06	1.130589e-09	1.359500e+01	7.469166e+01
2.430000e-06	1.843804e-06	1.162198e-09	1.381368e+01	7.683602e+01
2.440000e-06	1.872862e-06	1.193723e-09	1.403138e+01	7.897433e+01
2.450000e-06	1.901713e-06	1.228011e-09	1.424753e+01	8.110629e+01
2.460000e-06	1.930381e-06	1.262359e-09	1.446231e+01	8.323163e+01
2.470000e-06	1.958890e-06	1.294926e-09	1.467590e+01	8.535005e+01
2.480000e-06	1.987273e-06	1.325628e-09	1.488854e+01	8.746124e+01
2.490000e-06	2.015527e-06	1.355215e-09	1.510022e+01	8.956489e+01
2.500000e-06	2.043712e-06	1.384921e-09	1.531138e+01	9.166065e+01
2.510000e-06	2.071855e-06	1.414093e-09	1.552222e+01	9.374817e+01
2.520000e-06	2.099949e-06	1.443048e-09	1.573270e+01	9.582706e+01
2.530000e-06	2.127978e-06	1.473005e-09	1.594270e+01	9.789692e+01
2.540000e-06	2.155959e-06	1.504723e-09	1.615233e+01	9.995733e+01
2.550000e-06	2.183904e-06	1.538653e-09	1.636169e+01	1.020078e+02
2.560000e-06	2.211707e-06	1.573168e-09	1.656999e+01	1.040480e+02
2.570000e-06	2.239319e-06	1.606312e-09	1.677685e+01	1.060772e+02
2.580000e-06	2.266853e-06	1.636123e-09	1.698314e+01	1.080951e+02
2.590000e-06	2.294269e-06	1.664644e-09	1.718854e+01	1.101012e+02
2.600000e-06	2.321408e-06	1.693079e-09	1.739186e+01	1.120949e+02
2.610000e-06	2.348280e-06	1.720662e-09	1.759319e+01	1.140757e+02
2.620000e-06	2.374900e-06	1.749292e-09	1.779262e+01	1.160431e+02
2.630000e-06	2.401082e-06	1.777049e-09	1.798878e+01	1.179967e+02
2.640000e-06	2.426926e-06	1.804789e-09	1.818240e+01	1.199358e+02
2.650000e-06	2.452508e-06	1.833571e-09	1.837406e+01	1.218601e+02
2.660000e-06	2.477758e-06	1.864230e-09	1.856323e+01	1.237691e+02
2.670000e-06	2.502705e-06	1.893178e-09	1.875013e+01	1.256623e+02
2.680000e-06	2.527378e-06	1.919598e-09	1.893498e+01	1.275394e+02
2.690000e-06	2.551886e-06	1.945507e-09	1.911859e+01	1.293999e+02
2.700000e-06	2.576268e-06	1.972322e-09	1.930126e+01	1.312434e+02
2.710000e-06	2.600485e-06	1.998921e-09	1.948269e+01	1.330696e+02
2.720000e-06	2.624597e-06	2.024588e-09	1.966334e+01	1.348782e+02
2.730000e-06	2.648625e-06	2.050345e-09	1.984335e+01	1.366687e+02
2.740000e-06	2.672501e-06	2.078991e-09	2.002223e+01	1.384409e+02
2.750000e-06	2.696226e-06	2.109224e-09	2.019998e+01	1.401945e+02
2.760000e-06	2.719821e-06	2.136425e-09	2.037675e+01	1.419291e+02
2.770000e-06	2.743303e-06	2.162438e-09	2.055268e+01	1.436444e+02
2.780000e-06	2.766494e-06	2.190421e-09	2.072642e+01	1.453401e+02
2.790000e-06	2.789410e-06	2.218401e-09	2.089811e+01	1.470160e+02
2.800000e-06	2.812139e-06	2.243608e-09	2.106839e+01	1.486716e+02
2.810000e-06	2.834603e-06	2.266567e-09	2.123669e+01	1.503067e+02
2.820000e-06	2.856923e-06	2.290640e-09	2.140391e+01	1.519209e+02
2.830000e-06	2.879080e-06	2.314839e-09	2.156991e+01	1.535138e+02
2.840000e-06	2.901036e-06	2.338113e-09	2.173441e+01	1.550852e+02
2.850000e-06	2.922878e-06	2.362331e-09	2.189804e+01	1.566347e+02
2.860000e-06	2.944539e-06	2.385932e-09	2.206033e+01	1.581619e+02
2.870000e-06	2.965983e-06	2.408621e-09	2.222098e+01	1.596664e+02
2.880000e-06	2.987181e-06	2.428971e-09	2.237980e+01	1.611480e+02
2.890000e-06	3.008087e-06	2.448843e-09	2.253643e+01	1.626063e+02
2.900000e-06	3.028755e-06	2.470547e-09	2.269127e+01	1.640409e+02
