# Temperatura_=_20.0
# Concentracion g/m^3_=_12600.0
# C_Vs_to_Am_M_A/Vsm_=_65563218390.804596
# pendiente_HvsI_1/m_=_3716.3
# ordenada_HvsI_A/m_=_1297.0
# frecuencia_Hz_=_135033.25257396942

Tiempo_(s)	Campo_(V.s)	Magnetizacion_(V.s)	Campo_(kA/m)	Magnetizacion_(A/m)
0.000000e+00	-3.885979e-06	-3.313399e-09	-2.913366e+01	-2.163388e+02
1.000000e-08	-3.886113e-06	-3.313575e-09	-2.913467e+01	-2.163031e+02
2.000000e-08	-3.886076e-06	-3.312421e-09	-2.913439e+01	-2.162513e+02
3.000000e-08	-3.885867e-06	-3.314985e-09	-2.913282e+01	-2.161841e+02
4.000000e-08	-3.885406e-06	-3.325878e-09	-2.912937e+01	-2.161019e+02
5.000000e-08	-3.884540e-06	-3.336004e-09	-2.912288e+01	-2.160055e+02
6.000000e-08	-3.883181e-06	-3.345963e-09	-2.911269e+01	-2.158957e+02
7.000000e-08	-3.881267e-06	-3.318426e-09	-2.909834e+01	-2.157733e+02
8.000000e-08	-3.878805e-06	-3.270814e-09	-2.907988e+01	-2.156393e+02
9.000000e-08	-3.875972e-06	-3.238500e-09	-2.905864e+01	-2.154946e+02
1.000000e-07	-3.872812e-06	-3.292542e-09	-2.903495e+01	-2.153402e+02
1.100000e-07	-3.869303e-06	-3.307466e-09	-2.900865e+01	-2.151772e+02
1.200000e-07	-3.865601e-06	-3.298862e-09	-2.898088e+01	-2.150065e+02
1.300000e-07	-3.861754e-06	-3.346240e-09	-2.895205e+01	-2.148293e+02
1.400000e-07	-3.857757e-06	-3.256995e-09	-2.892208e+01	-2.146465e+02
1.500000e-07	-3.853622e-06	-3.200975e-09	-2.889108e+01	-2.144590e+02
1.600000e-07	-3.849372e-06	-3.247097e-09	-2.885922e+01	-2.142677e+02
1.700000e-07	-3.844961e-06	-3.326389e-09	-2.882615e+01	-2.140734e+02
1.800000e-07	-3.840198e-06	-3.305139e-09	-2.879044e+01	-2.138768e+02
1.900000e-07	-3.835007e-06	-3.254500e-09	-2.875152e+01	-2.136785e+02
2.000000e-07	-3.829584e-06	-3.244754e-09	-2.871086e+01	-2.134790e+02
2.100000e-07	-3.824023e-06	-3.268381e-09	-2.866918e+01	-2.132784e+02
2.200000e-07	-3.818202e-06	-3.289153e-09	-2.862553e+01	-2.130772e+02
2.300000e-07	-3.812035e-06	-3.270765e-09	-2.857930e+01	-2.128752e+02
2.400000e-07	-3.805489e-06	-3.247547e-09	-2.853022e+01	-2.126723e+02
2.500000e-07	-3.798676e-06	-3.207303e-09	-2.847915e+01	-2.124684e+02
2.600000e-07	-3.791603e-06	-3.250094e-09	-2.842612e+01	-2.122630e+02
2.700000e-07	-3.784289e-06	-3.304865e-09	-2.837128e+01	-2.120555e+02
2.800000e-07	-3.776812e-06	-3.275770e-09	-2.831522e+01	-2.118453e+02
2.900000e-07	-3.769066e-06	-3.164651e-09	-2.825715e+01	-2.116316e+02
3.000000e-07	-3.761135e-06	-3.177904e-09	-2.819770e+01	-2.114135e+02
3.100000e-07	-3.753111e-06	-3.280903e-09	-2.813753e+01	-2.111900e+02
3.200000e-07	-3.744900e-06	-3.299959e-09	-2.807597e+01	-2.109601e+02
3.300000e-07	-3.736446e-06	-3.180858e-09	-2.801260e+01	-2.107225e+02
3.400000e-07	-3.727628e-06	-3.133670e-09	-2.794649e+01	-2.104763e+02
3.500000e-07	-3.718472e-06	-3.218377e-09	-2.787784e+01	-2.102202e+02
3.600000e-07	-3.708915e-06	-3.271178e-09	-2.780619e+01	-2.099530e+02
3.700000e-07	-3.698811e-06	-3.201449e-09	-2.773044e+01	-2.096737e+02
3.800000e-07	-3.688161e-06	-3.141103e-09	-2.765059e+01	-2.093812e+02
3.900000e-07	-3.677111e-06	-3.176993e-09	-2.756775e+01	-2.090744e+02
4.000000e-07	-3.665856e-06	-3.214776e-09	-2.748337e+01	-2.087526e+02
4.100000e-07	-3.654344e-06	-3.202533e-09	-2.739707e+01	-2.084148e+02
4.200000e-07	-3.642508e-06	-3.163772e-09	-2.730833e+01	-2.080603e+02
4.300000e-07	-3.630313e-06	-3.138570e-09	-2.721690e+01	-2.076886e+02
4.400000e-07	-3.617846e-06	-3.133459e-09	-2.712344e+01	-2.072993e+02
4.500000e-07	-3.605201e-06	-3.174029e-09	-2.702864e+01	-2.068920e+02
4.600000e-07	-3.592389e-06	-3.182133e-09	-2.693258e+01	-2.064666e+02
4.700000e-07	-3.579263e-06	-3.125977e-09	-2.683417e+01	-2.060231e+02
4.800000e-07	-3.565784e-06	-3.080327e-09	-2.673313e+01	-2.055617e+02
4.900000e-07	-3.552088e-06	-3.130817e-09	-2.663045e+01	-2.050826e+02
5.000000e-07	-3.538134e-06	-3.167246e-09	-2.652583e+01	-2.045862e+02
5.100000e-07	-3.523875e-06	-3.120229e-09	-2.641893e+01	-2.040730e+02
5.200000e-07	-3.509315e-06	-3.065765e-09	-2.630977e+01	-2.035436e+02
5.300000e-07	-3.494394e-06	-3.084098e-09	-2.619790e+01	-2.029988e+02
5.400000e-07	-3.479167e-06	-3.107404e-09	-2.608374e+01	-2.024393e+02
5.500000e-07	-3.463621e-06	-3.089850e-09	-2.596719e+01	-2.018659e+02
5.600000e-07	-3.447630e-06	-3.059178e-09	-2.584731e+01	-2.012795e+02
5.700000e-07	-3.431279e-06	-3.048231e-09	-2.572472e+01	-2.006810e+02
5.800000e-07	-3.414647e-06	-3.045845e-09	-2.560003e+01	-2.000712e+02
5.900000e-07	-3.397811e-06	-3.048186e-09	-2.547381e+01	-1.994510e+02
6.000000e-07	-3.380709e-06	-3.038710e-09	-2.534559e+01	-1.988211e+02
6.100000e-07	-3.363388e-06	-3.010401e-09	-2.521574e+01	-1.981824e+02
6.200000e-07	-3.345972e-06	-2.996484e-09	-2.508517e+01	-1.975354e+02
6.300000e-07	-3.328363e-06	-3.005883e-09	-2.495315e+01	-1.968809e+02
6.400000e-07	-3.310565e-06	-3.005863e-09	-2.481971e+01	-1.962193e+02
6.500000e-07	-3.292555e-06	-2.978494e-09	-2.468469e+01	-1.955510e+02
6.600000e-07	-3.274327e-06	-2.954336e-09	-2.454803e+01	-1.948763e+02
6.700000e-07	-3.255889e-06	-2.951317e-09	-2.440980e+01	-1.941954e+02
6.800000e-07	-3.237102e-06	-2.956886e-09	-2.426895e+01	-1.935085e+02
6.900000e-07	-3.217962e-06	-2.943790e-09	-2.412545e+01	-1.928154e+02
7.000000e-07	-3.198615e-06	-2.920559e-09	-2.398041e+01	-1.921162e+02
7.100000e-07	-3.179102e-06	-2.910041e-09	-2.383412e+01	-1.914106e+02
7.200000e-07	-3.159417e-06	-2.915333e-09	-2.368654e+01	-1.906983e+02
7.300000e-07	-3.139616e-06	-2.906818e-09	-2.353809e+01	-1.899790e+02
7.400000e-07	-3.119693e-06	-2.884640e-09	-2.338872e+01	-1.892524e+02
7.500000e-07	-3.099672e-06	-2.870223e-09	-2.323862e+01	-1.885180e+02
7.600000e-07	-3.079505e-06	-2.867670e-09	-2.308743e+01	-1.877753e+02
7.700000e-07	-3.059076e-06	-2.855781e-09	-2.293427e+01	-1.870239e+02
7.800000e-07	-3.038425e-06	-2.837630e-09	-2.277945e+01	-1.862634e+02
7.900000e-07	-3.017593e-06	-2.823555e-09	-2.262327e+01	-1.854932e+02
8.000000e-07	-2.996602e-06	-2.814159e-09	-2.246590e+01	-1.847131e+02
8.100000e-07	-2.975406e-06	-2.803029e-09	-2.230698e+01	-1.839227e+02
8.200000e-07	-2.953937e-06	-2.790801e-09	-2.214603e+01	-1.831216e+02
8.300000e-07	-2.932273e-06	-2.776180e-09	-2.198361e+01	-1.823096e+02
8.400000e-07	-2.910449e-06	-2.761811e-09	-2.181999e+01	-1.814866e+02
8.500000e-07	-2.888447e-06	-2.750234e-09	-2.165504e+01	-1.806525e+02
8.600000e-07	-2.866296e-06	-2.739499e-09	-2.148897e+01	-1.798072e+02
8.700000e-07	-2.843992e-06	-2.726483e-09	-2.132176e+01	-1.789510e+02
8.800000e-07	-2.821420e-06	-2.712421e-09	-2.115253e+01	-1.780838e+02
8.900000e-07	-2.798590e-06	-2.699742e-09	-2.098137e+01	-1.772059e+02
9.000000e-07	-2.775618e-06	-2.685043e-09	-2.080915e+01	-1.763176e+02
9.100000e-07	-2.752467e-06	-2.668162e-09	-2.063558e+01	-1.754193e+02
9.200000e-07	-2.729030e-06	-2.652596e-09	-2.045987e+01	-1.745113e+02
9.300000e-07	-2.705354e-06	-2.641285e-09	-2.028237e+01	-1.735941e+02
9.400000e-07	-2.681542e-06	-2.630555e-09	-2.010385e+01	-1.726681e+02
9.500000e-07	-2.657669e-06	-2.616602e-09	-1.992487e+01	-1.717336e+02
9.600000e-07	-2.633728e-06	-2.599804e-09	-1.974538e+01	-1.707913e+02
9.700000e-07	-2.609638e-06	-2.585151e-09	-1.956478e+01	-1.698414e+02
9.800000e-07	-2.585428e-06	-2.572441e-09	-1.938327e+01	-1.688844e+02
9.900000e-07	-2.561128e-06	-2.557408e-09	-1.920109e+01	-1.679206e+02
1.000000e-06	-2.536643e-06	-2.537899e-09	-1.901753e+01	-1.669503e+02
1.010000e-06	-2.511987e-06	-2.519243e-09	-1.883268e+01	-1.659736e+02
1.020000e-06	-2.487102e-06	-2.504567e-09	-1.864611e+01	-1.649908e+02
1.030000e-06	-2.461898e-06	-2.489910e-09	-1.845715e+01	-1.640018e+02
1.040000e-06	-2.436384e-06	-2.470631e-09	-1.826587e+01	-1.630065e+02
1.050000e-06	-2.410549e-06	-2.451277e-09	-1.807218e+01	-1.620050e+02
1.060000e-06	-2.384471e-06	-2.436426e-09	-1.787668e+01	-1.609968e+02
1.070000e-06	-2.358121e-06	-2.423739e-09	-1.767912e+01	-1.599816e+02
1.080000e-06	-2.331423e-06	-2.408178e-09	-1.747896e+01	-1.589591e+02
1.090000e-06	-2.304399e-06	-2.388786e-09	-1.727637e+01	-1.579288e+02
1.100000e-06	-2.277106e-06	-2.367874e-09	-1.707175e+01	-1.568900e+02
1.110000e-06	-2.249657e-06	-2.348389e-09	-1.686596e+01	-1.558422e+02
1.120000e-06	-2.222069e-06	-2.330199e-09	-1.665913e+01	-1.547846e+02
1.130000e-06	-2.194297e-06	-2.312363e-09	-1.645092e+01	-1.537166e+02
1.140000e-06	-2.166448e-06	-2.293840e-09	-1.624213e+01	-1.526373e+02
1.150000e-06	-2.138540e-06	-2.277137e-09	-1.603290e+01	-1.515461e+02
1.160000e-06	-2.110574e-06	-2.262557e-09	-1.582323e+01	-1.504421e+02
1.170000e-06	-2.082571e-06	-2.246573e-09	-1.561329e+01	-1.493247e+02
1.180000e-06	-2.054455e-06	-2.230937e-09	-1.540250e+01	-1.481933e+02
1.190000e-06	-2.026283e-06	-2.214896e-09	-1.519130e+01	-1.470470e+02
1.200000e-06	-1.997997e-06	-2.195670e-09	-1.497923e+01	-1.458855e+02
1.210000e-06	-1.969541e-06	-2.176484e-09	-1.476589e+01	-1.447082e+02
1.220000e-06	-1.941063e-06	-2.157873e-09	-1.455239e+01	-1.435147e+02
1.230000e-06	-1.912439e-06	-2.138986e-09	-1.433779e+01	-1.423048e+02
1.240000e-06	-1.883640e-06	-2.118700e-09	-1.412188e+01	-1.410781e+02
1.250000e-06	-1.854723e-06	-2.097681e-09	-1.390509e+01	-1.398348e+02
1.260000e-06	-1.825620e-06	-2.079762e-09	-1.368690e+01	-1.385747e+02
1.270000e-06	-1.796383e-06	-2.063055e-09	-1.346770e+01	-1.372980e+02
1.280000e-06	-1.766998e-06	-2.043331e-09	-1.324740e+01	-1.360050e+02
1.290000e-06	-1.737388e-06	-2.021505e-09	-1.302541e+01	-1.346960e+02
1.300000e-06	-1.707676e-06	-2.001476e-09	-1.280266e+01	-1.333715e+02
1.310000e-06	-1.677920e-06	-1.984642e-09	-1.257957e+01	-1.320320e+02
1.320000e-06	-1.648049e-06	-1.965883e-09	-1.235562e+01	-1.306782e+02
1.330000e-06	-1.618112e-06	-1.943125e-09	-1.213119e+01	-1.293107e+02
1.340000e-06	-1.588081e-06	-1.919609e-09	-1.190604e+01	-1.279303e+02
1.350000e-06	-1.557967e-06	-1.897842e-09	-1.168027e+01	-1.265378e+02
1.360000e-06	-1.527748e-06	-1.876826e-09	-1.145372e+01	-1.251340e+02
1.370000e-06	-1.497420e-06	-1.855240e-09	-1.122634e+01	-1.237196e+02
1.380000e-06	-1.467086e-06	-1.834323e-09	-1.099892e+01	-1.222956e+02
1.390000e-06	-1.436714e-06	-1.815023e-09	-1.077122e+01	-1.208627e+02
1.400000e-06	-1.406230e-06	-1.796066e-09	-1.054268e+01	-1.194217e+02
1.410000e-06	-1.375648e-06	-1.775140e-09	-1.031340e+01	-1.179734e+02
1.420000e-06	-1.344896e-06	-1.752265e-09	-1.008285e+01	-1.165182e+02
1.430000e-06	-1.313980e-06	-1.729778e-09	-9.851067e+00	-1.150569e+02
1.440000e-06	-1.282967e-06	-1.706610e-09	-9.618558e+00	-1.135900e+02
1.450000e-06	-1.251842e-06	-1.682625e-09	-9.385211e+00	-1.121178e+02
1.460000e-06	-1.220693e-06	-1.660187e-09	-9.151688e+00	-1.106406e+02
1.470000e-06	-1.189452e-06	-1.641265e-09	-8.917472e+00	-1.091588e+02
1.480000e-06	-1.158072e-06	-1.623497e-09	-8.682210e+00	-1.076722e+02
1.490000e-06	-1.126689e-06	-1.601819e-09	-8.446925e+00	-1.061811e+02
1.500000e-06	-1.095217e-06	-1.576340e-09	-8.210977e+00	-1.046851e+02
1.510000e-06	-1.063576e-06	-1.550638e-09	-7.973762e+00	-1.031842e+02
1.520000e-06	-1.031832e-06	-1.529465e-09	-7.735770e+00	-1.016780e+02
1.530000e-06	-1.000010e-06	-1.509835e-09	-7.497198e+00	-1.001661e+02
1.540000e-06	-9.681934e-07	-1.487994e-09	-7.258665e+00	-9.864798e+01
1.550000e-06	-9.364015e-07	-1.461929e-09	-7.020318e+00	-9.712313e+01
1.560000e-06	-9.045724e-07	-1.435411e-09	-6.781690e+00	-9.559090e+01
1.570000e-06	-8.726951e-07	-1.410744e-09	-6.542703e+00	-9.405062e+01
1.580000e-06	-8.407605e-07	-1.388044e-09	-6.303285e+00	-9.250156e+01
1.590000e-06	-8.088224e-07	-1.364876e-09	-6.063841e+00	-9.094297e+01
1.600000e-06	-7.769040e-07	-1.340176e-09	-5.824545e+00	-8.937411e+01
1.610000e-06	-7.449291e-07	-1.315087e-09	-5.584826e+00	-8.779420e+01
1.620000e-06	-7.129078e-07	-1.292097e-09	-5.344758e+00	-8.620249e+01
1.630000e-06	-6.809018e-07	-1.266861e-09	-5.104805e+00	-8.459827e+01
1.640000e-06	-6.489116e-07	-1.236583e-09	-4.864970e+00	-8.298084e+01
1.650000e-06	-6.168958e-07	-1.207853e-09	-4.624944e+00	-8.134956e+01
1.660000e-06	-5.848406e-07	-1.185042e-09	-4.384622e+00	-7.970385e+01
1.670000e-06	-5.527129e-07	-1.163690e-09	-4.143757e+00	-7.804318e+01
1.680000e-06	-5.205411e-07	-1.138027e-09	-3.902561e+00	-7.636711e+01
1.690000e-06	-4.883536e-07	-1.112020e-09	-3.661247e+00	-7.467528e+01
1.700000e-06	-4.561186e-07	-1.085973e-09	-3.419578e+00	-7.296741e+01
1.710000e-06	-4.238735e-07	-1.059852e-09	-3.177832e+00	-7.124331e+01
1.720000e-06	-3.916531e-07	-1.034749e-09	-2.936271e+00	-6.950287e+01
1.730000e-06	-3.594496e-07	-1.007758e-09	-2.694838e+00	-6.774610e+01
1.740000e-06	-3.272623e-07	-9.772475e-10	-2.453526e+00	-6.597307e+01
1.750000e-06	-2.950151e-07	-9.452612e-10	-2.211764e+00	-6.418396e+01
1.760000e-06	-2.626531e-07	-9.157511e-10	-1.969142e+00	-6.237901e+01
1.770000e-06	-2.302971e-07	-8.898715e-10	-1.726566e+00	-6.055855e+01
1.780000e-06	-1.980169e-07	-8.655005e-10	-1.484557e+00	-5.872301e+01
1.790000e-06	-1.657202e-07	-8.384402e-10	-1.242425e+00	-5.687284e+01
1.800000e-06	-1.334000e-07	-8.079968e-10	-1.000116e+00	-5.500857e+01
1.810000e-06	-1.010605e-07	-7.764382e-10	-7.576629e-01	-5.313077e+01
1.820000e-06	-6.867316e-08	-7.465207e-10	-5.148512e-01	-5.124007e+01
1.830000e-06	-3.618389e-08	-7.157866e-10	-2.712751e-01	-4.933709e+01
1.840000e-06	-3.718962e-09	-6.824862e-10	-2.788152e-02	-4.742250e+01
1.850000e-06	2.864241e-08	-6.505612e-10	2.147357e-01	-4.549696e+01
1.860000e-06	6.102888e-08	-6.215529e-10	4.575411e-01	-4.356113e+01
1.870000e-06	9.339486e-08	-5.953465e-10	7.001928e-01	-4.161567e+01
1.880000e-06	1.257792e-07	-5.685929e-10	9.429819e-01	-3.966119e+01
1.890000e-06	1.582076e-07	-5.391029e-10	1.186102e+00	-3.769829e+01
1.900000e-06	1.906081e-07	-5.081540e-10	1.429013e+00	-3.572751e+01
1.910000e-06	2.229931e-07	-4.798954e-10	1.671807e+00	-3.374937e+01
1.920000e-06	2.553665e-07	-4.540798e-10	1.914514e+00	-3.176431e+01
1.930000e-06	2.876962e-07	-4.251798e-10	2.156894e+00	-2.977271e+01
1.940000e-06	3.200015e-07	-3.933345e-10	2.399091e+00	-2.777490e+01
1.950000e-06	3.522646e-07	-3.640343e-10	2.640971e+00	-2.577113e+01
1.960000e-06	3.844667e-07	-3.372086e-10	2.882394e+00	-2.376160e+01
1.970000e-06	4.167103e-07	-3.101626e-10	3.124129e+00	-2.174641e+01
1.980000e-06	4.489823e-07	-2.810879e-10	3.366076e+00	-1.972561e+01
1.990000e-06	4.812351e-07	-2.517229e-10	3.607879e+00	-1.769919e+01
2.000000e-06	5.134180e-07	-2.213554e-10	3.849158e+00	-1.566708e+01
2.010000e-06	5.455469e-07	-1.887560e-10	4.090033e+00	-1.362912e+01
2.020000e-06	5.776841e-07	-1.581486e-10	4.330969e+00	-1.158514e+01
2.030000e-06	6.097904e-07	-1.295611e-10	4.571674e+00	-9.534899e+00
2.040000e-06	6.418968e-07	-9.874204e-11	4.812379e+00	-7.478139e+00
2.050000e-06	6.739649e-07	-6.653387e-11	5.052798e+00	-5.414564e+00
2.060000e-06	7.059821e-07	-3.663496e-11	5.292835e+00	-3.343863e+00
2.070000e-06	7.379702e-07	-9.535273e-12	5.532654e+00	-1.265719e+00
2.080000e-06	7.699041e-07	1.938024e-11	5.772066e+00	8.201826e-01
2.090000e-06	8.018428e-07	5.016234e-11	6.011514e+00	2.914143e+00
2.100000e-06	8.337817e-07	7.994584e-11	6.250964e+00	5.016442e+00
2.110000e-06	8.656586e-07	1.094968e-10	6.489949e+00	7.127323e+00
2.120000e-06	8.975442e-07	1.415654e-10	6.729000e+00	9.246989e+00
2.130000e-06	9.294429e-07	1.760830e-10	6.968148e+00	1.137559e+01
2.140000e-06	9.612711e-07	2.107978e-10	7.206768e+00	1.351323e+01
2.150000e-06	9.930790e-07	2.450310e-10	7.445236e+00	1.565993e+01
2.160000e-06	1.024853e-06	2.786272e-10	7.683448e+00	1.781564e+01
2.170000e-06	1.056557e-06	3.112289e-10	7.921135e+00	1.998026e+01
2.180000e-06	1.088166e-06	3.432010e-10	8.158116e+00	2.215359e+01
2.190000e-06	1.119700e-06	3.762417e-10	8.394526e+00	2.433535e+01
2.200000e-06	1.151195e-06	4.079807e-10	8.630648e+00	2.652519e+01
2.210000e-06	1.182608e-06	4.382396e-10	8.866161e+00	2.872268e+01
2.220000e-06	1.213895e-06	4.675882e-10	9.100724e+00	3.092732e+01
2.230000e-06	1.245051e-06	4.979240e-10	9.334304e+00	3.313853e+01
2.240000e-06	1.276083e-06	5.315298e-10	9.566952e+00	3.535567e+01
2.250000e-06	1.307013e-06	5.658778e-10	9.798835e+00	3.757804e+01
2.260000e-06	1.337842e-06	5.981951e-10	1.002997e+01	3.980489e+01
2.270000e-06	1.368449e-06	6.295074e-10	1.025943e+01	4.203542e+01
2.280000e-06	1.398966e-06	6.613788e-10	1.048822e+01	4.426883e+01
2.290000e-06	1.429510e-06	6.949074e-10	1.071721e+01	4.650425e+01
2.300000e-06	1.459933e-06	7.288245e-10	1.094529e+01	4.874084e+01
2.310000e-06	1.490174e-06	7.609469e-10	1.117202e+01	5.097772e+01
2.320000e-06	1.520298e-06	7.927628e-10	1.139786e+01	5.321405e+01
2.330000e-06	1.550333e-06	8.280610e-10	1.162304e+01	5.544898e+01
2.340000e-06	1.580287e-06	8.653933e-10	1.184760e+01	5.768172e+01
2.350000e-06	1.610198e-06	9.024957e-10	1.207185e+01	5.991147e+01
2.360000e-06	1.640053e-06	9.390897e-10	1.229568e+01	6.213752e+01
2.370000e-06	1.669861e-06	9.732427e-10	1.251916e+01	6.435918e+01
2.380000e-06	1.699638e-06	1.005874e-09	1.274240e+01	6.657580e+01
2.390000e-06	1.729357e-06	1.039035e-09	1.296520e+01	6.878683e+01
2.400000e-06	1.758984e-06	1.072303e-09	1.318732e+01	7.099174e+01
2.410000e-06	1.788437e-06	1.104764e-09	1.340813e+01	7.319008e+01
2.420000e-06	1.817698e-06	1.137684e-09	1.362751e+01	7.538146e+01
2.430000e-06	1.846841e-06	1.170294e-09	1.384599e+01	7.756552e+01
2.440000e-06	1.875854e-06	1.203052e-09	1.406351e+01	7.974200e+01
2.450000e-06	1.904686e-06	1.237746e-09	1.427967e+01	8.191065e+01
2.460000e-06	1.933336e-06	1.272461e-09	1.449446e+01	8.407127e+01
2.470000e-06	1.961724e-06	1.305224e-09	1.470729e+01	8.622371e+01
2.480000e-06	1.989937e-06	1.336106e-09	1.491880e+01	8.836783e+01
2.490000e-06	2.018110e-06	1.365020e-09	1.513002e+01	9.050352e+01
2.500000e-06	2.046191e-06	1.395815e-09	1.534054e+01	9.263066e+01
2.510000e-06	2.074235e-06	1.426995e-09	1.555080e+01	9.474915e+01
2.520000e-06	2.102227e-06	1.456186e-09	1.576065e+01	9.685888e+01
2.530000e-06	2.130160e-06	1.485543e-09	1.597007e+01	9.895970e+01
2.540000e-06	2.158075e-06	1.518320e-09	1.617936e+01	1.010514e+02
2.550000e-06	2.185928e-06	1.553937e-09	1.638817e+01	1.031339e+02
2.560000e-06	2.213659e-06	1.588824e-09	1.659607e+01	1.052069e+02
2.570000e-06	2.241225e-06	1.621435e-09	1.680274e+01	1.072700e+02
2.580000e-06	2.268690e-06	1.651484e-09	1.700865e+01	1.093229e+02
2.590000e-06	2.295958e-06	1.681092e-09	1.721308e+01	1.113653e+02
2.600000e-06	2.322969e-06	1.709334e-09	1.741558e+01	1.133966e+02
2.610000e-06	2.349750e-06	1.737136e-09	1.761637e+01	1.154163e+02
2.620000e-06	2.376153e-06	1.765918e-09	1.781431e+01	1.174238e+02
2.630000e-06	2.402267e-06	1.796244e-09	1.801009e+01	1.194184e+02
2.640000e-06	2.428106e-06	1.827018e-09	1.820381e+01	1.213995e+02
2.650000e-06	2.453570e-06	1.856390e-09	1.839472e+01	1.233662e+02
2.660000e-06	2.478740e-06	1.883226e-09	1.858342e+01	1.253178e+02
2.670000e-06	2.503685e-06	1.909127e-09	1.877043e+01	1.272534e+02
2.680000e-06	2.528429e-06	1.934823e-09	1.895594e+01	1.291721e+02
2.690000e-06	2.552918e-06	1.959179e-09	1.913954e+01	1.310730e+02
2.700000e-06	2.577173e-06	1.982479e-09	1.932139e+01	1.329553e+02
2.710000e-06	2.601311e-06	2.007464e-09	1.950235e+01	1.348180e+02
2.720000e-06	2.625362e-06	2.034858e-09	1.968266e+01	1.366603e+02
2.730000e-06	2.649291e-06	2.062170e-09	1.986206e+01	1.384814e+02
2.740000e-06	2.673109e-06	2.091109e-09	2.004063e+01	1.402803e+02
2.750000e-06	2.696796e-06	2.119973e-09	2.021821e+01	1.420564e+02
2.760000e-06	2.720276e-06	2.147252e-09	2.039425e+01	1.438088e+02
2.770000e-06	2.743563e-06	2.174789e-09	2.056883e+01	1.455371e+02
2.780000e-06	2.766690e-06	2.201771e-09	2.074222e+01	1.472406e+02
2.790000e-06	2.789547e-06	2.226265e-09	2.091358e+01	1.489188e+02
2.800000e-06	2.812171e-06	2.248641e-09	2.108319e+01	1.505714e+02
2.810000e-06	2.834637e-06	2.271334e-09	2.125162e+01	1.521979e+02
2.820000e-06	2.856944e-06	2.295711e-09	2.141886e+01	1.537983e+02
2.830000e-06	2.879054e-06	2.320707e-09	2.158462e+01	1.553724e+02
2.840000e-06	2.900956e-06	2.345930e-09	2.174883e+01	1.569201e+02
2.850000e-06	2.922744e-06	2.369525e-09	2.191217e+01	1.584415e+02
2.860000e-06	2.944336e-06	2.391072e-09	2.207405e+01	1.599369e+02
2.870000e-06	2.965713e-06	2.413648e-09	2.223432e+01	1.614063e+02
2.880000e-06	2.986935e-06	2.437923e-09	2.239342e+01	1.628502e+02
2.890000e-06	3.007891e-06	2.458458e-09	2.255053e+01	1.642690e+02
2.900000e-06	3.028542e-06	2.475368e-09	2.270535e+01	1.656630e+02
