# Temperatura_=_20.0
# Concentracion g/m^3_=_12600.0
# C_Vs_to_Am_M_A/Vsm_=_65563218390.804596
# pendiente_HvsI_1/m_=_3716.3
# ordenada_HvsI_A/m_=_1297.0
# frecuencia_Hz_=_135041.73021851337

Tiempo_(s)	Campo_(V.s)	Magnetizacion_(V.s)	Campo_(kA/m)	Magnetizacion_(A/m)
0.000000e+00	-3.878529e-06	-3.292505e-09	-2.914188e+01	-2.170748e+02
1.000000e-08	-3.878741e-06	-3.294265e-09	-2.914347e+01	-2.171220e+02
2.000000e-08	-3.878778e-06	-3.296866e-09	-2.914375e+01	-2.171522e+02
3.000000e-08	-3.878617e-06	-3.297527e-09	-2.914254e+01	-2.171651e+02
4.000000e-08	-3.878275e-06	-3.295989e-09	-2.913997e+01	-2.171601e+02
5.000000e-08	-3.877682e-06	-3.298837e-09	-2.913551e+01	-2.171370e+02
6.000000e-08	-3.876740e-06	-3.310365e-09	-2.912844e+01	-2.170954e+02
7.000000e-08	-3.875370e-06	-3.310088e-09	-2.911814e+01	-2.170353e+02
8.000000e-08	-3.873481e-06	-3.264930e-09	-2.910395e+01	-2.169567e+02
9.000000e-08	-3.871056e-06	-3.298955e-09	-2.908572e+01	-2.168596e+02
1.000000e-07	-3.868078e-06	-3.353217e-09	-2.906335e+01	-2.167445e+02
1.100000e-07	-3.864718e-06	-3.335495e-09	-2.903811e+01	-2.166118e+02
1.200000e-07	-3.861217e-06	-3.268503e-09	-2.901180e+01	-2.164619e+02
1.300000e-07	-3.857490e-06	-3.253227e-09	-2.898379e+01	-2.162958e+02
1.400000e-07	-3.853564e-06	-3.198318e-09	-2.895430e+01	-2.161142e+02
1.500000e-07	-3.849548e-06	-3.184521e-09	-2.892413e+01	-2.159182e+02
1.600000e-07	-3.845384e-06	-3.286078e-09	-2.889284e+01	-2.157087e+02
1.700000e-07	-3.841047e-06	-3.309203e-09	-2.886025e+01	-2.154870e+02
1.800000e-07	-3.836502e-06	-3.273053e-09	-2.882610e+01	-2.152543e+02
1.900000e-07	-3.831617e-06	-3.203521e-09	-2.878939e+01	-2.150117e+02
2.000000e-07	-3.826382e-06	-3.230155e-09	-2.875006e+01	-2.147606e+02
2.100000e-07	-3.820817e-06	-3.277821e-09	-2.870825e+01	-2.145022e+02
2.200000e-07	-3.815075e-06	-3.318255e-09	-2.866511e+01	-2.142376e+02
2.300000e-07	-3.809197e-06	-3.275150e-09	-2.862094e+01	-2.139680e+02
2.400000e-07	-3.803032e-06	-3.210213e-09	-2.857462e+01	-2.136943e+02
2.500000e-07	-3.796575e-06	-3.183097e-09	-2.852611e+01	-2.134174e+02
2.600000e-07	-3.789841e-06	-3.265617e-09	-2.847551e+01	-2.131380e+02
2.700000e-07	-3.782811e-06	-3.326898e-09	-2.842268e+01	-2.128567e+02
2.800000e-07	-3.775494e-06	-3.246382e-09	-2.836771e+01	-2.125739e+02
2.900000e-07	-3.767873e-06	-3.150619e-09	-2.831045e+01	-2.122898e+02
3.000000e-07	-3.760000e-06	-3.193588e-09	-2.825129e+01	-2.120045e+02
3.100000e-07	-3.752029e-06	-3.295727e-09	-2.819140e+01	-2.117177e+02
3.200000e-07	-3.743944e-06	-3.267358e-09	-2.813066e+01	-2.114292e+02
3.300000e-07	-3.735615e-06	-3.189756e-09	-2.806807e+01	-2.111384e+02
3.400000e-07	-3.727031e-06	-3.176574e-09	-2.800358e+01	-2.108446e+02
3.500000e-07	-3.718303e-06	-3.228758e-09	-2.793799e+01	-2.105472e+02
3.600000e-07	-3.709265e-06	-3.228756e-09	-2.787009e+01	-2.102451e+02
3.700000e-07	-3.699730e-06	-3.215073e-09	-2.779845e+01	-2.099373e+02
3.800000e-07	-3.689611e-06	-3.195642e-09	-2.772241e+01	-2.096228e+02
3.900000e-07	-3.678956e-06	-3.174741e-09	-2.764235e+01	-2.093004e+02
4.000000e-07	-3.667930e-06	-3.158137e-09	-2.755951e+01	-2.089690e+02
4.100000e-07	-3.656634e-06	-3.213986e-09	-2.747463e+01	-2.086274e+02
4.200000e-07	-3.645070e-06	-3.238939e-09	-2.738775e+01	-2.082745e+02
4.300000e-07	-3.633215e-06	-3.166908e-09	-2.729867e+01	-2.079094e+02
4.400000e-07	-3.621090e-06	-3.095693e-09	-2.720757e+01	-2.075310e+02
4.500000e-07	-3.608740e-06	-3.157823e-09	-2.711478e+01	-2.071387e+02
4.600000e-07	-3.596115e-06	-3.230083e-09	-2.701992e+01	-2.067317e+02
4.700000e-07	-3.583174e-06	-3.179733e-09	-2.692268e+01	-2.063094e+02
4.800000e-07	-3.569930e-06	-3.087190e-09	-2.682317e+01	-2.058716e+02
4.900000e-07	-3.556420e-06	-3.091860e-09	-2.672166e+01	-2.054179e+02
5.000000e-07	-3.542738e-06	-3.158099e-09	-2.661886e+01	-2.049483e+02
5.100000e-07	-3.528847e-06	-3.171963e-09	-2.651449e+01	-2.044630e+02
5.200000e-07	-3.514633e-06	-3.121091e-09	-2.640769e+01	-2.039622e+02
5.300000e-07	-3.500066e-06	-3.064954e-09	-2.629824e+01	-2.034463e+02
5.400000e-07	-3.484982e-06	-3.067443e-09	-2.618490e+01	-2.029159e+02
5.500000e-07	-3.469618e-06	-3.116558e-09	-2.606947e+01	-2.023715e+02
5.600000e-07	-3.454144e-06	-3.133213e-09	-2.595320e+01	-2.018140e+02
5.700000e-07	-3.438238e-06	-3.060672e-09	-2.583369e+01	-2.012441e+02
5.800000e-07	-3.421968e-06	-3.004191e-09	-2.571144e+01	-2.006626e+02
5.900000e-07	-3.405316e-06	-3.039611e-09	-2.558632e+01	-2.000705e+02
6.000000e-07	-3.388466e-06	-3.095111e-09	-2.545972e+01	-1.994686e+02
6.100000e-07	-3.371416e-06	-3.056476e-09	-2.533161e+01	-1.988577e+02
6.200000e-07	-3.354073e-06	-2.984187e-09	-2.520130e+01	-1.982385e+02
6.300000e-07	-3.336655e-06	-2.972982e-09	-2.507043e+01	-1.976118e+02
6.400000e-07	-3.319041e-06	-3.019998e-09	-2.493808e+01	-1.969782e+02
6.500000e-07	-3.301276e-06	-3.029431e-09	-2.480460e+01	-1.963381e+02
6.600000e-07	-3.283303e-06	-2.985218e-09	-2.466956e+01	-1.956919e+02
6.700000e-07	-3.265007e-06	-2.937589e-09	-2.453209e+01	-1.950398e+02
6.800000e-07	-3.246517e-06	-2.939192e-09	-2.439317e+01	-1.943820e+02
6.900000e-07	-3.227851e-06	-2.963010e-09	-2.425291e+01	-1.937184e+02
7.000000e-07	-3.208878e-06	-2.959263e-09	-2.411036e+01	-1.930489e+02
7.100000e-07	-3.189561e-06	-2.921020e-09	-2.396522e+01	-1.923731e+02
7.200000e-07	-3.169942e-06	-2.890787e-09	-2.381781e+01	-1.916908e+02
7.300000e-07	-3.150150e-06	-2.894452e-09	-2.366910e+01	-1.910013e+02
7.400000e-07	-3.130270e-06	-2.913043e-09	-2.351973e+01	-1.903042e+02
7.500000e-07	-3.110289e-06	-2.905125e-09	-2.336959e+01	-1.895989e+02
7.600000e-07	-3.090171e-06	-2.864443e-09	-2.321843e+01	-1.888846e+02
7.700000e-07	-3.069960e-06	-2.834302e-09	-2.306658e+01	-1.881606e+02
7.800000e-07	-3.049695e-06	-2.841676e-09	-2.291431e+01	-1.874264e+02
7.900000e-07	-3.029299e-06	-2.852225e-09	-2.276106e+01	-1.866812e+02
8.000000e-07	-3.008617e-06	-2.829667e-09	-2.260567e+01	-1.859244e+02
8.100000e-07	-2.987607e-06	-2.796344e-09	-2.244780e+01	-1.851555e+02
8.200000e-07	-2.966344e-06	-2.783608e-09	-2.228804e+01	-1.843740e+02
8.300000e-07	-2.944843e-06	-2.792473e-09	-2.212649e+01	-1.835795e+02
8.400000e-07	-2.923121e-06	-2.790574e-09	-2.196328e+01	-1.827718e+02
8.500000e-07	-2.901212e-06	-2.766752e-09	-2.179867e+01	-1.819506e+02
8.600000e-07	-2.879157e-06	-2.734289e-09	-2.163295e+01	-1.811159e+02
8.700000e-07	-2.856956e-06	-2.720795e-09	-2.146615e+01	-1.802678e+02
8.800000e-07	-2.834608e-06	-2.721064e-09	-2.129823e+01	-1.794065e+02
8.900000e-07	-2.812030e-06	-2.714334e-09	-2.112858e+01	-1.785321e+02
9.000000e-07	-2.789162e-06	-2.691215e-09	-2.095676e+01	-1.776452e+02
9.100000e-07	-2.766191e-06	-2.669139e-09	-2.078417e+01	-1.767461e+02
9.200000e-07	-2.743068e-06	-2.657722e-09	-2.061043e+01	-1.758353e+02
9.300000e-07	-2.719640e-06	-2.654561e-09	-2.043440e+01	-1.749135e+02
9.400000e-07	-2.696072e-06	-2.645226e-09	-2.025731e+01	-1.739813e+02
9.500000e-07	-2.672351e-06	-2.627654e-09	-2.007909e+01	-1.730392e+02
9.600000e-07	-2.648421e-06	-2.605199e-09	-1.989929e+01	-1.720880e+02
9.700000e-07	-2.624377e-06	-2.591424e-09	-1.971863e+01	-1.711281e+02
9.800000e-07	-2.600277e-06	-2.584659e-09	-1.953755e+01	-1.701602e+02
9.900000e-07	-2.576058e-06	-2.574772e-09	-1.935557e+01	-1.691849e+02
1.000000e-06	-2.551644e-06	-2.555590e-09	-1.917214e+01	-1.682024e+02
1.010000e-06	-2.527119e-06	-2.534607e-09	-1.898787e+01	-1.672132e+02
1.020000e-06	-2.502496e-06	-2.520971e-09	-1.880286e+01	-1.662175e+02
1.030000e-06	-2.477675e-06	-2.512854e-09	-1.861636e+01	-1.652155e+02
1.040000e-06	-2.452584e-06	-2.499185e-09	-1.842783e+01	-1.642073e+02
1.050000e-06	-2.427146e-06	-2.475121e-09	-1.823671e+01	-1.631927e+02
1.060000e-06	-2.401371e-06	-2.452087e-09	-1.804304e+01	-1.621717e+02
1.070000e-06	-2.375400e-06	-2.439767e-09	-1.784790e+01	-1.611439e+02
1.080000e-06	-2.349203e-06	-2.432914e-09	-1.765107e+01	-1.601091e+02
1.090000e-06	-2.322506e-06	-2.417346e-09	-1.745048e+01	-1.590666e+02
1.100000e-06	-2.295495e-06	-2.394396e-09	-1.724752e+01	-1.580162e+02
1.110000e-06	-2.268252e-06	-2.373452e-09	-1.704283e+01	-1.569571e+02
1.120000e-06	-2.240812e-06	-2.360536e-09	-1.683666e+01	-1.558888e+02
1.130000e-06	-2.213302e-06	-2.347510e-09	-1.662996e+01	-1.548106e+02
1.140000e-06	-2.185585e-06	-2.328410e-09	-1.642170e+01	-1.537219e+02
1.150000e-06	-2.157716e-06	-2.303091e-09	-1.621231e+01	-1.526221e+02
1.160000e-06	-2.129776e-06	-2.282803e-09	-1.600237e+01	-1.515105e+02
1.170000e-06	-2.101781e-06	-2.268864e-09	-1.579203e+01	-1.503865e+02
1.180000e-06	-2.073718e-06	-2.254070e-09	-1.558118e+01	-1.492497e+02
1.190000e-06	-2.045587e-06	-2.233054e-09	-1.536981e+01	-1.480995e+02
1.200000e-06	-2.017367e-06	-2.210962e-09	-1.515777e+01	-1.469356e+02
1.210000e-06	-1.988999e-06	-2.193402e-09	-1.494462e+01	-1.457576e+02
1.220000e-06	-1.960527e-06	-2.179415e-09	-1.473070e+01	-1.445653e+02
1.230000e-06	-1.931983e-06	-2.161971e-09	-1.451623e+01	-1.433586e+02
1.240000e-06	-1.903339e-06	-2.139848e-09	-1.430101e+01	-1.421375e+02
1.250000e-06	-1.874527e-06	-2.114636e-09	-1.408452e+01	-1.409020e+02
1.260000e-06	-1.845551e-06	-2.092127e-09	-1.386681e+01	-1.396521e+02
1.270000e-06	-1.816448e-06	-2.075000e-09	-1.364814e+01	-1.383882e+02
1.280000e-06	-1.787173e-06	-2.060786e-09	-1.342818e+01	-1.371104e+02
1.290000e-06	-1.757799e-06	-2.040261e-09	-1.320747e+01	-1.358192e+02
1.300000e-06	-1.728327e-06	-2.015497e-09	-1.298603e+01	-1.345148e+02
1.310000e-06	-1.698757e-06	-1.997263e-09	-1.276385e+01	-1.331978e+02
1.320000e-06	-1.669079e-06	-1.983180e-09	-1.254086e+01	-1.318685e+02
1.330000e-06	-1.639249e-06	-1.964924e-09	-1.231673e+01	-1.305275e+02
1.340000e-06	-1.609328e-06	-1.937788e-09	-1.209191e+01	-1.291752e+02
1.350000e-06	-1.579353e-06	-1.910585e-09	-1.186669e+01	-1.278119e+02
1.360000e-06	-1.549278e-06	-1.889803e-09	-1.164072e+01	-1.264383e+02
1.370000e-06	-1.519081e-06	-1.872486e-09	-1.141383e+01	-1.250547e+02
1.380000e-06	-1.488806e-06	-1.849712e-09	-1.118635e+01	-1.236615e+02
1.390000e-06	-1.458474e-06	-1.825090e-09	-1.095845e+01	-1.222590e+02
1.400000e-06	-1.428060e-06	-1.804765e-09	-1.072993e+01	-1.208476e+02
1.410000e-06	-1.397571e-06	-1.788538e-09	-1.050084e+01	-1.194274e+02
1.420000e-06	-1.367032e-06	-1.768395e-09	-1.027139e+01	-1.179987e+02
1.430000e-06	-1.336357e-06	-1.744020e-09	-1.004091e+01	-1.165616e+02
1.440000e-06	-1.305581e-06	-1.718999e-09	-9.809671e+00	-1.151163e+02
1.450000e-06	-1.274740e-06	-1.697447e-09	-9.577941e+00	-1.136628e+02
1.460000e-06	-1.243817e-06	-1.678048e-09	-9.345593e+00	-1.122011e+02
1.470000e-06	-1.212875e-06	-1.655935e-09	-9.113107e+00	-1.107313e+02
1.480000e-06	-1.181739e-06	-1.630008e-09	-8.879164e+00	-1.092533e+02
1.490000e-06	-1.150320e-06	-1.605452e-09	-8.643093e+00	-1.077670e+02
1.500000e-06	-1.118808e-06	-1.585662e-09	-8.406325e+00	-1.062723e+02
1.510000e-06	-1.087318e-06	-1.567295e-09	-8.169714e+00	-1.047692e+02
1.520000e-06	-1.055782e-06	-1.544452e-09	-7.932768e+00	-1.032575e+02
1.530000e-06	-1.024155e-06	-1.518676e-09	-7.695131e+00	-1.017371e+02
1.540000e-06	-9.924391e-07	-1.495036e-09	-7.456831e+00	-1.002080e+02
1.550000e-06	-9.606770e-07	-1.474599e-09	-7.218182e+00	-9.866997e+01
1.560000e-06	-9.288759e-07	-1.451535e-09	-6.979240e+00	-9.712292e+01
1.570000e-06	-8.970193e-07	-1.424659e-09	-6.739881e+00	-9.556675e+01
1.580000e-06	-8.651250e-07	-1.398991e-09	-6.500239e+00	-9.400134e+01
1.590000e-06	-8.331761e-07	-1.375254e-09	-6.260187e+00	-9.242659e+01
1.600000e-06	-8.012259e-07	-1.354648e-09	-6.020124e+00	-9.084239e+01
1.610000e-06	-7.692974e-07	-1.332944e-09	-5.780224e+00	-8.924864e+01
1.620000e-06	-7.373180e-07	-1.310871e-09	-5.539943e+00	-8.764521e+01
1.630000e-06	-7.052861e-07	-1.287931e-09	-5.299267e+00	-8.603198e+01
1.640000e-06	-6.732273e-07	-1.261055e-09	-5.058389e+00	-8.440882e+01
1.650000e-06	-6.411327e-07	-1.235327e-09	-4.817241e+00	-8.277557e+01
1.660000e-06	-6.090577e-07	-1.213038e-09	-4.576241e+00	-8.113206e+01
1.670000e-06	-5.770012e-07	-1.187079e-09	-4.335380e+00	-7.947812e+01
1.680000e-06	-5.449112e-07	-1.157065e-09	-4.094267e+00	-7.781354e+01
1.690000e-06	-5.127828e-07	-1.132432e-09	-3.852866e+00	-7.613809e+01
1.700000e-06	-4.806156e-07	-1.113486e-09	-3.611173e+00	-7.445154e+01
1.710000e-06	-4.484286e-07	-1.089370e-09	-3.369331e+00	-7.275363e+01
1.720000e-06	-4.162374e-07	-1.060645e-09	-3.127458e+00	-7.104409e+01
1.730000e-06	-3.840444e-07	-1.034795e-09	-2.885572e+00	-6.932265e+01
1.740000e-06	-3.518431e-07	-1.012907e-09	-2.643622e+00	-6.758904e+01
1.750000e-06	-3.195809e-07	-9.877749e-10	-2.401216e+00	-6.584297e+01
1.760000e-06	-2.873000e-07	-9.571572e-10	-2.158669e+00	-6.408419e+01
1.770000e-06	-2.550579e-07	-9.247503e-10	-1.916413e+00	-6.231244e+01
1.780000e-06	-2.228415e-07	-8.958133e-10	-1.674351e+00	-6.052751e+01
1.790000e-06	-1.905969e-07	-8.720866e-10	-1.432077e+00	-5.872921e+01
1.800000e-06	-1.583025e-07	-8.483300e-10	-1.189428e+00	-5.691739e+01
1.810000e-06	-1.260009e-07	-8.198297e-10	-9.467257e-01	-5.509194e+01
1.820000e-06	-9.369562e-08	-7.901176e-10	-7.039952e-01	-5.325280e+01
1.830000e-06	-6.135596e-08	-7.608107e-10	-4.610067e-01	-5.139999e+01
1.840000e-06	-2.900967e-08	-7.317281e-10	-2.179682e-01	-4.953356e+01
1.850000e-06	3.327315e-09	-7.011416e-10	2.500025e-02	-4.765363e+01
1.860000e-06	3.570100e-08	-6.663267e-10	2.682445e-01	-4.576038e+01
1.870000e-06	6.807137e-08	-6.322722e-10	5.114639e-01	-4.385405e+01
1.880000e-06	1.004143e-07	-6.006249e-10	7.544770e-01	-4.193494e+01
1.890000e-06	1.328305e-07	-5.759327e-10	9.980408e-01	-4.000339e+01
1.900000e-06	1.652031e-07	-5.498509e-10	1.241277e+00	-3.805978e+01
1.910000e-06	1.974618e-07	-5.208076e-10	1.483657e+00	-3.610454e+01
1.920000e-06	2.297371e-07	-4.935167e-10	1.726162e+00	-3.413811e+01
1.930000e-06	2.619835e-07	-4.650809e-10	1.968450e+00	-3.216096e+01
1.940000e-06	2.942224e-07	-4.341611e-10	2.210682e+00	-3.017354e+01
1.950000e-06	3.264907e-07	-4.007645e-10	2.453134e+00	-2.817632e+01
1.960000e-06	3.587645e-07	-3.678540e-10	2.695628e+00	-2.616973e+01
1.970000e-06	3.910256e-07	-3.354984e-10	2.938026e+00	-2.415418e+01
1.980000e-06	4.232367e-07	-3.053817e-10	3.180049e+00	-2.213002e+01
1.990000e-06	4.554786e-07	-2.760436e-10	3.422303e+00	-2.009757e+01
2.000000e-06	4.877330e-07	-2.467226e-10	3.664651e+00	-1.805707e+01
2.010000e-06	5.199125e-07	-2.145502e-10	3.906436e+00	-1.600872e+01
2.020000e-06	5.520580e-07	-1.838848e-10	4.147966e+00	-1.395263e+01
2.030000e-06	5.842106e-07	-1.570480e-10	4.389549e+00	-1.188884e+01
2.040000e-06	6.163426e-07	-1.296012e-10	4.630977e+00	-9.817320e+00
2.050000e-06	6.484051e-07	-9.558109e-11	4.871883e+00	-7.737972e+00
2.060000e-06	6.804427e-07	-6.113898e-11	5.112602e+00	-5.650635e+00
2.070000e-06	7.124378e-07	-3.197646e-11	5.353002e+00	-3.555091e+00
2.080000e-06	7.443752e-07	-4.355151e-12	5.592968e+00	-1.451075e+00
2.090000e-06	7.763465e-07	2.647324e-11	5.833189e+00	6.617109e-01
2.100000e-06	8.083022e-07	5.992842e-11	6.073292e+00	2.783585e+00
2.110000e-06	8.401805e-07	9.006322e-11	6.312815e+00	4.914870e+00
2.120000e-06	8.720390e-07	1.169693e-10	6.552188e+00	7.055879e+00
2.130000e-06	9.039289e-07	1.471643e-10	6.791798e+00	9.206895e+00
2.140000e-06	9.357944e-07	1.826921e-10	7.031223e+00	1.136816e+01
2.150000e-06	9.676121e-07	2.200485e-10	7.270290e+00	1.353985e+01
2.160000e-06	9.994216e-07	2.555552e-10	7.509295e+00	1.572206e+01
2.170000e-06	1.031164e-06	2.880582e-10	7.747797e+00	1.791482e+01
2.180000e-06	1.062758e-06	3.200164e-10	7.985182e+00	2.011802e+01
2.190000e-06	1.094264e-06	3.546378e-10	8.221904e+00	2.233146e+01
2.200000e-06	1.125814e-06	3.912110e-10	8.458959e+00	2.455481e+01
2.210000e-06	1.157313e-06	4.224147e-10	8.695638e+00	2.678763e+01
2.220000e-06	1.188702e-06	4.493302e-10	8.931477e+00	2.902933e+01
2.230000e-06	1.219952e-06	4.777182e-10	9.166285e+00	3.127921e+01
2.240000e-06	1.250982e-06	5.117208e-10	9.399429e+00	3.353644e+01
2.250000e-06	1.281923e-06	5.470754e-10	9.631913e+00	3.580010e+01
2.260000e-06	1.312750e-06	5.810227e-10	9.863532e+00	3.806913e+01
2.270000e-06	1.343424e-06	6.118532e-10	1.009401e+01	4.034242e+01
2.280000e-06	1.374050e-06	6.421412e-10	1.032412e+01	4.261876e+01
2.290000e-06	1.404575e-06	6.731930e-10	1.055347e+01	4.489691e+01
2.300000e-06	1.435000e-06	7.043147e-10	1.078208e+01	4.717556e+01
2.310000e-06	1.465355e-06	7.350552e-10	1.101015e+01	4.945344e+01
2.320000e-06	1.495631e-06	7.648066e-10	1.123763e+01	5.172924e+01
2.330000e-06	1.525787e-06	7.959157e-10	1.146422e+01	5.400170e+01
2.340000e-06	1.555829e-06	8.302509e-10	1.168994e+01	5.626962e+01
2.350000e-06	1.585815e-06	8.672967e-10	1.191525e+01	5.853184e+01
2.360000e-06	1.615723e-06	9.040796e-10	1.213996e+01	6.078734e+01
2.370000e-06	1.645556e-06	9.389907e-10	1.236412e+01	6.303514e+01
2.380000e-06	1.675346e-06	9.729561e-10	1.258795e+01	6.527442e+01
2.390000e-06	1.705107e-06	1.006953e-09	1.281157e+01	6.750448e+01
2.400000e-06	1.734725e-06	1.041344e-09	1.303410e+01	6.972474e+01
2.410000e-06	1.764193e-06	1.074080e-09	1.325551e+01	7.193476e+01
2.420000e-06	1.793405e-06	1.104348e-09	1.347500e+01	7.413425e+01
2.430000e-06	1.822423e-06	1.135004e-09	1.369303e+01	7.632304e+01
2.440000e-06	1.851386e-06	1.167544e-09	1.391065e+01	7.850109e+01
2.450000e-06	1.880184e-06	1.201517e-09	1.412702e+01	8.066847e+01
2.460000e-06	1.908853e-06	1.235344e-09	1.434244e+01	8.282534e+01
2.470000e-06	1.937332e-06	1.268642e-09	1.455642e+01	8.497197e+01
2.480000e-06	1.965659e-06	1.301958e-09	1.476926e+01	8.710868e+01
2.490000e-06	1.993950e-06	1.335257e-09	1.498182e+01	8.923583e+01
2.500000e-06	2.022158e-06	1.367277e-09	1.519377e+01	9.135381e+01
2.510000e-06	2.050282e-06	1.395961e-09	1.540508e+01	9.346303e+01
2.520000e-06	2.078366e-06	1.422281e-09	1.561610e+01	9.556385e+01
2.530000e-06	2.106393e-06	1.450294e-09	1.582668e+01	9.765661e+01
2.540000e-06	2.134346e-06	1.481914e-09	1.603671e+01	9.974159e+01
2.550000e-06	2.162199e-06	1.516145e-09	1.624599e+01	1.018190e+02
2.560000e-06	2.189948e-06	1.550868e-09	1.645448e+01	1.038889e+02
2.570000e-06	2.217668e-06	1.584800e-09	1.666276e+01	1.059513e+02
2.580000e-06	2.245180e-06	1.616000e-09	1.686947e+01	1.080062e+02
2.590000e-06	2.272479e-06	1.647778e-09	1.707459e+01	1.100532e+02
2.600000e-06	2.299633e-06	1.678495e-09	1.727862e+01	1.120920e+02
2.610000e-06	2.326399e-06	1.706657e-09	1.747973e+01	1.141222e+02
2.620000e-06	2.352914e-06	1.735758e-09	1.767895e+01	1.161430e+02
2.630000e-06	2.379224e-06	1.767010e-09	1.787663e+01	1.181539e+02
2.640000e-06	2.405114e-06	1.799337e-09	1.807116e+01	1.201539e+02
2.650000e-06	2.430610e-06	1.830263e-09	1.826273e+01	1.221421e+02
2.660000e-06	2.455821e-06	1.860410e-09	1.845216e+01	1.241176e+02
2.670000e-06	2.480834e-06	1.890423e-09	1.864010e+01	1.260793e+02
2.680000e-06	2.505623e-06	1.920267e-09	1.882635e+01	1.280260e+02
2.690000e-06	2.530148e-06	1.949297e-09	1.901063e+01	1.299568e+02
2.700000e-06	2.554455e-06	1.976848e-09	1.919326e+01	1.318704e+02
2.710000e-06	2.578669e-06	2.002814e-09	1.937519e+01	1.337659e+02
2.720000e-06	2.602823e-06	2.027575e-09	1.955668e+01	1.356420e+02
2.730000e-06	2.626873e-06	2.053816e-09	1.973738e+01	1.374979e+02
2.740000e-06	2.650790e-06	2.083022e-09	1.991708e+01	1.393325e+02
2.750000e-06	2.674560e-06	2.111882e-09	2.009568e+01	1.411451e+02
2.760000e-06	2.698177e-06	2.139340e-09	2.027314e+01	1.429348e+02
2.770000e-06	2.721594e-06	2.166096e-09	2.044908e+01	1.447011e+02
2.780000e-06	2.744816e-06	2.194903e-09	2.062356e+01	1.464433e+02
2.790000e-06	2.767758e-06	2.223948e-09	2.079594e+01	1.481611e+02
2.800000e-06	2.790494e-06	2.249501e-09	2.096677e+01	1.498540e+02
2.810000e-06	2.813098e-06	2.273386e-09	2.113661e+01	1.515220e+02
2.820000e-06	2.835499e-06	2.297291e-09	2.130492e+01	1.531648e+02
2.830000e-06	2.857684e-06	2.322959e-09	2.147161e+01	1.547824e+02
2.840000e-06	2.879732e-06	2.347475e-09	2.163728e+01	1.563749e+02
2.850000e-06	2.901673e-06	2.371556e-09	2.180213e+01	1.579424e+02
2.860000e-06	2.923438e-06	2.394579e-09	2.196566e+01	1.594850e+02
2.870000e-06	2.944979e-06	2.417535e-09	2.212752e+01	1.610029e+02
2.880000e-06	2.966242e-06	2.440475e-09	2.228728e+01	1.624965e+02
2.890000e-06	2.987248e-06	2.461858e-09	2.244511e+01	1.639658e+02
2.900000e-06	3.007972e-06	2.482343e-09	2.260082e+01	1.654112e+02
