# Temperatura_=_20.0
# Concentracion g/m^3_=_12600.0
# C_Vs_to_Am_M_A/Vsm_=_65563218390.804596
# pendiente_HvsI_1/m_=_3716.3
# ordenada_HvsI_A/m_=_1297.0
# frecuencia_Hz_=_135035.82486357875

Tiempo_(s)	Campo_(V.s)	Magnetizacion_(V.s)	Campo_(kA/m)	Magnetizacion_(A/m)
0.000000e+00	-3.887161e-06	-3.339225e-09	-2.914882e+01	-2.181737e+02
1.000000e-08	-3.887320e-06	-3.340817e-09	-2.915001e+01	-2.181776e+02
2.000000e-08	-3.887293e-06	-3.341750e-09	-2.914981e+01	-2.181728e+02
3.000000e-08	-3.887102e-06	-3.341817e-09	-2.914838e+01	-2.181599e+02
4.000000e-08	-3.886669e-06	-3.342032e-09	-2.914513e+01	-2.181389e+02
5.000000e-08	-3.886010e-06	-3.348712e-09	-2.914019e+01	-2.181101e+02
6.000000e-08	-3.885014e-06	-3.372778e-09	-2.913272e+01	-2.180737e+02
7.000000e-08	-3.883414e-06	-3.401718e-09	-2.912072e+01	-2.180297e+02
8.000000e-08	-3.881203e-06	-3.381678e-09	-2.910414e+01	-2.179782e+02
9.000000e-08	-3.878560e-06	-3.316494e-09	-2.908432e+01	-2.179190e+02
1.000000e-07	-3.875574e-06	-3.302684e-09	-2.906193e+01	-2.178521e+02
1.100000e-07	-3.872168e-06	-3.297861e-09	-2.903639e+01	-2.177772e+02
1.200000e-07	-3.868531e-06	-3.289640e-09	-2.900912e+01	-2.176944e+02
1.300000e-07	-3.864799e-06	-3.373060e-09	-2.898113e+01	-2.176032e+02
1.400000e-07	-3.860868e-06	-3.389567e-09	-2.895165e+01	-2.175035e+02
1.500000e-07	-3.856742e-06	-3.306758e-09	-2.892071e+01	-2.173950e+02
1.600000e-07	-3.852485e-06	-3.265670e-09	-2.888879e+01	-2.172774e+02
1.700000e-07	-3.848083e-06	-3.296091e-09	-2.885579e+01	-2.171506e+02
1.800000e-07	-3.843406e-06	-3.356119e-09	-2.882071e+01	-2.170143e+02
1.900000e-07	-3.838401e-06	-3.343668e-09	-2.878318e+01	-2.168683e+02
2.000000e-07	-3.833133e-06	-3.304893e-09	-2.874368e+01	-2.167124e+02
2.100000e-07	-3.827625e-06	-3.292806e-09	-2.870237e+01	-2.165464e+02
2.200000e-07	-3.821790e-06	-3.308629e-09	-2.865862e+01	-2.163702e+02
2.300000e-07	-3.815724e-06	-3.318994e-09	-2.861313e+01	-2.161837e+02
2.400000e-07	-3.809456e-06	-3.313726e-09	-2.856613e+01	-2.159869e+02
2.500000e-07	-3.802855e-06	-3.290303e-09	-2.851663e+01	-2.157797e+02
2.600000e-07	-3.795904e-06	-3.262262e-09	-2.846451e+01	-2.155622e+02
2.700000e-07	-3.788617e-06	-3.294393e-09	-2.840986e+01	-2.153343e+02
2.800000e-07	-3.781181e-06	-3.336152e-09	-2.835411e+01	-2.150962e+02
2.900000e-07	-3.773555e-06	-3.299817e-09	-2.829691e+01	-2.148478e+02
3.000000e-07	-3.765695e-06	-3.221787e-09	-2.823798e+01	-2.145893e+02
3.100000e-07	-3.757675e-06	-3.248105e-09	-2.817784e+01	-2.143207e+02
3.200000e-07	-3.749488e-06	-3.327136e-09	-2.811645e+01	-2.140420e+02
3.300000e-07	-3.741161e-06	-3.314994e-09	-2.805401e+01	-2.137534e+02
3.400000e-07	-3.732582e-06	-3.208751e-09	-2.798967e+01	-2.134548e+02
3.500000e-07	-3.723600e-06	-3.185434e-09	-2.792231e+01	-2.131462e+02
3.600000e-07	-3.714180e-06	-3.263786e-09	-2.785168e+01	-2.128276e+02
3.700000e-07	-3.704287e-06	-3.293037e-09	-2.777750e+01	-2.124988e+02
3.800000e-07	-3.693907e-06	-3.225641e-09	-2.769966e+01	-2.121599e+02
3.900000e-07	-3.683097e-06	-3.177360e-09	-2.761860e+01	-2.118106e+02
4.000000e-07	-3.671862e-06	-3.207651e-09	-2.753435e+01	-2.114507e+02
4.100000e-07	-3.660295e-06	-3.245418e-09	-2.744761e+01	-2.110800e+02
4.200000e-07	-3.648524e-06	-3.234057e-09	-2.735934e+01	-2.106983e+02
4.300000e-07	-3.636498e-06	-3.182462e-09	-2.726916e+01	-2.103052e+02
4.400000e-07	-3.624237e-06	-3.149873e-09	-2.717722e+01	-2.099005e+02
4.500000e-07	-3.611798e-06	-3.175294e-09	-2.708394e+01	-2.094838e+02
4.600000e-07	-3.599037e-06	-3.221606e-09	-2.698825e+01	-2.090548e+02
4.700000e-07	-3.585975e-06	-3.195671e-09	-2.689030e+01	-2.086131e+02
4.800000e-07	-3.572631e-06	-3.125081e-09	-2.679024e+01	-2.081585e+02
4.900000e-07	-3.559015e-06	-3.118275e-09	-2.668814e+01	-2.076906e+02
5.000000e-07	-3.545228e-06	-3.185163e-09	-2.658475e+01	-2.072092e+02
5.100000e-07	-3.531231e-06	-3.194807e-09	-2.647979e+01	-2.067140e+02
5.200000e-07	-3.516914e-06	-3.123716e-09	-2.637243e+01	-2.062049e+02
5.300000e-07	-3.502197e-06	-3.080689e-09	-2.626207e+01	-2.056818e+02
5.400000e-07	-3.487128e-06	-3.117210e-09	-2.614908e+01	-2.051445e+02
5.500000e-07	-3.471710e-06	-3.149397e-09	-2.603346e+01	-2.045931e+02
5.600000e-07	-3.455787e-06	-3.120498e-09	-2.591406e+01	-2.040276e+02
5.700000e-07	-3.439485e-06	-3.068174e-09	-2.579181e+01	-2.034481e+02
5.800000e-07	-3.422955e-06	-3.061128e-09	-2.566786e+01	-2.028549e+02
5.900000e-07	-3.406108e-06	-3.090570e-09	-2.554152e+01	-2.022482e+02
6.000000e-07	-3.389113e-06	-3.097925e-09	-2.541408e+01	-2.016282e+02
6.100000e-07	-3.371999e-06	-3.058294e-09	-2.528575e+01	-2.009953e+02
6.200000e-07	-3.354623e-06	-3.021356e-09	-2.515545e+01	-2.003501e+02
6.300000e-07	-3.337078e-06	-3.027752e-09	-2.502389e+01	-1.996927e+02
6.400000e-07	-3.319393e-06	-3.048923e-09	-2.489127e+01	-1.990238e+02
6.500000e-07	-3.301515e-06	-3.033822e-09	-2.475721e+01	-1.983439e+02
6.600000e-07	-3.283410e-06	-2.992558e-09	-2.462144e+01	-1.976533e+02
6.700000e-07	-3.265047e-06	-2.975918e-09	-2.448375e+01	-1.969526e+02
6.800000e-07	-3.246448e-06	-2.991449e-09	-2.434428e+01	-1.962423e+02
6.900000e-07	-3.227538e-06	-2.995574e-09	-2.420247e+01	-1.955227e+02
7.000000e-07	-3.208315e-06	-2.959744e-09	-2.405833e+01	-1.947943e+02
7.100000e-07	-3.188811e-06	-2.925100e-09	-2.391208e+01	-1.940575e+02
7.200000e-07	-3.169081e-06	-2.927605e-09	-2.376412e+01	-1.933125e+02
7.300000e-07	-3.149265e-06	-2.938139e-09	-2.361553e+01	-1.925597e+02
7.400000e-07	-3.129320e-06	-2.919424e-09	-2.346597e+01	-1.917992e+02
7.500000e-07	-3.109257e-06	-2.890071e-09	-2.331552e+01	-1.910312e+02
7.600000e-07	-3.089082e-06	-2.880803e-09	-2.316423e+01	-1.902558e+02
7.700000e-07	-3.068750e-06	-2.887022e-09	-2.301177e+01	-1.894730e+02
7.800000e-07	-3.048266e-06	-2.879378e-09	-2.285816e+01	-1.886827e+02
7.900000e-07	-3.027635e-06	-2.856477e-09	-2.270345e+01	-1.878850e+02
8.000000e-07	-3.006711e-06	-2.835417e-09	-2.254655e+01	-1.870797e+02
8.100000e-07	-2.985540e-06	-2.827757e-09	-2.238779e+01	-1.862666e+02
8.200000e-07	-2.964227e-06	-2.822430e-09	-2.222797e+01	-1.854456e+02
8.300000e-07	-2.942656e-06	-2.805610e-09	-2.206622e+01	-1.846164e+02
8.400000e-07	-2.920854e-06	-2.782191e-09	-2.190273e+01	-1.837789e+02
8.500000e-07	-2.898892e-06	-2.767958e-09	-2.173805e+01	-1.829328e+02
8.600000e-07	-2.876681e-06	-2.760787e-09	-2.157149e+01	-1.820780e+02
8.700000e-07	-2.854314e-06	-2.750548e-09	-2.140376e+01	-1.812142e+02
8.800000e-07	-2.831814e-06	-2.733596e-09	-2.123504e+01	-1.803412e+02
8.900000e-07	-2.809089e-06	-2.716355e-09	-2.106463e+01	-1.794590e+02
9.000000e-07	-2.786199e-06	-2.702948e-09	-2.089299e+01	-1.785673e+02
9.100000e-07	-2.763140e-06	-2.690151e-09	-2.072008e+01	-1.776661e+02
9.200000e-07	-2.739899e-06	-2.672147e-09	-2.054580e+01	-1.767554e+02
9.300000e-07	-2.716371e-06	-2.653022e-09	-2.036937e+01	-1.758352e+02
9.400000e-07	-2.692618e-06	-2.640673e-09	-2.019125e+01	-1.749054e+02
9.500000e-07	-2.668850e-06	-2.631834e-09	-2.001302e+01	-1.739661e+02
9.600000e-07	-2.645036e-06	-2.617920e-09	-1.983444e+01	-1.730174e+02
9.700000e-07	-2.621084e-06	-2.599778e-09	-1.965484e+01	-1.720594e+02
9.800000e-07	-2.596981e-06	-2.584526e-09	-1.947409e+01	-1.710922e+02
9.900000e-07	-2.572746e-06	-2.572365e-09	-1.929236e+01	-1.701158e+02
1.000000e-06	-2.548427e-06	-2.558035e-09	-1.910999e+01	-1.691305e+02
1.010000e-06	-2.523902e-06	-2.539124e-09	-1.892609e+01	-1.681363e+02
1.020000e-06	-2.499065e-06	-2.518886e-09	-1.873984e+01	-1.671332e+02
1.030000e-06	-2.473901e-06	-2.501684e-09	-1.855115e+01	-1.661214e+02
1.040000e-06	-2.448439e-06	-2.485314e-09	-1.836022e+01	-1.651007e+02
1.050000e-06	-2.422748e-06	-2.468526e-09	-1.816756e+01	-1.640712e+02
1.060000e-06	-2.396750e-06	-2.453220e-09	-1.797261e+01	-1.630329e+02
1.070000e-06	-2.370455e-06	-2.436848e-09	-1.777543e+01	-1.619854e+02
1.080000e-06	-2.343990e-06	-2.421608e-09	-1.757698e+01	-1.609287e+02
1.090000e-06	-2.317155e-06	-2.407949e-09	-1.737575e+01	-1.598624e+02
1.100000e-06	-2.289862e-06	-2.391905e-09	-1.717109e+01	-1.587863e+02
1.110000e-06	-2.262381e-06	-2.370444e-09	-1.696502e+01	-1.577001e+02
1.120000e-06	-2.234875e-06	-2.346682e-09	-1.675875e+01	-1.566032e+02
1.130000e-06	-2.207262e-06	-2.327475e-09	-1.655169e+01	-1.554953e+02
1.140000e-06	-2.179494e-06	-2.312795e-09	-1.634346e+01	-1.543758e+02
1.150000e-06	-2.151632e-06	-2.295800e-09	-1.613453e+01	-1.532444e+02
1.160000e-06	-2.123693e-06	-2.278739e-09	-1.592502e+01	-1.521004e+02
1.170000e-06	-2.095700e-06	-2.261679e-09	-1.571511e+01	-1.509435e+02
1.180000e-06	-2.067640e-06	-2.247690e-09	-1.550470e+01	-1.497730e+02
1.190000e-06	-2.039450e-06	-2.233262e-09	-1.529331e+01	-1.485886e+02
1.200000e-06	-2.011112e-06	-2.213847e-09	-1.508081e+01	-1.473899e+02
1.210000e-06	-1.982691e-06	-2.190697e-09	-1.486769e+01	-1.461765e+02
1.220000e-06	-1.954117e-06	-2.170909e-09	-1.465342e+01	-1.449481e+02
1.230000e-06	-1.925441e-06	-2.154433e-09	-1.443839e+01	-1.437046e+02
1.240000e-06	-1.896661e-06	-2.137474e-09	-1.422257e+01	-1.424458e+02
1.250000e-06	-1.867716e-06	-2.117145e-09	-1.400552e+01	-1.411717e+02
1.260000e-06	-1.838687e-06	-2.096194e-09	-1.378784e+01	-1.398824e+02
1.270000e-06	-1.809504e-06	-2.080357e-09	-1.356901e+01	-1.385781e+02
1.280000e-06	-1.780135e-06	-2.066027e-09	-1.334877e+01	-1.372591e+02
1.290000e-06	-1.750595e-06	-2.045161e-09	-1.312726e+01	-1.359257e+02
1.300000e-06	-1.720889e-06	-2.018219e-09	-1.290450e+01	-1.345783e+02
1.310000e-06	-1.691084e-06	-1.995948e-09	-1.268101e+01	-1.332177e+02
1.320000e-06	-1.661216e-06	-1.978750e-09	-1.245703e+01	-1.318443e+02
1.330000e-06	-1.631252e-06	-1.959756e-09	-1.223234e+01	-1.304588e+02
1.340000e-06	-1.601200e-06	-1.935013e-09	-1.200699e+01	-1.290621e+02
1.350000e-06	-1.571080e-06	-1.910838e-09	-1.178112e+01	-1.276549e+02
1.360000e-06	-1.540901e-06	-1.890257e-09	-1.155482e+01	-1.262380e+02
1.370000e-06	-1.510607e-06	-1.872454e-09	-1.132765e+01	-1.248121e+02
1.380000e-06	-1.480238e-06	-1.851923e-09	-1.109992e+01	-1.233780e+02
1.390000e-06	-1.449818e-06	-1.828824e-09	-1.087181e+01	-1.219366e+02
1.400000e-06	-1.419264e-06	-1.806837e-09	-1.064270e+01	-1.204884e+02
1.410000e-06	-1.388586e-06	-1.787079e-09	-1.041265e+01	-1.190341e+02
1.420000e-06	-1.357862e-06	-1.764613e-09	-1.018226e+01	-1.175743e+02
1.430000e-06	-1.327049e-06	-1.740758e-09	-9.951195e+00	-1.161094e+02
1.440000e-06	-1.296068e-06	-1.716976e-09	-9.718878e+00	-1.146397e+02
1.450000e-06	-1.265023e-06	-1.693755e-09	-9.486078e+00	-1.131655e+02
1.460000e-06	-1.233890e-06	-1.671248e-09	-9.252623e+00	-1.116869e+02
1.470000e-06	-1.202658e-06	-1.649927e-09	-9.018425e+00	-1.102040e+02
1.480000e-06	-1.171397e-06	-1.630370e-09	-8.784006e+00	-1.087166e+02
1.490000e-06	-1.140030e-06	-1.606230e-09	-8.548795e+00	-1.072244e+02
1.500000e-06	-1.108524e-06	-1.578132e-09	-8.312534e+00	-1.057271e+02
1.510000e-06	-1.076909e-06	-1.551355e-09	-8.075461e+00	-1.042244e+02
1.520000e-06	-1.045222e-06	-1.528554e-09	-7.837851e+00	-1.027155e+02
1.530000e-06	-1.013467e-06	-1.507096e-09	-7.599725e+00	-1.011999e+02
1.540000e-06	-9.816429e-07	-1.482856e-09	-7.361087e+00	-9.967692e+01
1.550000e-06	-9.498483e-07	-1.457542e-09	-7.122668e+00	-9.814574e+01
1.560000e-06	-9.180354e-07	-1.434943e-09	-6.884111e+00	-9.660558e+01
1.570000e-06	-8.861656e-07	-1.412743e-09	-6.645127e+00	-9.505560e+01
1.580000e-06	-8.542733e-07	-1.388981e-09	-6.405976e+00	-9.349500e+01
1.590000e-06	-8.223399e-07	-1.363311e-09	-6.166515e+00	-9.192293e+01
1.600000e-06	-7.903721e-07	-1.337269e-09	-5.926797e+00	-9.033861e+01
1.610000e-06	-7.583954e-07	-1.313755e-09	-5.687012e+00	-8.874129e+01
1.620000e-06	-7.264140e-07	-1.290133e-09	-5.447191e+00	-8.713027e+01
1.630000e-06	-6.943891e-07	-1.263829e-09	-5.207045e+00	-8.550492e+01
1.640000e-06	-6.623431e-07	-1.234265e-09	-4.966740e+00	-8.386468e+01
1.650000e-06	-6.302574e-07	-1.207335e-09	-4.726138e+00	-8.220910e+01
1.660000e-06	-5.981230e-07	-1.186283e-09	-4.485170e+00	-8.053781e+01
1.670000e-06	-5.659680e-07	-1.164749e-09	-4.244048e+00	-7.885052e+01
1.680000e-06	-5.338189e-07	-1.139048e-09	-4.002971e+00	-7.714708e+01
1.690000e-06	-5.016998e-07	-1.111793e-09	-3.762117e+00	-7.542741e+01
1.700000e-06	-4.694605e-07	-1.085768e-09	-3.520364e+00	-7.369154e+01
1.710000e-06	-4.371324e-07	-1.060120e-09	-3.277943e+00	-7.193958e+01
1.720000e-06	-4.048726e-07	-1.033728e-09	-3.036035e+00	-7.017175e+01
1.730000e-06	-3.725741e-07	-1.005227e-09	-2.793837e+00	-6.838833e+01
1.740000e-06	-3.402504e-07	-9.763104e-10	-2.551450e+00	-6.658968e+01
1.750000e-06	-3.079398e-07	-9.472514e-10	-2.309161e+00	-6.477622e+01
1.760000e-06	-2.755591e-07	-9.198873e-10	-2.066347e+00	-6.294842e+01
1.770000e-06	-2.431582e-07	-8.930730e-10	-1.823380e+00	-6.110678e+01
1.780000e-06	-2.107807e-07	-8.660153e-10	-1.580590e+00	-5.925186e+01
1.790000e-06	-1.784060e-07	-8.380204e-10	-1.337820e+00	-5.738419e+01
1.800000e-06	-1.460707e-07	-8.087402e-10	-1.095347e+00	-5.550434e+01
1.810000e-06	-1.137052e-07	-7.809843e-10	-8.526463e-01	-5.361287e+01
1.820000e-06	-8.131280e-08	-7.545358e-10	-6.097437e-01	-5.171031e+01
1.830000e-06	-4.892073e-08	-7.236330e-10	-3.668440e-01	-4.979718e+01
1.840000e-06	-1.644633e-08	-6.913172e-10	-1.233268e-01	-4.787398e+01
1.850000e-06	1.598387e-08	-6.614377e-10	1.198589e-01	-4.594117e+01
1.860000e-06	4.837545e-08	-6.334566e-10	3.627550e-01	-4.399915e+01
1.870000e-06	8.074369e-08	-6.057167e-10	6.054761e-01	-4.204830e+01
1.880000e-06	1.130384e-07	-5.752630e-10	8.476456e-01	-4.008895e+01
1.890000e-06	1.453107e-07	-5.458159e-10	1.089648e+00	-3.812139e+01
1.900000e-06	1.775758e-07	-5.172808e-10	1.331595e+00	-3.614585e+01
1.910000e-06	2.098600e-07	-4.903025e-10	1.573686e+00	-3.416254e+01
1.920000e-06	2.421881e-07	-4.636896e-10	1.816106e+00	-3.217160e+01
1.930000e-06	2.745580e-07	-4.347566e-10	2.058840e+00	-3.017316e+01
1.940000e-06	3.069260e-07	-4.047248e-10	2.301559e+00	-2.816731e+01
1.950000e-06	3.392226e-07	-3.754464e-10	2.543743e+00	-2.615409e+01
1.960000e-06	3.714301e-07	-3.457485e-10	2.785259e+00	-2.413355e+01
1.970000e-06	4.036449e-07	-3.172007e-10	3.026829e+00	-2.210569e+01
1.980000e-06	4.358891e-07	-2.880480e-10	3.268620e+00	-2.007050e+01
1.990000e-06	4.681304e-07	-2.569999e-10	3.510389e+00	-1.802797e+01
2.000000e-06	5.003284e-07	-2.253275e-10	3.751833e+00	-1.597807e+01
2.010000e-06	5.324701e-07	-1.915486e-10	3.992856e+00	-1.392077e+01
2.020000e-06	5.646162e-07	-1.603921e-10	4.233912e+00	-1.185605e+01
2.030000e-06	5.967492e-07	-1.334380e-10	4.474869e+00	-9.783854e+00
2.040000e-06	6.288279e-07	-1.052824e-10	4.715418e+00	-7.704172e+00
2.050000e-06	6.608698e-07	-7.611250e-11	4.955693e+00	-5.616975e+00
2.060000e-06	6.929047e-07	-4.750625e-11	5.195914e+00	-3.522247e+00
2.070000e-06	7.249438e-07	-2.272889e-11	5.436167e+00	-1.419975e+00
2.080000e-06	7.569484e-07	4.909720e-12	5.676161e+00	6.898421e-01
2.090000e-06	7.889366e-07	3.667550e-11	5.916032e+00	2.807199e+00
2.100000e-06	8.209003e-07	7.098885e-11	6.155720e+00	4.932082e+00
2.110000e-06	8.528229e-07	1.051114e-10	6.395099e+00	7.064467e+00
2.120000e-06	8.847441e-07	1.371840e-10	6.634468e+00	9.204321e+00
2.130000e-06	9.166692e-07	1.687675e-10	6.873866e+00	1.135160e+01
2.140000e-06	9.485438e-07	2.012151e-10	7.112886e+00	1.350625e+01
2.150000e-06	9.803143e-07	2.339080e-10	7.351124e+00	1.566821e+01
2.160000e-06	1.012040e-06	2.674685e-10	7.589029e+00	1.783738e+01
2.170000e-06	1.043742e-06	2.998300e-10	7.826752e+00	2.001368e+01
2.180000e-06	1.075315e-06	3.296664e-10	8.063508e+00	2.219698e+01
2.190000e-06	1.106815e-06	3.643839e-10	8.299719e+00	2.438715e+01
2.200000e-06	1.138347e-06	4.044228e-10	8.536168e+00	2.658403e+01
2.210000e-06	1.169834e-06	4.412501e-10	8.772287e+00	2.878742e+01
2.220000e-06	1.201181e-06	4.708991e-10	9.007347e+00	3.099711e+01
2.230000e-06	1.232427e-06	5.006856e-10	9.241651e+00	3.321285e+01
2.240000e-06	1.263559e-06	5.355517e-10	9.475105e+00	3.543435e+01
2.250000e-06	1.294432e-06	5.710431e-10	9.706609e+00	3.766129e+01
2.260000e-06	1.325132e-06	6.009565e-10	9.936820e+00	3.989330e+01
2.270000e-06	1.355739e-06	6.308058e-10	1.016633e+01	4.212999e+01
2.280000e-06	1.386260e-06	6.644146e-10	1.039521e+01	4.437090e+01
2.290000e-06	1.416750e-06	7.010645e-10	1.062384e+01	4.661554e+01
2.300000e-06	1.447164e-06	7.367983e-10	1.085191e+01	4.886339e+01
2.310000e-06	1.477462e-06	7.700651e-10	1.107911e+01	5.111387e+01
2.320000e-06	1.507688e-06	8.026516e-10	1.130576e+01	5.336638e+01
2.330000e-06	1.537936e-06	8.370934e-10	1.153259e+01	5.562027e+01
2.340000e-06	1.568095e-06	8.724300e-10	1.175874e+01	5.787487e+01
2.350000e-06	1.598137e-06	9.076624e-10	1.198402e+01	6.012947e+01
2.360000e-06	1.628132e-06	9.398850e-10	1.220894e+01	6.238337e+01
2.370000e-06	1.657993e-06	9.711943e-10	1.243286e+01	6.463581e+01
2.380000e-06	1.687740e-06	1.003882e-09	1.265593e+01	6.688606e+01
2.390000e-06	1.717428e-06	1.037861e-09	1.287855e+01	6.913336e+01
2.400000e-06	1.747057e-06	1.072965e-09	1.310073e+01	7.137699e+01
2.410000e-06	1.776571e-06	1.106603e-09	1.332205e+01	7.361620e+01
2.420000e-06	1.805810e-06	1.138717e-09	1.354131e+01	7.585028e+01
2.430000e-06	1.834988e-06	1.172155e-09	1.376010e+01	7.807854e+01
2.440000e-06	1.864079e-06	1.206979e-09	1.397825e+01	8.030031e+01
2.450000e-06	1.892857e-06	1.241385e-09	1.419404e+01	8.251497e+01
2.460000e-06	1.921484e-06	1.271832e-09	1.440871e+01	8.472190e+01
2.470000e-06	1.950064e-06	1.301000e-09	1.462302e+01	8.692056e+01
2.480000e-06	1.978551e-06	1.334371e-09	1.483664e+01	8.911042e+01
2.490000e-06	2.006875e-06	1.368096e-09	1.504904e+01	9.129099e+01
2.500000e-06	2.035102e-06	1.400663e-09	1.526071e+01	9.346182e+01
2.510000e-06	2.063236e-06	1.430404e-09	1.547167e+01	9.562250e+01
2.520000e-06	2.091274e-06	1.459611e-09	1.568192e+01	9.777263e+01
2.530000e-06	2.119247e-06	1.491460e-09	1.589169e+01	9.991186e+01
2.540000e-06	2.147139e-06	1.524233e-09	1.610084e+01	1.020398e+02
2.550000e-06	2.175005e-06	1.554891e-09	1.630980e+01	1.041562e+02
2.560000e-06	2.202844e-06	1.584536e-09	1.651856e+01	1.062608e+02
2.570000e-06	2.230549e-06	1.615317e-09	1.672631e+01	1.083530e+02
2.580000e-06	2.258044e-06	1.646273e-09	1.693249e+01	1.104328e+02
2.590000e-06	2.285326e-06	1.678046e-09	1.713707e+01	1.124996e+02
2.600000e-06	2.312394e-06	1.709595e-09	1.734005e+01	1.145532e+02
2.610000e-06	2.339199e-06	1.739643e-09	1.754105e+01	1.165931e+02
2.620000e-06	2.365610e-06	1.769844e-09	1.773910e+01	1.186189e+02
2.630000e-06	2.391660e-06	1.800811e-09	1.793445e+01	1.206302e+02
2.640000e-06	2.417536e-06	1.830777e-09	1.812848e+01	1.226264e+02
2.650000e-06	2.443109e-06	1.860588e-09	1.832024e+01	1.246071e+02
2.660000e-06	2.468305e-06	1.888090e-09	1.850918e+01	1.265716e+02
2.670000e-06	2.493304e-06	1.912777e-09	1.869664e+01	1.285194e+02
2.680000e-06	2.518047e-06	1.938275e-09	1.888219e+01	1.304497e+02
2.690000e-06	2.542508e-06	1.966177e-09	1.906561e+01	1.323620e+02
2.700000e-06	2.566902e-06	1.993606e-09	1.924854e+01	1.342555e+02
2.710000e-06	2.591225e-06	2.020693e-09	1.943093e+01	1.361296e+02
2.720000e-06	2.615337e-06	2.049520e-09	1.961174e+01	1.379834e+02
2.730000e-06	2.639311e-06	2.078089e-09	1.979152e+01	1.398164e+02
2.740000e-06	2.663219e-06	2.107511e-09	1.997079e+01	1.416278e+02
2.750000e-06	2.686983e-06	2.137417e-09	2.014900e+01	1.434169e+02
2.760000e-06	2.710593e-06	2.164393e-09	2.032604e+01	1.451832e+02
2.770000e-06	2.734039e-06	2.189334e-09	2.050185e+01	1.469260e+02
2.780000e-06	2.757302e-06	2.215782e-09	2.067629e+01	1.486447e+02
2.790000e-06	2.780265e-06	2.241626e-09	2.084849e+01	1.503390e+02
2.800000e-06	2.802918e-06	2.266608e-09	2.101836e+01	1.520085e+02
2.810000e-06	2.825448e-06	2.291438e-09	2.118730e+01	1.536527e+02
2.820000e-06	2.847875e-06	2.317326e-09	2.135548e+01	1.552715e+02
2.830000e-06	2.870144e-06	2.341751e-09	2.152247e+01	1.568647e+02
2.840000e-06	2.892231e-06	2.366524e-09	2.168810e+01	1.584323e+02
2.850000e-06	2.914107e-06	2.392673e-09	2.185214e+01	1.599743e+02
2.860000e-06	2.935779e-06	2.415832e-09	2.201465e+01	1.614908e+02
2.870000e-06	2.957207e-06	2.436978e-09	2.217533e+01	1.629820e+02
2.880000e-06	2.978404e-06	2.459321e-09	2.233428e+01	1.644481e+02
2.890000e-06	2.999405e-06	2.481677e-09	2.249176e+01	1.658896e+02
2.900000e-06	3.020169e-06	2.502673e-09	2.264747e+01	1.673067e+02
