# Temperatura_=_20.0
# Concentracion g/m^3_=_12600.0
# C_Vs_to_Am_M_A/Vsm_=_65563218390.804596
# pendiente_HvsI_1/m_=_3716.3
# ordenada_HvsI_A/m_=_1297.0
# frecuencia_Hz_=_135038.8888422991

Tiempo_(s)	Campo_(V.s)	Magnetizacion_(V.s)	Campo_(kA/m)	Magnetizacion_(A/m)
0.000000e+00	-3.882247e-06	-3.480052e-09	-2.913606e+01	-2.279559e+02
1.000000e-08	-3.882349e-06	-3.481132e-09	-2.913683e+01	-2.279685e+02
2.000000e-08	-3.882332e-06	-3.481013e-09	-2.913670e+01	-2.279650e+02
3.000000e-08	-3.882161e-06	-3.480231e-09	-2.913541e+01	-2.279453e+02
4.000000e-08	-3.881772e-06	-3.477468e-09	-2.913250e+01	-2.279098e+02
5.000000e-08	-3.881075e-06	-3.477973e-09	-2.912726e+01	-2.278585e+02
6.000000e-08	-3.879892e-06	-3.479932e-09	-2.911838e+01	-2.277919e+02
7.000000e-08	-3.878132e-06	-3.472501e-09	-2.910517e+01	-2.277102e+02
8.000000e-08	-3.875833e-06	-3.461764e-09	-2.908792e+01	-2.276140e+02
9.000000e-08	-3.873032e-06	-3.546457e-09	-2.906690e+01	-2.275037e+02
1.000000e-07	-3.869801e-06	-3.514829e-09	-2.904265e+01	-2.273798e+02
1.100000e-07	-3.866359e-06	-3.443168e-09	-2.901682e+01	-2.272430e+02
1.200000e-07	-3.862791e-06	-3.427280e-09	-2.899004e+01	-2.270939e+02
1.300000e-07	-3.858986e-06	-3.372863e-09	-2.896149e+01	-2.269331e+02
1.400000e-07	-3.855059e-06	-3.411332e-09	-2.893202e+01	-2.267614e+02
1.500000e-07	-3.851089e-06	-3.466827e-09	-2.890222e+01	-2.265793e+02
1.600000e-07	-3.846922e-06	-3.486260e-09	-2.887095e+01	-2.263876e+02
1.700000e-07	-3.842507e-06	-3.429949e-09	-2.883781e+01	-2.261868e+02
1.800000e-07	-3.837869e-06	-3.404539e-09	-2.880301e+01	-2.259776e+02
1.900000e-07	-3.832858e-06	-3.407917e-09	-2.876539e+01	-2.257604e+02
2.000000e-07	-3.827491e-06	-3.453791e-09	-2.872512e+01	-2.255358e+02
2.100000e-07	-3.821953e-06	-3.472533e-09	-2.868356e+01	-2.253041e+02
2.200000e-07	-3.816184e-06	-3.448463e-09	-2.864026e+01	-2.250657e+02
2.300000e-07	-3.810164e-06	-3.384694e-09	-2.859508e+01	-2.248207e+02
2.400000e-07	-3.803796e-06	-3.363363e-09	-2.854729e+01	-2.245694e+02
2.500000e-07	-3.797087e-06	-3.434515e-09	-2.849694e+01	-2.243116e+02
2.600000e-07	-3.790127e-06	-3.477329e-09	-2.844470e+01	-2.240474e+02
2.700000e-07	-3.782877e-06	-3.403094e-09	-2.839029e+01	-2.237766e+02
2.800000e-07	-3.775354e-06	-3.307471e-09	-2.833384e+01	-2.234990e+02
2.900000e-07	-3.767614e-06	-3.356321e-09	-2.827575e+01	-2.232141e+02
3.000000e-07	-3.759761e-06	-3.435474e-09	-2.821681e+01	-2.229217e+02
3.100000e-07	-3.751795e-06	-3.423796e-09	-2.815702e+01	-2.226211e+02
3.200000e-07	-3.743727e-06	-3.340221e-09	-2.809648e+01	-2.223120e+02
3.300000e-07	-3.735420e-06	-3.332818e-09	-2.803413e+01	-2.219938e+02
3.400000e-07	-3.726770e-06	-3.371161e-09	-2.796921e+01	-2.216657e+02
3.500000e-07	-3.717873e-06	-3.389915e-09	-2.790244e+01	-2.213274e+02
3.600000e-07	-3.708562e-06	-3.360175e-09	-2.783257e+01	-2.209782e+02
3.700000e-07	-3.698718e-06	-3.333687e-09	-2.775868e+01	-2.206174e+02
3.800000e-07	-3.688329e-06	-3.305918e-09	-2.768072e+01	-2.202447e+02
3.900000e-07	-3.677314e-06	-3.314171e-09	-2.759805e+01	-2.198595e+02
4.000000e-07	-3.665911e-06	-3.361836e-09	-2.751247e+01	-2.194614e+02
4.100000e-07	-3.654304e-06	-3.372447e-09	-2.742536e+01	-2.190502e+02
4.200000e-07	-3.642426e-06	-3.291891e-09	-2.733621e+01	-2.186254e+02
4.300000e-07	-3.630383e-06	-3.246459e-09	-2.724583e+01	-2.181870e+02
4.400000e-07	-3.618136e-06	-3.317610e-09	-2.715392e+01	-2.177349e+02
4.500000e-07	-3.605542e-06	-3.372878e-09	-2.705941e+01	-2.172692e+02
4.600000e-07	-3.592679e-06	-3.301857e-09	-2.696287e+01	-2.167899e+02
4.700000e-07	-3.579588e-06	-3.216080e-09	-2.686462e+01	-2.162972e+02
4.800000e-07	-3.566255e-06	-3.245006e-09	-2.676455e+01	-2.157915e+02
4.900000e-07	-3.552650e-06	-3.308253e-09	-2.666245e+01	-2.152732e+02
5.000000e-07	-3.538777e-06	-3.302683e-09	-2.655834e+01	-2.147425e+02
5.100000e-07	-3.524643e-06	-3.238014e-09	-2.645226e+01	-2.142001e+02
5.200000e-07	-3.510234e-06	-3.206489e-09	-2.634412e+01	-2.136465e+02
5.300000e-07	-3.495474e-06	-3.225684e-09	-2.623335e+01	-2.130822e+02
5.400000e-07	-3.480299e-06	-3.268332e-09	-2.611946e+01	-2.125078e+02
5.500000e-07	-3.464800e-06	-3.258627e-09	-2.600314e+01	-2.119238e+02
5.600000e-07	-3.448946e-06	-3.191994e-09	-2.588416e+01	-2.113308e+02
5.700000e-07	-3.432706e-06	-3.152843e-09	-2.576228e+01	-2.107293e+02
5.800000e-07	-3.416141e-06	-3.198828e-09	-2.563796e+01	-2.101197e+02
5.900000e-07	-3.399319e-06	-3.231965e-09	-2.551171e+01	-2.095024e+02
6.000000e-07	-3.382376e-06	-3.184372e-09	-2.538456e+01	-2.088777e+02
6.100000e-07	-3.365214e-06	-3.123131e-09	-2.525575e+01	-2.082459e+02
6.200000e-07	-3.347864e-06	-3.135010e-09	-2.512554e+01	-2.076071e+02
6.300000e-07	-3.330337e-06	-3.172535e-09	-2.499400e+01	-2.069613e+02
6.400000e-07	-3.312577e-06	-3.166211e-09	-2.486071e+01	-2.063086e+02
6.500000e-07	-3.294701e-06	-3.116121e-09	-2.472656e+01	-2.056486e+02
6.600000e-07	-3.276614e-06	-3.080065e-09	-2.459082e+01	-2.049814e+02
6.700000e-07	-3.258224e-06	-3.086571e-09	-2.445280e+01	-2.043064e+02
6.800000e-07	-3.239519e-06	-3.107454e-09	-2.431242e+01	-2.036234e+02
6.900000e-07	-3.220612e-06	-3.097350e-09	-2.417052e+01	-2.029318e+02
7.000000e-07	-3.201365e-06	-3.054806e-09	-2.402607e+01	-2.022312e+02
7.100000e-07	-3.181831e-06	-3.028453e-09	-2.387947e+01	-2.015210e+02
7.200000e-07	-3.162218e-06	-3.036929e-09	-2.373228e+01	-2.008006e+02
7.300000e-07	-3.142456e-06	-3.052632e-09	-2.358397e+01	-2.000695e+02
7.400000e-07	-3.122564e-06	-3.035534e-09	-2.343468e+01	-1.993271e+02
7.500000e-07	-3.102575e-06	-2.994337e-09	-2.328466e+01	-1.985728e+02
7.600000e-07	-3.082445e-06	-2.971737e-09	-2.313359e+01	-1.978061e+02
7.700000e-07	-3.062146e-06	-2.984514e-09	-2.298124e+01	-1.970265e+02
7.800000e-07	-3.041672e-06	-2.988271e-09	-2.282759e+01	-1.962337e+02
7.900000e-07	-3.021034e-06	-2.956386e-09	-2.267270e+01	-1.954272e+02
8.000000e-07	-3.000147e-06	-2.918637e-09	-2.251594e+01	-1.946070e+02
8.100000e-07	-2.978987e-06	-2.913568e-09	-2.235714e+01	-1.937727e+02
8.200000e-07	-2.957644e-06	-2.923001e-09	-2.219696e+01	-1.929243e+02
8.300000e-07	-2.936047e-06	-2.912857e-09	-2.203487e+01	-1.920618e+02
8.400000e-07	-2.914270e-06	-2.879003e-09	-2.187144e+01	-1.911854e+02
8.500000e-07	-2.892331e-06	-2.853219e-09	-2.170679e+01	-1.902953e+02
8.600000e-07	-2.870237e-06	-2.846142e-09	-2.154098e+01	-1.893917e+02
8.700000e-07	-2.848000e-06	-2.844640e-09	-2.137409e+01	-1.884750e+02
8.800000e-07	-2.825608e-06	-2.828595e-09	-2.120604e+01	-1.875456e+02
8.900000e-07	-2.803010e-06	-2.800831e-09	-2.103644e+01	-1.866041e+02
9.000000e-07	-2.780108e-06	-2.778870e-09	-2.086457e+01	-1.856509e+02
9.100000e-07	-2.756988e-06	-2.772295e-09	-2.069105e+01	-1.846866e+02
9.200000e-07	-2.733671e-06	-2.765955e-09	-2.051605e+01	-1.837118e+02
9.300000e-07	-2.710184e-06	-2.749198e-09	-2.033979e+01	-1.827269e+02
9.400000e-07	-2.686511e-06	-2.728227e-09	-2.016212e+01	-1.817326e+02
9.500000e-07	-2.662686e-06	-2.711733e-09	-1.998332e+01	-1.807293e+02
9.600000e-07	-2.638781e-06	-2.703443e-09	-1.980391e+01	-1.797174e+02
9.700000e-07	-2.614812e-06	-2.694384e-09	-1.962403e+01	-1.786974e+02
9.800000e-07	-2.590743e-06	-2.676697e-09	-1.944339e+01	-1.776696e+02
9.900000e-07	-2.566437e-06	-2.654300e-09	-1.926097e+01	-1.766342e+02
1.000000e-06	-2.541905e-06	-2.637346e-09	-1.907687e+01	-1.755913e+02
1.010000e-06	-2.517213e-06	-2.625392e-09	-1.889155e+01	-1.745411e+02
1.020000e-06	-2.492380e-06	-2.613634e-09	-1.870518e+01	-1.734835e+02
1.030000e-06	-2.467329e-06	-2.595611e-09	-1.851717e+01	-1.724184e+02
1.040000e-06	-2.441925e-06	-2.574014e-09	-1.832652e+01	-1.713455e+02
1.050000e-06	-2.416130e-06	-2.558816e-09	-1.813293e+01	-1.702648e+02
1.060000e-06	-2.389969e-06	-2.549805e-09	-1.793659e+01	-1.691756e+02
1.070000e-06	-2.363568e-06	-2.535217e-09	-1.773845e+01	-1.680778e+02
1.080000e-06	-2.336899e-06	-2.511403e-09	-1.753830e+01	-1.669708e+02
1.090000e-06	-2.309897e-06	-2.487598e-09	-1.733565e+01	-1.658541e+02
1.100000e-06	-2.282692e-06	-2.472699e-09	-1.713148e+01	-1.647271e+02
1.110000e-06	-2.255335e-06	-2.460921e-09	-1.692617e+01	-1.635894e+02
1.120000e-06	-2.227793e-06	-2.441657e-09	-1.671947e+01	-1.624404e+02
1.130000e-06	-2.200098e-06	-2.417254e-09	-1.651162e+01	-1.612797e+02
1.140000e-06	-2.172329e-06	-2.398732e-09	-1.630321e+01	-1.601066e+02
1.150000e-06	-2.144449e-06	-2.386406e-09	-1.609398e+01	-1.589209e+02
1.160000e-06	-2.116484e-06	-2.372883e-09	-1.588410e+01	-1.577220e+02
1.170000e-06	-2.088527e-06	-2.350746e-09	-1.567428e+01	-1.565097e+02
1.180000e-06	-2.060534e-06	-2.328423e-09	-1.546420e+01	-1.552838e+02
1.190000e-06	-2.032453e-06	-2.310800e-09	-1.525345e+01	-1.540440e+02
1.200000e-06	-2.004276e-06	-2.296481e-09	-1.504198e+01	-1.527903e+02
1.210000e-06	-1.975965e-06	-2.277851e-09	-1.482951e+01	-1.515226e+02
1.220000e-06	-1.947590e-06	-2.254187e-09	-1.461656e+01	-1.502411e+02
1.230000e-06	-1.919155e-06	-2.231280e-09	-1.440316e+01	-1.489459e+02
1.240000e-06	-1.890518e-06	-2.212342e-09	-1.418824e+01	-1.476373e+02
1.250000e-06	-1.861582e-06	-2.196306e-09	-1.397108e+01	-1.463154e+02
1.260000e-06	-1.832414e-06	-2.177689e-09	-1.375217e+01	-1.449808e+02
1.270000e-06	-1.803152e-06	-2.157285e-09	-1.353256e+01	-1.436338e+02
1.280000e-06	-1.773808e-06	-2.135192e-09	-1.331234e+01	-1.422749e+02
1.290000e-06	-1.744380e-06	-2.112925e-09	-1.309148e+01	-1.409044e+02
1.300000e-06	-1.714783e-06	-2.092427e-09	-1.286936e+01	-1.395231e+02
1.310000e-06	-1.685006e-06	-2.073373e-09	-1.264588e+01	-1.381312e+02
1.320000e-06	-1.655136e-06	-2.050032e-09	-1.242171e+01	-1.367294e+02
1.330000e-06	-1.625223e-06	-2.024827e-09	-1.219721e+01	-1.353180e+02
1.340000e-06	-1.595228e-06	-2.002643e-09	-1.197210e+01	-1.338975e+02
1.350000e-06	-1.565129e-06	-1.982824e-09	-1.174621e+01	-1.324683e+02
1.360000e-06	-1.534965e-06	-1.964875e-09	-1.151983e+01	-1.310307e+02
1.370000e-06	-1.504707e-06	-1.943601e-09	-1.129275e+01	-1.295850e+02
1.380000e-06	-1.474376e-06	-1.921260e-09	-1.106512e+01	-1.281313e+02
1.390000e-06	-1.443977e-06	-1.902112e-09	-1.083697e+01	-1.266699e+02
1.400000e-06	-1.413508e-06	-1.882973e-09	-1.060830e+01	-1.252007e+02
1.410000e-06	-1.382864e-06	-1.857733e-09	-1.037832e+01	-1.237237e+02
1.420000e-06	-1.352118e-06	-1.829252e-09	-1.014757e+01	-1.222388e+02
1.430000e-06	-1.321387e-06	-1.805420e-09	-9.916943e+00	-1.207460e+02
1.440000e-06	-1.290562e-06	-1.785709e-09	-9.685600e+00	-1.192448e+02
1.450000e-06	-1.259637e-06	-1.764546e-09	-9.453506e+00	-1.177351e+02
1.460000e-06	-1.228648e-06	-1.741608e-09	-9.220939e+00	-1.162165e+02
1.470000e-06	-1.197482e-06	-1.718744e-09	-8.987039e+00	-1.146886e+02
1.480000e-06	-1.166079e-06	-1.696338e-09	-8.751362e+00	-1.131509e+02
1.490000e-06	-1.134569e-06	-1.671579e-09	-8.514881e+00	-1.116031e+02
1.500000e-06	-1.103061e-06	-1.644787e-09	-8.278412e+00	-1.100447e+02
1.510000e-06	-1.071481e-06	-1.617769e-09	-8.041410e+00	-1.084751e+02
1.520000e-06	-1.039841e-06	-1.592282e-09	-7.803950e+00	-1.068939e+02
1.530000e-06	-1.008217e-06	-1.571806e-09	-7.566619e+00	-1.053006e+02
1.540000e-06	-9.765130e-07	-1.551173e-09	-7.328679e+00	-1.036948e+02
1.550000e-06	-9.447266e-07	-1.526705e-09	-7.090124e+00	-1.020761e+02
1.560000e-06	-9.129317e-07	-1.498125e-09	-6.851505e+00	-1.004441e+02
1.570000e-06	-8.810754e-07	-1.472198e-09	-6.612425e+00	-9.879837e+01
1.580000e-06	-8.491771e-07	-1.448310e-09	-6.373029e+00	-9.713873e+01
1.590000e-06	-8.172499e-07	-1.423689e-09	-6.133418e+00	-9.546488e+01
1.600000e-06	-7.853052e-07	-1.395259e-09	-5.893674e+00	-9.377663e+01
1.610000e-06	-7.533594e-07	-1.366836e-09	-5.653923e+00	-9.207382e+01
1.620000e-06	-7.213813e-07	-1.340506e-09	-5.413929e+00	-9.035636e+01
1.630000e-06	-6.893476e-07	-1.314843e-09	-5.173518e+00	-8.862420e+01
1.640000e-06	-6.572709e-07	-1.288659e-09	-4.932784e+00	-8.687734e+01
1.650000e-06	-6.252296e-07	-1.262057e-09	-4.692315e+00	-8.511582e+01
1.660000e-06	-5.931854e-07	-1.235346e-09	-4.451825e+00	-8.333973e+01
1.670000e-06	-5.611273e-07	-1.206542e-09	-4.211231e+00	-8.154919e+01
1.680000e-06	-5.290540e-07	-1.180748e-09	-3.970522e+00	-7.974436e+01
1.690000e-06	-4.969152e-07	-1.156438e-09	-3.729322e+00	-7.792543e+01
1.700000e-06	-4.645936e-07	-1.126834e-09	-3.486750e+00	-7.609260e+01
1.710000e-06	-4.322432e-07	-1.094419e-09	-3.243963e+00	-7.424610e+01
1.720000e-06	-4.000126e-07	-1.067117e-09	-3.002074e+00	-7.238619e+01
1.730000e-06	-3.677682e-07	-1.044242e-09	-2.760081e+00	-7.051310e+01
1.740000e-06	-3.355343e-07	-1.018310e-09	-2.518167e+00	-6.862712e+01
1.750000e-06	-3.032764e-07	-9.862279e-10	-2.276073e+00	-6.672851e+01
1.760000e-06	-2.710043e-07	-9.564362e-10	-2.033873e+00	-6.481754e+01
1.770000e-06	-2.387776e-07	-9.284190e-10	-1.792013e+00	-6.289449e+01
1.780000e-06	-2.064826e-07	-8.980320e-10	-1.549641e+00	-6.095963e+01
1.790000e-06	-1.740977e-07	-8.661568e-10	-1.306594e+00	-5.901324e+01
1.800000e-06	-1.417217e-07	-8.355794e-10	-1.063614e+00	-5.705557e+01
1.810000e-06	-1.093760e-07	-8.064431e-10	-8.208609e-01	-5.508690e+01
1.820000e-06	-7.705533e-08	-7.778872e-10	-5.782962e-01	-5.310748e+01
1.830000e-06	-4.480124e-08	-7.463837e-10	-3.362309e-01	-5.111758e+01
1.840000e-06	-1.255661e-08	-7.138815e-10	-9.423673e-02	-4.911746e+01
1.850000e-06	1.982792e-08	-6.823731e-10	1.488075e-01	-4.710735e+01
1.860000e-06	5.226225e-08	-6.511377e-10	3.922254e-01	-4.508753e+01
1.870000e-06	8.467674e-08	-6.212960e-10	6.354945e-01	-4.305823e+01
1.880000e-06	1.171281e-07	-5.910691e-10	8.790403e-01	-4.101970e+01
1.890000e-06	1.494978e-07	-5.595359e-10	1.121973e+00	-3.897218e+01
1.900000e-06	1.817980e-07	-5.271727e-10	1.364384e+00	-3.691592e+01
1.910000e-06	2.141548e-07	-4.985623e-10	1.607220e+00	-3.485116e+01
1.920000e-06	2.464629e-07	-4.718390e-10	1.849691e+00	-3.277811e+01
1.930000e-06	2.787376e-07	-4.430388e-10	2.091911e+00	-3.069700e+01
1.940000e-06	3.110099e-07	-4.120021e-10	2.334113e+00	-2.860805e+01
1.950000e-06	3.432189e-07	-3.795017e-10	2.575840e+00	-2.651146e+01
1.960000e-06	3.754151e-07	-3.473376e-10	2.817471e+00	-2.440742e+01
1.970000e-06	4.075480e-07	-3.165325e-10	3.058626e+00	-2.229611e+01
1.980000e-06	4.396558e-07	-2.844253e-10	3.299594e+00	-2.017768e+01
1.990000e-06	4.718113e-07	-2.514636e-10	3.540919e+00	-1.805227e+01
2.000000e-06	5.039252e-07	-2.179806e-10	3.781932e+00	-1.592000e+01
2.010000e-06	5.360435e-07	-1.856665e-10	4.022978e+00	-1.378096e+01
2.020000e-06	5.681833e-07	-1.563524e-10	4.264186e+00	-1.163524e+01
2.030000e-06	6.002706e-07	-1.280255e-10	4.504999e+00	-9.482881e+00
2.040000e-06	6.323260e-07	-9.684152e-11	4.745574e+00	-7.323908e+00
2.050000e-06	6.643347e-07	-6.267896e-11	4.985797e+00	-5.158326e+00
2.060000e-06	6.963792e-07	-2.873548e-11	5.226289e+00	-2.986117e+00
2.070000e-06	7.284341e-07	2.701731e-12	5.466860e+00	-8.072451e-01
2.080000e-06	7.604484e-07	3.647265e-11	5.707125e+00	1.378345e+00
2.090000e-06	7.924375e-07	7.206241e-11	5.947202e+00	3.570722e+00
2.100000e-06	8.243657e-07	1.056388e-10	6.186821e+00	5.769964e+00
2.110000e-06	8.562481e-07	1.353438e-10	6.426097e+00	7.976158e+00
2.120000e-06	8.881052e-07	1.659659e-10	6.665183e+00	1.018939e+01
2.130000e-06	9.199533e-07	2.010159e-10	6.904201e+00	1.240974e+01
2.140000e-06	9.517744e-07	2.369934e-10	7.143017e+00	1.463729e+01
2.150000e-06	9.835387e-07	2.733410e-10	7.381407e+00	1.687210e+01
2.160000e-06	1.015253e-06	3.069734e-10	7.619418e+00	1.911422e+01
2.170000e-06	1.046954e-06	3.398537e-10	7.857337e+00	2.136365e+01
2.180000e-06	1.078613e-06	3.738175e-10	8.094937e+00	2.362040e+01
2.190000e-06	1.110140e-06	4.100455e-10	8.331545e+00	2.588441e+01
2.200000e-06	1.141555e-06	4.468011e-10	8.567312e+00	2.815561e+01
2.210000e-06	1.172867e-06	4.801104e-10	8.802304e+00	3.043388e+01
2.220000e-06	1.204140e-06	5.104197e-10	9.037004e+00	3.271904e+01
2.230000e-06	1.235414e-06	5.439469e-10	9.271715e+00	3.501090e+01
2.240000e-06	1.266496e-06	5.827002e-10	9.504985e+00	3.730918e+01
2.250000e-06	1.297397e-06	6.183882e-10	9.736896e+00	3.961358e+01
2.260000e-06	1.328242e-06	6.485683e-10	9.968384e+00	4.192373e+01
2.270000e-06	1.358945e-06	6.800410e-10	1.019881e+01	4.423925e+01
2.280000e-06	1.389596e-06	7.157593e-10	1.042885e+01	4.655967e+01
2.290000e-06	1.420159e-06	7.519468e-10	1.065822e+01	4.888449e+01
2.300000e-06	1.450556e-06	7.857860e-10	1.088634e+01	5.121319e+01
2.310000e-06	1.480806e-06	8.185201e-10	1.111337e+01	5.354517e+01
2.320000e-06	1.510932e-06	8.539819e-10	1.133946e+01	5.587982e+01
2.330000e-06	1.541067e-06	8.899768e-10	1.156563e+01	5.821650e+01
2.340000e-06	1.571164e-06	9.242583e-10	1.179150e+01	6.055454e+01
2.350000e-06	1.601154e-06	9.582510e-10	1.201658e+01	6.289323e+01
2.360000e-06	1.631039e-06	9.927408e-10	1.224086e+01	6.523185e+01
2.370000e-06	1.660789e-06	1.026757e-09	1.246413e+01	6.756967e+01
2.380000e-06	1.690442e-06	1.062309e-09	1.268668e+01	6.990595e+01
2.390000e-06	1.720011e-06	1.098336e-09	1.290859e+01	7.223992e+01
2.400000e-06	1.749472e-06	1.133992e-09	1.312969e+01	7.457082e+01
2.410000e-06	1.778880e-06	1.170265e-09	1.335040e+01	7.689788e+01
2.420000e-06	1.808232e-06	1.205863e-09	1.357068e+01	7.922035e+01
2.430000e-06	1.837428e-06	1.241139e-09	1.378980e+01	8.153746e+01
2.440000e-06	1.866399e-06	1.275477e-09	1.400723e+01	8.384845e+01
2.450000e-06	1.895141e-06	1.308954e-09	1.422293e+01	8.615257e+01
2.460000e-06	1.923796e-06	1.342159e-09	1.443799e+01	8.844906e+01
2.470000e-06	1.952330e-06	1.376034e-09	1.465213e+01	9.073720e+01
2.480000e-06	1.980680e-06	1.410678e-09	1.486490e+01	9.301626e+01
2.490000e-06	2.008934e-06	1.443434e-09	1.507695e+01	9.528551e+01
2.500000e-06	2.037059e-06	1.476213e-09	1.528802e+01	9.754426e+01
2.510000e-06	2.065093e-06	1.509396e-09	1.549842e+01	9.979180e+01
2.520000e-06	2.093106e-06	1.540228e-09	1.570865e+01	1.020274e+02
2.530000e-06	2.121081e-06	1.569450e-09	1.591860e+01	1.042505e+02
2.540000e-06	2.148991e-06	1.600939e-09	1.612806e+01	1.064604e+02
2.550000e-06	2.176809e-06	1.635897e-09	1.633683e+01	1.086564e+02
2.560000e-06	2.204553e-06	1.671052e-09	1.654505e+01	1.108380e+02
2.570000e-06	2.232175e-06	1.703793e-09	1.675235e+01	1.130045e+02
2.580000e-06	2.259579e-06	1.735122e-09	1.695802e+01	1.151553e+02
2.590000e-06	2.286852e-06	1.769127e-09	1.716270e+01	1.172900e+02
2.600000e-06	2.313839e-06	1.801649e-09	1.736524e+01	1.194079e+02
2.610000e-06	2.340590e-06	1.831096e-09	1.756600e+01	1.215085e+02
2.620000e-06	2.367141e-06	1.860668e-09	1.776527e+01	1.235915e+02
2.630000e-06	2.393299e-06	1.891645e-09	1.796159e+01	1.256563e+02
2.640000e-06	2.419085e-06	1.923627e-09	1.815510e+01	1.277026e+02
2.650000e-06	2.444524e-06	1.955571e-09	1.834602e+01	1.297300e+02
2.660000e-06	2.469704e-06	1.985105e-09	1.853500e+01	1.317381e+02
2.670000e-06	2.494681e-06	2.012870e-09	1.872245e+01	1.337268e+02
2.680000e-06	2.519400e-06	2.041568e-09	1.890797e+01	1.356957e+02
2.690000e-06	2.543854e-06	2.070712e-09	1.909149e+01	1.376447e+02
2.700000e-06	2.568137e-06	2.098468e-09	1.927374e+01	1.395735e+02
2.710000e-06	2.592288e-06	2.126263e-09	1.945499e+01	1.414822e+02
2.720000e-06	2.616333e-06	2.155255e-09	1.963544e+01	1.433705e+02
2.730000e-06	2.640267e-06	2.183783e-09	1.981506e+01	1.452385e+02
2.740000e-06	2.664050e-06	2.213505e-09	1.999355e+01	1.470861e+02
2.750000e-06	2.687726e-06	2.243090e-09	2.017124e+01	1.489133e+02
2.760000e-06	2.711214e-06	2.269665e-09	2.034752e+01	1.507202e+02
2.770000e-06	2.734446e-06	2.297833e-09	2.052187e+01	1.525069e+02
2.780000e-06	2.757474e-06	2.329242e-09	2.069469e+01	1.542733e+02
2.790000e-06	2.780345e-06	2.358430e-09	2.086634e+01	1.560196e+02
2.800000e-06	2.803058e-06	2.384189e-09	2.103680e+01	1.577458e+02
2.810000e-06	2.825636e-06	2.409329e-09	2.120625e+01	1.594520e+02
2.820000e-06	2.848006e-06	2.436314e-09	2.137414e+01	1.611382e+02
2.830000e-06	2.870154e-06	2.463173e-09	2.154036e+01	1.628045e+02
2.840000e-06	2.892163e-06	2.488663e-09	2.170553e+01	1.644508e+02
2.850000e-06	2.913961e-06	2.512898e-09	2.186912e+01	1.660772e+02
2.860000e-06	2.935550e-06	2.536284e-09	2.203115e+01	1.676835e+02
2.870000e-06	2.956953e-06	2.561126e-09	2.219177e+01	1.692698e+02
2.880000e-06	2.978240e-06	2.586387e-09	2.235154e+01	1.708358e+02
2.890000e-06	2.999319e-06	2.608387e-09	2.250973e+01	1.723814e+02
2.900000e-06	3.020091e-06	2.628955e-09	2.266562e+01	1.739064e+02
