# Temperatura_=_20.0
# Concentracion g/m^3_=_12600.0
# C_Vs_to_Am_M_A/Vsm_=_65563218390.804596
# pendiente_HvsI_1/m_=_3716.3
# ordenada_HvsI_A/m_=_1297.0
# frecuencia_Hz_=_135039.4632240324

Tiempo_(s)	Campo_(V.s)	Magnetizacion_(V.s)	Campo_(kA/m)	Magnetizacion_(A/m)
0.000000e+00	-3.879747e-06	-3.870789e-09	-2.913602e+01	-2.533098e+02
1.000000e-08	-3.879947e-06	-3.871492e-09	-2.913752e+01	-2.533634e+02
2.000000e-08	-3.880017e-06	-3.869331e-09	-2.913805e+01	-2.533976e+02
3.000000e-08	-3.879841e-06	-3.868325e-09	-2.913673e+01	-2.534122e+02
4.000000e-08	-3.879452e-06	-3.870910e-09	-2.913381e+01	-2.534067e+02
5.000000e-08	-3.878761e-06	-3.884185e-09	-2.912862e+01	-2.533810e+02
6.000000e-08	-3.877691e-06	-3.896613e-09	-2.912058e+01	-2.533348e+02
7.000000e-08	-3.876131e-06	-3.880048e-09	-2.910887e+01	-2.532682e+02
8.000000e-08	-3.873957e-06	-3.845146e-09	-2.909254e+01	-2.531813e+02
9.000000e-08	-3.871285e-06	-3.866468e-09	-2.907248e+01	-2.530743e+02
1.000000e-07	-3.868154e-06	-3.889040e-09	-2.904897e+01	-2.529477e+02
1.100000e-07	-3.864733e-06	-3.887853e-09	-2.902327e+01	-2.528020e+02
1.200000e-07	-3.861144e-06	-3.863953e-09	-2.899632e+01	-2.526377e+02
1.300000e-07	-3.857404e-06	-3.791162e-09	-2.896823e+01	-2.524557e+02
1.400000e-07	-3.853544e-06	-3.773238e-09	-2.893924e+01	-2.522569e+02
1.500000e-07	-3.849568e-06	-3.781643e-09	-2.890938e+01	-2.520421e+02
1.600000e-07	-3.845417e-06	-3.821129e-09	-2.887821e+01	-2.518124e+02
1.700000e-07	-3.841014e-06	-3.839373e-09	-2.884515e+01	-2.515688e+02
1.800000e-07	-3.836354e-06	-3.827033e-09	-2.881015e+01	-2.513124e+02
1.900000e-07	-3.831430e-06	-3.786689e-09	-2.877318e+01	-2.510443e+02
2.000000e-07	-3.826296e-06	-3.778632e-09	-2.873462e+01	-2.507656e+02
2.100000e-07	-3.820851e-06	-3.834243e-09	-2.869373e+01	-2.504773e+02
2.200000e-07	-3.815074e-06	-3.862448e-09	-2.865034e+01	-2.501804e+02
2.300000e-07	-3.809086e-06	-3.811382e-09	-2.860538e+01	-2.498757e+02
2.400000e-07	-3.802764e-06	-3.715217e-09	-2.855790e+01	-2.495640e+02
2.500000e-07	-3.796081e-06	-3.738778e-09	-2.850771e+01	-2.492460e+02
2.600000e-07	-3.789075e-06	-3.836171e-09	-2.845510e+01	-2.489222e+02
2.700000e-07	-3.781789e-06	-3.852695e-09	-2.840038e+01	-2.485930e+02
2.800000e-07	-3.774304e-06	-3.740750e-09	-2.834417e+01	-2.482586e+02
2.900000e-07	-3.766646e-06	-3.682999e-09	-2.828666e+01	-2.479191e+02
3.000000e-07	-3.758843e-06	-3.735080e-09	-2.822806e+01	-2.475745e+02
3.100000e-07	-3.750892e-06	-3.814026e-09	-2.816835e+01	-2.472244e+02
3.200000e-07	-3.742858e-06	-3.799499e-09	-2.810802e+01	-2.468685e+02
3.300000e-07	-3.734624e-06	-3.725974e-09	-2.804618e+01	-2.465064e+02
3.400000e-07	-3.726001e-06	-3.671991e-09	-2.798142e+01	-2.461373e+02
3.500000e-07	-3.716967e-06	-3.698037e-09	-2.791358e+01	-2.457606e+02
3.600000e-07	-3.707547e-06	-3.767085e-09	-2.784284e+01	-2.453755e+02
3.700000e-07	-3.697534e-06	-3.774360e-09	-2.776765e+01	-2.449810e+02
3.800000e-07	-3.686936e-06	-3.678817e-09	-2.768806e+01	-2.445764e+02
3.900000e-07	-3.676099e-06	-3.602646e-09	-2.760668e+01	-2.441606e+02
4.000000e-07	-3.664889e-06	-3.683899e-09	-2.752249e+01	-2.437328e+02
4.100000e-07	-3.653325e-06	-3.795177e-09	-2.743565e+01	-2.432920e+02
4.200000e-07	-3.641584e-06	-3.734669e-09	-2.734747e+01	-2.428375e+02
4.300000e-07	-3.629664e-06	-3.572619e-09	-2.725795e+01	-2.423684e+02
4.400000e-07	-3.617454e-06	-3.574782e-09	-2.716627e+01	-2.418842e+02
4.500000e-07	-3.604885e-06	-3.721189e-09	-2.707187e+01	-2.413842e+02
4.600000e-07	-3.592037e-06	-3.762589e-09	-2.697539e+01	-2.408681e+02
4.700000e-07	-3.578943e-06	-3.617513e-09	-2.687705e+01	-2.403355e+02
4.800000e-07	-3.565603e-06	-3.515977e-09	-2.677688e+01	-2.397862e+02
4.900000e-07	-3.552002e-06	-3.587201e-09	-2.667473e+01	-2.392202e+02
5.000000e-07	-3.538231e-06	-3.703341e-09	-2.657132e+01	-2.386377e+02
5.100000e-07	-3.524180e-06	-3.671460e-09	-2.646580e+01	-2.380388e+02
5.200000e-07	-3.509648e-06	-3.538906e-09	-2.635667e+01	-2.374238e+02
5.300000e-07	-3.494650e-06	-3.487606e-09	-2.624403e+01	-2.367933e+02
5.400000e-07	-3.479417e-06	-3.582005e-09	-2.612964e+01	-2.361478e+02
5.500000e-07	-3.463939e-06	-3.655867e-09	-2.601340e+01	-2.354880e+02
5.600000e-07	-3.447879e-06	-3.579088e-09	-2.589280e+01	-2.348144e+02
5.700000e-07	-3.431433e-06	-3.456060e-09	-2.576928e+01	-2.341279e+02
5.800000e-07	-3.414967e-06	-3.468416e-09	-2.564563e+01	-2.334292e+02
5.900000e-07	-3.398275e-06	-3.569459e-09	-2.552028e+01	-2.327190e+02
6.000000e-07	-3.381242e-06	-3.579035e-09	-2.539236e+01	-2.319980e+02
6.100000e-07	-3.364067e-06	-3.475602e-09	-2.526339e+01	-2.312670e+02
6.200000e-07	-3.346746e-06	-3.414153e-09	-2.513331e+01	-2.305264e+02
6.300000e-07	-3.329231e-06	-3.460743e-09	-2.500178e+01	-2.297769e+02
6.400000e-07	-3.311534e-06	-3.514265e-09	-2.486888e+01	-2.290188e+02
6.500000e-07	-3.293660e-06	-3.478718e-09	-2.473464e+01	-2.282525e+02
6.600000e-07	-3.275539e-06	-3.397383e-09	-2.459856e+01	-2.274781e+02
6.700000e-07	-3.257084e-06	-3.374525e-09	-2.445997e+01	-2.266958e+02
6.800000e-07	-3.238364e-06	-3.415381e-09	-2.431938e+01	-2.259055e+02
6.900000e-07	-3.219398e-06	-3.436791e-09	-2.417695e+01	-2.251071e+02
7.000000e-07	-3.200183e-06	-3.392915e-09	-2.403265e+01	-2.243002e+02
7.100000e-07	-3.180762e-06	-3.335178e-09	-2.388680e+01	-2.234845e+02
7.200000e-07	-3.161151e-06	-3.321609e-09	-2.373953e+01	-2.226596e+02
7.300000e-07	-3.141417e-06	-3.349681e-09	-2.359134e+01	-2.218249e+02
7.400000e-07	-3.121612e-06	-3.356941e-09	-2.344260e+01	-2.209797e+02
7.500000e-07	-3.101735e-06	-3.315151e-09	-2.329333e+01	-2.201235e+02
7.600000e-07	-3.081768e-06	-3.266614e-09	-2.314338e+01	-2.192555e+02
7.700000e-07	-3.061587e-06	-3.266415e-09	-2.299182e+01	-2.183751e+02
7.800000e-07	-3.041190e-06	-3.288777e-09	-2.283865e+01	-2.174815e+02
7.900000e-07	-3.020585e-06	-3.278457e-09	-2.268391e+01	-2.165743e+02
8.000000e-07	-2.999676e-06	-3.230974e-09	-2.252689e+01	-2.156527e+02
8.100000e-07	-2.978561e-06	-3.200093e-09	-2.236832e+01	-2.147163e+02
8.200000e-07	-2.957290e-06	-3.205802e-09	-2.220858e+01	-2.137645e+02
8.300000e-07	-2.935770e-06	-3.216691e-09	-2.204697e+01	-2.127972e+02
8.400000e-07	-2.914039e-06	-3.193319e-09	-2.188377e+01	-2.118141e+02
8.500000e-07	-2.892175e-06	-3.150889e-09	-2.171958e+01	-2.108149e+02
8.600000e-07	-2.870093e-06	-3.126286e-09	-2.155375e+01	-2.097998e+02
8.700000e-07	-2.847825e-06	-3.129180e-09	-2.138653e+01	-2.087688e+02
8.800000e-07	-2.825452e-06	-3.126885e-09	-2.121851e+01	-2.077222e+02
8.900000e-07	-2.802783e-06	-3.101299e-09	-2.104827e+01	-2.066602e+02
9.000000e-07	-2.779831e-06	-3.068191e-09	-2.087590e+01	-2.055833e+02
9.100000e-07	-2.756688e-06	-3.049513e-09	-2.070211e+01	-2.044921e+02
9.200000e-07	-2.733340e-06	-3.047685e-09	-2.052677e+01	-2.033870e+02
9.300000e-07	-2.709867e-06	-3.040602e-09	-2.035049e+01	-2.022687e+02
9.400000e-07	-2.686283e-06	-3.019680e-09	-2.017338e+01	-2.011379e+02
9.500000e-07	-2.662538e-06	-2.993435e-09	-1.999506e+01	-1.999953e+02
9.600000e-07	-2.638672e-06	-2.976957e-09	-1.981583e+01	-1.988416e+02
9.700000e-07	-2.614697e-06	-2.966333e-09	-1.963578e+01	-1.976774e+02
9.800000e-07	-2.590711e-06	-2.953713e-09	-1.945565e+01	-1.965035e+02
9.900000e-07	-2.566639e-06	-2.932379e-09	-1.927488e+01	-1.953203e+02
1.000000e-06	-2.542274e-06	-2.906027e-09	-1.909190e+01	-1.941285e+02
1.010000e-06	-2.517640e-06	-2.883525e-09	-1.890691e+01	-1.929284e+02
1.020000e-06	-2.492765e-06	-2.872258e-09	-1.872010e+01	-1.917205e+02
1.030000e-06	-2.467533e-06	-2.862842e-09	-1.853062e+01	-1.905050e+02
1.040000e-06	-2.441956e-06	-2.839017e-09	-1.833854e+01	-1.892821e+02
1.050000e-06	-2.416207e-06	-2.805863e-09	-1.814517e+01	-1.880517e+02
1.060000e-06	-2.390225e-06	-2.784792e-09	-1.795005e+01	-1.868139e+02
1.070000e-06	-2.363767e-06	-2.777709e-09	-1.775136e+01	-1.855685e+02
1.080000e-06	-2.336898e-06	-2.765283e-09	-1.754957e+01	-1.843152e+02
1.090000e-06	-2.309884e-06	-2.736174e-09	-1.734670e+01	-1.830537e+02
1.100000e-06	-2.282748e-06	-2.704891e-09	-1.714292e+01	-1.817836e+02
1.110000e-06	-2.255418e-06	-2.688486e-09	-1.693768e+01	-1.805043e+02
1.120000e-06	-2.227898e-06	-2.678656e-09	-1.673101e+01	-1.792153e+02
1.130000e-06	-2.200268e-06	-2.657871e-09	-1.652352e+01	-1.779160e+02
1.140000e-06	-2.172587e-06	-2.625863e-09	-1.631564e+01	-1.766057e+02
1.150000e-06	-2.144797e-06	-2.599318e-09	-1.610694e+01	-1.752840e+02
1.160000e-06	-2.116936e-06	-2.587172e-09	-1.589771e+01	-1.739501e+02
1.170000e-06	-2.089068e-06	-2.575118e-09	-1.568843e+01	-1.726034e+02
1.180000e-06	-2.061089e-06	-2.552750e-09	-1.547831e+01	-1.712435e+02
1.190000e-06	-2.032976e-06	-2.524279e-09	-1.526719e+01	-1.698697e+02
1.200000e-06	-2.004677e-06	-2.501515e-09	-1.505467e+01	-1.684817e+02
1.210000e-06	-1.976210e-06	-2.487278e-09	-1.484089e+01	-1.670790e+02
1.220000e-06	-1.947698e-06	-2.469980e-09	-1.462677e+01	-1.656615e+02
1.230000e-06	-1.919116e-06	-2.444038e-09	-1.441213e+01	-1.642288e+02
1.240000e-06	-1.890358e-06	-2.412485e-09	-1.419616e+01	-1.627808e+02
1.250000e-06	-1.861447e-06	-2.386131e-09	-1.397905e+01	-1.613176e+02
1.260000e-06	-1.832404e-06	-2.367207e-09	-1.376094e+01	-1.598392e+02
1.270000e-06	-1.803208e-06	-2.349610e-09	-1.354168e+01	-1.583457e+02
1.280000e-06	-1.773858e-06	-2.325070e-09	-1.332128e+01	-1.568373e+02
1.290000e-06	-1.744347e-06	-2.294050e-09	-1.309965e+01	-1.553143e+02
1.300000e-06	-1.714734e-06	-2.267681e-09	-1.287727e+01	-1.537771e+02
1.310000e-06	-1.685054e-06	-2.250384e-09	-1.265437e+01	-1.522260e+02
1.320000e-06	-1.655291e-06	-2.231289e-09	-1.243086e+01	-1.506616e+02
1.330000e-06	-1.625504e-06	-2.202131e-09	-1.220717e+01	-1.490841e+02
1.340000e-06	-1.595613e-06	-2.169009e-09	-1.198269e+01	-1.474941e+02
1.350000e-06	-1.565568e-06	-2.145690e-09	-1.175706e+01	-1.458922e+02
1.360000e-06	-1.535490e-06	-2.127230e-09	-1.153118e+01	-1.442786e+02
1.370000e-06	-1.505336e-06	-2.102935e-09	-1.130473e+01	-1.426540e+02
1.380000e-06	-1.475064e-06	-2.071277e-09	-1.107740e+01	-1.410187e+02
1.390000e-06	-1.444654e-06	-2.044714e-09	-1.084903e+01	-1.393731e+02
1.400000e-06	-1.414191e-06	-2.028019e-09	-1.062026e+01	-1.377175e+02
1.410000e-06	-1.383687e-06	-2.009028e-09	-1.039118e+01	-1.360522e+02
1.420000e-06	-1.353087e-06	-1.980018e-09	-1.016138e+01	-1.343774e+02
1.430000e-06	-1.322397e-06	-1.947251e-09	-9.930900e+00	-1.326934e+02
1.440000e-06	-1.291544e-06	-1.919837e-09	-9.699202e+00	-1.310002e+02
1.450000e-06	-1.260505e-06	-1.894911e-09	-9.466107e+00	-1.292979e+02
1.460000e-06	-1.229344e-06	-1.872185e-09	-9.232099e+00	-1.275865e+02
1.470000e-06	-1.198085e-06	-1.848035e-09	-8.997347e+00	-1.258659e+02
1.480000e-06	-1.166778e-06	-1.823358e-09	-8.762243e+00	-1.241361e+02
1.490000e-06	-1.135442e-06	-1.796425e-09	-8.526914e+00	-1.223968e+02
1.500000e-06	-1.104022e-06	-1.769492e-09	-8.290956e+00	-1.206479e+02
1.510000e-06	-1.072496e-06	-1.743892e-09	-8.054201e+00	-1.188893e+02
1.520000e-06	-1.040875e-06	-1.716057e-09	-7.816734e+00	-1.171205e+02
1.530000e-06	-1.009240e-06	-1.688827e-09	-7.579168e+00	-1.153415e+02
1.540000e-06	-9.775938e-07	-1.662439e-09	-7.341509e+00	-1.135518e+02
1.550000e-06	-9.459449e-07	-1.635235e-09	-7.103833e+00	-1.117513e+02
1.560000e-06	-9.142138e-07	-1.606142e-09	-6.865540e+00	-1.099396e+02
1.570000e-06	-8.824151e-07	-1.576433e-09	-6.626738e+00	-1.081164e+02
1.580000e-06	-8.506170e-07	-1.546956e-09	-6.387942e+00	-1.062816e+02
1.590000e-06	-8.188137e-07	-1.518228e-09	-6.149106e+00	-1.044347e+02
1.600000e-06	-7.869977e-07	-1.492021e-09	-5.910175e+00	-1.025756e+02
1.610000e-06	-7.550847e-07	-1.466031e-09	-5.670516e+00	-1.007041e+02
1.620000e-06	-7.231083e-07	-1.436785e-09	-5.430380e+00	-9.881980e+01
1.630000e-06	-6.911741e-07	-1.406975e-09	-5.190562e+00	-9.692267e+01
1.640000e-06	-6.592089e-07	-1.377345e-09	-4.950510e+00	-9.501248e+01
1.650000e-06	-6.272202e-07	-1.349823e-09	-4.710282e+00	-9.308905e+01
1.660000e-06	-5.952716e-07	-1.323669e-09	-4.470355e+00	-9.115226e+01
1.670000e-06	-5.632944e-07	-1.294217e-09	-4.230214e+00	-8.920198e+01
1.680000e-06	-5.312969e-07	-1.263164e-09	-3.989920e+00	-8.723809e+01
1.690000e-06	-4.992348e-07	-1.235410e-09	-3.749141e+00	-8.526050e+01
1.700000e-06	-4.671496e-07	-1.208836e-09	-3.508188e+00	-8.326913e+01
1.710000e-06	-4.350367e-07	-1.179321e-09	-3.267028e+00	-8.126393e+01
1.720000e-06	-4.028358e-07	-1.147969e-09	-3.025206e+00	-7.924485e+01
1.730000e-06	-3.705990e-07	-1.119288e-09	-2.783115e+00	-7.721186e+01
1.740000e-06	-3.383654e-07	-1.092433e-09	-2.541048e+00	-7.516494e+01
1.750000e-06	-3.061710e-07	-1.062037e-09	-2.299275e+00	-7.310410e+01
1.760000e-06	-2.739138e-07	-1.029352e-09	-2.057031e+00	-7.102938e+01
1.770000e-06	-2.415934e-07	-9.965449e-10	-1.814312e+00	-6.894081e+01
1.780000e-06	-2.092924e-07	-9.643452e-10	-1.571739e+00	-6.683846e+01
1.790000e-06	-1.770008e-07	-9.344783e-10	-1.329236e+00	-6.472245e+01
1.800000e-06	-1.447343e-07	-9.042044e-10	-1.086922e+00	-6.259288e+01
1.810000e-06	-1.124302e-07	-8.704257e-10	-8.443252e-01	-6.044992e+01
1.820000e-06	-8.011157e-08	-8.368383e-10	-6.016198e-01	-5.829376e+01
1.830000e-06	-4.777421e-08	-8.031028e-10	-3.587735e-01	-5.612461e+01
1.840000e-06	-1.533303e-08	-7.703160e-10	-1.151476e-01	-5.394272e+01
1.850000e-06	1.714277e-08	-7.351752e-10	1.287383e-01	-5.174838e+01
1.860000e-06	4.951421e-08	-6.984354e-10	3.718405e-01	-4.954190e+01
1.870000e-06	8.182877e-08	-6.632443e-10	6.145156e-01	-4.732363e+01
1.880000e-06	1.142375e-07	-6.299041e-10	8.578979e-01	-4.509394e+01
1.890000e-06	1.466117e-07	-5.996605e-10	1.101021e+00	-4.285322e+01
1.900000e-06	1.789203e-07	-5.677573e-10	1.343651e+00	-4.060189e+01
1.910000e-06	2.112308e-07	-5.345977e-10	1.586296e+00	-3.834036e+01
1.920000e-06	2.435007e-07	-5.029099e-10	1.828635e+00	-3.606908e+01
1.930000e-06	2.757399e-07	-4.715736e-10	2.070744e+00	-3.378848e+01
1.940000e-06	3.079587e-07	-4.389358e-10	2.312701e+00	-3.149897e+01
1.950000e-06	3.401963e-07	-4.034519e-10	2.554797e+00	-2.920097e+01
1.960000e-06	3.724038e-07	-3.666052e-10	2.796669e+00	-2.689487e+01
1.970000e-06	4.046059e-07	-3.309106e-10	3.038499e+00	-2.458101e+01
1.980000e-06	4.367331e-07	-2.973687e-10	3.279767e+00	-2.225973e+01
1.990000e-06	4.687632e-07	-2.661452e-10	3.520306e+00	-1.993129e+01
2.000000e-06	5.008800e-07	-2.319037e-10	3.761496e+00	-1.759591e+01
2.010000e-06	5.329316e-07	-1.953561e-10	4.002196e+00	-1.525377e+01
2.020000e-06	5.649043e-07	-1.630319e-10	4.242304e+00	-1.290498e+01
2.030000e-06	5.968940e-07	-1.349719e-10	4.482540e+00	-1.054959e+01
2.040000e-06	6.288482e-07	-1.023338e-10	4.722508e+00	-8.187585e+00
2.050000e-06	6.607876e-07	-6.338951e-11	4.962366e+00	-5.818904e+00
2.060000e-06	6.927231e-07	-2.574501e-11	5.202194e+00	-3.443419e+00
2.070000e-06	7.246515e-07	6.051105e-12	5.441969e+00	-1.060953e+00
2.080000e-06	7.565249e-07	3.886743e-11	5.681332e+00	1.328719e+00
2.090000e-06	7.883816e-07	7.577457e-11	5.920568e+00	3.725858e+00
2.100000e-06	8.201983e-07	1.141830e-10	6.159504e+00	6.130756e+00
2.110000e-06	8.519714e-07	1.487699e-10	6.398113e+00	8.543721e+00
2.120000e-06	8.837191e-07	1.800890e-10	6.636531e+00	1.096507e+01
2.130000e-06	9.154516e-07	2.168592e-10	6.874835e+00	1.339512e+01
2.140000e-06	9.471907e-07	2.576846e-10	7.113189e+00	1.583415e+01
2.150000e-06	9.789158e-07	2.970399e-10	7.351436e+00	1.828244e+01
2.160000e-06	1.010593e-06	3.339281e-10	7.589325e+00	2.074021e+01
2.170000e-06	1.042180e-06	3.704427e-10	7.826539e+00	2.320761e+01
2.180000e-06	1.073752e-06	4.073326e-10	8.063634e+00	2.568474e+01
2.190000e-06	1.105234e-06	4.452107e-10	8.300058e+00	2.817163e+01
2.200000e-06	1.136693e-06	4.830298e-10	8.536307e+00	3.066821e+01
2.210000e-06	1.168111e-06	5.180420e-10	8.772246e+00	3.317432e+01
2.220000e-06	1.199362e-06	5.496505e-10	9.006940e+00	3.568970e+01
2.230000e-06	1.230496e-06	5.831944e-10	9.240751e+00	3.821398e+01
2.240000e-06	1.261481e-06	6.227525e-10	9.473435e+00	4.074672e+01
2.250000e-06	1.292412e-06	6.619555e-10	9.705723e+00	4.328733e+01
2.260000e-06	1.323269e-06	6.965825e-10	9.937453e+00	4.583515e+01
2.270000e-06	1.354049e-06	7.304813e-10	1.016860e+01	4.838942e+01
2.280000e-06	1.384703e-06	7.672668e-10	1.039881e+01	5.094930e+01
2.290000e-06	1.415214e-06	8.068647e-10	1.062794e+01	5.351386e+01
2.300000e-06	1.445670e-06	8.441417e-10	1.085666e+01	5.608211e+01
2.310000e-06	1.475949e-06	8.777049e-10	1.108404e+01	5.865301e+01
2.320000e-06	1.506084e-06	9.110957e-10	1.131035e+01	6.122547e+01
2.330000e-06	1.536167e-06	9.484949e-10	1.153627e+01	6.379839e+01
2.340000e-06	1.566125e-06	9.888177e-10	1.176125e+01	6.637064e+01
2.350000e-06	1.595982e-06	1.029600e-09	1.198547e+01	6.894110e+01
2.360000e-06	1.625802e-06	1.068558e-09	1.220940e+01	7.150868e+01
2.370000e-06	1.655581e-06	1.105114e-09	1.243304e+01	7.407230e+01
2.380000e-06	1.685291e-06	1.142896e-09	1.265616e+01	7.663094e+01
2.390000e-06	1.714923e-06	1.180356e-09	1.287869e+01	7.918364e+01
2.400000e-06	1.744448e-06	1.218151e-09	1.310041e+01	8.172948e+01
2.410000e-06	1.773844e-06	1.253853e-09	1.332117e+01	8.426765e+01
2.420000e-06	1.803141e-06	1.289121e-09	1.354118e+01	8.679739e+01
2.430000e-06	1.832292e-06	1.326764e-09	1.376010e+01	8.931803e+01
2.440000e-06	1.861301e-06	1.366247e-09	1.397795e+01	9.182900e+01
2.450000e-06	1.890127e-06	1.405140e-09	1.419443e+01	9.432980e+01
2.460000e-06	1.918772e-06	1.441446e-09	1.440955e+01	9.682002e+01
2.470000e-06	1.947277e-06	1.478079e-09	1.462361e+01	9.929932e+01
2.480000e-06	1.975669e-06	1.515494e-09	1.483683e+01	1.017674e+02
2.490000e-06	2.003933e-06	1.552413e-09	1.504909e+01	1.042242e+02
2.500000e-06	2.032013e-06	1.588415e-09	1.525996e+01	1.066694e+02
2.510000e-06	2.059993e-06	1.621255e-09	1.547008e+01	1.091030e+02
2.520000e-06	2.087921e-06	1.652786e-09	1.567982e+01	1.115249e+02
2.530000e-06	2.115775e-06	1.687712e-09	1.588899e+01	1.139350e+02
2.540000e-06	2.143557e-06	1.726664e-09	1.609763e+01	1.163333e+02
2.550000e-06	2.171300e-06	1.765657e-09	1.630597e+01	1.187198e+02
2.560000e-06	2.198962e-06	1.799838e-09	1.651371e+01	1.210943e+02
2.570000e-06	2.226472e-06	1.831563e-09	1.672030e+01	1.234568e+02
2.580000e-06	2.253888e-06	1.866303e-09	1.692619e+01	1.258072e+02
2.590000e-06	2.281168e-06	1.905709e-09	1.713105e+01	1.281452e+02
2.600000e-06	2.308219e-06	1.941467e-09	1.733420e+01	1.304706e+02
2.610000e-06	2.335088e-06	1.972169e-09	1.753598e+01	1.327832e+02
2.620000e-06	2.361694e-06	2.004412e-09	1.773579e+01	1.350826e+02
2.630000e-06	2.387886e-06	2.040839e-09	1.793249e+01	1.373684e+02
2.640000e-06	2.413685e-06	2.077330e-09	1.812623e+01	1.396401e+02
2.650000e-06	2.439317e-06	2.110287e-09	1.831872e+01	1.418971e+02
2.660000e-06	2.464770e-06	2.141474e-09	1.850986e+01	1.441390e+02
2.670000e-06	2.489907e-06	2.174336e-09	1.869864e+01	1.463651e+02
2.680000e-06	2.514759e-06	2.209266e-09	1.888528e+01	1.485746e+02
2.690000e-06	2.539322e-06	2.243876e-09	1.906973e+01	1.507670e+02
2.700000e-06	2.563669e-06	2.271688e-09	1.925258e+01	1.529414e+02
2.710000e-06	2.587898e-06	2.299445e-09	1.943453e+01	1.550970e+02
2.720000e-06	2.611978e-06	2.328507e-09	1.961536e+01	1.572333e+02
2.730000e-06	2.635875e-06	2.360048e-09	1.979483e+01	1.593493e+02
2.740000e-06	2.659631e-06	2.394728e-09	1.997323e+01	1.614443e+02
2.750000e-06	2.683234e-06	2.428881e-09	2.015048e+01	1.635177e+02
2.760000e-06	2.706703e-06	2.462310e-09	2.032673e+01	1.655687e+02
2.770000e-06	2.729984e-06	2.496539e-09	2.050156e+01	1.675967e+02
2.780000e-06	2.752982e-06	2.531767e-09	2.067427e+01	1.696010e+02
2.790000e-06	2.775786e-06	2.563871e-09	2.084553e+01	1.715812e+02
2.800000e-06	2.798436e-06	2.590323e-09	2.101562e+01	1.735367e+02
2.810000e-06	2.820911e-06	2.616201e-09	2.118441e+01	1.754671e+02
2.820000e-06	2.843193e-06	2.644518e-09	2.135174e+01	1.773720e+02
2.830000e-06	2.865250e-06	2.674036e-09	2.151738e+01	1.792511e+02
2.840000e-06	2.887159e-06	2.703066e-09	2.168191e+01	1.811041e+02
2.850000e-06	2.908918e-06	2.733050e-09	2.184532e+01	1.829308e+02
2.860000e-06	2.930439e-06	2.762600e-09	2.200694e+01	1.847310e+02
2.870000e-06	2.951841e-06	2.790182e-09	2.216766e+01	1.865047e+02
2.880000e-06	2.973095e-06	2.818080e-09	2.232727e+01	1.882518e+02
2.890000e-06	2.994114e-06	2.842688e-09	2.248512e+01	1.899722e+02
2.900000e-06	3.014901e-06	2.866480e-09	2.264122e+01	1.916660e+02
