# Temperatura_=_20.0
# Concentracion g/m^3_=_12600.0
# C_Vs_to_Am_M_A/Vsm_=_65563218390.804596
# pendiente_HvsI_1/m_=_3716.3
# ordenada_HvsI_A/m_=_1297.0
# frecuencia_Hz_=_135033.93230547983

Tiempo_(s)	Campo_(V.s)	Magnetizacion_(V.s)	Campo_(kA/m)	Magnetizacion_(A/m)
0.000000e+00	-3.889336e-06	-3.328787e-09	-2.914901e+01	-2.175019e+02
1.000000e-08	-3.889499e-06	-3.329531e-09	-2.915023e+01	-2.174935e+02
2.000000e-08	-3.889479e-06	-3.328120e-09	-2.915008e+01	-2.174711e+02
3.000000e-08	-3.889266e-06	-3.326551e-09	-2.914848e+01	-2.174352e+02
4.000000e-08	-3.888785e-06	-3.326419e-09	-2.914488e+01	-2.173867e+02
5.000000e-08	-3.888088e-06	-3.329679e-09	-2.913965e+01	-2.173261e+02
6.000000e-08	-3.887047e-06	-3.338929e-09	-2.913186e+01	-2.172543e+02
7.000000e-08	-3.885366e-06	-3.346728e-09	-2.911926e+01	-2.171720e+02
8.000000e-08	-3.883040e-06	-3.330602e-09	-2.910182e+01	-2.170800e+02
9.000000e-08	-3.880227e-06	-3.297479e-09	-2.908074e+01	-2.169791e+02
1.000000e-07	-3.877043e-06	-3.336022e-09	-2.905687e+01	-2.168700e+02
1.100000e-07	-3.873679e-06	-3.298165e-09	-2.903167e+01	-2.167535e+02
1.200000e-07	-3.870130e-06	-3.297233e-09	-2.900507e+01	-2.166302e+02
1.300000e-07	-3.866371e-06	-3.271499e-09	-2.897689e+01	-2.165007e+02
1.400000e-07	-3.862532e-06	-3.296794e-09	-2.894812e+01	-2.163657e+02
1.500000e-07	-3.858566e-06	-3.352670e-09	-2.891840e+01	-2.162256e+02
1.600000e-07	-3.854419e-06	-3.285926e-09	-2.888732e+01	-2.160808e+02
1.700000e-07	-3.850076e-06	-3.294655e-09	-2.885477e+01	-2.159316e+02
1.800000e-07	-3.845527e-06	-3.287769e-09	-2.882068e+01	-2.157782e+02
1.900000e-07	-3.840616e-06	-3.307223e-09	-2.878388e+01	-2.156207e+02
2.000000e-07	-3.835326e-06	-3.288699e-09	-2.874423e+01	-2.154591e+02
2.100000e-07	-3.829781e-06	-3.320763e-09	-2.870267e+01	-2.152934e+02
2.200000e-07	-3.823941e-06	-3.300460e-09	-2.865890e+01	-2.151233e+02
2.300000e-07	-3.817798e-06	-3.270857e-09	-2.861286e+01	-2.149485e+02
2.400000e-07	-3.811344e-06	-3.233287e-09	-2.856449e+01	-2.147688e+02
2.500000e-07	-3.804625e-06	-3.273206e-09	-2.851413e+01	-2.145835e+02
2.600000e-07	-3.797671e-06	-3.305055e-09	-2.846202e+01	-2.143922e+02
2.700000e-07	-3.790387e-06	-3.269654e-09	-2.840743e+01	-2.141943e+02
2.800000e-07	-3.782841e-06	-3.240843e-09	-2.835087e+01	-2.139891e+02
2.900000e-07	-3.775156e-06	-3.241293e-09	-2.829328e+01	-2.137760e+02
3.000000e-07	-3.767293e-06	-3.249014e-09	-2.823434e+01	-2.135542e+02
3.100000e-07	-3.759263e-06	-3.234743e-09	-2.817417e+01	-2.133230e+02
3.200000e-07	-3.751153e-06	-3.268663e-09	-2.811338e+01	-2.130816e+02
3.300000e-07	-3.742769e-06	-3.260981e-09	-2.805055e+01	-2.128294e+02
3.400000e-07	-3.734081e-06	-3.215764e-09	-2.798543e+01	-2.125655e+02
3.500000e-07	-3.725012e-06	-3.173625e-09	-2.791747e+01	-2.122894e+02
3.600000e-07	-3.715452e-06	-3.240912e-09	-2.784582e+01	-2.120005e+02
3.700000e-07	-3.705432e-06	-3.272174e-09	-2.777072e+01	-2.116980e+02
3.800000e-07	-3.694953e-06	-3.212198e-09	-2.769218e+01	-2.113816e+02
3.900000e-07	-3.684021e-06	-3.131684e-09	-2.761025e+01	-2.110508e+02
4.000000e-07	-3.672749e-06	-3.195766e-09	-2.752577e+01	-2.107052e+02
4.100000e-07	-3.661231e-06	-3.271656e-09	-2.743946e+01	-2.103445e+02
4.200000e-07	-3.649491e-06	-3.231523e-09	-2.735146e+01	-2.099687e+02
4.300000e-07	-3.637527e-06	-3.119771e-09	-2.726180e+01	-2.095774e+02
4.400000e-07	-3.625299e-06	-3.120468e-09	-2.717016e+01	-2.091708e+02
4.500000e-07	-3.612802e-06	-3.203431e-09	-2.707649e+01	-2.087489e+02
4.600000e-07	-3.599965e-06	-3.232358e-09	-2.698029e+01	-2.083118e+02
4.700000e-07	-3.586811e-06	-3.153959e-09	-2.688170e+01	-2.078597e+02
4.800000e-07	-3.573434e-06	-3.079271e-09	-2.678145e+01	-2.073930e+02
4.900000e-07	-3.559852e-06	-3.110223e-09	-2.667966e+01	-2.069120e+02
5.000000e-07	-3.545988e-06	-3.193062e-09	-2.657575e+01	-2.064171e+02
5.100000e-07	-3.531866e-06	-3.197620e-09	-2.646991e+01	-2.059088e+02
5.200000e-07	-3.517489e-06	-3.094221e-09	-2.636216e+01	-2.053875e+02
5.300000e-07	-3.502679e-06	-3.040854e-09	-2.625117e+01	-2.048538e+02
5.400000e-07	-3.487525e-06	-3.107653e-09	-2.613759e+01	-2.043081e+02
5.500000e-07	-3.471967e-06	-3.181883e-09	-2.602100e+01	-2.037512e+02
5.600000e-07	-3.456036e-06	-3.116807e-09	-2.590160e+01	-2.031834e+02
5.700000e-07	-3.439806e-06	-3.021977e-09	-2.577996e+01	-2.026053e+02
5.800000e-07	-3.423362e-06	-3.031045e-09	-2.565672e+01	-2.020174e+02
5.900000e-07	-3.406634e-06	-3.114772e-09	-2.553135e+01	-2.014201e+02
6.000000e-07	-3.389527e-06	-3.112304e-09	-2.540314e+01	-2.008140e+02
6.100000e-07	-3.372275e-06	-3.033537e-09	-2.527384e+01	-2.001993e+02
6.200000e-07	-3.354920e-06	-2.982676e-09	-2.514377e+01	-1.995765e+02
6.300000e-07	-3.337471e-06	-3.021683e-09	-2.501300e+01	-1.989457e+02
6.400000e-07	-3.319816e-06	-3.061920e-09	-2.488068e+01	-1.983073e+02
6.500000e-07	-3.301898e-06	-3.036399e-09	-2.474639e+01	-1.976613e+02
6.600000e-07	-3.283667e-06	-2.967740e-09	-2.460976e+01	-1.970079e+02
6.700000e-07	-3.265171e-06	-2.952031e-09	-2.447114e+01	-1.963471e+02
6.800000e-07	-3.246407e-06	-2.989287e-09	-2.433051e+01	-1.956789e+02
6.900000e-07	-3.227311e-06	-3.008103e-09	-2.418740e+01	-1.950032e+02
7.000000e-07	-3.207980e-06	-2.966125e-09	-2.404252e+01	-1.943199e+02
7.100000e-07	-3.188535e-06	-2.917107e-09	-2.389678e+01	-1.936288e+02
7.200000e-07	-3.168918e-06	-2.912516e-09	-2.374977e+01	-1.929298e+02
7.300000e-07	-3.149100e-06	-2.934779e-09	-2.360124e+01	-1.922226e+02
7.400000e-07	-3.129187e-06	-2.930544e-09	-2.345200e+01	-1.915068e+02
7.500000e-07	-3.109196e-06	-2.889573e-09	-2.330218e+01	-1.907823e+02
7.600000e-07	-3.089062e-06	-2.857780e-09	-2.315127e+01	-1.900488e+02
7.700000e-07	-3.068801e-06	-2.860585e-09	-2.299943e+01	-1.893058e+02
7.800000e-07	-3.048442e-06	-2.872421e-09	-2.284685e+01	-1.885532e+02
7.900000e-07	-3.027849e-06	-2.855772e-09	-2.269251e+01	-1.877906e+02
8.000000e-07	-3.006985e-06	-2.826007e-09	-2.253614e+01	-1.870178e+02
8.100000e-07	-2.985834e-06	-2.804432e-09	-2.237762e+01	-1.862345e+02
8.200000e-07	-2.964373e-06	-2.801688e-09	-2.221678e+01	-1.854404e+02
8.300000e-07	-2.942751e-06	-2.799570e-09	-2.205474e+01	-1.846354e+02
8.400000e-07	-2.921000e-06	-2.785978e-09	-2.189172e+01	-1.838194e+02
8.500000e-07	-2.899101e-06	-2.756232e-09	-2.172760e+01	-1.829922e+02
8.600000e-07	-2.877039e-06	-2.734181e-09	-2.156225e+01	-1.821536e+02
8.700000e-07	-2.854736e-06	-2.729959e-09	-2.139509e+01	-1.813038e+02
8.800000e-07	-2.832227e-06	-2.732649e-09	-2.122640e+01	-1.804427e+02
8.900000e-07	-2.809507e-06	-2.716930e-09	-2.105612e+01	-1.795703e+02
9.000000e-07	-2.786482e-06	-2.689472e-09	-2.088356e+01	-1.786868e+02
9.100000e-07	-2.763187e-06	-2.668255e-09	-2.070898e+01	-1.777922e+02
9.200000e-07	-2.739777e-06	-2.663445e-09	-2.053352e+01	-1.768867e+02
9.300000e-07	-2.716280e-06	-2.661631e-09	-2.035742e+01	-1.759704e+02
9.400000e-07	-2.692611e-06	-2.648414e-09	-2.018003e+01	-1.750437e+02
9.500000e-07	-2.668751e-06	-2.624326e-09	-2.000121e+01	-1.741067e+02
9.600000e-07	-2.644780e-06	-2.607918e-09	-1.982157e+01	-1.731596e+02
9.700000e-07	-2.620755e-06	-2.602136e-09	-1.964150e+01	-1.722027e+02
9.800000e-07	-2.596674e-06	-2.596686e-09	-1.946103e+01	-1.712362e+02
9.900000e-07	-2.572434e-06	-2.579780e-09	-1.927936e+01	-1.702604e+02
1.000000e-06	-2.548006e-06	-2.553881e-09	-1.909628e+01	-1.692755e+02
1.010000e-06	-2.523353e-06	-2.531406e-09	-1.891151e+01	-1.682816e+02
1.020000e-06	-2.498366e-06	-2.521049e-09	-1.872425e+01	-1.672790e+02
1.030000e-06	-2.473123e-06	-2.514413e-09	-1.853506e+01	-1.662678e+02
1.040000e-06	-2.447574e-06	-2.495818e-09	-1.834359e+01	-1.652480e+02
1.050000e-06	-2.421823e-06	-2.469371e-09	-1.815059e+01	-1.642199e+02
1.060000e-06	-2.395818e-06	-2.451171e-09	-1.795569e+01	-1.631834e+02
1.070000e-06	-2.369334e-06	-2.445428e-09	-1.775720e+01	-1.621385e+02
1.080000e-06	-2.342583e-06	-2.435844e-09	-1.755672e+01	-1.610851e+02
1.090000e-06	-2.315663e-06	-2.415537e-09	-1.735496e+01	-1.600232e+02
1.100000e-06	-2.288511e-06	-2.392081e-09	-1.715147e+01	-1.589526e+02
1.110000e-06	-2.261096e-06	-2.374749e-09	-1.694600e+01	-1.578732e+02
1.120000e-06	-2.233458e-06	-2.362325e-09	-1.673887e+01	-1.567846e+02
1.130000e-06	-2.205757e-06	-2.346748e-09	-1.653126e+01	-1.556868e+02
1.140000e-06	-2.178010e-06	-2.324055e-09	-1.632331e+01	-1.545792e+02
1.150000e-06	-2.150148e-06	-2.301010e-09	-1.611449e+01	-1.534618e+02
1.160000e-06	-2.122197e-06	-2.286481e-09	-1.590502e+01	-1.523340e+02
1.170000e-06	-2.094214e-06	-2.277858e-09	-1.569529e+01	-1.511956e+02
1.180000e-06	-2.066165e-06	-2.263503e-09	-1.548507e+01	-1.500462e+02
1.190000e-06	-2.038017e-06	-2.240260e-09	-1.527412e+01	-1.488854e+02
1.200000e-06	-2.009801e-06	-2.216975e-09	-1.506265e+01	-1.477128e+02
1.210000e-06	-1.981429e-06	-2.202956e-09	-1.485001e+01	-1.465282e+02
1.220000e-06	-1.952846e-06	-2.190826e-09	-1.463579e+01	-1.453311e+02
1.230000e-06	-1.924201e-06	-2.174067e-09	-1.442111e+01	-1.441213e+02
1.240000e-06	-1.895435e-06	-2.149785e-09	-1.420552e+01	-1.428984e+02
1.250000e-06	-1.866433e-06	-2.127334e-09	-1.398817e+01	-1.416623e+02
1.260000e-06	-1.837299e-06	-2.113813e-09	-1.376982e+01	-1.404127e+02
1.270000e-06	-1.808027e-06	-2.102893e-09	-1.355044e+01	-1.391496e+02
1.280000e-06	-1.778668e-06	-2.085867e-09	-1.333040e+01	-1.378727e+02
1.290000e-06	-1.749152e-06	-2.059224e-09	-1.310919e+01	-1.365821e+02
1.300000e-06	-1.719417e-06	-2.036403e-09	-1.288634e+01	-1.352777e+02
1.310000e-06	-1.689582e-06	-2.022103e-09	-1.266273e+01	-1.339596e+02
1.320000e-06	-1.659678e-06	-2.004628e-09	-1.243862e+01	-1.326280e+02
1.330000e-06	-1.629686e-06	-1.976185e-09	-1.221384e+01	-1.312830e+02
1.340000e-06	-1.599600e-06	-1.946128e-09	-1.198836e+01	-1.299249e+02
1.350000e-06	-1.569473e-06	-1.925070e-09	-1.176257e+01	-1.285539e+02
1.360000e-06	-1.539270e-06	-1.911198e-09	-1.153621e+01	-1.271704e+02
1.370000e-06	-1.508973e-06	-1.892991e-09	-1.130914e+01	-1.257747e+02
1.380000e-06	-1.478568e-06	-1.866929e-09	-1.108127e+01	-1.243673e+02
1.390000e-06	-1.448111e-06	-1.843073e-09	-1.085301e+01	-1.229485e+02
1.400000e-06	-1.417583e-06	-1.826459e-09	-1.062422e+01	-1.215188e+02
1.410000e-06	-1.386943e-06	-1.807973e-09	-1.039458e+01	-1.200787e+02
1.420000e-06	-1.356192e-06	-1.782087e-09	-1.016411e+01	-1.186287e+02
1.430000e-06	-1.325312e-06	-1.753231e-09	-9.932678e+00	-1.171691e+02
1.440000e-06	-1.294339e-06	-1.728392e-09	-9.700552e+00	-1.157005e+02
1.450000e-06	-1.263260e-06	-1.709257e-09	-9.467622e+00	-1.142233e+02
1.460000e-06	-1.232064e-06	-1.690437e-09	-9.233821e+00	-1.127379e+02
1.470000e-06	-1.200704e-06	-1.669448e-09	-8.998792e+00	-1.112445e+02
1.480000e-06	-1.169282e-06	-1.647892e-09	-8.763301e+00	-1.097437e+02
1.490000e-06	-1.137865e-06	-1.627958e-09	-8.527844e+00	-1.082355e+02
1.500000e-06	-1.106386e-06	-1.606047e-09	-8.291922e+00	-1.067202e+02
1.510000e-06	-1.074799e-06	-1.583141e-09	-8.055185e+00	-1.051980e+02
1.520000e-06	-1.043118e-06	-1.559594e-09	-7.817747e+00	-1.036690e+02
1.530000e-06	-1.011418e-06	-1.536042e-09	-7.580170e+00	-1.021331e+02
1.540000e-06	-9.796316e-07	-1.511452e-09	-7.341945e+00	-1.005902e+02
1.550000e-06	-9.477776e-07	-1.485791e-09	-7.103212e+00	-9.904038e+01
1.560000e-06	-9.159138e-07	-1.459582e-09	-6.864406e+00	-9.748330e+01
1.570000e-06	-8.840024e-07	-1.434456e-09	-6.625242e+00	-9.591872e+01
1.580000e-06	-8.520517e-07	-1.409814e-09	-6.385785e+00	-9.434633e+01
1.590000e-06	-8.200971e-07	-1.387496e-09	-6.146298e+00	-9.276574e+01
1.600000e-06	-7.881500e-07	-1.365597e-09	-5.906867e+00	-9.117654e+01
1.610000e-06	-7.561490e-07	-1.340919e-09	-5.667032e+00	-8.957823e+01
1.620000e-06	-7.240959e-07	-1.314809e-09	-5.426807e+00	-8.797031e+01
1.630000e-06	-6.920650e-07	-1.288946e-09	-5.186749e+00	-8.635224e+01
1.640000e-06	-6.600383e-07	-1.260800e-09	-4.946722e+00	-8.472347e+01
1.650000e-06	-6.280003e-07	-1.233238e-09	-4.706610e+00	-8.308341e+01
1.660000e-06	-5.958976e-07	-1.209378e-09	-4.466013e+00	-8.143150e+01
1.670000e-06	-5.637490e-07	-1.184183e-09	-4.225072e+00	-7.976719e+01
1.680000e-06	-5.315994e-07	-1.158502e-09	-3.984123e+00	-7.808993e+01
1.690000e-06	-4.994540e-07	-1.134109e-09	-3.743207e+00	-7.639922e+01
1.700000e-06	-4.673226e-07	-1.112361e-09	-3.502395e+00	-7.469457e+01
1.710000e-06	-4.351900e-07	-1.088254e-09	-3.261574e+00	-7.297558e+01
1.720000e-06	-4.030472e-07	-1.062564e-09	-3.020676e+00	-7.124185e+01
1.730000e-06	-3.708415e-07	-1.038322e-09	-2.779308e+00	-6.949309e+01
1.740000e-06	-3.385110e-07	-1.013017e-09	-2.537004e+00	-6.772905e+01
1.750000e-06	-3.061080e-07	-9.834294e-10	-2.294157e+00	-6.594955e+01
1.760000e-06	-2.737664e-07	-9.512981e-10	-2.051769e+00	-6.415450e+01
1.770000e-06	-2.414340e-07	-9.202619e-10	-1.809451e+00	-6.234386e+01
1.780000e-06	-2.090444e-07	-8.922029e-10	-1.566704e+00	-6.051769e+01
1.790000e-06	-1.766811e-07	-8.665318e-10	-1.324154e+00	-5.867613e+01
1.800000e-06	-1.443036e-07	-8.408877e-10	-1.081497e+00	-5.681936e+01
1.810000e-06	-1.118900e-07	-8.144359e-10	-8.385707e-01	-5.494767e+01
1.820000e-06	-7.947255e-08	-7.870525e-10	-5.956148e-01	-5.306138e+01
1.830000e-06	-4.707065e-08	-7.562958e-10	-3.527756e-01	-5.116090e+01
1.840000e-06	-1.467478e-08	-7.248058e-10	-1.099815e-01	-4.924668e+01
1.850000e-06	1.775561e-08	-6.950373e-10	1.330712e-01	-4.731922e+01
1.860000e-06	5.020166e-08	-6.646901e-10	3.762413e-01	-4.537904e+01
1.870000e-06	8.270826e-08	-6.347688e-10	6.198651e-01	-4.342671e+01
1.880000e-06	1.152886e-07	-6.041882e-10	8.640420e-01	-4.146281e+01
1.890000e-06	1.478110e-07	-5.754328e-10	1.107784e+00	-3.948793e+01
1.900000e-06	1.801938e-07	-5.474519e-10	1.350480e+00	-3.750267e+01
1.910000e-06	2.125710e-07	-5.206481e-10	1.593134e+00	-3.550760e+01
1.920000e-06	2.449904e-07	-4.946964e-10	1.836105e+00	-3.350329e+01
1.930000e-06	2.773546e-07	-4.659651e-10	2.078661e+00	-3.149028e+01
1.940000e-06	3.096890e-07	-4.344035e-10	2.320994e+00	-2.946906e+01
1.950000e-06	3.419675e-07	-4.019136e-10	2.562909e+00	-2.744011e+01
1.960000e-06	3.741974e-07	-3.706071e-10	2.804459e+00	-2.540382e+01
1.970000e-06	4.064836e-07	-3.404809e-10	3.046431e+00	-2.336057e+01
1.980000e-06	4.387645e-07	-3.098113e-10	3.288363e+00	-2.131066e+01
1.990000e-06	4.709882e-07	-2.791622e-10	3.529867e+00	-1.925433e+01
2.000000e-06	5.031585e-07	-2.488925e-10	3.770971e+00	-1.719177e+01
2.010000e-06	5.353142e-07	-2.178993e-10	4.011965e+00	-1.512311e+01
2.020000e-06	5.674976e-07	-1.903584e-10	4.253167e+00	-1.304841e+01
2.030000e-06	5.996724e-07	-1.650894e-10	4.494303e+00	-1.096768e+01
2.040000e-06	6.318331e-07	-1.337669e-10	4.735335e+00	-8.880896e+00
2.050000e-06	6.639278e-07	-9.684692e-11	4.975872e+00	-6.787957e+00
2.060000e-06	6.959318e-07	-6.196023e-11	5.215729e+00	-4.688741e+00
2.070000e-06	7.279229e-07	-3.073149e-11	5.455490e+00	-2.583086e+00
2.080000e-06	7.598868e-07	1.167894e-14	5.695046e+00	-4.708056e-01
2.090000e-06	7.918487e-07	3.225002e-11	5.934587e+00	1.648305e+00
2.100000e-06	8.237881e-07	6.473773e-11	6.173961e+00	3.774461e+00
2.110000e-06	8.557173e-07	9.428581e-11	6.413257e+00	5.907874e+00
2.120000e-06	8.876365e-07	1.222451e-10	6.652479e+00	8.048750e+00
2.130000e-06	9.194672e-07	1.529892e-10	6.891037e+00	1.019728e+01
2.140000e-06	9.512713e-07	1.879534e-10	7.129396e+00	1.235361e+01
2.150000e-06	9.831062e-07	2.259198e-10	7.367986e+00	1.451788e+01
2.160000e-06	1.014934e-06	2.619009e-10	7.606519e+00	1.669017e+01
2.170000e-06	1.046697e-06	2.945828e-10	7.844572e+00	1.887050e+01
2.180000e-06	1.078404e-06	3.262147e-10	8.082207e+00	2.105886e+01
2.190000e-06	1.110025e-06	3.607833e-10	8.319193e+00	2.325516e+01
2.200000e-06	1.141558e-06	3.955053e-10	8.555516e+00	2.545926e+01
2.210000e-06	1.173018e-06	4.268554e-10	8.791295e+00	2.767093e+01
2.220000e-06	1.204344e-06	4.558133e-10	9.026075e+00	2.988989e+01
2.230000e-06	1.235538e-06	4.880584e-10	9.259857e+00	3.211580e+01
2.240000e-06	1.266648e-06	5.232962e-10	9.493014e+00	3.434821e+01
2.250000e-06	1.297669e-06	5.567414e-10	9.725505e+00	3.658665e+01
2.260000e-06	1.328595e-06	5.896911e-10	9.957285e+00	3.883056e+01
2.270000e-06	1.359342e-06	6.230882e-10	1.018772e+01	4.107933e+01
2.280000e-06	1.389904e-06	6.557313e-10	1.041677e+01	4.333228e+01
2.290000e-06	1.420391e-06	6.880053e-10	1.064526e+01	4.558871e+01
2.300000e-06	1.450802e-06	7.212554e-10	1.087317e+01	4.784785e+01
2.310000e-06	1.481110e-06	7.538578e-10	1.110032e+01	5.010891e+01
2.320000e-06	1.511295e-06	7.857295e-10	1.132655e+01	5.237108e+01
2.330000e-06	1.541400e-06	8.187324e-10	1.155217e+01	5.463351e+01
2.340000e-06	1.571479e-06	8.536395e-10	1.177760e+01	5.689535e+01
2.350000e-06	1.601520e-06	8.895981e-10	1.200275e+01	5.915575e+01
2.360000e-06	1.631500e-06	9.257407e-10	1.222744e+01	6.141387e+01
2.370000e-06	1.661378e-06	9.609432e-10	1.245136e+01	6.366886e+01
2.380000e-06	1.691138e-06	9.955657e-10	1.267440e+01	6.591991e+01
2.390000e-06	1.720788e-06	1.028070e-09	1.289662e+01	6.816623e+01
2.400000e-06	1.750392e-06	1.060800e-09	1.311848e+01	7.040705e+01
2.410000e-06	1.779918e-06	1.094869e-09	1.333977e+01	7.264164e+01
2.420000e-06	1.809289e-06	1.128001e-09	1.355989e+01	7.486933e+01
2.430000e-06	1.838505e-06	1.160015e-09	1.377885e+01	7.708946e+01
2.440000e-06	1.867589e-06	1.192220e-09	1.399683e+01	7.930143e+01
2.450000e-06	1.896564e-06	1.226981e-09	1.421399e+01	8.150467e+01
2.460000e-06	1.925349e-06	1.261093e-09	1.442971e+01	8.369868e+01
2.470000e-06	1.953917e-06	1.291191e-09	1.464382e+01	8.588298e+01
2.480000e-06	1.982299e-06	1.322389e-09	1.485654e+01	8.805714e+01
2.490000e-06	2.010526e-06	1.354154e-09	1.506808e+01	9.022076e+01
2.500000e-06	2.038648e-06	1.384485e-09	1.527885e+01	9.237348e+01
2.510000e-06	2.066729e-06	1.413071e-09	1.548930e+01	9.451497e+01
2.520000e-06	2.094763e-06	1.440026e-09	1.569940e+01	9.664492e+01
2.530000e-06	2.122722e-06	1.469247e-09	1.590895e+01	9.876305e+01
2.540000e-06	2.150630e-06	1.502146e-09	1.611811e+01	1.008691e+02
2.550000e-06	2.178518e-06	1.535823e-09	1.632712e+01	1.029628e+02
2.560000e-06	2.206370e-06	1.567256e-09	1.653585e+01	1.050438e+02
2.570000e-06	2.234164e-06	1.596871e-09	1.674416e+01	1.071120e+02
2.580000e-06	2.261783e-06	1.626610e-09	1.695115e+01	1.091670e+02
2.590000e-06	2.289107e-06	1.658857e-09	1.715594e+01	1.112086e+02
2.600000e-06	2.316156e-06	1.690080e-09	1.735866e+01	1.132364e+02
2.610000e-06	2.342886e-06	1.718674e-09	1.755899e+01	1.152503e+02
2.620000e-06	2.369378e-06	1.747608e-09	1.775754e+01	1.172497e+02
2.630000e-06	2.395586e-06	1.777091e-09	1.795395e+01	1.192344e+02
2.640000e-06	2.421365e-06	1.807052e-09	1.814715e+01	1.212040e+02
2.650000e-06	2.446812e-06	1.836371e-09	1.833787e+01	1.231581e+02
2.660000e-06	2.472018e-06	1.863437e-09	1.852678e+01	1.250963e+02
2.670000e-06	2.496982e-06	1.889627e-09	1.871388e+01	1.270181e+02
2.680000e-06	2.521662e-06	1.917159e-09	1.889884e+01	1.289230e+02
2.690000e-06	2.546117e-06	1.944802e-09	1.908212e+01	1.308107e+02
2.700000e-06	2.570464e-06	1.969635e-09	1.926460e+01	1.326805e+02
2.710000e-06	2.594714e-06	1.994271e-09	1.944634e+01	1.345320e+02
2.720000e-06	2.618818e-06	2.022067e-09	1.962699e+01	1.363647e+02
2.730000e-06	2.642812e-06	2.050931e-09	1.980681e+01	1.381782e+02
2.740000e-06	2.666692e-06	2.080883e-09	1.998578e+01	1.399719e+02
2.750000e-06	2.690388e-06	2.109910e-09	2.016338e+01	1.417454e+02
2.760000e-06	2.713967e-06	2.136585e-09	2.034009e+01	1.434982e+02
2.770000e-06	2.737400e-06	2.165232e-09	2.051572e+01	1.452299e+02
2.780000e-06	2.760663e-06	2.193805e-09	2.069006e+01	1.469402e+02
2.790000e-06	2.783682e-06	2.220438e-09	2.086257e+01	1.486287e+02
2.800000e-06	2.806380e-06	2.245882e-09	2.103269e+01	1.502951e+02
2.810000e-06	2.828873e-06	2.270842e-09	2.120126e+01	1.519391e+02
2.820000e-06	2.851199e-06	2.295335e-09	2.136859e+01	1.535605e+02
2.830000e-06	2.873366e-06	2.318365e-09	2.153472e+01	1.551593e+02
2.840000e-06	2.895397e-06	2.342046e-09	2.169983e+01	1.567351e+02
2.850000e-06	2.917281e-06	2.367700e-09	2.186385e+01	1.582881e+02
2.860000e-06	2.938914e-06	2.392895e-09	2.202598e+01	1.598181e+02
2.870000e-06	2.960385e-06	2.416342e-09	2.218690e+01	1.613253e+02
2.880000e-06	2.981762e-06	2.437856e-09	2.234711e+01	1.628096e+02
2.890000e-06	3.002982e-06	2.456714e-09	2.250614e+01	1.642712e+02
2.900000e-06	3.023889e-06	2.476580e-09	2.266283e+01	1.657103e+02
