# Temperatura_=_20.0
# Concentracion g/m^3_=_12600.0
# C_Vs_to_Am_M_A/Vsm_=_65563218390.804596
# pendiente_HvsI_1/m_=_3716.3
# ordenada_HvsI_A/m_=_1297.0
# frecuencia_Hz_=_135036.54029137432

Tiempo_(s)	Campo_(V.s)	Magnetizacion_(V.s)	Campo_(kA/m)	Magnetizacion_(A/m)
0.000000e+00	-3.886768e-06	-3.405175e-09	-2.913929e+01	-2.231812e+02
1.000000e-08	-3.886866e-06	-3.401498e-09	-2.914002e+01	-2.231819e+02
2.000000e-08	-3.886810e-06	-3.401628e-09	-2.913960e+01	-2.231639e+02
3.000000e-08	-3.886585e-06	-3.406261e-09	-2.913791e+01	-2.231274e+02
4.000000e-08	-3.886088e-06	-3.416434e-09	-2.913419e+01	-2.230726e+02
5.000000e-08	-3.885150e-06	-3.431924e-09	-2.912716e+01	-2.230000e+02
6.000000e-08	-3.883662e-06	-3.427781e-09	-2.911600e+01	-2.229099e+02
7.000000e-08	-3.881685e-06	-3.392668e-09	-2.910118e+01	-2.228029e+02
8.000000e-08	-3.879262e-06	-3.381254e-09	-2.908301e+01	-2.226798e+02
9.000000e-08	-3.876366e-06	-3.371866e-09	-2.906130e+01	-2.225412e+02
1.000000e-07	-3.873163e-06	-3.313735e-09	-2.903729e+01	-2.223880e+02
1.100000e-07	-3.869809e-06	-3.348992e-09	-2.901214e+01	-2.222210e+02
1.200000e-07	-3.866188e-06	-3.364033e-09	-2.898500e+01	-2.220414e+02
1.300000e-07	-3.862322e-06	-3.289179e-09	-2.895601e+01	-2.218499e+02
1.400000e-07	-3.858356e-06	-3.387634e-09	-2.892627e+01	-2.216477e+02
1.500000e-07	-3.854237e-06	-3.438616e-09	-2.889540e+01	-2.214358e+02
1.600000e-07	-3.849917e-06	-3.372360e-09	-2.886301e+01	-2.212152e+02
1.700000e-07	-3.845349e-06	-3.306184e-09	-2.882876e+01	-2.209869e+02
1.800000e-07	-3.840603e-06	-3.322780e-09	-2.879319e+01	-2.207519e+02
1.900000e-07	-3.835531e-06	-3.369314e-09	-2.875516e+01	-2.205110e+02
2.000000e-07	-3.830088e-06	-3.360479e-09	-2.871435e+01	-2.202652e+02
2.100000e-07	-3.824448e-06	-3.363664e-09	-2.867207e+01	-2.200150e+02
2.200000e-07	-3.818577e-06	-3.339708e-09	-2.862806e+01	-2.197613e+02
2.300000e-07	-3.812372e-06	-3.309418e-09	-2.858153e+01	-2.195045e+02
2.400000e-07	-3.805806e-06	-3.290168e-09	-2.853231e+01	-2.192450e+02
2.500000e-07	-3.799076e-06	-3.372147e-09	-2.848186e+01	-2.189832e+02
2.600000e-07	-3.792119e-06	-3.379483e-09	-2.842969e+01	-2.187191e+02
2.700000e-07	-3.784776e-06	-3.286462e-09	-2.837465e+01	-2.184529e+02
2.800000e-07	-3.777177e-06	-3.252565e-09	-2.831767e+01	-2.181843e+02
2.900000e-07	-3.769423e-06	-3.369784e-09	-2.825954e+01	-2.179133e+02
3.000000e-07	-3.761512e-06	-3.397321e-09	-2.820023e+01	-2.176393e+02
3.100000e-07	-3.753472e-06	-3.276946e-09	-2.813996e+01	-2.173620e+02
3.200000e-07	-3.745266e-06	-3.220799e-09	-2.807844e+01	-2.170807e+02
3.300000e-07	-3.736801e-06	-3.321325e-09	-2.801497e+01	-2.167948e+02
3.400000e-07	-3.727892e-06	-3.371685e-09	-2.794818e+01	-2.165035e+02
3.500000e-07	-3.718537e-06	-3.266392e-09	-2.787805e+01	-2.162060e+02
3.600000e-07	-3.708904e-06	-3.211347e-09	-2.780583e+01	-2.159015e+02
3.700000e-07	-3.698831e-06	-3.279044e-09	-2.773031e+01	-2.155890e+02
3.800000e-07	-3.688160e-06	-3.318333e-09	-2.765031e+01	-2.152676e+02
3.900000e-07	-3.677113e-06	-3.254425e-09	-2.756749e+01	-2.149364e+02
4.000000e-07	-3.665794e-06	-3.241382e-09	-2.748263e+01	-2.145946e+02
4.100000e-07	-3.654167e-06	-3.263747e-09	-2.739547e+01	-2.142412e+02
4.200000e-07	-3.642233e-06	-3.252178e-09	-2.730600e+01	-2.138755e+02
4.300000e-07	-3.630101e-06	-3.223941e-09	-2.721504e+01	-2.134968e+02
4.400000e-07	-3.617759e-06	-3.246186e-09	-2.712251e+01	-2.131045e+02
4.500000e-07	-3.605144e-06	-3.231889e-09	-2.702793e+01	-2.126978e+02
4.600000e-07	-3.592352e-06	-3.194794e-09	-2.693204e+01	-2.122765e+02
4.700000e-07	-3.579200e-06	-3.206599e-09	-2.683343e+01	-2.118402e+02
4.800000e-07	-3.565671e-06	-3.245185e-09	-2.673201e+01	-2.113885e+02
4.900000e-07	-3.551914e-06	-3.206593e-09	-2.662886e+01	-2.109215e+02
5.000000e-07	-3.537878e-06	-3.166153e-09	-2.652364e+01	-2.104390e+02
5.100000e-07	-3.523546e-06	-3.191667e-09	-2.641619e+01	-2.099411e+02
5.200000e-07	-3.508968e-06	-3.209770e-09	-2.630690e+01	-2.094281e+02
5.300000e-07	-3.494062e-06	-3.163556e-09	-2.619515e+01	-2.089001e+02
5.400000e-07	-3.478710e-06	-3.135850e-09	-2.608005e+01	-2.083575e+02
5.500000e-07	-3.462911e-06	-3.155621e-09	-2.596161e+01	-2.078009e+02
5.600000e-07	-3.446824e-06	-3.155800e-09	-2.584100e+01	-2.072305e+02
5.700000e-07	-3.430512e-06	-3.131234e-09	-2.571871e+01	-2.066470e+02
5.800000e-07	-3.413905e-06	-3.123472e-09	-2.559421e+01	-2.060509e+02
5.900000e-07	-3.397052e-06	-3.123791e-09	-2.546786e+01	-2.054427e+02
6.000000e-07	-3.380070e-06	-3.109131e-09	-2.534054e+01	-2.048231e+02
6.100000e-07	-3.362857e-06	-3.099727e-09	-2.521150e+01	-2.041925e+02
6.200000e-07	-3.345390e-06	-3.086281e-09	-2.508055e+01	-2.035515e+02
6.300000e-07	-3.327776e-06	-3.066299e-09	-2.494849e+01	-2.029007e+02
6.400000e-07	-3.309967e-06	-3.055514e-09	-2.481498e+01	-2.022403e+02
6.500000e-07	-3.291933e-06	-3.058922e-09	-2.467978e+01	-2.015709e+02
6.600000e-07	-3.273627e-06	-3.044997e-09	-2.454254e+01	-2.008927e+02
6.700000e-07	-3.254931e-06	-3.023828e-09	-2.440237e+01	-2.002060e+02
6.800000e-07	-3.236008e-06	-3.014261e-09	-2.426050e+01	-1.995110e+02
6.900000e-07	-3.216945e-06	-3.018840e-09	-2.411759e+01	-1.988077e+02
7.000000e-07	-3.197631e-06	-3.008848e-09	-2.397279e+01	-1.980962e+02
7.100000e-07	-3.178133e-06	-2.980709e-09	-2.382661e+01	-1.973765e+02
7.200000e-07	-3.158446e-06	-2.955120e-09	-2.367902e+01	-1.966485e+02
7.300000e-07	-3.138670e-06	-2.958413e-09	-2.353075e+01	-1.959120e+02
7.400000e-07	-3.118805e-06	-2.960979e-09	-2.338183e+01	-1.951668e+02
7.500000e-07	-3.098785e-06	-2.934485e-09	-2.323174e+01	-1.944126e+02
7.600000e-07	-3.078626e-06	-2.904522e-09	-2.308061e+01	-1.936492e+02
7.700000e-07	-3.058307e-06	-2.907745e-09	-2.292828e+01	-1.928762e+02
7.800000e-07	-3.037783e-06	-2.917089e-09	-2.277441e+01	-1.920935e+02
7.900000e-07	-3.017009e-06	-2.896620e-09	-2.261866e+01	-1.913005e+02
8.000000e-07	-2.995956e-06	-2.863608e-09	-2.246082e+01	-1.904971e+02
8.100000e-07	-2.974625e-06	-2.852202e-09	-2.230091e+01	-1.896830e+02
8.200000e-07	-2.953124e-06	-2.854699e-09	-2.213971e+01	-1.888578e+02
8.300000e-07	-2.931544e-06	-2.845080e-09	-2.197793e+01	-1.880215e+02
8.400000e-07	-2.909813e-06	-2.818097e-09	-2.181501e+01	-1.871737e+02
8.500000e-07	-2.887831e-06	-2.793543e-09	-2.165021e+01	-1.863145e+02
8.600000e-07	-2.865592e-06	-2.789524e-09	-2.148348e+01	-1.854437e+02
8.700000e-07	-2.843126e-06	-2.790849e-09	-2.131505e+01	-1.845613e+02
8.800000e-07	-2.820498e-06	-2.775810e-09	-2.114540e+01	-1.836673e+02
8.900000e-07	-2.797761e-06	-2.749747e-09	-2.097495e+01	-1.827619e+02
9.000000e-07	-2.774824e-06	-2.735215e-09	-2.080299e+01	-1.818452e+02
9.100000e-07	-2.751594e-06	-2.731266e-09	-2.062883e+01	-1.809174e+02
9.200000e-07	-2.728141e-06	-2.722355e-09	-2.045300e+01	-1.799786e+02
9.300000e-07	-2.704510e-06	-2.702050e-09	-2.027584e+01	-1.790293e+02
9.400000e-07	-2.680733e-06	-2.682953e-09	-2.009758e+01	-1.780696e+02
9.500000e-07	-2.656905e-06	-2.672793e-09	-1.991894e+01	-1.770998e+02
9.600000e-07	-2.632974e-06	-2.668888e-09	-1.973953e+01	-1.761203e+02
9.700000e-07	-2.608869e-06	-2.657018e-09	-1.955882e+01	-1.751313e+02
9.800000e-07	-2.584644e-06	-2.634524e-09	-1.937720e+01	-1.741332e+02
9.900000e-07	-2.560303e-06	-2.613096e-09	-1.919472e+01	-1.731261e+02
1.000000e-06	-2.535817e-06	-2.601739e-09	-1.901114e+01	-1.721104e+02
1.010000e-06	-2.511030e-06	-2.591851e-09	-1.882531e+01	-1.710861e+02
1.020000e-06	-2.486019e-06	-2.574142e-09	-1.863780e+01	-1.700535e+02
1.030000e-06	-2.460819e-06	-2.551298e-09	-1.844888e+01	-1.690126e+02
1.040000e-06	-2.435222e-06	-2.532523e-09	-1.825698e+01	-1.679635e+02
1.050000e-06	-2.409283e-06	-2.518373e-09	-1.806251e+01	-1.669061e+02
1.060000e-06	-2.382965e-06	-2.506748e-09	-1.786520e+01	-1.658404e+02
1.070000e-06	-2.356351e-06	-2.490301e-09	-1.766568e+01	-1.647662e+02
1.080000e-06	-2.329540e-06	-2.469075e-09	-1.746467e+01	-1.636832e+02
1.090000e-06	-2.302481e-06	-2.451591e-09	-1.726181e+01	-1.625913e+02
1.100000e-06	-2.275223e-06	-2.438572e-09	-1.705745e+01	-1.614901e+02
1.110000e-06	-2.247821e-06	-2.422396e-09	-1.685202e+01	-1.603793e+02
1.120000e-06	-2.220300e-06	-2.399160e-09	-1.664569e+01	-1.592584e+02
1.130000e-06	-2.192669e-06	-2.375258e-09	-1.643854e+01	-1.581271e+02
1.140000e-06	-2.164915e-06	-2.359558e-09	-1.623047e+01	-1.569849e+02
1.150000e-06	-2.137074e-06	-2.348333e-09	-1.602175e+01	-1.558314e+02
1.160000e-06	-2.109196e-06	-2.330371e-09	-1.581274e+01	-1.546661e+02
1.170000e-06	-2.081258e-06	-2.307388e-09	-1.560329e+01	-1.534886e+02
1.180000e-06	-2.053257e-06	-2.289178e-09	-1.539336e+01	-1.522984e+02
1.190000e-06	-2.025179e-06	-2.275141e-09	-1.518286e+01	-1.510952e+02
1.200000e-06	-1.996968e-06	-2.258432e-09	-1.497136e+01	-1.498787e+02
1.210000e-06	-1.968526e-06	-2.234956e-09	-1.475814e+01	-1.486484e+02
1.220000e-06	-1.939956e-06	-2.210131e-09	-1.454394e+01	-1.474041e+02
1.230000e-06	-1.911218e-06	-2.190886e-09	-1.432849e+01	-1.461457e+02
1.240000e-06	-1.882300e-06	-2.172681e-09	-1.411169e+01	-1.448730e+02
1.250000e-06	-1.853339e-06	-2.153199e-09	-1.389457e+01	-1.435859e+02
1.260000e-06	-1.824250e-06	-2.133262e-09	-1.367649e+01	-1.422843e+02
1.270000e-06	-1.795039e-06	-2.113838e-09	-1.345749e+01	-1.409683e+02
1.280000e-06	-1.765643e-06	-2.092503e-09	-1.323711e+01	-1.396381e+02
1.290000e-06	-1.736104e-06	-2.070310e-09	-1.301565e+01	-1.382938e+02
1.300000e-06	-1.706513e-06	-2.050229e-09	-1.279381e+01	-1.369355e+02
1.310000e-06	-1.676762e-06	-2.029986e-09	-1.257077e+01	-1.355637e+02
1.320000e-06	-1.646872e-06	-2.006324e-09	-1.234668e+01	-1.341786e+02
1.330000e-06	-1.616900e-06	-1.982317e-09	-1.212197e+01	-1.327805e+02
1.340000e-06	-1.586805e-06	-1.959751e-09	-1.189635e+01	-1.313699e+02
1.350000e-06	-1.556650e-06	-1.939702e-09	-1.167028e+01	-1.299472e+02
1.360000e-06	-1.526485e-06	-1.920201e-09	-1.144413e+01	-1.285128e+02
1.370000e-06	-1.496222e-06	-1.897748e-09	-1.121725e+01	-1.270672e+02
1.380000e-06	-1.465844e-06	-1.874045e-09	-1.098950e+01	-1.256108e+02
1.390000e-06	-1.435267e-06	-1.857084e-09	-1.076026e+01	-1.241441e+02
1.400000e-06	-1.404635e-06	-1.840154e-09	-1.053061e+01	-1.226675e+02
1.410000e-06	-1.374013e-06	-1.814463e-09	-1.030104e+01	-1.211815e+02
1.420000e-06	-1.343288e-06	-1.785302e-09	-1.007069e+01	-1.196863e+02
1.430000e-06	-1.312468e-06	-1.763841e-09	-9.839639e+00	-1.181825e+02
1.440000e-06	-1.281498e-06	-1.747745e-09	-9.607451e+00	-1.166703e+02
1.450000e-06	-1.250424e-06	-1.727246e-09	-9.374487e+00	-1.151500e+02
1.460000e-06	-1.219304e-06	-1.703493e-09	-9.141177e+00	-1.136219e+02
1.470000e-06	-1.188108e-06	-1.679299e-09	-8.907301e+00	-1.120861e+02
1.480000e-06	-1.156692e-06	-1.659011e-09	-8.671775e+00	-1.105430e+02
1.490000e-06	-1.125160e-06	-1.636831e-09	-8.435380e+00	-1.089925e+02
1.500000e-06	-1.093601e-06	-1.611300e-09	-8.198778e+00	-1.074347e+02
1.510000e-06	-1.061970e-06	-1.583008e-09	-7.961643e+00	-1.058698e+02
1.520000e-06	-1.030295e-06	-1.556650e-09	-7.724168e+00	-1.042977e+02
1.530000e-06	-9.985551e-07	-1.534399e-09	-7.486215e+00	-1.027183e+02
1.540000e-06	-9.667630e-07	-1.513615e-09	-7.247868e+00	-1.011315e+02
1.550000e-06	-9.349449e-07	-1.488984e-09	-7.009326e+00	-9.953734e+01
1.560000e-06	-9.031274e-07	-1.462662e-09	-6.770789e+00	-9.793552e+01
1.570000e-06	-8.712523e-07	-1.437746e-09	-6.531820e+00	-9.632588e+01
1.580000e-06	-8.393417e-07	-1.413944e-09	-6.292585e+00	-9.470823e+01
1.590000e-06	-8.074170e-07	-1.389739e-09	-6.053244e+00	-9.308231e+01
1.600000e-06	-7.754755e-07	-1.362517e-09	-5.813776e+00	-9.144785e+01
1.610000e-06	-7.435266e-07	-1.335500e-09	-5.574254e+00	-8.980458e+01
1.620000e-06	-7.115716e-07	-1.310356e-09	-5.334686e+00	-8.815219e+01
1.630000e-06	-6.795708e-07	-1.285561e-09	-5.094775e+00	-8.649036e+01
1.640000e-06	-6.474727e-07	-1.259710e-09	-4.854134e+00	-8.481876e+01
1.650000e-06	-6.153565e-07	-1.236200e-09	-4.613357e+00	-8.313707e+01
1.660000e-06	-5.832881e-07	-1.213845e-09	-4.372938e+00	-8.144492e+01
1.670000e-06	-5.511723e-07	-1.189415e-09	-4.132165e+00	-7.974199e+01
1.680000e-06	-5.189188e-07	-1.165134e-09	-3.890359e+00	-7.802791e+01
1.690000e-06	-4.866308e-07	-1.142522e-09	-3.648294e+00	-7.630235e+01
1.700000e-06	-4.543776e-07	-1.115843e-09	-3.406491e+00	-7.456496e+01
1.710000e-06	-4.221489e-07	-1.085242e-09	-3.164870e+00	-7.281543e+01
1.720000e-06	-3.898990e-07	-1.057386e-09	-2.923091e+00	-7.105342e+01
1.730000e-06	-3.576072e-07	-1.033863e-09	-2.680998e+00	-6.927865e+01
1.740000e-06	-3.252889e-07	-1.008766e-09	-2.438706e+00	-6.749082e+01
1.750000e-06	-2.929795e-07	-9.810060e-10	-2.196481e+00	-6.568969e+01
1.760000e-06	-2.607180e-07	-9.511541e-10	-1.954615e+00	-6.387501e+01
1.770000e-06	-2.284357e-07	-9.215366e-10	-1.712593e+00	-6.204659e+01
1.780000e-06	-1.960925e-07	-8.930545e-10	-1.470115e+00	-6.020426e+01
1.790000e-06	-1.637460e-07	-8.655844e-10	-1.227611e+00	-5.834789e+01
1.800000e-06	-1.313759e-07	-8.359961e-10	-9.849315e-01	-5.647740e+01
1.810000e-06	-9.898420e-08	-8.073889e-10	-7.420892e-01	-5.459273e+01
1.820000e-06	-6.657384e-08	-7.786346e-10	-4.991072e-01	-5.269389e+01
1.830000e-06	-3.413057e-08	-7.486819e-10	-2.558785e-01	-5.078092e+01
1.840000e-06	-1.702309e-09	-7.186723e-10	-1.276229e-02	-4.885393e+01
1.850000e-06	3.065782e-08	-6.883265e-10	2.298431e-01	-4.691306e+01
1.860000e-06	6.293175e-08	-6.577832e-10	4.718024e-01	-4.495851e+01
1.870000e-06	9.521950e-08	-6.268852e-10	7.138651e-01	-4.299052e+01
1.880000e-06	1.275576e-07	-5.972948e-10	9.563056e-01	-4.100939e+01
1.890000e-06	1.599194e-07	-5.683830e-10	1.198924e+00	-3.901545e+01
1.900000e-06	1.922963e-07	-5.395554e-10	1.441655e+00	-3.700908e+01
1.910000e-06	2.246795e-07	-5.121192e-10	1.684433e+00	-3.499069e+01
1.920000e-06	2.570029e-07	-4.850362e-10	1.926763e+00	-3.296072e+01
1.930000e-06	2.892519e-07	-4.548091e-10	2.168535e+00	-3.091965e+01
1.940000e-06	3.214477e-07	-4.221876e-10	2.409909e+00	-2.886797e+01
1.950000e-06	3.536440e-07	-3.888213e-10	2.651286e+00	-2.680616e+01
1.960000e-06	3.858704e-07	-3.580693e-10	2.892889e+00	-2.473474e+01
1.970000e-06	4.180665e-07	-3.290449e-10	3.134265e+00	-2.265420e+01
1.980000e-06	4.502847e-07	-2.993789e-10	3.375805e+00	-2.056502e+01
1.990000e-06	4.825000e-07	-2.661882e-10	3.617325e+00	-1.846768e+01
2.000000e-06	5.146525e-07	-2.332997e-10	3.858374e+00	-1.636261e+01
2.010000e-06	5.467781e-07	-2.029504e-10	4.099222e+00	-1.425021e+01
2.020000e-06	5.788916e-07	-1.751161e-10	4.339978e+00	-1.213085e+01
2.030000e-06	6.109852e-07	-1.449650e-10	4.580585e+00	-1.000485e+01
2.040000e-06	6.430556e-07	-1.098195e-10	4.821018e+00	-7.872469e+00
2.050000e-06	6.751278e-07	-7.583017e-11	5.061466e+00	-5.733926e+00
2.060000e-06	7.072181e-07	-4.597540e-11	5.302048e+00	-3.589374e+00
2.070000e-06	7.392556e-07	-1.653349e-11	5.542235e+00	-1.438914e+00
2.080000e-06	7.712098e-07	1.735088e-11	5.781797e+00	7.174115e-01
2.090000e-06	8.031593e-07	5.270431e-11	6.021323e+00	2.879614e+00
2.100000e-06	8.350834e-07	8.304287e-11	6.260660e+00	5.047756e+00
2.110000e-06	8.669331e-07	1.106074e-10	6.499439e+00	7.221944e+00
2.120000e-06	8.987543e-07	1.419521e-10	6.738004e+00	9.402326e+00
2.130000e-06	9.305908e-07	1.768772e-10	6.976683e+00	1.158908e+01
2.140000e-06	9.623694e-07	2.122160e-10	7.214929e+00	1.378241e+01
2.150000e-06	9.940453e-07	2.467463e-10	7.452405e+00	1.598252e+01
2.160000e-06	1.025700e-06	2.796973e-10	7.689725e+00	1.818964e+01
2.170000e-06	1.057394e-06	3.113005e-10	7.927337e+00	2.040398e+01
2.180000e-06	1.089076e-06	3.444450e-10	8.164851e+00	2.262573e+01
2.190000e-06	1.120607e-06	3.811432e-10	8.401243e+00	2.485505e+01
2.200000e-06	1.152028e-06	4.140537e-10	8.636812e+00	2.709205e+01
2.210000e-06	1.183386e-06	4.412553e-10	8.871901e+00	2.933681e+01
2.220000e-06	1.214647e-06	4.708183e-10	9.106269e+00	3.158934e+01
2.230000e-06	1.245805e-06	5.063898e-10	9.339859e+00	3.384956e+01
2.240000e-06	1.276885e-06	5.445124e-10	9.572867e+00	3.611734e+01
2.250000e-06	1.307908e-06	5.773734e-10	9.805448e+00	3.839246e+01
2.260000e-06	1.338890e-06	6.051915e-10	1.003772e+01	4.067459e+01
2.270000e-06	1.369687e-06	6.350055e-10	1.026861e+01	4.296333e+01
2.280000e-06	1.400260e-06	6.701731e-10	1.049782e+01	4.525819e+01
2.290000e-06	1.430712e-06	7.054699e-10	1.072612e+01	4.755856e+01
2.300000e-06	1.461102e-06	7.363629e-10	1.095395e+01	4.986377e+01
2.310000e-06	1.491402e-06	7.669868e-10	1.118111e+01	5.217305e+01
2.320000e-06	1.521596e-06	8.031785e-10	1.140748e+01	5.448555e+01
2.330000e-06	1.551755e-06	8.411667e-10	1.163358e+01	5.680035e+01
2.340000e-06	1.581784e-06	8.765523e-10	1.185871e+01	5.911646e+01
2.350000e-06	1.611688e-06	9.108379e-10	1.208290e+01	6.143286e+01
2.360000e-06	1.641564e-06	9.455040e-10	1.230689e+01	6.374845e+01
2.370000e-06	1.671440e-06	9.805630e-10	1.253086e+01	6.606214e+01
2.380000e-06	1.701240e-06	1.015773e-09	1.275428e+01	6.837280e+01
2.390000e-06	1.730909e-06	1.050068e-09	1.297670e+01	7.067930e+01
2.400000e-06	1.760441e-06	1.084108e-09	1.319811e+01	7.298053e+01
2.410000e-06	1.789846e-06	1.118532e-09	1.341856e+01	7.527540e+01
2.420000e-06	1.819108e-06	1.153976e-09	1.363794e+01	7.756284e+01
2.430000e-06	1.848173e-06	1.191067e-09	1.385584e+01	7.984186e+01
2.440000e-06	1.877101e-06	1.227220e-09	1.407271e+01	8.211149e+01
2.450000e-06	1.905963e-06	1.260813e-09	1.428909e+01	8.437085e+01
2.460000e-06	1.934657e-06	1.293606e-09	1.450422e+01	8.661913e+01
2.470000e-06	1.963118e-06	1.328746e-09	1.471759e+01	8.885560e+01
2.480000e-06	1.991449e-06	1.363747e-09	1.492999e+01	9.107962e+01
2.490000e-06	2.019663e-06	1.395294e-09	1.514151e+01	9.329063e+01
2.500000e-06	2.047732e-06	1.425448e-09	1.535194e+01	9.548817e+01
2.510000e-06	2.075756e-06	1.456607e-09	1.556204e+01	9.767186e+01
2.520000e-06	2.103697e-06	1.489825e-09	1.577151e+01	9.984139e+01
2.530000e-06	2.131616e-06	1.523679e-09	1.598082e+01	1.019966e+02
2.540000e-06	2.159537e-06	1.557325e-09	1.619015e+01	1.041372e+02
2.550000e-06	2.187383e-06	1.590842e-09	1.639892e+01	1.062633e+02
2.560000e-06	2.215075e-06	1.623336e-09	1.660652e+01	1.083748e+02
2.570000e-06	2.242602e-06	1.654815e-09	1.681289e+01	1.104718e+02
2.580000e-06	2.270070e-06	1.685370e-09	1.701883e+01	1.125542e+02
2.590000e-06	2.297339e-06	1.716325e-09	1.722326e+01	1.146222e+02
2.600000e-06	2.324370e-06	1.747604e-09	1.742591e+01	1.166759e+02
2.610000e-06	2.351069e-06	1.778514e-09	1.762607e+01	1.187154e+02
2.620000e-06	2.377334e-06	1.809183e-09	1.782298e+01	1.207408e+02
2.630000e-06	2.403324e-06	1.839187e-09	1.801783e+01	1.227521e+02
2.640000e-06	2.429043e-06	1.870320e-09	1.821065e+01	1.247495e+02
2.650000e-06	2.454440e-06	1.902322e-09	1.840105e+01	1.267328e+02
2.660000e-06	2.479570e-06	1.931038e-09	1.858945e+01	1.287020e+02
2.670000e-06	2.504511e-06	1.958130e-09	1.877644e+01	1.306571e+02
2.680000e-06	2.529286e-06	1.987180e-09	1.896218e+01	1.325978e+02
2.690000e-06	2.553860e-06	2.016500e-09	1.914641e+01	1.345240e+02
2.700000e-06	2.578193e-06	2.044015e-09	1.932883e+01	1.364352e+02
2.710000e-06	2.602352e-06	2.070346e-09	1.950995e+01	1.383313e+02
2.720000e-06	2.626389e-06	2.098065e-09	1.969017e+01	1.402116e+02
2.730000e-06	2.650292e-06	2.127802e-09	1.986937e+01	1.420757e+02
2.740000e-06	2.674076e-06	2.158017e-09	2.004767e+01	1.439231e+02
2.750000e-06	2.697757e-06	2.187130e-09	2.022521e+01	1.457531e+02
2.760000e-06	2.721270e-06	2.214996e-09	2.040149e+01	1.475651e+02
2.770000e-06	2.744564e-06	2.243968e-09	2.057613e+01	1.493584e+02
2.780000e-06	2.767706e-06	2.273182e-09	2.074963e+01	1.511322e+02
2.790000e-06	2.790634e-06	2.299363e-09	2.092152e+01	1.528858e+02
2.800000e-06	2.813231e-06	2.323276e-09	2.109093e+01	1.546185e+02
2.810000e-06	2.835595e-06	2.348835e-09	2.125859e+01	1.563294e+02
2.820000e-06	2.857835e-06	2.376383e-09	2.142533e+01	1.580179e+02
2.830000e-06	2.879896e-06	2.404267e-09	2.159072e+01	1.596832e+02
2.840000e-06	2.901732e-06	2.430652e-09	2.175442e+01	1.613246e+02
2.850000e-06	2.923459e-06	2.454414e-09	2.191731e+01	1.629415e+02
2.860000e-06	2.945055e-06	2.477426e-09	2.207922e+01	1.645333e+02
2.870000e-06	2.966446e-06	2.501510e-09	2.223959e+01	1.660994e+02
2.880000e-06	2.987594e-06	2.524194e-09	2.239813e+01	1.676393e+02
2.890000e-06	3.008451e-06	2.543834e-09	2.255450e+01	1.691528e+02
2.900000e-06	3.029176e-06	2.563893e-09	2.270987e+01	1.706394e+02
