# Temperatura_=_20.0
# Concentracion g/m^3_=_12600.0
# C_Vs_to_Am_M_A/Vsm_=_65563218390.804596
# pendiente_HvsI_1/m_=_3716.3
# ordenada_HvsI_A/m_=_1297.0
# frecuencia_Hz_=_135037.25982152438

Tiempo_(s)	Campo_(V.s)	Magnetizacion_(V.s)	Campo_(kA/m)	Magnetizacion_(A/m)
0.000000e+00	-3.894358e-06	-3.456612e-09	-2.914184e+01	-2.262889e+02
1.000000e-08	-3.894537e-06	-3.458646e-09	-2.914318e+01	-2.262910e+02
2.000000e-08	-3.894517e-06	-3.458558e-09	-2.914303e+01	-2.262796e+02
3.000000e-08	-3.894331e-06	-3.459463e-09	-2.914163e+01	-2.262555e+02
4.000000e-08	-3.893962e-06	-3.465689e-09	-2.913887e+01	-2.262190e+02
5.000000e-08	-3.893297e-06	-3.485186e-09	-2.913390e+01	-2.261707e+02
6.000000e-08	-3.892226e-06	-3.501817e-09	-2.912588e+01	-2.261114e+02
7.000000e-08	-3.890775e-06	-3.482804e-09	-2.911503e+01	-2.260415e+02
8.000000e-08	-3.888905e-06	-3.421911e-09	-2.910103e+01	-2.259618e+02
9.000000e-08	-3.886454e-06	-3.410774e-09	-2.908269e+01	-2.258728e+02
1.000000e-07	-3.883438e-06	-3.463022e-09	-2.906012e+01	-2.257750e+02
1.100000e-07	-3.880113e-06	-3.450114e-09	-2.903524e+01	-2.256692e+02
1.200000e-07	-3.876565e-06	-3.491229e-09	-2.900869e+01	-2.255557e+02
1.300000e-07	-3.872768e-06	-3.478755e-09	-2.898028e+01	-2.254350e+02
1.400000e-07	-3.868898e-06	-3.398682e-09	-2.895132e+01	-2.253075e+02
1.500000e-07	-3.864929e-06	-3.411622e-09	-2.892162e+01	-2.251737e+02
1.600000e-07	-3.860784e-06	-3.416830e-09	-2.889060e+01	-2.250338e+02
1.700000e-07	-3.856482e-06	-3.464394e-09	-2.885841e+01	-2.248879e+02
1.800000e-07	-3.851827e-06	-3.446031e-09	-2.882358e+01	-2.247362e+02
1.900000e-07	-3.846798e-06	-3.397925e-09	-2.878594e+01	-2.245788e+02
2.000000e-07	-3.841525e-06	-3.366823e-09	-2.874648e+01	-2.244156e+02
2.100000e-07	-3.835996e-06	-3.411947e-09	-2.870511e+01	-2.242465e+02
2.200000e-07	-3.830264e-06	-3.468204e-09	-2.866222e+01	-2.240712e+02
2.300000e-07	-3.824303e-06	-3.446140e-09	-2.861761e+01	-2.238896e+02
2.400000e-07	-3.818068e-06	-3.355736e-09	-2.857095e+01	-2.237012e+02
2.500000e-07	-3.811477e-06	-3.327450e-09	-2.852163e+01	-2.235057e+02
2.600000e-07	-3.804648e-06	-3.430526e-09	-2.847053e+01	-2.233025e+02
2.700000e-07	-3.797639e-06	-3.469953e-09	-2.841808e+01	-2.230913e+02
2.800000e-07	-3.790254e-06	-3.395241e-09	-2.836282e+01	-2.228713e+02
2.900000e-07	-3.782539e-06	-3.311850e-09	-2.830509e+01	-2.226422e+02
3.000000e-07	-3.774683e-06	-3.364161e-09	-2.824630e+01	-2.224032e+02
3.100000e-07	-3.766716e-06	-3.423915e-09	-2.818668e+01	-2.221537e+02
3.200000e-07	-3.758601e-06	-3.418633e-09	-2.812595e+01	-2.218933e+02
3.300000e-07	-3.750362e-06	-3.352197e-09	-2.806430e+01	-2.216213e+02
3.400000e-07	-3.741846e-06	-3.333860e-09	-2.800058e+01	-2.213372e+02
3.500000e-07	-3.732909e-06	-3.344370e-09	-2.793370e+01	-2.210405e+02
3.600000e-07	-3.723420e-06	-3.373578e-09	-2.786270e+01	-2.207307e+02
3.700000e-07	-3.713404e-06	-3.381901e-09	-2.778774e+01	-2.204074e+02
3.800000e-07	-3.703000e-06	-3.345981e-09	-2.770989e+01	-2.200703e+02
3.900000e-07	-3.692272e-06	-3.278843e-09	-2.762961e+01	-2.197190e+02
4.000000e-07	-3.681191e-06	-3.291118e-09	-2.754669e+01	-2.193533e+02
4.100000e-07	-3.669774e-06	-3.376378e-09	-2.746126e+01	-2.189731e+02
4.200000e-07	-3.658030e-06	-3.374211e-09	-2.737337e+01	-2.185781e+02
4.300000e-07	-3.645969e-06	-3.265413e-09	-2.728312e+01	-2.181684e+02
4.400000e-07	-3.633713e-06	-3.220558e-09	-2.719141e+01	-2.177440e+02
4.500000e-07	-3.621225e-06	-3.309338e-09	-2.709796e+01	-2.173049e+02
4.600000e-07	-3.608536e-06	-3.359137e-09	-2.700300e+01	-2.168512e+02
4.700000e-07	-3.595626e-06	-3.289038e-09	-2.690640e+01	-2.163830e+02
4.800000e-07	-3.582411e-06	-3.204008e-09	-2.680751e+01	-2.159005e+02
4.900000e-07	-3.568884e-06	-3.225307e-09	-2.670629e+01	-2.154040e+02
5.000000e-07	-3.555142e-06	-3.287334e-09	-2.660345e+01	-2.148936e+02
5.100000e-07	-3.541219e-06	-3.300454e-09	-2.649927e+01	-2.143695e+02
5.200000e-07	-3.526853e-06	-3.230821e-09	-2.639177e+01	-2.138321e+02
5.300000e-07	-3.512159e-06	-3.176611e-09	-2.628181e+01	-2.132815e+02
5.400000e-07	-3.497188e-06	-3.198886e-09	-2.616978e+01	-2.127180e+02
5.500000e-07	-3.481667e-06	-3.264305e-09	-2.605363e+01	-2.121418e+02
5.600000e-07	-3.465772e-06	-3.244817e-09	-2.593469e+01	-2.115531e+02
5.700000e-07	-3.449620e-06	-3.162004e-09	-2.581382e+01	-2.109521e+02
5.800000e-07	-3.433183e-06	-3.133804e-09	-2.569082e+01	-2.103390e+02
5.900000e-07	-3.416471e-06	-3.195713e-09	-2.556577e+01	-2.097139e+02
6.000000e-07	-3.399501e-06	-3.224385e-09	-2.543878e+01	-2.090769e+02
6.100000e-07	-3.382336e-06	-3.170975e-09	-2.531033e+01	-2.084282e+02
6.200000e-07	-3.365035e-06	-3.110243e-09	-2.518086e+01	-2.077679e+02
6.300000e-07	-3.347552e-06	-3.116110e-09	-2.505004e+01	-2.070960e+02
6.400000e-07	-3.329844e-06	-3.149008e-09	-2.491753e+01	-2.064126e+02
6.500000e-07	-3.311935e-06	-3.143209e-09	-2.478351e+01	-2.057178e+02
6.600000e-07	-3.293745e-06	-3.092126e-09	-2.464740e+01	-2.050116e+02
6.700000e-07	-3.275279e-06	-3.056190e-09	-2.450921e+01	-2.042942e+02
6.800000e-07	-3.256548e-06	-3.066088e-09	-2.436905e+01	-2.035656e+02
6.900000e-07	-3.237621e-06	-3.084173e-09	-2.422742e+01	-2.028258e+02
7.000000e-07	-3.218474e-06	-3.069968e-09	-2.408414e+01	-2.020751e+02
7.100000e-07	-3.199037e-06	-3.031160e-09	-2.393869e+01	-2.013136e+02
7.200000e-07	-3.179389e-06	-3.007802e-09	-2.379166e+01	-2.005413e+02
7.300000e-07	-3.159601e-06	-3.012051e-09	-2.364359e+01	-1.997586e+02
7.400000e-07	-3.139697e-06	-3.026019e-09	-2.349464e+01	-1.989656e+02
7.500000e-07	-3.119704e-06	-3.009114e-09	-2.334503e+01	-1.981625e+02
7.600000e-07	-3.099634e-06	-2.970314e-09	-2.319484e+01	-1.973497e+02
7.700000e-07	-3.079401e-06	-2.948804e-09	-2.304344e+01	-1.965274e+02
7.800000e-07	-3.059000e-06	-2.962587e-09	-2.289078e+01	-1.956959e+02
7.900000e-07	-3.038398e-06	-2.967067e-09	-2.273661e+01	-1.948555e+02
8.000000e-07	-3.017560e-06	-2.940379e-09	-2.258068e+01	-1.940067e+02
8.100000e-07	-2.996534e-06	-2.903597e-09	-2.242334e+01	-1.931497e+02
8.200000e-07	-2.975188e-06	-2.893877e-09	-2.226361e+01	-1.922848e+02
8.300000e-07	-2.953629e-06	-2.902214e-09	-2.210228e+01	-1.914125e+02
8.400000e-07	-2.931958e-06	-2.898999e-09	-2.194011e+01	-1.905329e+02
8.500000e-07	-2.910059e-06	-2.865524e-09	-2.177624e+01	-1.896464e+02
8.600000e-07	-2.887950e-06	-2.832348e-09	-2.161080e+01	-1.887533e+02
8.700000e-07	-2.865629e-06	-2.825344e-09	-2.144377e+01	-1.878537e+02
8.800000e-07	-2.843144e-06	-2.831716e-09	-2.127551e+01	-1.869478e+02
8.900000e-07	-2.820500e-06	-2.818424e-09	-2.110606e+01	-1.860357e+02
9.000000e-07	-2.797588e-06	-2.787814e-09	-2.093461e+01	-1.851175e+02
9.100000e-07	-2.774429e-06	-2.766313e-09	-2.076130e+01	-1.841932e+02
9.200000e-07	-2.751089e-06	-2.761995e-09	-2.058665e+01	-1.832627e+02
9.300000e-07	-2.727592e-06	-2.757746e-09	-2.041082e+01	-1.823259e+02
9.400000e-07	-2.703932e-06	-2.741454e-09	-2.023377e+01	-1.813825e+02
9.500000e-07	-2.680134e-06	-2.715254e-09	-2.005569e+01	-1.804324e+02
9.600000e-07	-2.656250e-06	-2.694612e-09	-1.987696e+01	-1.794752e+02
9.700000e-07	-2.632234e-06	-2.685459e-09	-1.969725e+01	-1.785106e+02
9.800000e-07	-2.608104e-06	-2.676145e-09	-1.951668e+01	-1.775382e+02
9.900000e-07	-2.583865e-06	-2.658765e-09	-1.933530e+01	-1.765575e+02
1.000000e-06	-2.559450e-06	-2.638031e-09	-1.915260e+01	-1.755680e+02
1.010000e-06	-2.534875e-06	-2.622138e-09	-1.896870e+01	-1.745691e+02
1.020000e-06	-2.510056e-06	-2.610534e-09	-1.878298e+01	-1.735605e+02
1.030000e-06	-2.484883e-06	-2.600375e-09	-1.859461e+01	-1.725415e+02
1.040000e-06	-2.459418e-06	-2.582279e-09	-1.840405e+01	-1.715116e+02
1.050000e-06	-2.433619e-06	-2.558480e-09	-1.821100e+01	-1.704703e+02
1.060000e-06	-2.407479e-06	-2.537751e-09	-1.801539e+01	-1.694170e+02
1.070000e-06	-2.380907e-06	-2.525583e-09	-1.781655e+01	-1.683514e+02
1.080000e-06	-2.354040e-06	-2.513851e-09	-1.761550e+01	-1.672728e+02
1.090000e-06	-2.327042e-06	-2.495668e-09	-1.741347e+01	-1.661810e+02
1.100000e-06	-2.299856e-06	-2.471235e-09	-1.721003e+01	-1.650755e+02
1.110000e-06	-2.272479e-06	-2.451310e-09	-1.700517e+01	-1.639561e+02
1.120000e-06	-2.244948e-06	-2.437002e-09	-1.679915e+01	-1.628225e+02
1.130000e-06	-2.217286e-06	-2.419748e-09	-1.659216e+01	-1.616744e+02
1.140000e-06	-2.189489e-06	-2.393950e-09	-1.638414e+01	-1.605118e+02
1.150000e-06	-2.161632e-06	-2.367736e-09	-1.617569e+01	-1.593346e+02
1.160000e-06	-2.133694e-06	-2.350094e-09	-1.596663e+01	-1.581427e+02
1.170000e-06	-2.105683e-06	-2.337809e-09	-1.575702e+01	-1.569361e+02
1.180000e-06	-2.077590e-06	-2.321940e-09	-1.554680e+01	-1.557149e+02
1.190000e-06	-2.049421e-06	-2.299075e-09	-1.533600e+01	-1.544793e+02
1.200000e-06	-2.021190e-06	-2.276633e-09	-1.512475e+01	-1.532293e+02
1.210000e-06	-1.992816e-06	-2.261416e-09	-1.491243e+01	-1.519651e+02
1.220000e-06	-1.964286e-06	-2.245022e-09	-1.469893e+01	-1.506871e+02
1.230000e-06	-1.935628e-06	-2.223398e-09	-1.448448e+01	-1.493953e+02
1.240000e-06	-1.906911e-06	-2.199578e-09	-1.426959e+01	-1.480901e+02
1.250000e-06	-1.878034e-06	-2.175610e-09	-1.405350e+01	-1.467717e+02
1.260000e-06	-1.848922e-06	-2.154647e-09	-1.383565e+01	-1.454404e+02
1.270000e-06	-1.819640e-06	-2.138101e-09	-1.361654e+01	-1.440964e+02
1.280000e-06	-1.790243e-06	-2.121839e-09	-1.339655e+01	-1.427400e+02
1.290000e-06	-1.760737e-06	-2.097759e-09	-1.317576e+01	-1.413714e+02
1.300000e-06	-1.731142e-06	-2.072818e-09	-1.295430e+01	-1.399910e+02
1.310000e-06	-1.701437e-06	-2.054696e-09	-1.273201e+01	-1.385988e+02
1.320000e-06	-1.671591e-06	-2.039951e-09	-1.250867e+01	-1.371952e+02
1.330000e-06	-1.641711e-06	-2.019849e-09	-1.228508e+01	-1.357803e+02
1.340000e-06	-1.611761e-06	-1.993401e-09	-1.206095e+01	-1.343543e+02
1.350000e-06	-1.581698e-06	-1.968016e-09	-1.183599e+01	-1.329173e+02
1.360000e-06	-1.551531e-06	-1.948495e-09	-1.161025e+01	-1.314696e+02
1.370000e-06	-1.521224e-06	-1.929143e-09	-1.138346e+01	-1.300112e+02
1.380000e-06	-1.490764e-06	-1.907445e-09	-1.115553e+01	-1.285423e+02
1.390000e-06	-1.460223e-06	-1.884607e-09	-1.092698e+01	-1.270630e+02
1.400000e-06	-1.429584e-06	-1.865192e-09	-1.069771e+01	-1.255733e+02
1.410000e-06	-1.398851e-06	-1.846900e-09	-1.046773e+01	-1.240735e+02
1.420000e-06	-1.368085e-06	-1.824131e-09	-1.023751e+01	-1.225637e+02
1.430000e-06	-1.337241e-06	-1.798716e-09	-1.000670e+01	-1.210438e+02
1.440000e-06	-1.306290e-06	-1.773261e-09	-9.775089e+00	-1.195141e+02
1.450000e-06	-1.275199e-06	-1.750111e-09	-9.542431e+00	-1.179746e+02
1.460000e-06	-1.244006e-06	-1.727900e-09	-9.309008e+00	-1.164255e+02
1.470000e-06	-1.212789e-06	-1.704398e-09	-9.075413e+00	-1.148668e+02
1.480000e-06	-1.181497e-06	-1.679432e-09	-8.841251e+00	-1.132987e+02
1.490000e-06	-1.150033e-06	-1.655476e-09	-8.605802e+00	-1.117213e+02
1.500000e-06	-1.118436e-06	-1.632446e-09	-8.369360e+00	-1.101346e+02
1.510000e-06	-1.086824e-06	-1.607509e-09	-8.132803e+00	-1.085387e+02
1.520000e-06	-1.055235e-06	-1.581528e-09	-7.896424e+00	-1.069338e+02
1.530000e-06	-1.023536e-06	-1.560536e-09	-7.659218e+00	-1.053199e+02
1.540000e-06	-9.917004e-07	-1.541043e-09	-7.420985e+00	-1.036970e+02
1.550000e-06	-9.598319e-07	-1.519425e-09	-7.182511e+00	-1.020651e+02
1.560000e-06	-9.280012e-07	-1.493353e-09	-6.944318e+00	-1.004243e+02
1.570000e-06	-8.961499e-07	-1.464508e-09	-6.705972e+00	-9.877458e+01
1.580000e-06	-8.642271e-07	-1.436324e-09	-6.467091e+00	-9.711579e+01
1.590000e-06	-8.322784e-07	-1.412879e-09	-6.228016e+00	-9.544788e+01
1.600000e-06	-8.003142e-07	-1.389256e-09	-5.988825e+00	-9.377072e+01
1.610000e-06	-7.683333e-07	-1.363749e-09	-5.749509e+00	-9.208415e+01
1.620000e-06	-7.363408e-07	-1.338464e-09	-5.510106e+00	-9.038797e+01
1.630000e-06	-7.043235e-07	-1.312582e-09	-5.270517e+00	-8.868195e+01
1.640000e-06	-6.722699e-07	-1.284994e-09	-5.030658e+00	-8.696585e+01
1.650000e-06	-6.401814e-07	-1.257581e-09	-4.790536e+00	-8.523936e+01
1.660000e-06	-6.080368e-07	-1.230377e-09	-4.549995e+00	-8.350219e+01
1.670000e-06	-5.758822e-07	-1.201471e-09	-4.309379e+00	-8.175400e+01
1.680000e-06	-5.437297e-07	-1.173647e-09	-4.068780e+00	-7.999445e+01
1.690000e-06	-5.115554e-07	-1.148974e-09	-3.828016e+00	-7.822320e+01
1.700000e-06	-4.793268e-07	-1.124330e-09	-3.586846e+00	-7.643990e+01
1.710000e-06	-4.470271e-07	-1.095565e-09	-3.345145e+00	-7.464420e+01
1.720000e-06	-4.146772e-07	-1.067287e-09	-3.103068e+00	-7.283580e+01
1.730000e-06	-3.822377e-07	-1.041059e-09	-2.860320e+00	-7.101437e+01
1.740000e-06	-3.498239e-07	-1.016263e-09	-2.617764e+00	-6.917966e+01
1.750000e-06	-3.174948e-07	-9.890605e-10	-2.375843e+00	-6.733143e+01
1.760000e-06	-2.851050e-07	-9.585288e-10	-2.133467e+00	-6.546948e+01
1.770000e-06	-2.526636e-07	-9.265365e-10	-1.890705e+00	-6.359367e+01
1.780000e-06	-2.202417e-07	-8.968941e-10	-1.648089e+00	-6.170391e+01
1.790000e-06	-1.877857e-07	-8.701504e-10	-1.405218e+00	-5.980015e+01
1.800000e-06	-1.553243e-07	-8.427214e-10	-1.162306e+00	-5.788244e+01
1.810000e-06	-1.229150e-07	-8.121675e-10	-9.197840e-01	-5.595083e+01
1.820000e-06	-9.050117e-08	-7.822590e-10	-6.772285e-01	-5.400549e+01
1.830000e-06	-5.804157e-08	-7.533255e-10	-4.343304e-01	-5.204659e+01
1.840000e-06	-2.554388e-08	-7.227365e-10	-1.911472e-01	-5.007440e+01
1.850000e-06	6.959472e-09	-6.887861e-10	5.207837e-02	-4.808921e+01
1.860000e-06	3.951140e-08	-6.537991e-10	2.956674e-01	-4.609138e+01
1.870000e-06	7.204515e-08	-6.223988e-10	5.391204e-01	-4.408129e+01
1.880000e-06	1.044697e-07	-5.932534e-10	7.817566e-01	-4.205935e+01
1.890000e-06	1.369023e-07	-5.636272e-10	1.024453e+00	-4.002602e+01
1.900000e-06	1.693262e-07	-5.319882e-10	1.267083e+00	-3.798175e+01
1.910000e-06	2.016894e-07	-5.025294e-10	1.509261e+00	-3.592699e+01
1.920000e-06	2.340667e-07	-4.767370e-10	1.751543e+00	-3.386223e+01
1.930000e-06	2.664144e-07	-4.493672e-10	1.993603e+00	-3.178791e+01
1.940000e-06	2.988040e-07	-4.185943e-10	2.235978e+00	-2.970446e+01
1.950000e-06	3.312383e-07	-3.851094e-10	2.478687e+00	-2.761231e+01
1.960000e-06	3.635624e-07	-3.502493e-10	2.720571e+00	-2.551182e+01
1.970000e-06	3.958146e-07	-3.173418e-10	2.961917e+00	-2.340334e+01
1.980000e-06	4.280156e-07	-2.875752e-10	3.202880e+00	-2.128716e+01
1.990000e-06	4.601897e-07	-2.585757e-10	3.443642e+00	-1.916354e+01
2.000000e-06	4.924055e-07	-2.257854e-10	3.684716e+00	-1.703269e+01
2.010000e-06	5.246245e-07	-1.927464e-10	3.925813e+00	-1.489476e+01
2.020000e-06	5.567949e-07	-1.651760e-10	4.166547e+00	-1.274986e+01
2.030000e-06	5.889491e-07	-1.404731e-10	4.407160e+00	-1.059806e+01
2.040000e-06	6.210651e-07	-1.114615e-10	4.647487e+00	-8.439381e+00
2.050000e-06	6.531298e-07	-7.612208e-11	4.887430e+00	-6.273803e+00
2.060000e-06	6.852122e-07	-3.964675e-11	5.127506e+00	-4.101284e+00
2.070000e-06	7.172774e-07	-8.268697e-12	5.367453e+00	-1.921753e+00
2.080000e-06	7.492807e-07	1.988958e-11	5.606936e+00	2.648790e-01
2.090000e-06	7.812398e-07	5.151878e-11	5.846089e+00	2.458708e+00
2.100000e-06	8.131766e-07	8.529101e-11	6.085075e+00	4.659833e+00
2.110000e-06	8.451101e-07	1.165220e-10	6.324037e+00	6.868344e+00
2.120000e-06	8.769879e-07	1.457363e-10	6.562581e+00	9.084315e+00
2.130000e-06	9.088332e-07	1.766217e-10	6.800882e+00	1.130780e+01
2.140000e-06	9.407090e-07	2.119668e-10	7.039412e+00	1.353881e+01
2.150000e-06	9.725592e-07	2.506752e-10	7.277750e+00	1.577733e+01
2.160000e-06	1.004340e-06	2.880778e-10	7.515569e+00	1.802329e+01
2.170000e-06	1.036062e-06	3.213880e-10	7.752945e+00	2.027658e+01
2.180000e-06	1.067802e-06	3.525174e-10	7.990458e+00	2.253704e+01
2.190000e-06	1.099542e-06	3.870507e-10	8.227976e+00	2.480443e+01
2.200000e-06	1.131175e-06	4.230417e-10	8.464690e+00	2.707847e+01
2.210000e-06	1.162676e-06	4.552918e-10	8.700415e+00	2.935884e+01
2.220000e-06	1.194113e-06	4.839730e-10	8.935656e+00	3.164512e+01
2.230000e-06	1.225455e-06	5.142979e-10	9.170192e+00	3.393687e+01
2.240000e-06	1.256662e-06	5.495774e-10	9.403716e+00	3.623359e+01
2.250000e-06	1.287842e-06	5.864448e-10	9.637040e+00	3.853474e+01
2.260000e-06	1.318907e-06	6.202913e-10	9.869506e+00	4.083973e+01
2.270000e-06	1.349829e-06	6.533313e-10	1.010089e+01	4.314795e+01
2.280000e-06	1.380546e-06	6.842865e-10	1.033075e+01	4.545874e+01
2.290000e-06	1.411020e-06	7.156573e-10	1.055879e+01	4.777144e+01
2.300000e-06	1.441488e-06	7.476913e-10	1.078679e+01	5.008537e+01
2.310000e-06	1.471933e-06	7.788953e-10	1.101461e+01	5.239986e+01
2.320000e-06	1.502282e-06	8.090457e-10	1.124172e+01	5.471421e+01
2.330000e-06	1.532553e-06	8.405185e-10	1.146824e+01	5.702777e+01
2.340000e-06	1.562706e-06	8.777898e-10	1.169387e+01	5.933986e+01
2.350000e-06	1.592768e-06	9.168243e-10	1.191883e+01	6.164987e+01
2.360000e-06	1.622733e-06	9.544941e-10	1.214306e+01	6.395716e+01
2.370000e-06	1.652600e-06	9.884046e-10	1.236656e+01	6.626118e+01
2.380000e-06	1.682409e-06	1.022476e-09	1.258962e+01	6.856136e+01
2.390000e-06	1.712194e-06	1.057625e-09	1.281251e+01	7.085718e+01
2.400000e-06	1.741825e-06	1.093386e-09	1.303424e+01	7.314818e+01
2.410000e-06	1.771213e-06	1.125208e-09	1.325415e+01	7.543388e+01
2.420000e-06	1.800539e-06	1.154843e-09	1.347360e+01	7.771389e+01
2.430000e-06	1.829867e-06	1.187120e-09	1.369307e+01	7.998781e+01
2.440000e-06	1.859002e-06	1.224521e-09	1.391108e+01	8.225528e+01
2.450000e-06	1.887923e-06	1.261996e-09	1.412750e+01	8.451596e+01
2.460000e-06	1.916665e-06	1.295006e-09	1.434258e+01	8.676954e+01
2.470000e-06	1.945249e-06	1.325658e-09	1.455648e+01	8.901570e+01
2.480000e-06	1.973761e-06	1.360674e-09	1.476983e+01	9.125414e+01
2.490000e-06	2.002159e-06	1.398434e-09	1.498234e+01	9.348456e+01
2.500000e-06	2.030442e-06	1.432084e-09	1.519398e+01	9.570667e+01
2.510000e-06	2.058552e-06	1.461082e-09	1.540433e+01	9.792015e+01
2.520000e-06	2.086552e-06	1.489521e-09	1.561386e+01	1.001247e+02
2.530000e-06	2.114526e-06	1.520330e-09	1.582319e+01	1.023199e+02
2.540000e-06	2.142419e-06	1.553368e-09	1.603192e+01	1.045055e+02
2.550000e-06	2.170251e-06	1.587978e-09	1.624019e+01	1.066810e+02
2.560000e-06	2.198059e-06	1.620950e-09	1.644828e+01	1.088461e+02
2.570000e-06	2.225811e-06	1.652754e-09	1.665595e+01	1.110003e+02
2.580000e-06	2.253452e-06	1.685101e-09	1.686279e+01	1.131431e+02
2.590000e-06	2.280935e-06	1.719670e-09	1.706844e+01	1.152739e+02
2.600000e-06	2.308200e-06	1.751226e-09	1.727247e+01	1.173924e+02
2.610000e-06	2.335230e-06	1.777665e-09	1.747474e+01	1.194979e+02
2.620000e-06	2.362058e-06	1.805358e-09	1.767550e+01	1.215898e+02
2.630000e-06	2.388472e-06	1.837868e-09	1.787315e+01	1.236675e+02
2.640000e-06	2.414524e-06	1.869336e-09	1.806810e+01	1.257304e+02
2.650000e-06	2.440300e-06	1.898445e-09	1.826099e+01	1.277778e+02
2.660000e-06	2.465645e-06	1.927268e-09	1.845065e+01	1.298090e+02
2.670000e-06	2.490752e-06	1.957864e-09	1.863852e+01	1.318235e+02
2.680000e-06	2.515704e-06	1.988566e-09	1.882525e+01	1.338205e+02
2.690000e-06	2.540384e-06	2.016458e-09	1.900993e+01	1.357994e+02
2.700000e-06	2.564840e-06	2.041276e-09	1.919293e+01	1.377595e+02
2.710000e-06	2.589165e-06	2.067024e-09	1.937496e+01	1.397001e+02
2.720000e-06	2.613323e-06	2.095369e-09	1.955573e+01	1.416207e+02
2.730000e-06	2.637331e-06	2.124364e-09	1.973539e+01	1.435206e+02
2.740000e-06	2.661216e-06	2.152786e-09	1.991412e+01	1.453993e+02
2.750000e-06	2.684972e-06	2.181385e-09	2.009189e+01	1.472563e+02
2.760000e-06	2.708622e-06	2.210753e-09	2.026887e+01	1.490909e+02
2.770000e-06	2.732118e-06	2.239309e-09	2.044469e+01	1.509028e+02
2.780000e-06	2.755398e-06	2.267889e-09	2.061890e+01	1.526914e+02
2.790000e-06	2.778420e-06	2.295595e-09	2.079117e+01	1.544564e+02
2.800000e-06	2.801208e-06	2.322358e-09	2.096169e+01	1.561975e+02
2.810000e-06	2.823813e-06	2.347613e-09	2.113085e+01	1.579142e+02
2.820000e-06	2.846257e-06	2.371035e-09	2.129880e+01	1.596063e+02
2.830000e-06	2.868562e-06	2.394059e-09	2.146571e+01	1.612737e+02
2.840000e-06	2.890687e-06	2.416812e-09	2.163128e+01	1.629160e+02
2.850000e-06	2.912575e-06	2.441432e-09	2.179507e+01	1.645331e+02
2.860000e-06	2.934222e-06	2.466463e-09	2.195706e+01	1.661250e+02
2.870000e-06	2.955731e-06	2.489773e-09	2.211800e+01	1.676914e+02
2.880000e-06	2.977071e-06	2.512207e-09	2.227770e+01	1.692325e+02
2.890000e-06	2.998224e-06	2.533661e-09	2.243598e+01	1.707481e+02
2.900000e-06	3.019183e-06	2.555841e-09	2.259283e+01	1.722384e+02
