# Temperatura_=_20.0
# Concentracion g/m^3_=_10000.0
# C_Vs_to_Am_M_A/Vsm_=_65563218390.804596
# pendiente_HvsI_1/m_=_3716.3
# ordenada_HvsI_A/m_=_1297.0
# frecuencia_Hz_=_135484.74164561712
# Promedio de 24 ciclos

Tiempo_(s)	Campo_(V.s)	Magnetizacion_(V.s)	Campo_(kA/m)	Magnetizacion_(A/m)
0.000000e+00	-7.785375e-09	-1.392191e-09	-5.690966e+01	-9.070473e+01
1.000000e-08	-7.785559e-09	-1.391464e-09	-5.691084e+01	-9.067922e+01
2.000000e-08	-7.785342e-09	-1.392515e-09	-5.690920e+01	-9.063677e+01
3.000000e-08	-7.784588e-09	-1.395118e-09	-5.690358e+01	-9.057648e+01
4.000000e-08	-7.783129e-09	-1.395739e-09	-5.689262e+01	-9.049753e+01
5.000000e-08	-7.780827e-09	-1.394211e-09	-5.687553e+01	-9.039920e+01
6.000000e-08	-7.777786e-09	-1.392343e-09	-5.685319e+01	-9.028088e+01
7.000000e-08	-7.774255e-09	-1.388347e-09	-5.682730e+01	-9.014204e+01
8.000000e-08	-7.770362e-09	-1.379313e-09	-5.679868e+01	-8.998229e+01
9.000000e-08	-7.766049e-09	-1.378472e-09	-5.676694e+01	-8.980136e+01
1.000000e-07	-7.761105e-09	-1.408662e-09	-5.673053e+01	-8.959908e+01
1.100000e-07	-7.755316e-09	-1.443267e-09	-5.668789e+01	-8.937544e+01
1.200000e-07	-7.748645e-09	-1.423116e-09	-5.663882e+01	-8.913054e+01
1.300000e-07	-7.741317e-09	-1.318361e-09	-5.658510e+01	-8.886463e+01
1.400000e-07	-7.733657e-09	-1.270212e-09	-5.652908e+01	-8.857809e+01
1.500000e-07	-7.725799e-09	-1.393678e-09	-5.647156e+01	-8.827143e+01
1.600000e-07	-7.717651e-09	-1.483150e-09	-5.641184e+01	-8.794529e+01
1.700000e-07	-7.709051e-09	-1.378901e-09	-5.634884e+01	-8.760044e+01
1.800000e-07	-7.699806e-09	-1.303222e-09	-5.628111e+01	-8.723777e+01
1.900000e-07	-7.689688e-09	-1.360112e-09	-5.620691e+01	-8.685830e+01
2.000000e-07	-7.678726e-09	-1.454547e-09	-5.612650e+01	-8.646314e+01
2.100000e-07	-7.667199e-09	-1.489588e-09	-5.604206e+01	-8.605352e+01
2.200000e-07	-7.655160e-09	-1.422385e-09	-5.595390e+01	-8.563076e+01
2.300000e-07	-7.642455e-09	-1.325254e-09	-5.586077e+01	-8.519626e+01
2.400000e-07	-7.629184e-09	-1.361724e-09	-5.576359e+01	-8.475149e+01
2.500000e-07	-7.615453e-09	-1.474952e-09	-5.566315e+01	-8.429798e+01
2.600000e-07	-7.600969e-09	-1.399744e-09	-5.555705e+01	-8.383733e+01
2.700000e-07	-7.585498e-09	-1.244061e-09	-5.544369e+01	-8.337115e+01
2.800000e-07	-7.569279e-09	-1.277734e-09	-5.532510e+01	-8.290109e+01
2.900000e-07	-7.552564e-09	-1.377382e-09	-5.520294e+01	-8.242880e+01
3.000000e-07	-7.535360e-09	-1.281686e-09	-5.507715e+01	-8.195594e+01
3.100000e-07	-7.517694e-09	-1.137885e-09	-5.494798e+01	-8.148414e+01
3.200000e-07	-7.499540e-09	-1.162566e-09	-5.481520e+01	-8.101502e+01
3.300000e-07	-7.480820e-09	-1.233547e-09	-5.467821e+01	-8.055014e+01
3.400000e-07	-7.461576e-09	-1.209430e-09	-5.453740e+01	-8.009101e+01
3.500000e-07	-7.441933e-09	-1.185560e-09	-5.439374e+01	-7.963907e+01
3.600000e-07	-7.421910e-09	-1.154471e-09	-5.424733e+01	-7.919569e+01
3.700000e-07	-7.401466e-09	-1.115808e-09	-5.409785e+01	-7.876214e+01
3.800000e-07	-7.380591e-09	-1.177779e-09	-5.394521e+01	-7.833961e+01
3.900000e-07	-7.359251e-09	-1.253131e-09	-5.378908e+01	-7.792916e+01
4.000000e-07	-7.337340e-09	-1.168783e-09	-5.362869e+01	-7.753174e+01
4.100000e-07	-7.314803e-09	-1.091752e-09	-5.346380e+01	-7.714819e+01
4.200000e-07	-7.291733e-09	-1.188708e-09	-5.329510e+01	-7.677919e+01
4.300000e-07	-7.268240e-09	-1.274408e-09	-5.312324e+01	-7.642533e+01
4.400000e-07	-7.244315e-09	-1.173994e-09	-5.294819e+01	-7.608703e+01
4.500000e-07	-7.219910e-09	-1.083728e-09	-5.276969e+01	-7.576458e+01
4.600000e-07	-7.195016e-09	-1.173495e-09	-5.258765e+01	-7.545812e+01
4.700000e-07	-7.169513e-09	-1.236982e-09	-5.240109e+01	-7.516768e+01
4.800000e-07	-7.143210e-09	-1.155241e-09	-5.220854e+01	-7.489312e+01
4.900000e-07	-7.116175e-09	-1.113377e-09	-5.201077e+01	-7.463418e+01
5.000000e-07	-7.088659e-09	-1.168044e-09	-5.180957e+01	-7.439047e+01
5.100000e-07	-7.060770e-09	-1.176895e-09	-5.160561e+01	-7.416147e+01
5.200000e-07	-7.032500e-09	-1.156310e-09	-5.139881e+01	-7.394655e+01
5.300000e-07	-7.003790e-09	-1.150367e-09	-5.118880e+01	-7.374496e+01
5.400000e-07	-6.974558e-09	-1.129634e-09	-5.097497e+01	-7.355584e+01
5.500000e-07	-6.944799e-09	-1.129962e-09	-5.075730e+01	-7.337826e+01
5.600000e-07	-6.914564e-09	-1.173139e-09	-5.053618e+01	-7.321118e+01
5.700000e-07	-6.883835e-09	-1.161636e-09	-5.031148e+01	-7.305351e+01
5.800000e-07	-6.852628e-09	-1.112803e-09	-5.008327e+01	-7.290408e+01
5.900000e-07	-6.821039e-09	-1.122918e-09	-4.985231e+01	-7.276167e+01
6.000000e-07	-6.789135e-09	-1.168047e-09	-4.961906e+01	-7.262504e+01
6.100000e-07	-6.756835e-09	-1.156991e-09	-4.938279e+01	-7.249291e+01
6.200000e-07	-6.723967e-09	-1.110275e-09	-4.914232e+01	-7.236399e+01
6.300000e-07	-6.690444e-09	-1.101827e-09	-4.889702e+01	-7.223699e+01
6.400000e-07	-6.656280e-09	-1.136082e-09	-4.864701e+01	-7.211061e+01
6.500000e-07	-6.621494e-09	-1.139977e-09	-4.839249e+01	-7.198361e+01
6.600000e-07	-6.586154e-09	-1.099698e-09	-4.813402e+01	-7.185475e+01
6.700000e-07	-6.550391e-09	-1.086194e-09	-4.787251e+01	-7.172285e+01
6.800000e-07	-6.514260e-09	-1.112017e-09	-4.760829e+01	-7.158677e+01
6.900000e-07	-6.477690e-09	-1.115647e-09	-4.734083e+01	-7.144545e+01
7.000000e-07	-6.440637e-09	-1.092970e-09	-4.706987e+01	-7.129789e+01
7.100000e-07	-6.403136e-09	-1.085284e-09	-4.679560e+01	-7.114317e+01
7.200000e-07	-6.365174e-09	-1.087986e-09	-4.651793e+01	-7.098045e+01
7.300000e-07	-6.326761e-09	-1.090015e-09	-4.623697e+01	-7.080901e+01
7.400000e-07	-6.287951e-09	-1.091227e-09	-4.595308e+01	-7.062818e+01
7.500000e-07	-6.248802e-09	-1.080333e-09	-4.566676e+01	-7.043743e+01
7.600000e-07	-6.209335e-09	-1.065195e-09	-4.537819e+01	-7.023631e+01
7.700000e-07	-6.169534e-09	-1.075362e-09	-4.508718e+01	-7.002447e+01
7.800000e-07	-6.129343e-09	-1.086726e-09	-4.479328e+01	-6.980168e+01
7.900000e-07	-6.088651e-09	-1.067703e-09	-4.449566e+01	-6.956781e+01
8.000000e-07	-6.047348e-09	-1.046469e-09	-4.419357e+01	-6.932280e+01
8.100000e-07	-6.005399e-09	-1.056931e-09	-4.388666e+01	-6.906674e+01
8.200000e-07	-5.962846e-09	-1.067638e-09	-4.357533e+01	-6.879976e+01
8.300000e-07	-5.919759e-09	-1.052092e-09	-4.326014e+01	-6.852211e+01
8.400000e-07	-5.876224e-09	-1.031540e-09	-4.294174e+01	-6.823412e+01
8.500000e-07	-5.832305e-09	-1.033613e-09	-4.262063e+01	-6.793619e+01
8.600000e-07	-5.788030e-09	-1.042631e-09	-4.229689e+01	-6.762878e+01
8.700000e-07	-5.743417e-09	-1.034361e-09	-4.197065e+01	-6.731244e+01
8.800000e-07	-5.698462e-09	-1.015220e-09	-4.164195e+01	-6.698774e+01
8.900000e-07	-5.653145e-09	-1.008301e-09	-4.131061e+01	-6.665532e+01
9.000000e-07	-5.607447e-09	-1.012865e-09	-4.097642e+01	-6.631583e+01
9.100000e-07	-5.561350e-09	-1.011912e-09	-4.063933e+01	-6.596996e+01
9.200000e-07	-5.514850e-09	-1.000202e-09	-4.029934e+01	-6.561844e+01
9.300000e-07	-5.467978e-09	-9.877115e-10	-3.995656e+01	-6.526195e+01
9.400000e-07	-5.420725e-09	-9.838100e-10	-3.961099e+01	-6.490123e+01
9.500000e-07	-5.373072e-09	-9.870816e-10	-3.926250e+01	-6.453697e+01
9.600000e-07	-5.325006e-09	-9.835560e-10	-3.891092e+01	-6.416986e+01
9.700000e-07	-5.276473e-09	-9.679366e-10	-3.855585e+01	-6.380055e+01
9.800000e-07	-5.227433e-09	-9.568039e-10	-3.819701e+01	-6.342966e+01
9.900000e-07	-5.177871e-09	-9.579868e-10	-3.783444e+01	-6.305778e+01
1.000000e-06	-5.127808e-09	-9.555252e-10	-3.746821e+01	-6.268543e+01
1.010000e-06	-5.077253e-09	-9.402445e-10	-3.709839e+01	-6.231310e+01
1.020000e-06	-5.026224e-09	-9.285404e-10	-3.672520e+01	-6.194119e+01
1.030000e-06	-4.974758e-09	-9.286090e-10	-3.634880e+01	-6.157008e+01
1.040000e-06	-4.922895e-09	-9.279735e-10	-3.596953e+01	-6.120004e+01
1.050000e-06	-4.870684e-09	-9.174308e-10	-3.558773e+01	-6.083129e+01
1.060000e-06	-4.818108e-09	-9.055526e-10	-3.520326e+01	-6.046400e+01
1.070000e-06	-4.765126e-09	-8.989027e-10	-3.481579e+01	-6.009823e+01
1.080000e-06	-4.711770e-09	-8.949523e-10	-3.442556e+01	-5.973399e+01
1.090000e-06	-4.658070e-09	-8.869160e-10	-3.403289e+01	-5.937123e+01
1.100000e-06	-4.604035e-09	-8.756380e-10	-3.363781e+01	-5.900982e+01
1.110000e-06	-4.549677e-09	-8.660557e-10	-3.324034e+01	-5.864956e+01
1.120000e-06	-4.495011e-09	-8.605051e-10	-3.284067e+01	-5.829021e+01
1.130000e-06	-4.440071e-09	-8.559027e-10	-3.243902e+01	-5.793143e+01
1.140000e-06	-4.384886e-09	-8.493113e-10	-3.203560e+01	-5.757288e+01
1.150000e-06	-4.329453e-09	-8.408551e-10	-3.163037e+01	-5.721414e+01
1.160000e-06	-4.273754e-09	-8.359280e-10	-3.122322e+01	-5.685475e+01
1.170000e-06	-4.217825e-09	-8.332314e-10	-3.081442e+01	-5.649423e+01
1.180000e-06	-4.161671e-09	-8.264599e-10	-3.040392e+01	-5.613205e+01
1.190000e-06	-4.105238e-09	-8.152381e-10	-2.999124e+01	-5.576769e+01
1.200000e-06	-4.048459e-09	-8.051098e-10	-2.957599e+01	-5.540057e+01
1.210000e-06	-3.991319e-09	-7.975596e-10	-2.915813e+01	-5.503015e+01
1.220000e-06	-3.933816e-09	-7.898604e-10	-2.873758e+01	-5.465584e+01
1.230000e-06	-3.875907e-09	-7.812767e-10	-2.831404e+01	-5.427710e+01
1.240000e-06	-3.817572e-09	-7.737069e-10	-2.788740e+01	-5.389338e+01
1.250000e-06	-3.758873e-09	-7.688851e-10	-2.745818e+01	-5.350415e+01
1.260000e-06	-3.699894e-09	-7.647562e-10	-2.702699e+01	-5.310891e+01
1.270000e-06	-3.640651e-09	-7.598504e-10	-2.659387e+01	-5.270717e+01
1.280000e-06	-3.581145e-09	-7.521193e-10	-2.615888e+01	-5.229851e+01
1.290000e-06	-3.521405e-09	-7.420830e-10	-2.572217e+01	-5.188253e+01
1.300000e-06	-3.461457e-09	-7.335007e-10	-2.528392e+01	-5.145886e+01
1.310000e-06	-3.401326e-09	-7.272235e-10	-2.484438e+01	-5.102721e+01
1.320000e-06	-3.341036e-09	-7.191290e-10	-2.440367e+01	-5.058730e+01
1.330000e-06	-3.280556e-09	-7.099957e-10	-2.396152e+01	-5.013895e+01
1.340000e-06	-3.219866e-09	-7.035237e-10	-2.351785e+01	-4.968199e+01
1.350000e-06	-3.158988e-09	-6.983902e-10	-2.307284e+01	-4.921631e+01
1.360000e-06	-3.097893e-09	-6.915696e-10	-2.262625e+01	-4.874188e+01
1.370000e-06	-3.036536e-09	-6.842204e-10	-2.217776e+01	-4.825869e+01
1.380000e-06	-2.974925e-09	-6.768899e-10	-2.172748e+01	-4.776679e+01
1.390000e-06	-2.913111e-09	-6.688432e-10	-2.127561e+01	-4.726629e+01
1.400000e-06	-2.851107e-09	-6.596878e-10	-2.082230e+01	-4.675734e+01
1.410000e-06	-2.788907e-09	-6.510767e-10	-2.036760e+01	-4.624010e+01
1.420000e-06	-2.726544e-09	-6.436468e-10	-1.991165e+01	-4.571481e+01
1.430000e-06	-2.664021e-09	-6.360995e-10	-1.945452e+01	-4.518173e+01
1.440000e-06	-2.601327e-09	-6.287138e-10	-1.899619e+01	-4.464112e+01
1.450000e-06	-2.538488e-09	-6.214110e-10	-1.853681e+01	-4.409329e+01
1.460000e-06	-2.475514e-09	-6.139599e-10	-1.807647e+01	-4.353856e+01
1.470000e-06	-2.412401e-09	-6.066442e-10	-1.761511e+01	-4.297726e+01
1.480000e-06	-2.349153e-09	-5.991868e-10	-1.715280e+01	-4.240971e+01
1.490000e-06	-2.285743e-09	-5.910038e-10	-1.668934e+01	-4.183623e+01
1.500000e-06	-2.222161e-09	-5.816374e-10	-1.622458e+01	-4.125715e+01
1.510000e-06	-2.158418e-09	-5.711350e-10	-1.575866e+01	-4.067277e+01
1.520000e-06	-2.094525e-09	-5.604502e-10	-1.529164e+01	-4.008336e+01
1.530000e-06	-2.030517e-09	-5.499851e-10	-1.482370e+01	-3.948919e+01
1.540000e-06	-1.966390e-09	-5.399345e-10	-1.435489e+01	-3.889046e+01
1.550000e-06	-1.902135e-09	-5.310164e-10	-1.388517e+01	-3.828736e+01
1.560000e-06	-1.837758e-09	-5.228892e-10	-1.341454e+01	-3.768004e+01
1.570000e-06	-1.773261e-09	-5.128032e-10	-1.294309e+01	-3.706859e+01
1.580000e-06	-1.708650e-09	-5.013703e-10	-1.247073e+01	-3.645305e+01
1.590000e-06	-1.643907e-09	-4.903444e-10	-1.199731e+01	-3.583341e+01
1.600000e-06	-1.579016e-09	-4.796967e-10	-1.152282e+01	-3.520961e+01
1.610000e-06	-1.514016e-09	-4.691344e-10	-1.104749e+01	-3.458154e+01
1.620000e-06	-1.448899e-09	-4.571967e-10	-1.057129e+01	-3.394901e+01
1.630000e-06	-1.383638e-09	-4.441722e-10	-1.009403e+01	-3.331179e+01
1.640000e-06	-1.318234e-09	-4.337617e-10	-9.615758e+00	-3.266958e+01
1.650000e-06	-1.252678e-09	-4.268656e-10	-9.136429e+00	-3.202204e+01
1.660000e-06	-1.186995e-09	-4.188931e-10	-8.656159e+00	-3.136876e+01
1.670000e-06	-1.121220e-09	-4.078577e-10	-8.175206e+00	-3.070928e+01
1.680000e-06	-1.055379e-09	-3.973902e-10	-7.693770e+00	-3.004309e+01
1.690000e-06	-9.894818e-10	-3.895149e-10	-7.212001e+00	-2.936965e+01
1.700000e-06	-9.235223e-10	-3.806786e-10	-6.729798e+00	-2.868835e+01
1.710000e-06	-8.574937e-10	-3.661152e-10	-6.247050e+00	-2.799857e+01
1.720000e-06	-7.914117e-10	-3.478506e-10	-5.763964e+00	-2.729964e+01
1.730000e-06	-7.252718e-10	-3.329184e-10	-5.280516e+00	-2.659087e+01
1.740000e-06	-6.590548e-10	-3.214905e-10	-4.796411e+00	-2.587156e+01
1.750000e-06	-5.927621e-10	-3.093615e-10	-4.311689e+00	-2.514097e+01
1.760000e-06	-5.263937e-10	-2.965534e-10	-3.826455e+00	-2.439838e+01
1.770000e-06	-4.599666e-10	-2.861911e-10	-3.340799e+00	-2.364306e+01
1.780000e-06	-3.934785e-10	-2.780191e-10	-2.854645e+00	-2.287428e+01
1.790000e-06	-3.269234e-10	-2.687783e-10	-2.368017e+00	-2.209133e+01
1.800000e-06	-2.603419e-10	-2.559067e-10	-1.881268e+00	-2.129351e+01
1.810000e-06	-1.937573e-10	-2.396187e-10	-1.394514e+00	-2.048016e+01
1.820000e-06	-1.271621e-10	-2.233760e-10	-9.077358e-01	-1.965064e+01
1.830000e-06	-6.058373e-11	-2.095232e-10	-4.210998e-01	-1.880435e+01
1.840000e-06	5.960225e-12	-1.955481e-10	6.535911e-02	-1.794074e+01
1.850000e-06	7.248248e-11	-1.815658e-10	5.516766e-01	-1.705932e+01
1.860000e-06	1.389897e-10	-1.692124e-10	1.037908e+00	-1.615962e+01
1.870000e-06	2.054933e-10	-1.588976e-10	1.524115e+00	-1.524127e+01
1.880000e-06	2.719810e-10	-1.495965e-10	2.010181e+00	-1.430394e+01
1.890000e-06	3.384547e-10	-1.380608e-10	2.496164e+00	-1.334737e+01
1.900000e-06	4.049227e-10	-1.231150e-10	2.982072e+00	-1.237138e+01
1.910000e-06	4.713775e-10	-1.064315e-10	3.467831e+00	-1.137585e+01
1.920000e-06	5.378153e-10	-8.983286e-11	3.953440e+00	-1.036075e+01
1.930000e-06	6.042215e-10	-7.191211e-11	4.438902e+00	-9.326103e+00
1.940000e-06	6.705473e-10	-5.342351e-11	4.923890e+00	-8.272037e+00
1.950000e-06	7.367829e-10	-3.833400e-11	5.408174e+00	-7.198739e+00
1.960000e-06	8.029438e-10	-2.582060e-11	5.891857e+00	-6.106478e+00
1.970000e-06	8.690149e-10	-1.311231e-11	6.374891e+00	-4.995597e+00
1.980000e-06	9.349790e-10	5.948877e-13	6.857172e+00	-3.866514e+00
1.990000e-06	1.000835e-09	1.488839e-11	7.338611e+00	-2.719719e+00
2.000000e-06	1.066602e-09	2.971549e-11	7.819392e+00	-1.555771e+00
2.010000e-06	1.132276e-09	4.606211e-11	8.299576e+00	-3.752964e-01
2.020000e-06	1.197848e-09	6.404937e-11	8.779027e+00	8.210169e-01
2.030000e-06	1.263347e-09	8.227291e-11	9.257895e+00	2.032420e+00
2.040000e-06	1.328764e-09	9.906990e-11	9.736088e+00	3.258110e+00
2.050000e-06	1.394065e-09	1.144447e-10	1.021344e+01	4.497233e+00
2.060000e-06	1.459245e-09	1.297718e-10	1.068990e+01	5.748886e+00
2.070000e-06	1.524313e-09	1.464392e-10	1.116549e+01	7.012128e+00
2.080000e-06	1.589251e-09	1.638966e-10	1.164012e+01	8.285979e+00
2.090000e-06	1.654039e-09	1.810801e-10	1.211364e+01	9.569426e+00
2.100000e-06	1.718675e-09	1.989560e-10	1.258609e+01	1.086143e+01
2.110000e-06	1.783151e-09	2.183533e-10	1.305741e+01	1.216093e+01
2.120000e-06	1.847476e-09	2.379462e-10	1.352763e+01	1.346685e+01
2.130000e-06	1.911659e-09	2.577894e-10	1.399677e+01	1.477810e+01
2.140000e-06	1.975698e-09	2.778659e-10	1.446484e+01	1.609357e+01
2.150000e-06	2.039606e-09	2.975682e-10	1.493188e+01	1.741216e+01
2.160000e-06	2.103393e-09	3.167601e-10	1.539802e+01	1.873277e+01
2.170000e-06	2.167073e-09	3.359596e-10	1.586335e+01	2.005430e+01
2.180000e-06	2.230645e-09	3.546343e-10	1.632783e+01	2.137565e+01
2.190000e-06	2.294085e-09	3.727753e-10	1.679136e+01	2.269575e+01
2.200000e-06	2.357382e-09	3.914786e-10	1.725391e+01	2.401353e+01
2.210000e-06	2.420534e-09	4.112176e-10	1.771543e+01	2.532794e+01
2.220000e-06	2.483542e-09	4.313085e-10	1.817596e+01	2.663794e+01
2.230000e-06	2.546407e-09	4.518922e-10	1.863543e+01	2.794254e+01
2.240000e-06	2.609108e-09	4.727230e-10	1.909366e+01	2.924075e+01
2.250000e-06	2.671628e-09	4.928079e-10	1.955050e+01	3.053161e+01
2.260000e-06	2.733965e-09	5.123690e-10	2.000603e+01	3.181419e+01
2.270000e-06	2.796113e-09	5.316554e-10	2.046024e+01	3.308758e+01
2.280000e-06	2.858066e-09	5.502499e-10	2.091300e+01	3.435092e+01
2.290000e-06	2.919838e-09	5.688709e-10	2.136441e+01	3.560335e+01
2.300000e-06	2.981413e-09	5.885829e-10	2.181433e+01	3.684407e+01
2.310000e-06	3.042775e-09	6.080008e-10	2.226271e+01	3.807229e+01
2.320000e-06	3.103943e-09	6.260051e-10	2.270968e+01	3.928726e+01
2.330000e-06	3.164910e-09	6.432878e-10	2.315516e+01	4.048827e+01
2.340000e-06	3.225685e-09	6.610748e-10	2.359925e+01	4.167461e+01
2.350000e-06	3.286275e-09	6.778703e-10	2.404200e+01	4.284564e+01
2.360000e-06	3.346665e-09	6.928559e-10	2.448331e+01	4.400074e+01
2.370000e-06	3.406846e-09	7.074288e-10	2.492310e+01	4.513930e+01
2.380000e-06	3.466819e-09	7.222032e-10	2.536132e+01	4.626077e+01
2.390000e-06	3.526578e-09	7.370892e-10	2.579796e+01	4.736462e+01
2.400000e-06	3.586113e-09	7.528664e-10	2.623300e+01	4.845034e+01
2.410000e-06	3.645403e-09	7.691629e-10	2.666634e+01	4.951749e+01
2.420000e-06	3.704416e-09	7.859289e-10	2.709762e+01	5.056562e+01
2.430000e-06	3.763129e-09	8.037114e-10	2.752667e+01	5.159433e+01
2.440000e-06	3.821486e-09	8.201911e-10	2.795319e+01	5.260327e+01
2.450000e-06	3.879455e-09	8.339118e-10	2.837694e+01	5.359209e+01
2.460000e-06	3.937056e-09	8.461856e-10	2.879805e+01	5.456051e+01
2.470000e-06	3.994281e-09	8.578728e-10	2.921644e+01	5.550826e+01
2.480000e-06	4.051155e-09	8.691891e-10	2.963217e+01	5.643512e+01
2.490000e-06	4.107696e-09	8.798616e-10	3.004540e+01	5.734090e+01
2.500000e-06	4.163912e-09	8.909206e-10	3.045623e+01	5.822546e+01
2.510000e-06	4.219837e-09	9.040469e-10	3.086499e+01	5.908869e+01
2.520000e-06	4.275485e-09	9.183636e-10	3.127171e+01	5.993051e+01
2.530000e-06	4.330882e-09	9.319523e-10	3.167648e+01	6.075090e+01
2.540000e-06	4.386029e-09	9.443297e-10	3.207939e+01	6.154987e+01
2.550000e-06	4.440908e-09	9.562003e-10	3.248035e+01	6.232748e+01
2.560000e-06	4.495506e-09	9.665559e-10	3.287934e+01	6.308383e+01
2.570000e-06	4.549822e-09	9.754056e-10	3.327629e+01	6.381906e+01
2.580000e-06	4.603855e-09	9.838330e-10	3.367111e+01	6.453336e+01
2.590000e-06	4.657573e-09	9.927392e-10	3.406362e+01	6.522696e+01
2.600000e-06	4.710963e-09	1.002134e-09	3.445370e+01	6.590013e+01
2.610000e-06	4.764026e-09	1.011683e-09	3.484137e+01	6.655320e+01
2.620000e-06	4.816746e-09	1.021380e-09	3.522655e+01	6.718652e+01
2.630000e-06	4.869086e-09	1.032477e-09	3.560901e+01	6.780049e+01
2.640000e-06	4.921015e-09	1.044883e-09	3.598851e+01	6.839557e+01
2.650000e-06	4.972497e-09	1.055158e-09	3.636476e+01	6.897223e+01
2.660000e-06	5.023504e-09	1.062871e-09	3.673755e+01	6.953099e+01
2.670000e-06	5.074023e-09	1.071405e-09	3.710678e+01	7.007241e+01
2.680000e-06	5.124016e-09	1.081989e-09	3.747217e+01	7.059708e+01
2.690000e-06	5.173465e-09	1.091593e-09	3.783363e+01	7.110561e+01
2.700000e-06	5.222391e-09	1.099813e-09	3.819128e+01	7.159864e+01
2.710000e-06	5.270865e-09	1.108937e-09	3.854565e+01	7.207686e+01
2.720000e-06	5.318976e-09	1.119461e-09	3.889733e+01	7.254093e+01
2.730000e-06	5.366757e-09	1.129894e-09	3.924649e+01	7.299156e+01
2.740000e-06	5.414202e-09	1.139336e-09	3.959314e+01	7.342947e+01
2.750000e-06	5.461306e-09	1.147920e-09	3.993719e+01	7.385537e+01
2.760000e-06	5.508049e-09	1.155408e-09	4.027861e+01	7.426999e+01
2.770000e-06	5.554384e-09	1.162005e-09	4.061716e+01	7.467404e+01
2.780000e-06	5.600293e-09	1.168563e-09	4.095265e+01	7.506824e+01
2.790000e-06	5.645802e-09	1.174649e-09	4.128513e+01	7.545328e+01
2.800000e-06	5.690936e-09	1.180827e-09	4.161482e+01	7.582984e+01
2.810000e-06	5.735694e-09	1.187538e-09	4.194181e+01	7.619859e+01
2.820000e-06	5.780097e-09	1.195794e-09	4.226629e+01	7.656016e+01
2.830000e-06	5.824199e-09	1.205217e-09	4.258857e+01	7.691516e+01
2.840000e-06	5.868019e-09	1.214196e-09	4.290880e+01	7.726414e+01
2.850000e-06	5.911536e-09	1.221687e-09	4.322686e+01	7.760765e+01
2.860000e-06	5.954669e-09	1.226742e-09	4.354211e+01	7.794616e+01
2.870000e-06	5.997297e-09	1.230404e-09	4.385354e+01	7.828013e+01
2.880000e-06	6.039311e-09	1.234666e-09	4.416043e+01	7.860994e+01
2.890000e-06	6.080676e-09	1.240109e-09	4.446268e+01	7.893593e+01
2.900000e-06	6.121446e-09	1.245176e-09	4.476060e+01	7.925840e+01
