# Temperatura_=_20.0
# Concentracion g/m^3_=_9000.0
# C_Vs_to_Am_M_A/Vsm_=_65563218390.804596
# pendiente_HvsI_1/m_=_3716.3
# ordenada_HvsI_A/m_=_1297.0
# frecuencia_Hz_=_135465.55394319663

Tiempo_(s)	Campo_(V.s)	Magnetizacion_(V.s)	Campo_(kA/m)	Magnetizacion_(A/m)
0.000000e+00	-7.938198e-06	-4.480521e-09	-5.692742e+01	-3.060906e+02
1.000000e-08	-7.938423e-06	-4.477567e-09	-5.692904e+01	-3.062982e+02
2.000000e-08	-7.938264e-06	-4.473316e-09	-5.692790e+01	-3.065013e+02
3.000000e-08	-7.937457e-06	-4.470992e-09	-5.692211e+01	-3.066906e+02
4.000000e-08	-7.935873e-06	-4.474380e-09	-5.691075e+01	-3.068563e+02
5.000000e-08	-7.933535e-06	-4.476426e-09	-5.689398e+01	-3.069885e+02
6.000000e-08	-7.930543e-06	-4.476296e-09	-5.687253e+01	-3.070771e+02
7.000000e-08	-7.927098e-06	-4.479328e-09	-5.684783e+01	-3.071124e+02
8.000000e-08	-7.923290e-06	-4.478253e-09	-5.682052e+01	-3.070851e+02
9.000000e-08	-7.918996e-06	-4.461687e-09	-5.678972e+01	-3.069868e+02
1.000000e-07	-7.914003e-06	-4.470230e-09	-5.675391e+01	-3.068099e+02
1.100000e-07	-7.908130e-06	-4.524617e-09	-5.671179e+01	-3.065482e+02
1.200000e-07	-7.901337e-06	-4.572212e-09	-5.666308e+01	-3.061966e+02
1.300000e-07	-7.893928e-06	-4.495415e-09	-5.660995e+01	-3.057516e+02
1.400000e-07	-7.886319e-06	-4.343824e-09	-5.655538e+01	-3.052114e+02
1.500000e-07	-7.878584e-06	-4.376577e-09	-5.649991e+01	-3.045758e+02
1.600000e-07	-7.870468e-06	-4.584152e-09	-5.644171e+01	-3.038465e+02
1.700000e-07	-7.861679e-06	-4.599457e-09	-5.637868e+01	-3.030266e+02
1.800000e-07	-7.852098e-06	-4.419329e-09	-5.630997e+01	-3.021211e+02
1.900000e-07	-7.841694e-06	-4.388364e-09	-5.623536e+01	-3.011366e+02
2.000000e-07	-7.830564e-06	-4.502609e-09	-5.615554e+01	-3.000810e+02
2.100000e-07	-7.818955e-06	-4.614844e-09	-5.607229e+01	-2.989635e+02
2.200000e-07	-7.806875e-06	-4.587906e-09	-5.598566e+01	-2.977945e+02
2.300000e-07	-7.794075e-06	-4.413681e-09	-5.589387e+01	-2.965851e+02
2.400000e-07	-7.780573e-06	-4.322168e-09	-5.579705e+01	-2.953472e+02
2.500000e-07	-7.766595e-06	-4.464107e-09	-5.569681e+01	-2.940928e+02
2.600000e-07	-7.751822e-06	-4.576065e-09	-5.559086e+01	-2.928342e+02
2.700000e-07	-7.736007e-06	-4.399044e-09	-5.547745e+01	-2.915836e+02
2.800000e-07	-7.719564e-06	-4.271065e-09	-5.535953e+01	-2.903526e+02
2.900000e-07	-7.702711e-06	-4.435199e-09	-5.523867e+01	-2.891523e+02
3.000000e-07	-7.685221e-06	-4.561627e-09	-5.511324e+01	-2.879927e+02
3.100000e-07	-7.667175e-06	-4.444173e-09	-5.498383e+01	-2.868830e+02
3.200000e-07	-7.648817e-06	-4.372576e-09	-5.485218e+01	-2.858311e+02
3.300000e-07	-7.629983e-06	-4.467321e-09	-5.471712e+01	-2.848432e+02
3.400000e-07	-7.610566e-06	-4.523819e-09	-5.457787e+01	-2.839245e+02
3.500000e-07	-7.590789e-06	-4.518144e-09	-5.443604e+01	-2.830782e+02
3.600000e-07	-7.570623e-06	-4.452682e-09	-5.429142e+01	-2.823064e+02
3.700000e-07	-7.549814e-06	-4.362560e-09	-5.414220e+01	-2.816092e+02
3.800000e-07	-7.528503e-06	-4.433868e-09	-5.398937e+01	-2.809855e+02
3.900000e-07	-7.506815e-06	-4.553054e-09	-5.383384e+01	-2.804327e+02
4.000000e-07	-7.484500e-06	-4.480571e-09	-5.367380e+01	-2.799469e+02
4.100000e-07	-7.461511e-06	-4.347940e-09	-5.350895e+01	-2.795229e+02
4.200000e-07	-7.438061e-06	-4.406030e-09	-5.334078e+01	-2.791549e+02
4.300000e-07	-7.414351e-06	-4.532160e-09	-5.317075e+01	-2.788360e+02
4.400000e-07	-7.390150e-06	-4.506482e-09	-5.299719e+01	-2.785587e+02
4.500000e-07	-7.365152e-06	-4.365879e-09	-5.281792e+01	-2.783154e+02
4.600000e-07	-7.339455e-06	-4.347079e-09	-5.263364e+01	-2.780980e+02
4.700000e-07	-7.313180e-06	-4.485015e-09	-5.244521e+01	-2.778987e+02
4.800000e-07	-7.286330e-06	-4.502591e-09	-5.225266e+01	-2.777097e+02
4.900000e-07	-7.258919e-06	-4.363897e-09	-5.205609e+01	-2.775238e+02
5.000000e-07	-7.231049e-06	-4.337921e-09	-5.185623e+01	-2.773341e+02
5.100000e-07	-7.202771e-06	-4.431743e-09	-5.165343e+01	-2.771345e+02
5.200000e-07	-7.174102e-06	-4.438535e-09	-5.144784e+01	-2.769200e+02
5.300000e-07	-7.144974e-06	-4.389476e-09	-5.123895e+01	-2.766859e+02
5.400000e-07	-7.115338e-06	-4.360485e-09	-5.102642e+01	-2.764289e+02
5.500000e-07	-7.085172e-06	-4.347220e-09	-5.081009e+01	-2.761465e+02
5.600000e-07	-7.054467e-06	-4.382429e-09	-5.058990e+01	-2.758371e+02
5.700000e-07	-7.023346e-06	-4.412796e-09	-5.036672e+01	-2.754999e+02
5.800000e-07	-6.991839e-06	-4.339831e-09	-5.014077e+01	-2.751353e+02
5.900000e-07	-6.959952e-06	-4.289199e-09	-4.991210e+01	-2.747442e+02
6.000000e-07	-6.927643e-06	-4.347520e-09	-4.968040e+01	-2.743282e+02
6.100000e-07	-6.894701e-06	-4.383449e-09	-4.944416e+01	-2.738895e+02
6.200000e-07	-6.860967e-06	-4.327433e-09	-4.920224e+01	-2.734307e+02
6.300000e-07	-6.826520e-06	-4.284147e-09	-4.895522e+01	-2.729548e+02
6.400000e-07	-6.791487e-06	-4.303035e-09	-4.870398e+01	-2.724649e+02
6.500000e-07	-6.755979e-06	-4.331924e-09	-4.844935e+01	-2.719642e+02
6.600000e-07	-6.720122e-06	-4.312405e-09	-4.819220e+01	-2.714558e+02
6.700000e-07	-6.683913e-06	-4.265393e-09	-4.793254e+01	-2.709425e+02
6.800000e-07	-6.647297e-06	-4.260702e-09	-4.766995e+01	-2.704269e+02
6.900000e-07	-6.610188e-06	-4.283919e-09	-4.740383e+01	-2.699114e+02
7.000000e-07	-6.572494e-06	-4.270654e-09	-4.713351e+01	-2.693976e+02
7.100000e-07	-6.534283e-06	-4.241613e-09	-4.685949e+01	-2.688870e+02
7.200000e-07	-6.495629e-06	-4.235250e-09	-4.658229e+01	-2.683804e+02
7.300000e-07	-6.456610e-06	-4.232033e-09	-4.630247e+01	-2.678780e+02
7.400000e-07	-6.417306e-06	-4.227970e-09	-4.602061e+01	-2.673797e+02
7.500000e-07	-6.377676e-06	-4.219188e-09	-4.573641e+01	-2.668848e+02
7.600000e-07	-6.337659e-06	-4.195449e-09	-4.544943e+01	-2.663923e+02
7.700000e-07	-6.297120e-06	-4.184173e-09	-4.515872e+01	-2.659006e+02
7.800000e-07	-6.256031e-06	-4.196712e-09	-4.486405e+01	-2.654081e+02
7.900000e-07	-6.214252e-06	-4.181688e-09	-4.456444e+01	-2.649127e+02
8.000000e-07	-6.171747e-06	-4.145910e-09	-4.425962e+01	-2.644125e+02
8.100000e-07	-6.128772e-06	-4.142480e-09	-4.395144e+01	-2.639052e+02
8.200000e-07	-6.085391e-06	-4.159284e-09	-4.364034e+01	-2.633888e+02
8.300000e-07	-6.041631e-06	-4.144946e-09	-4.332652e+01	-2.628612e+02
8.400000e-07	-5.997462e-06	-4.112745e-09	-4.300977e+01	-2.623207e+02
8.500000e-07	-5.952850e-06	-4.102557e-09	-4.268984e+01	-2.617656e+02
8.600000e-07	-5.907883e-06	-4.112203e-09	-4.236737e+01	-2.611946e+02
8.700000e-07	-5.862533e-06	-4.106383e-09	-4.204215e+01	-2.606067e+02
8.800000e-07	-5.816681e-06	-4.078561e-09	-4.171333e+01	-2.600013e+02
8.900000e-07	-5.770420e-06	-4.055038e-09	-4.138157e+01	-2.593781e+02
9.000000e-07	-5.723829e-06	-4.053860e-09	-4.104746e+01	-2.587370e+02
9.100000e-07	-5.676892e-06	-4.056440e-09	-4.071085e+01	-2.580783e+02
9.200000e-07	-5.629667e-06	-4.038845e-09	-4.037219e+01	-2.574028e+02
9.300000e-07	-5.582035e-06	-4.012200e-09	-4.003060e+01	-2.567112e+02
9.400000e-07	-5.533852e-06	-4.002204e-09	-3.968507e+01	-2.560045e+02
9.500000e-07	-5.485147e-06	-4.006873e-09	-3.933579e+01	-2.552839e+02
9.600000e-07	-5.435963e-06	-4.002487e-09	-3.898307e+01	-2.545506e+02
9.700000e-07	-5.386222e-06	-3.978531e-09	-3.862637e+01	-2.538059e+02
9.800000e-07	-5.335892e-06	-3.953694e-09	-3.826543e+01	-2.530507e+02
9.900000e-07	-5.284998e-06	-3.948741e-09	-3.790046e+01	-2.522863e+02
1.000000e-06	-5.233588e-06	-3.949140e-09	-3.753178e+01	-2.515135e+02
1.010000e-06	-5.181840e-06	-3.930427e-09	-3.716067e+01	-2.507330e+02
1.020000e-06	-5.129665e-06	-3.902356e-09	-3.678651e+01	-2.499451e+02
1.030000e-06	-5.077120e-06	-3.892377e-09	-3.640969e+01	-2.491501e+02
1.040000e-06	-5.024315e-06	-3.893874e-09	-3.603101e+01	-2.483478e+02
1.050000e-06	-4.971158e-06	-3.882579e-09	-3.564981e+01	-2.475378e+02
1.060000e-06	-4.917682e-06	-3.859106e-09	-3.526631e+01	-2.467196e+02
1.070000e-06	-4.863834e-06	-3.841143e-09	-3.488015e+01	-2.458921e+02
1.080000e-06	-4.809613e-06	-3.837164e-09	-3.449132e+01	-2.450544e+02
1.090000e-06	-4.755090e-06	-3.832053e-09	-3.410031e+01	-2.442052e+02
1.100000e-06	-4.700228e-06	-3.813656e-09	-3.370688e+01	-2.433430e+02
1.110000e-06	-4.645063e-06	-3.789475e-09	-3.331127e+01	-2.424664e+02
1.120000e-06	-4.589666e-06	-3.772951e-09	-3.291400e+01	-2.415740e+02
1.130000e-06	-4.533971e-06	-3.763437e-09	-3.251459e+01	-2.406642e+02
1.140000e-06	-4.478050e-06	-3.747014e-09	-3.211357e+01	-2.397357e+02
1.150000e-06	-4.421830e-06	-3.724133e-09	-3.171039e+01	-2.387872e+02
1.160000e-06	-4.365190e-06	-3.707666e-09	-3.130421e+01	-2.378176e+02
1.170000e-06	-4.308238e-06	-3.700350e-09	-3.089579e+01	-2.368261e+02
1.180000e-06	-4.251008e-06	-3.691183e-09	-3.048537e+01	-2.358118e+02
1.190000e-06	-4.193431e-06	-3.673123e-09	-3.007247e+01	-2.347744e+02
1.200000e-06	-4.135332e-06	-3.652995e-09	-2.965582e+01	-2.337134e+02
1.210000e-06	-4.076756e-06	-3.636808e-09	-2.923575e+01	-2.326289e+02
1.220000e-06	-4.017860e-06	-3.620956e-09	-2.881339e+01	-2.315209e+02
1.230000e-06	-3.958608e-06	-3.602767e-09	-2.838848e+01	-2.303897e+02
1.240000e-06	-3.899044e-06	-3.581563e-09	-2.796133e+01	-2.292355e+02
1.250000e-06	-3.839282e-06	-3.557455e-09	-2.753275e+01	-2.280588e+02
1.260000e-06	-3.779317e-06	-3.533665e-09	-2.710272e+01	-2.268599e+02
1.270000e-06	-3.719096e-06	-3.513360e-09	-2.667086e+01	-2.256392e+02
1.280000e-06	-3.658606e-06	-3.496864e-09	-2.623707e+01	-2.243968e+02
1.290000e-06	-3.597917e-06	-3.482198e-09	-2.580184e+01	-2.231329e+02
1.300000e-06	-3.537099e-06	-3.468033e-09	-2.536570e+01	-2.218473e+02
1.310000e-06	-3.476125e-06	-3.449611e-09	-2.492843e+01	-2.205395e+02
1.320000e-06	-3.414937e-06	-3.426176e-09	-2.448963e+01	-2.192090e+02
1.330000e-06	-3.353466e-06	-3.401829e-09	-2.404881e+01	-2.178546e+02
1.340000e-06	-3.291745e-06	-3.376814e-09	-2.360618e+01	-2.164752e+02
1.350000e-06	-3.229820e-06	-3.350020e-09	-2.316210e+01	-2.150692e+02
1.360000e-06	-3.167662e-06	-3.324517e-09	-2.271634e+01	-2.136346e+02
1.370000e-06	-3.105265e-06	-3.299278e-09	-2.226888e+01	-2.121694e+02
1.380000e-06	-3.042685e-06	-3.271723e-09	-2.182009e+01	-2.106712e+02
1.390000e-06	-2.979931e-06	-3.248033e-09	-2.137007e+01	-2.091375e+02
1.400000e-06	-2.916930e-06	-3.225858e-09	-2.091827e+01	-2.075658e+02
1.410000e-06	-2.853788e-06	-3.200502e-09	-2.046545e+01	-2.059533e+02
1.420000e-06	-2.790560e-06	-3.172404e-09	-2.001202e+01	-2.042976e+02
1.430000e-06	-2.727095e-06	-3.145776e-09	-1.955690e+01	-2.025961e+02
1.440000e-06	-2.663405e-06	-3.117807e-09	-1.910015e+01	-2.008464e+02
1.450000e-06	-2.599585e-06	-3.089659e-09	-1.864248e+01	-1.990466e+02
1.460000e-06	-2.535610e-06	-3.063131e-09	-1.818369e+01	-1.971947e+02
1.470000e-06	-2.471497e-06	-3.035199e-09	-1.772391e+01	-1.952894e+02
1.480000e-06	-2.407187e-06	-3.005119e-09	-1.726273e+01	-1.933294e+02
1.490000e-06	-2.342611e-06	-2.976197e-09	-1.679964e+01	-1.913141e+02
1.500000e-06	-2.277803e-06	-2.947049e-09	-1.633487e+01	-1.892429e+02
1.510000e-06	-2.212824e-06	-2.914756e-09	-1.586888e+01	-1.871156e+02
1.520000e-06	-2.147692e-06	-2.880482e-09	-1.540180e+01	-1.849324e+02
1.530000e-06	-2.082391e-06	-2.845576e-09	-1.493351e+01	-1.826936e+02
1.540000e-06	-2.016905e-06	-2.808550e-09	-1.446389e+01	-1.803994e+02
1.550000e-06	-1.951279e-06	-2.770217e-09	-1.399327e+01	-1.780503e+02
1.560000e-06	-1.885429e-06	-2.729158e-09	-1.352103e+01	-1.756463e+02
1.570000e-06	-1.819396e-06	-2.688019e-09	-1.304749e+01	-1.731872e+02
1.580000e-06	-1.753300e-06	-2.649004e-09	-1.257349e+01	-1.706726e+02
1.590000e-06	-1.687073e-06	-2.611222e-09	-1.209855e+01	-1.681011e+02
1.600000e-06	-1.620607e-06	-2.573859e-09	-1.162190e+01	-1.654710e+02
1.610000e-06	-1.553962e-06	-2.534126e-09	-1.114397e+01	-1.627793e+02
1.620000e-06	-1.487225e-06	-2.490745e-09	-1.066538e+01	-1.600222e+02
1.630000e-06	-1.420352e-06	-2.447298e-09	-1.018581e+01	-1.571949e+02
1.640000e-06	-1.353437e-06	-2.402262e-09	-9.705941e+00	-1.542913e+02
1.650000e-06	-1.286435e-06	-2.354362e-09	-9.225446e+00	-1.513040e+02
1.660000e-06	-1.219311e-06	-2.307301e-09	-8.744082e+00	-1.482245e+02
1.670000e-06	-1.152111e-06	-2.258677e-09	-8.262167e+00	-1.450428e+02
1.680000e-06	-1.084875e-06	-2.207697e-09	-7.779994e+00	-1.417479e+02
1.690000e-06	-1.017580e-06	-2.151308e-09	-7.297397e+00	-1.383277e+02
1.700000e-06	-9.501400e-07	-2.094214e-09	-6.813766e+00	-1.347690e+02
1.710000e-06	-8.826232e-07	-2.035872e-09	-6.329581e+00	-1.310579e+02
1.720000e-06	-8.151191e-07	-1.972815e-09	-5.845487e+00	-1.271799e+02
1.730000e-06	-7.476151e-07	-1.910581e-09	-5.361394e+00	-1.231203e+02
1.740000e-06	-6.800289e-07	-1.848551e-09	-4.876710e+00	-1.188639e+02
1.750000e-06	-6.123684e-07	-1.782235e-09	-4.391495e+00	-1.143964e+02
1.760000e-06	-5.446706e-07	-1.710242e-09	-3.906012e+00	-1.097035e+02
1.770000e-06	-4.769380e-07	-1.632687e-09	-3.420279e+00	-1.047721e+02
1.780000e-06	-4.091829e-07	-1.550177e-09	-2.934385e+00	-9.959044e+01
1.790000e-06	-3.414040e-07	-1.461340e-09	-2.448320e+00	-9.414815e+01
1.800000e-06	-2.736203e-07	-1.372504e-09	-1.962221e+00	-8.843694e+01
1.810000e-06	-2.058166e-07	-1.282629e-09	-1.475979e+00	-8.245075e+01
1.820000e-06	-1.380140e-07	-1.189677e-09	-9.897438e-01	-7.618604e+01
1.830000e-06	-7.022461e-08	-1.096835e-09	-5.036037e-01	-6.964209e+01
1.840000e-06	-2.395782e-09	-1.000568e-09	-1.718094e-02	-6.282117e+01
1.850000e-06	6.546261e-08	-8.994991e-10	4.694539e-01	-5.572871e+01
1.860000e-06	1.332631e-07	-7.908515e-10	9.556731e-01	-4.837340e+01
1.870000e-06	2.009962e-07	-6.751172e-10	1.441410e+00	-4.076721e+01
1.880000e-06	2.687264e-07	-5.553263e-10	1.927125e+00	-3.292543e+01
1.890000e-06	3.365088e-07	-4.326583e-10	2.413215e+00	-2.486653e+01
1.900000e-06	4.043220e-07	-3.053799e-10	2.899526e+00	-1.661204e+01
1.910000e-06	4.720647e-07	-1.746959e-10	3.385331e+00	-8.186319e+00
1.920000e-06	5.397605e-07	-4.535439e-11	3.870800e+00	3.836913e-01
1.930000e-06	6.074579e-07	8.338064e-11	4.356280e+00	9.068806e+00
1.940000e-06	6.751664e-07	2.171251e-10	4.841840e+00	1.783797e+01
1.950000e-06	7.428920e-07	3.544253e-10	5.327522e+00	2.665867e+01
1.960000e-06	8.105330e-07	4.897830e-10	5.812598e+00	3.549740e+01
1.970000e-06	8.780401e-07	6.253138e-10	6.296714e+00	4.432011e+01
1.980000e-06	9.454469e-07	7.639402e-10	6.780110e+00	5.309273e+01
1.990000e-06	1.012779e-06	9.018579e-10	7.262973e+00	6.178164e+01
2.000000e-06	1.080051e-06	1.035452e-09	7.745398e+00	7.035417e+01
2.010000e-06	1.147299e-06	1.163695e-09	8.227658e+00	7.877906e+01
2.020000e-06	1.214502e-06	1.287138e-09	8.709593e+00	8.702693e+01
2.030000e-06	1.281634e-06	1.406461e-09	9.191015e+00	9.507068e+01
2.040000e-06	1.348769e-06	1.521338e-09	9.672465e+00	1.028858e+02
2.050000e-06	1.415910e-06	1.630097e-09	1.015396e+01	1.104509e+02
2.060000e-06	1.482840e-06	1.734628e-09	1.063393e+01	1.177475e+02
2.070000e-06	1.549474e-06	1.838475e-09	1.111178e+01	1.247609e+02
2.080000e-06	1.615967e-06	1.937396e-09	1.158863e+01	1.314796e+02
2.090000e-06	1.682387e-06	2.030753e-09	1.206495e+01	1.378958e+02
2.100000e-06	1.748645e-06	2.121696e-09	1.254011e+01	1.440054e+02
2.110000e-06	1.814669e-06	2.209964e-09	1.301359e+01	1.498075e+02
2.120000e-06	1.880624e-06	2.291599e-09	1.348657e+01	1.553048e+02
2.130000e-06	1.946430e-06	2.366119e-09	1.395849e+01	1.605029e+02
2.140000e-06	2.011867e-06	2.436924e-09	1.442776e+01	1.654106e+02
2.150000e-06	2.077066e-06	2.504499e-09	1.489532e+01	1.700389e+02
2.160000e-06	2.142105e-06	2.570000e-09	1.536174e+01	1.744012e+02
2.170000e-06	2.207023e-06	2.630747e-09	1.582729e+01	1.785127e+02
2.180000e-06	2.271763e-06	2.686251e-09	1.629156e+01	1.823900e+02
2.190000e-06	2.336260e-06	2.742733e-09	1.675409e+01	1.860507e+02
2.200000e-06	2.400581e-06	2.798458e-09	1.721536e+01	1.895133e+02
2.210000e-06	2.464741e-06	2.848687e-09	1.767547e+01	1.927961e+02
2.220000e-06	2.528742e-06	2.895138e-09	1.813444e+01	1.959175e+02
2.230000e-06	2.592522e-06	2.938168e-09	1.859182e+01	1.988954e+02
2.240000e-06	2.656141e-06	2.979715e-09	1.904806e+01	2.017465e+02
2.250000e-06	2.719614e-06	3.017794e-09	1.950325e+01	2.044870e+02
2.260000e-06	2.782863e-06	3.053859e-09	1.995682e+01	2.071311e+02
2.270000e-06	2.845892e-06	3.090123e-09	2.040883e+01	2.096918e+02
2.280000e-06	2.908828e-06	3.129769e-09	2.086016e+01	2.121804e+02
2.290000e-06	2.971720e-06	3.170536e-09	2.131118e+01	2.146063e+02
2.300000e-06	3.034469e-06	3.207735e-09	2.176118e+01	2.169773e+02
2.310000e-06	3.096967e-06	3.241812e-09	2.220937e+01	2.192993e+02
2.320000e-06	3.159343e-06	3.275931e-09	2.265669e+01	2.215765e+02
2.330000e-06	3.221609e-06	3.306764e-09	2.310322e+01	2.238115e+02
2.340000e-06	3.283623e-06	3.333580e-09	2.354794e+01	2.260055e+02
2.350000e-06	3.345299e-06	3.361184e-09	2.399024e+01	2.281584e+02
2.360000e-06	3.406714e-06	3.389864e-09	2.443067e+01	2.302691e+02
2.370000e-06	3.467894e-06	3.418215e-09	2.486941e+01	2.323356e+02
2.380000e-06	3.528765e-06	3.446389e-09	2.530593e+01	2.343554e+02
2.390000e-06	3.589394e-06	3.475054e-09	2.574073e+01	2.363255e+02
2.400000e-06	3.649771e-06	3.501110e-09	2.617371e+01	2.382428e+02
2.410000e-06	3.709948e-06	3.525346e-09	2.660525e+01	2.401045e+02
2.420000e-06	3.769942e-06	3.547368e-09	2.703549e+01	2.419077e+02
2.430000e-06	3.829726e-06	3.568779e-09	2.746422e+01	2.436501e+02
2.440000e-06	3.889272e-06	3.589447e-09	2.789125e+01	2.453302e+02
2.450000e-06	3.948609e-06	3.607215e-09	2.831677e+01	2.469469e+02
2.460000e-06	4.007690e-06	3.625545e-09	2.874046e+01	2.485001e+02
2.470000e-06	4.066406e-06	3.648008e-09	2.916153e+01	2.499905e+02
2.480000e-06	4.124769e-06	3.671524e-09	2.958007e+01	2.514195e+02
2.490000e-06	4.182794e-06	3.694116e-09	2.999619e+01	2.527894e+02
2.500000e-06	4.240355e-06	3.712928e-09	3.040898e+01	2.541034e+02
2.510000e-06	4.297389e-06	3.731916e-09	3.081799e+01	2.553652e+02
2.520000e-06	4.354093e-06	3.750741e-09	3.122463e+01	2.565791e+02
2.530000e-06	4.410512e-06	3.769820e-09	3.162923e+01	2.577500e+02
2.540000e-06	4.466527e-06	3.786373e-09	3.203093e+01	2.588828e+02
2.550000e-06	4.522197e-06	3.799986e-09	3.243016e+01	2.599829e+02
2.560000e-06	4.577635e-06	3.817275e-09	3.282772e+01	2.610554e+02
2.570000e-06	4.632830e-06	3.837747e-09	3.322355e+01	2.621053e+02
2.580000e-06	4.687779e-06	3.856049e-09	3.361760e+01	2.631374e+02
2.590000e-06	4.742447e-06	3.870904e-09	3.400965e+01	2.641560e+02
2.600000e-06	4.796814e-06	3.887802e-09	3.439953e+01	2.651649e+02
2.610000e-06	4.850915e-06	3.906300e-09	3.478751e+01	2.661670e+02
2.620000e-06	4.904617e-06	3.923811e-09	3.517262e+01	2.671647e+02
2.630000e-06	4.957888e-06	3.941141e-09	3.555464e+01	2.681596e+02
2.640000e-06	5.010912e-06	3.958116e-09	3.593489e+01	2.691526e+02
2.650000e-06	5.063625e-06	3.974129e-09	3.631292e+01	2.701435e+02
2.660000e-06	5.115882e-06	3.989102e-09	3.668767e+01	2.711317e+02
2.670000e-06	5.167673e-06	4.000808e-09	3.705908e+01	2.721159e+02
2.680000e-06	5.219031e-06	4.012484e-09	3.742739e+01	2.730939e+02
2.690000e-06	5.270067e-06	4.026135e-09	3.779338e+01	2.740632e+02
2.700000e-06	5.320533e-06	4.038893e-09	3.815529e+01	2.750211e+02
2.710000e-06	5.370370e-06	4.051745e-09	3.851268e+01	2.759643e+02
2.720000e-06	5.419710e-06	4.065508e-09	3.886652e+01	2.768897e+02
2.730000e-06	5.468392e-06	4.080596e-09	3.921564e+01	2.777939e+02
2.740000e-06	5.516541e-06	4.095304e-09	3.956092e+01	2.786740e+02
2.750000e-06	5.564399e-06	4.107492e-09	3.990414e+01	2.795271e+02
2.760000e-06	5.611945e-06	4.118921e-09	4.024510e+01	2.803510e+02
2.770000e-06	5.659166e-06	4.130613e-09	4.058374e+01	2.811436e+02
2.780000e-06	5.705996e-06	4.143829e-09	4.091957e+01	2.819036e+02
2.790000e-06	5.752459e-06	4.155528e-09	4.125277e+01	2.826304e+02
2.800000e-06	5.798543e-06	4.166063e-09	4.158325e+01	2.833239e+02
2.810000e-06	5.844172e-06	4.177355e-09	4.191048e+01	2.839847e+02
2.820000e-06	5.889420e-06	4.190829e-09	4.223496e+01	2.846142e+02
2.830000e-06	5.934202e-06	4.204412e-09	4.255611e+01	2.852141e+02
2.840000e-06	5.978535e-06	4.215579e-09	4.287404e+01	2.857871e+02
2.850000e-06	6.022569e-06	4.226773e-09	4.318982e+01	2.863359e+02
2.860000e-06	6.066296e-06	4.239133e-09	4.350340e+01	2.868639e+02
2.870000e-06	6.109777e-06	4.251280e-09	4.381522e+01	2.873746e+02
2.880000e-06	6.152965e-06	4.261041e-09	4.412493e+01	2.878718e+02
2.890000e-06	6.195670e-06	4.270767e-09	4.443119e+01	2.883592e+02
2.900000e-06	6.237755e-06	4.282782e-09	4.473299e+01	2.888403e+02
