# Temperatura_=_20.0
# Concentracion g/m^3_=_9000.0
# C_Vs_to_Am_M_A/Vsm_=_65563218390.804596
# pendiente_HvsI_1/m_=_3716.3
# ordenada_HvsI_A/m_=_1297.0
# frecuencia_Hz_=_135466.3754906941

Tiempo_(s)	Campo_(V.s)	Magnetizacion_(V.s)	Campo_(kA/m)	Magnetizacion_(A/m)
0.000000e+00	-7.951517e-06	-4.785087e-09	-5.692902e+01	-3.139549e+02
1.000000e-08	-7.951829e-06	-4.782109e-09	-5.693126e+01	-3.140576e+02
2.000000e-08	-7.951803e-06	-4.779808e-09	-5.693107e+01	-3.141495e+02
3.000000e-08	-7.951264e-06	-4.779819e-09	-5.692721e+01	-3.142252e+02
4.000000e-08	-7.949955e-06	-4.779931e-09	-5.691784e+01	-3.142793e+02
5.000000e-08	-7.947698e-06	-4.779979e-09	-5.690168e+01	-3.143061e+02
6.000000e-08	-7.944667e-06	-4.779216e-09	-5.687998e+01	-3.143005e+02
7.000000e-08	-7.941208e-06	-4.775931e-09	-5.685522e+01	-3.142574e+02
8.000000e-08	-7.937465e-06	-4.762995e-09	-5.682842e+01	-3.141722e+02
9.000000e-08	-7.933305e-06	-4.754293e-09	-5.679863e+01	-3.140411e+02
1.000000e-07	-7.928451e-06	-4.803641e-09	-5.676388e+01	-3.138608e+02
1.100000e-07	-7.922655e-06	-4.866489e-09	-5.672238e+01	-3.136288e+02
1.200000e-07	-7.916003e-06	-4.871964e-09	-5.667476e+01	-3.133436e+02
1.300000e-07	-7.908737e-06	-4.711886e-09	-5.662274e+01	-3.130046e+02
1.400000e-07	-7.901122e-06	-4.624074e-09	-5.656822e+01	-3.126121e+02
1.500000e-07	-7.893428e-06	-4.773444e-09	-5.651313e+01	-3.121673e+02
1.600000e-07	-7.885384e-06	-4.926731e-09	-5.645554e+01	-3.116727e+02
1.700000e-07	-7.876658e-06	-4.793021e-09	-5.639307e+01	-3.111313e+02
1.800000e-07	-7.867308e-06	-4.684283e-09	-5.632613e+01	-3.105471e+02
1.900000e-07	-7.857042e-06	-4.705441e-09	-5.625263e+01	-3.099249e+02
2.000000e-07	-7.845866e-06	-4.809740e-09	-5.617261e+01	-3.092701e+02
2.100000e-07	-7.834347e-06	-4.902741e-09	-5.609014e+01	-3.085886e+02
2.200000e-07	-7.822350e-06	-4.844244e-09	-5.600425e+01	-3.078867e+02
2.300000e-07	-7.809521e-06	-4.653052e-09	-5.591240e+01	-3.071708e+02
2.400000e-07	-7.796146e-06	-4.642655e-09	-5.581664e+01	-3.064475e+02
2.500000e-07	-7.782463e-06	-4.836776e-09	-5.571868e+01	-3.057233e+02
2.600000e-07	-7.767933e-06	-4.775448e-09	-5.561465e+01	-3.050043e+02
2.700000e-07	-7.752188e-06	-4.527899e-09	-5.550193e+01	-3.042965e+02
2.800000e-07	-7.735674e-06	-4.531984e-09	-5.538369e+01	-3.036052e+02
2.900000e-07	-7.718709e-06	-4.673720e-09	-5.526223e+01	-3.029350e+02
3.000000e-07	-7.701303e-06	-4.581274e-09	-5.513761e+01	-3.022901e+02
3.100000e-07	-7.683383e-06	-4.465696e-09	-5.500931e+01	-3.016736e+02
3.200000e-07	-7.664887e-06	-4.518706e-09	-5.487689e+01	-3.010878e+02
3.300000e-07	-7.645919e-06	-4.543828e-09	-5.474109e+01	-3.005343e+02
3.400000e-07	-7.626540e-06	-4.527357e-09	-5.460235e+01	-3.000137e+02
3.500000e-07	-7.606829e-06	-4.614390e-09	-5.446122e+01	-2.995258e+02
3.600000e-07	-7.586651e-06	-4.501397e-09	-5.431676e+01	-2.990694e+02
3.700000e-07	-7.565925e-06	-4.416250e-09	-5.416837e+01	-2.986429e+02
3.800000e-07	-7.544773e-06	-4.526568e-09	-5.401693e+01	-2.982436e+02
3.900000e-07	-7.523205e-06	-4.624536e-09	-5.386252e+01	-2.978686e+02
4.000000e-07	-7.500981e-06	-4.481329e-09	-5.370340e+01	-2.975143e+02
4.100000e-07	-7.478043e-06	-4.417692e-09	-5.353917e+01	-2.971769e+02
4.200000e-07	-7.454693e-06	-4.529445e-09	-5.337201e+01	-2.968522e+02
4.300000e-07	-7.431056e-06	-4.594612e-09	-5.320277e+01	-2.965362e+02
4.400000e-07	-7.406868e-06	-4.493335e-09	-5.302960e+01	-2.962246e+02
4.500000e-07	-7.381926e-06	-4.423522e-09	-5.285102e+01	-2.959135e+02
4.600000e-07	-7.356274e-06	-4.491409e-09	-5.266737e+01	-2.955991e+02
4.700000e-07	-7.329993e-06	-4.537670e-09	-5.247921e+01	-2.952780e+02
4.800000e-07	-7.303147e-06	-4.479839e-09	-5.228701e+01	-2.949473e+02
4.900000e-07	-7.275798e-06	-4.429021e-09	-5.209120e+01	-2.946044e+02
5.000000e-07	-7.248050e-06	-4.445298e-09	-5.189254e+01	-2.942474e+02
5.100000e-07	-7.219874e-06	-4.463880e-09	-5.169081e+01	-2.938750e+02
5.200000e-07	-7.191195e-06	-4.473690e-09	-5.148549e+01	-2.934863e+02
5.300000e-07	-7.162018e-06	-4.435310e-09	-5.127659e+01	-2.930811e+02
5.400000e-07	-7.132333e-06	-4.399611e-09	-5.106406e+01	-2.926596e+02
5.500000e-07	-7.102118e-06	-4.413679e-09	-5.084774e+01	-2.922226e+02
5.600000e-07	-7.071435e-06	-4.462384e-09	-5.062806e+01	-2.917713e+02
5.700000e-07	-7.040383e-06	-4.429402e-09	-5.040574e+01	-2.913070e+02
5.800000e-07	-7.008893e-06	-4.374242e-09	-5.018029e+01	-2.908316e+02
5.900000e-07	-6.977035e-06	-4.367314e-09	-4.995220e+01	-2.903469e+02
6.000000e-07	-6.944798e-06	-4.416831e-09	-4.972140e+01	-2.898549e+02
6.100000e-07	-6.911862e-06	-4.411150e-09	-4.948559e+01	-2.893576e+02
6.200000e-07	-6.878059e-06	-4.363297e-09	-4.924358e+01	-2.888568e+02
6.300000e-07	-6.843524e-06	-4.338407e-09	-4.899633e+01	-2.883541e+02
6.400000e-07	-6.808531e-06	-4.371729e-09	-4.874580e+01	-2.878510e+02
6.500000e-07	-6.773117e-06	-4.380774e-09	-4.849225e+01	-2.873485e+02
6.600000e-07	-6.737275e-06	-4.346352e-09	-4.823564e+01	-2.868473e+02
6.700000e-07	-6.701089e-06	-4.316302e-09	-4.797657e+01	-2.863478e+02
6.800000e-07	-6.664466e-06	-4.326082e-09	-4.771436e+01	-2.858499e+02
6.900000e-07	-6.627307e-06	-4.330877e-09	-4.744832e+01	-2.853531e+02
7.000000e-07	-6.589621e-06	-4.317013e-09	-4.717850e+01	-2.848566e+02
7.100000e-07	-6.551395e-06	-4.298638e-09	-4.690482e+01	-2.843590e+02
7.200000e-07	-6.512683e-06	-4.285158e-09	-4.662766e+01	-2.838589e+02
7.300000e-07	-6.473660e-06	-4.283408e-09	-4.634828e+01	-2.833544e+02
7.400000e-07	-6.434368e-06	-4.287277e-09	-4.606697e+01	-2.828436e+02
7.500000e-07	-6.394776e-06	-4.270726e-09	-4.578351e+01	-2.823245e+02
7.600000e-07	-6.354845e-06	-4.243710e-09	-4.549762e+01	-2.817947e+02
7.700000e-07	-6.314434e-06	-4.247589e-09	-4.520830e+01	-2.812523e+02
7.800000e-07	-6.273425e-06	-4.254120e-09	-4.491469e+01	-2.806953e+02
7.900000e-07	-6.231719e-06	-4.235217e-09	-4.461610e+01	-2.801219e+02
8.000000e-07	-6.189317e-06	-4.212012e-09	-4.431252e+01	-2.795304e+02
8.100000e-07	-6.146329e-06	-4.216125e-09	-4.400475e+01	-2.789198e+02
8.200000e-07	-6.102874e-06	-4.215359e-09	-4.369363e+01	-2.782891e+02
8.300000e-07	-6.059045e-06	-4.199763e-09	-4.337983e+01	-2.776377e+02
8.400000e-07	-6.014902e-06	-4.175728e-09	-4.306379e+01	-2.769655e+02
8.500000e-07	-5.970377e-06	-4.169416e-09	-4.274502e+01	-2.762729e+02
8.600000e-07	-5.925411e-06	-4.167729e-09	-4.242308e+01	-2.755605e+02
8.700000e-07	-5.880090e-06	-4.158845e-09	-4.209861e+01	-2.748292e+02
8.800000e-07	-5.834371e-06	-4.136998e-09	-4.177128e+01	-2.740804e+02
8.900000e-07	-5.788238e-06	-4.125612e-09	-4.144099e+01	-2.733158e+02
9.000000e-07	-5.741776e-06	-4.120154e-09	-4.110834e+01	-2.725369e+02
9.100000e-07	-5.694948e-06	-4.113748e-09	-4.077308e+01	-2.717458e+02
9.200000e-07	-5.647754e-06	-4.095773e-09	-4.043520e+01	-2.709445e+02
9.300000e-07	-5.600176e-06	-4.077389e-09	-4.009456e+01	-2.701348e+02
9.400000e-07	-5.552158e-06	-4.065309e-09	-3.975077e+01	-2.693187e+02
9.500000e-07	-5.503581e-06	-4.060393e-09	-3.940299e+01	-2.684978e+02
9.600000e-07	-5.454372e-06	-4.047077e-09	-3.905067e+01	-2.676734e+02
9.700000e-07	-5.404634e-06	-4.026230e-09	-3.869457e+01	-2.668469e+02
9.800000e-07	-5.354353e-06	-4.011539e-09	-3.833458e+01	-2.660189e+02
9.900000e-07	-5.303528e-06	-4.006988e-09	-3.797070e+01	-2.651899e+02
1.000000e-06	-5.252224e-06	-3.997935e-09	-3.760339e+01	-2.643600e+02
1.010000e-06	-5.200468e-06	-3.977945e-09	-3.723284e+01	-2.635285e+02
1.020000e-06	-5.148321e-06	-3.959933e-09	-3.685949e+01	-2.626949e+02
1.030000e-06	-5.095760e-06	-3.949576e-09	-3.648318e+01	-2.618579e+02
1.040000e-06	-5.042831e-06	-3.942517e-09	-3.610424e+01	-2.610159e+02
1.050000e-06	-4.989616e-06	-3.929152e-09	-3.572324e+01	-2.601671e+02
1.060000e-06	-4.936078e-06	-3.912440e-09	-3.533994e+01	-2.593093e+02
1.070000e-06	-4.882176e-06	-3.895456e-09	-3.495402e+01	-2.584404e+02
1.080000e-06	-4.827981e-06	-3.886968e-09	-3.456601e+01	-2.575578e+02
1.090000e-06	-4.773477e-06	-3.875907e-09	-3.417579e+01	-2.566592e+02
1.100000e-06	-4.718578e-06	-3.855795e-09	-3.378274e+01	-2.557421e+02
1.110000e-06	-4.663354e-06	-3.832851e-09	-3.338737e+01	-2.548042e+02
1.120000e-06	-4.607844e-06	-3.818606e-09	-3.298994e+01	-2.538435e+02
1.130000e-06	-4.552105e-06	-3.805739e-09	-3.259087e+01	-2.528582e+02
1.140000e-06	-4.496140e-06	-3.790213e-09	-3.219020e+01	-2.518465e+02
1.150000e-06	-4.439886e-06	-3.767975e-09	-3.178744e+01	-2.508074e+02
1.160000e-06	-4.383273e-06	-3.749043e-09	-3.138212e+01	-2.497399e+02
1.170000e-06	-4.326311e-06	-3.735598e-09	-3.097430e+01	-2.486436e+02
1.180000e-06	-4.268989e-06	-3.721057e-09	-3.056390e+01	-2.475184e+02
1.190000e-06	-4.211244e-06	-3.699146e-09	-3.015047e+01	-2.463645e+02
1.200000e-06	-4.153104e-06	-3.677707e-09	-2.973422e+01	-2.451826e+02
1.210000e-06	-4.094445e-06	-3.659571e-09	-2.931425e+01	-2.439735e+02
1.220000e-06	-4.035429e-06	-3.644166e-09	-2.889173e+01	-2.427382e+02
1.230000e-06	-3.976219e-06	-3.626845e-09	-2.846781e+01	-2.414782e+02
1.240000e-06	-3.916691e-06	-3.606122e-09	-2.804162e+01	-2.401946e+02
1.250000e-06	-3.856883e-06	-3.582806e-09	-2.761342e+01	-2.388889e+02
1.260000e-06	-3.796872e-06	-3.560399e-09	-2.718377e+01	-2.375624e+02
1.270000e-06	-3.736648e-06	-3.538545e-09	-2.675259e+01	-2.362161e+02
1.280000e-06	-3.676197e-06	-3.516560e-09	-2.631980e+01	-2.348510e+02
1.290000e-06	-3.615538e-06	-3.496264e-09	-2.588551e+01	-2.334678e+02
1.300000e-06	-3.554705e-06	-3.475911e-09	-2.544997e+01	-2.320666e+02
1.310000e-06	-3.493600e-06	-3.456645e-09	-2.501249e+01	-2.306473e+02
1.320000e-06	-3.432272e-06	-3.434086e-09	-2.457341e+01	-2.292094e+02
1.330000e-06	-3.370743e-06	-3.410343e-09	-2.413289e+01	-2.277519e+02
1.340000e-06	-3.308936e-06	-3.385951e-09	-2.369039e+01	-2.262734e+02
1.350000e-06	-3.246920e-06	-3.361378e-09	-2.324638e+01	-2.247720e+02
1.360000e-06	-3.184670e-06	-3.335757e-09	-2.280070e+01	-2.232454e+02
1.370000e-06	-3.122189e-06	-3.310538e-09	-2.235336e+01	-2.216912e+02
1.380000e-06	-3.059503e-06	-3.285122e-09	-2.190456e+01	-2.201064e+02
1.390000e-06	-2.996619e-06	-3.260974e-09	-2.145435e+01	-2.184880e+02
1.400000e-06	-2.933567e-06	-3.235554e-09	-2.100293e+01	-2.168329e+02
1.410000e-06	-2.870333e-06	-3.208526e-09	-2.055020e+01	-2.151379e+02
1.420000e-06	-2.806933e-06	-3.181096e-09	-2.009628e+01	-2.133999e+02
1.430000e-06	-2.743416e-06	-3.153286e-09	-1.964154e+01	-2.116160e+02
1.440000e-06	-2.679718e-06	-3.122162e-09	-1.918549e+01	-2.097834e+02
1.450000e-06	-2.615802e-06	-3.092691e-09	-1.872788e+01	-2.078999e+02
1.460000e-06	-2.551706e-06	-3.064353e-09	-1.826898e+01	-2.059633e+02
1.470000e-06	-2.487448e-06	-3.035168e-09	-1.780893e+01	-2.039720e+02
1.480000e-06	-2.423015e-06	-3.004703e-09	-1.734762e+01	-2.019250e+02
1.490000e-06	-2.358416e-06	-2.975029e-09	-1.688512e+01	-1.998215e+02
1.500000e-06	-2.293580e-06	-2.944635e-09	-1.642093e+01	-1.976612e+02
1.510000e-06	-2.228533e-06	-2.913064e-09	-1.595522e+01	-1.954442e+02
1.520000e-06	-2.163319e-06	-2.881807e-09	-1.548832e+01	-1.931710e+02
1.530000e-06	-2.097804e-06	-2.848288e-09	-1.501927e+01	-1.908422e+02
1.540000e-06	-2.032124e-06	-2.812643e-09	-1.454903e+01	-1.884586e+02
1.550000e-06	-1.966350e-06	-2.777151e-09	-1.407812e+01	-1.860207e+02
1.560000e-06	-1.900403e-06	-2.741366e-09	-1.360597e+01	-1.835294e+02
1.570000e-06	-1.834364e-06	-2.702470e-09	-1.313316e+01	-1.809846e+02
1.580000e-06	-1.768237e-06	-2.662653e-09	-1.265973e+01	-1.783863e+02
1.590000e-06	-1.701951e-06	-2.622924e-09	-1.218515e+01	-1.757334e+02
1.600000e-06	-1.635457e-06	-2.585899e-09	-1.170908e+01	-1.730243e+02
1.610000e-06	-1.568838e-06	-2.546671e-09	-1.123212e+01	-1.702563e+02
1.620000e-06	-1.502176e-06	-2.504753e-09	-1.075486e+01	-1.674257e+02
1.630000e-06	-1.435354e-06	-2.461123e-09	-1.027644e+01	-1.645273e+02
1.640000e-06	-1.368441e-06	-2.416808e-09	-9.797380e+00	-1.615549e+02
1.650000e-06	-1.301467e-06	-2.369525e-09	-9.317879e+00	-1.585010e+02
1.660000e-06	-1.234220e-06	-2.319537e-09	-8.836418e+00	-1.553564e+02
1.670000e-06	-1.166821e-06	-2.268382e-09	-8.353875e+00	-1.521109e+02
1.680000e-06	-1.099427e-06	-2.214356e-09	-7.871365e+00	-1.487529e+02
1.690000e-06	-1.031940e-06	-2.158524e-09	-7.388195e+00	-1.452695e+02
1.700000e-06	-9.643648e-07	-2.101531e-09	-6.904386e+00	-1.416470e+02
1.710000e-06	-8.968288e-07	-2.041704e-09	-6.420861e+00	-1.378707e+02
1.720000e-06	-8.292641e-07	-1.978226e-09	-5.937131e+00	-1.339254e+02
1.730000e-06	-7.615744e-07	-1.915530e-09	-5.452505e+00	-1.297956e+02
1.740000e-06	-6.938201e-07	-1.852124e-09	-4.967417e+00	-1.254657e+02
1.750000e-06	-6.261028e-07	-1.782550e-09	-4.482594e+00	-1.209205e+02
1.760000e-06	-5.583676e-07	-1.707601e-09	-3.997643e+00	-1.161452e+02
1.770000e-06	-4.905514e-07	-1.630401e-09	-3.512111e+00	-1.111263e+02
1.780000e-06	-4.227277e-07	-1.549504e-09	-3.026527e+00	-1.058514e+02
1.790000e-06	-3.548403e-07	-1.463300e-09	-2.540486e+00	-1.003102e+02
1.800000e-06	-2.869165e-07	-1.375157e-09	-2.054184e+00	-9.449389e+01
1.810000e-06	-2.189324e-07	-1.286442e-09	-1.567450e+00	-8.839649e+01
1.820000e-06	-1.509465e-07	-1.195643e-09	-1.080704e+00	-8.201448e+01
1.830000e-06	-8.304879e-08	-1.101877e-09	-5.945893e-01	-7.534725e+01
1.840000e-06	-1.513923e-08	-1.002295e-09	-1.083895e-01	-6.839732e+01
1.850000e-06	5.277571e-08	-8.974597e-10	3.778486e-01	-6.117044e+01
1.860000e-06	1.206828e-07	-7.873865e-10	8.640309e-01	-5.367571e+01
1.870000e-06	1.885763e-07	-6.707027e-10	1.350115e+00	-4.592558e+01
1.880000e-06	2.564507e-07	-5.483100e-10	1.836063e+00	-3.793586e+01
1.890000e-06	3.243643e-07	-4.238583e-10	2.322292e+00	-2.972556e+01
1.900000e-06	3.923258e-07	-2.965634e-10	2.808863e+00	-2.131681e+01
1.910000e-06	4.602941e-07	-1.658081e-10	3.295483e+00	-1.273452e+01
1.920000e-06	5.282009e-07	-3.438420e-11	3.781663e+00	-4.006216e+00
1.930000e-06	5.960255e-07	9.991882e-11	4.267255e+00	4.838402e+00
1.940000e-06	6.638180e-07	2.377262e-10	4.752617e+00	1.376778e+01
1.950000e-06	7.315958e-07	3.760305e-10	5.237873e+00	2.274898e+01
1.960000e-06	7.993037e-07	5.162651e-10	5.722628e+00	3.174810e+01
1.970000e-06	8.669536e-07	6.595478e-10	6.206970e+00	4.073078e+01
1.980000e-06	9.345685e-07	8.026864e-10	6.691059e+00	4.966271e+01
1.990000e-06	1.002098e-06	9.435677e-10	7.174538e+00	5.851008e+01
2.000000e-06	1.069538e-06	1.080008e-09	7.657375e+00	6.724011e+01
2.010000e-06	1.136893e-06	1.211823e-09	8.139602e+00	7.582148e+01
2.020000e-06	1.204138e-06	1.338423e-09	8.621046e+00	8.422480e+01
2.030000e-06	1.271288e-06	1.459227e-09	9.101811e+00	9.242301e+01
2.040000e-06	1.338282e-06	1.577230e-09	9.581455e+00	1.003917e+02
2.050000e-06	1.405121e-06	1.690276e-09	1.005999e+01	1.081094e+02
2.060000e-06	1.471928e-06	1.797036e-09	1.053829e+01	1.155580e+02
2.070000e-06	1.538676e-06	1.901062e-09	1.101618e+01	1.227226e+02
2.080000e-06	1.605360e-06	2.002002e-09	1.149360e+01	1.295920e+02
2.090000e-06	1.671912e-06	2.097760e-09	1.197009e+01	1.361583e+02
2.100000e-06	1.738235e-06	2.188442e-09	1.244493e+01	1.424174e+02
2.110000e-06	1.804420e-06	2.275674e-09	1.291878e+01	1.483685e+02
2.120000e-06	1.870444e-06	2.358868e-09	1.339147e+01	1.540141e+02
2.130000e-06	1.936151e-06	2.435137e-09	1.386191e+01	1.593597e+02
2.140000e-06	2.001620e-06	2.506571e-09	1.433064e+01	1.644138e+02
2.150000e-06	2.066974e-06	2.575447e-09	1.479853e+01	1.691873e+02
2.160000e-06	2.132191e-06	2.642871e-09	1.526546e+01	1.736933e+02
2.170000e-06	2.197308e-06	2.707456e-09	1.573167e+01	1.779467e+02
2.180000e-06	2.262313e-06	2.767126e-09	1.619707e+01	1.819637e+02
2.190000e-06	2.327100e-06	2.823969e-09	1.666092e+01	1.857617e+02
2.200000e-06	2.391725e-06	2.879391e-09	1.712359e+01	1.893586e+02
2.210000e-06	2.456226e-06	2.930155e-09	1.758540e+01	1.927725e+02
2.220000e-06	2.520461e-06	2.977227e-09	1.804528e+01	1.960216e+02
2.230000e-06	2.584473e-06	3.022633e-09	1.850358e+01	1.991232e+02
2.240000e-06	2.648365e-06	3.067854e-09	1.896101e+01	2.020941e+02
2.250000e-06	2.712057e-06	3.108846e-09	1.941702e+01	2.049501e+02
2.260000e-06	2.775522e-06	3.146223e-09	1.987140e+01	2.077055e+02
2.270000e-06	2.838785e-06	3.184895e-09	2.032433e+01	2.103731e+02
2.280000e-06	2.901841e-06	3.222348e-09	2.077578e+01	2.129644e+02
2.290000e-06	2.964660e-06	3.262203e-09	2.122554e+01	2.154889e+02
2.300000e-06	3.027370e-06	3.298865e-09	2.167451e+01	2.179546e+02
2.310000e-06	3.089983e-06	3.332641e-09	2.212279e+01	2.203678e+02
2.320000e-06	3.152388e-06	3.365874e-09	2.256958e+01	2.227329e+02
2.330000e-06	3.214603e-06	3.397757e-09	2.301501e+01	2.250531e+02
2.340000e-06	3.276630e-06	3.428911e-09	2.345909e+01	2.273301e+02
2.350000e-06	3.338504e-06	3.456868e-09	2.390208e+01	2.295643e+02
2.360000e-06	3.400108e-06	3.486484e-09	2.434313e+01	2.317552e+02
2.370000e-06	3.461349e-06	3.517016e-09	2.478158e+01	2.339013e+02
2.380000e-06	3.522316e-06	3.548571e-09	2.521808e+01	2.360008e+02
2.390000e-06	3.582974e-06	3.578665e-09	2.565236e+01	2.380511e+02
2.400000e-06	3.643397e-06	3.604874e-09	2.608496e+01	2.400497e+02
2.410000e-06	3.703656e-06	3.628636e-09	2.651639e+01	2.419941e+02
2.420000e-06	3.763722e-06	3.651228e-09	2.694643e+01	2.438819e+02
2.430000e-06	3.823656e-06	3.673989e-09	2.737553e+01	2.457110e+02
2.440000e-06	3.883480e-06	3.695960e-09	2.780384e+01	2.474800e+02
2.450000e-06	3.943052e-06	3.717415e-09	2.823035e+01	2.491881e+02
2.460000e-06	4.002292e-06	3.738681e-09	2.865448e+01	2.508349e+02
2.470000e-06	4.061258e-06	3.761244e-09	2.907665e+01	2.524210e+02
2.480000e-06	4.119833e-06	3.785036e-09	2.949602e+01	2.539477e+02
2.490000e-06	4.178064e-06	3.809245e-09	2.991292e+01	2.554170e+02
2.500000e-06	4.235930e-06	3.830155e-09	3.032721e+01	2.568315e+02
2.510000e-06	4.293306e-06	3.850577e-09	3.073800e+01	2.581946e+02
2.520000e-06	4.350283e-06	3.872698e-09	3.114593e+01	2.595099e+02
2.530000e-06	4.406842e-06	3.892452e-09	3.155086e+01	2.607818e+02
2.540000e-06	4.463008e-06	3.910795e-09	3.195298e+01	2.620147e+02
2.550000e-06	4.518876e-06	3.928555e-09	3.235297e+01	2.632132e+02
2.560000e-06	4.574448e-06	3.947813e-09	3.275084e+01	2.643819e+02
2.570000e-06	4.629760e-06	3.967669e-09	3.314684e+01	2.655253e+02
2.580000e-06	4.684810e-06	3.987033e-09	3.354098e+01	2.666477e+02
2.590000e-06	4.739531e-06	4.004593e-09	3.393275e+01	2.677530e+02
2.600000e-06	4.793919e-06	4.022048e-09	3.432215e+01	2.688445e+02
2.610000e-06	4.848066e-06	4.041173e-09	3.470981e+01	2.699252e+02
2.620000e-06	4.901976e-06	4.060257e-09	3.509578e+01	2.709971e+02
2.630000e-06	4.955510e-06	4.077323e-09	3.547906e+01	2.720619e+02
2.640000e-06	5.008609e-06	4.091190e-09	3.585923e+01	2.731205e+02
2.650000e-06	5.061345e-06	4.104747e-09	3.623678e+01	2.741731e+02
2.660000e-06	5.113745e-06	4.119905e-09	3.661195e+01	2.752192e+02
2.670000e-06	5.165703e-06	4.132412e-09	3.698394e+01	2.762579e+02
2.680000e-06	5.217233e-06	4.142455e-09	3.735287e+01	2.772876e+02
2.690000e-06	5.268401e-06	4.155500e-09	3.771921e+01	2.783063e+02
2.700000e-06	5.319055e-06	4.171116e-09	3.808187e+01	2.793118e+02
2.710000e-06	5.369116e-06	4.187975e-09	3.844028e+01	2.803014e+02
2.720000e-06	5.418595e-06	4.202881e-09	3.879452e+01	2.812727e+02
2.730000e-06	5.467543e-06	4.215361e-09	3.914497e+01	2.822228e+02
2.740000e-06	5.515986e-06	4.228278e-09	3.949180e+01	2.831495e+02
2.750000e-06	5.564021e-06	4.239537e-09	3.983570e+01	2.840503e+02
2.760000e-06	5.611683e-06	4.248793e-09	4.017694e+01	2.849233e+02
2.770000e-06	5.659000e-06	4.260207e-09	4.051571e+01	2.857669e+02
2.780000e-06	5.705968e-06	4.273147e-09	4.085197e+01	2.865802e+02
2.790000e-06	5.752512e-06	4.284676e-09	4.118521e+01	2.873625e+02
2.800000e-06	5.798655e-06	4.296117e-09	4.151557e+01	2.881139e+02
2.810000e-06	5.844408e-06	4.309521e-09	4.184314e+01	2.888350e+02
2.820000e-06	5.889775e-06	4.322638e-09	4.216795e+01	2.895267e+02
2.830000e-06	5.934677e-06	4.334465e-09	4.248942e+01	2.901909e+02
2.840000e-06	5.979208e-06	4.345612e-09	4.280824e+01	2.908295e+02
2.850000e-06	6.023407e-06	4.357534e-09	4.312469e+01	2.914451e+02
2.860000e-06	6.067249e-06	4.368725e-09	4.343857e+01	2.920405e+02
2.870000e-06	6.110799e-06	4.380428e-09	4.375037e+01	2.926188e+02
2.880000e-06	6.154077e-06	4.392671e-09	4.406022e+01	2.931830e+02
2.890000e-06	6.196961e-06	4.404888e-09	4.436725e+01	2.937364e+02
2.900000e-06	6.239274e-06	4.415944e-09	4.467019e+01	2.942822e+02
