# Temperatura_=_20.0
# Concentracion g/m^3_=_9000.0
# C_Vs_to_Am_M_A/Vsm_=_65563218390.804596
# pendiente_HvsI_1/m_=_3716.3
# ordenada_HvsI_A/m_=_1297.0
# frecuencia_Hz_=_135465.24757029407

Tiempo_(s)	Campo_(V.s)	Magnetizacion_(V.s)	Campo_(kA/m)	Magnetizacion_(A/m)
0.000000e+00	-7.965546e-06	-4.686997e-09	-5.692089e+01	-3.073476e+02
1.000000e-08	-7.965852e-06	-4.682921e-09	-5.692308e+01	-3.074049e+02
2.000000e-08	-7.965784e-06	-4.678923e-09	-5.692259e+01	-3.074505e+02
3.000000e-08	-7.965070e-06	-4.677627e-09	-5.691749e+01	-3.074811e+02
4.000000e-08	-7.963615e-06	-4.679969e-09	-5.690709e+01	-3.074936e+02
5.000000e-08	-7.961463e-06	-4.679169e-09	-5.689172e+01	-3.074848e+02
6.000000e-08	-7.958569e-06	-4.676795e-09	-5.687104e+01	-3.074519e+02
7.000000e-08	-7.955120e-06	-4.675898e-09	-5.684639e+01	-3.073923e+02
8.000000e-08	-7.951287e-06	-4.667896e-09	-5.681899e+01	-3.073040e+02
9.000000e-08	-7.947015e-06	-4.665643e-09	-5.678847e+01	-3.071852e+02
1.000000e-07	-7.942065e-06	-4.687855e-09	-5.675310e+01	-3.070349e+02
1.100000e-07	-7.936231e-06	-4.749596e-09	-5.671141e+01	-3.068526e+02
1.200000e-07	-7.929535e-06	-4.771853e-09	-5.666356e+01	-3.066382e+02
1.300000e-07	-7.922150e-06	-4.678810e-09	-5.661079e+01	-3.063927e+02
1.400000e-07	-7.914460e-06	-4.556700e-09	-5.655584e+01	-3.061171e+02
1.500000e-07	-7.906604e-06	-4.604935e-09	-5.649970e+01	-3.058136e+02
1.600000e-07	-7.898481e-06	-4.761481e-09	-5.644165e+01	-3.054844e+02
1.700000e-07	-7.889913e-06	-4.794478e-09	-5.638043e+01	-3.051326e+02
1.800000e-07	-7.880593e-06	-4.611560e-09	-5.631382e+01	-3.047616e+02
1.900000e-07	-7.870277e-06	-4.552814e-09	-5.624011e+01	-3.043749e+02
2.000000e-07	-7.859101e-06	-4.676532e-09	-5.616025e+01	-3.039766e+02
2.100000e-07	-7.847478e-06	-4.790080e-09	-5.607719e+01	-3.035707e+02
2.200000e-07	-7.835398e-06	-4.769125e-09	-5.599087e+01	-3.031614e+02
2.300000e-07	-7.822532e-06	-4.594260e-09	-5.589893e+01	-3.027525e+02
2.400000e-07	-7.809029e-06	-4.540096e-09	-5.580244e+01	-3.023480e+02
2.500000e-07	-7.795126e-06	-4.648942e-09	-5.570309e+01	-3.019515e+02
2.600000e-07	-7.780516e-06	-4.737195e-09	-5.559869e+01	-3.015660e+02
2.700000e-07	-7.764781e-06	-4.576721e-09	-5.548625e+01	-3.011945e+02
2.800000e-07	-7.748174e-06	-4.442545e-09	-5.536757e+01	-3.008391e+02
2.900000e-07	-7.731204e-06	-4.537122e-09	-5.524631e+01	-3.005014e+02
3.000000e-07	-7.713847e-06	-4.643320e-09	-5.512228e+01	-3.001825e+02
3.100000e-07	-7.695968e-06	-4.549228e-09	-5.499452e+01	-2.998828e+02
3.200000e-07	-7.677650e-06	-4.438735e-09	-5.486362e+01	-2.996022e+02
3.300000e-07	-7.658779e-06	-4.484486e-09	-5.472877e+01	-2.993399e+02
3.400000e-07	-7.639325e-06	-4.587368e-09	-5.458975e+01	-2.990944e+02
3.500000e-07	-7.619555e-06	-4.589858e-09	-5.444848e+01	-2.988639e+02
3.600000e-07	-7.599423e-06	-4.518464e-09	-5.430462e+01	-2.986461e+02
3.700000e-07	-7.578753e-06	-4.427185e-09	-5.415691e+01	-2.984381e+02
3.800000e-07	-7.557547e-06	-4.473163e-09	-5.400538e+01	-2.982370e+02
3.900000e-07	-7.535886e-06	-4.584661e-09	-5.385059e+01	-2.980395e+02
4.000000e-07	-7.513658e-06	-4.563278e-09	-5.369175e+01	-2.978424e+02
4.100000e-07	-7.490771e-06	-4.442134e-09	-5.352820e+01	-2.976422e+02
4.200000e-07	-7.467359e-06	-4.447341e-09	-5.336090e+01	-2.974357e+02
4.300000e-07	-7.443581e-06	-4.574350e-09	-5.319099e+01	-2.972199e+02
4.400000e-07	-7.419322e-06	-4.592855e-09	-5.301764e+01	-2.969918e+02
4.500000e-07	-7.394353e-06	-4.468994e-09	-5.283921e+01	-2.967491e+02
4.600000e-07	-7.368767e-06	-4.405547e-09	-5.265637e+01	-2.964896e+02
4.700000e-07	-7.342566e-06	-4.523260e-09	-5.246915e+01	-2.962118e+02
4.800000e-07	-7.315643e-06	-4.553346e-09	-5.227676e+01	-2.959144e+02
4.900000e-07	-7.288154e-06	-4.447388e-09	-5.208032e+01	-2.955967e+02
5.000000e-07	-7.260291e-06	-4.409258e-09	-5.188122e+01	-2.952586e+02
5.100000e-07	-7.232097e-06	-4.481814e-09	-5.167975e+01	-2.949004e+02
5.200000e-07	-7.203391e-06	-4.481176e-09	-5.147462e+01	-2.945228e+02
5.300000e-07	-7.174066e-06	-4.462522e-09	-5.126506e+01	-2.941269e+02
5.400000e-07	-7.144221e-06	-4.444544e-09	-5.105179e+01	-2.937142e+02
5.500000e-07	-7.113889e-06	-4.418098e-09	-5.083505e+01	-2.932865e+02
5.600000e-07	-7.083105e-06	-4.428475e-09	-5.061507e+01	-2.928456e+02
5.700000e-07	-7.051925e-06	-4.473916e-09	-5.039226e+01	-2.923938e+02
5.800000e-07	-7.020358e-06	-4.421840e-09	-5.016668e+01	-2.919330e+02
5.900000e-07	-6.988401e-06	-4.367385e-09	-4.993832e+01	-2.914654e+02
6.000000e-07	-6.955920e-06	-4.402541e-09	-4.970622e+01	-2.909931e+02
6.100000e-07	-6.922847e-06	-4.439152e-09	-4.946988e+01	-2.905176e+02
6.200000e-07	-6.889040e-06	-4.397279e-09	-4.922830e+01	-2.900407e+02
6.300000e-07	-6.854498e-06	-4.357401e-09	-4.898147e+01	-2.895636e+02
6.400000e-07	-6.819465e-06	-4.369929e-09	-4.873113e+01	-2.890871e+02
6.500000e-07	-6.784026e-06	-4.393543e-09	-4.847788e+01	-2.886118e+02
6.600000e-07	-6.748166e-06	-4.377137e-09	-4.822163e+01	-2.881378e+02
6.700000e-07	-6.711843e-06	-4.333108e-09	-4.796207e+01	-2.876650e+02
6.800000e-07	-6.675033e-06	-4.331065e-09	-4.769903e+01	-2.871927e+02
6.900000e-07	-6.637775e-06	-4.348161e-09	-4.743279e+01	-2.867201e+02
7.000000e-07	-6.600043e-06	-4.338653e-09	-4.716316e+01	-2.862458e+02
7.100000e-07	-6.561765e-06	-4.310934e-09	-4.688963e+01	-2.857683e+02
7.200000e-07	-6.523031e-06	-4.305100e-09	-4.661285e+01	-2.852861e+02
7.300000e-07	-6.483917e-06	-4.301728e-09	-4.633334e+01	-2.847972e+02
7.400000e-07	-6.444483e-06	-4.303326e-09	-4.605155e+01	-2.842998e+02
7.500000e-07	-6.404777e-06	-4.289957e-09	-4.576781e+01	-2.837920e+02
7.600000e-07	-6.364725e-06	-4.264519e-09	-4.548161e+01	-2.832721e+02
7.700000e-07	-6.324122e-06	-4.251821e-09	-4.519146e+01	-2.827383e+02
7.800000e-07	-6.282863e-06	-4.270284e-09	-4.489663e+01	-2.821892e+02
7.900000e-07	-6.241038e-06	-4.259194e-09	-4.459775e+01	-2.816237e+02
8.000000e-07	-6.198654e-06	-4.223196e-09	-4.429488e+01	-2.810407e+02
8.100000e-07	-6.155689e-06	-4.211203e-09	-4.398785e+01	-2.804398e+02
8.200000e-07	-6.112239e-06	-4.232812e-09	-4.367737e+01	-2.798207e+02
8.300000e-07	-6.068403e-06	-4.226793e-09	-4.336412e+01	-2.791836e+02
8.400000e-07	-6.024244e-06	-4.195194e-09	-4.304857e+01	-2.785288e+02
8.500000e-07	-5.979665e-06	-4.176303e-09	-4.273001e+01	-2.778572e+02
8.600000e-07	-5.934580e-06	-4.184911e-09	-4.240784e+01	-2.771698e+02
8.700000e-07	-5.889112e-06	-4.184590e-09	-4.208293e+01	-2.764679e+02
8.800000e-07	-5.843291e-06	-4.161184e-09	-4.175549e+01	-2.757530e+02
8.900000e-07	-5.797043e-06	-4.135374e-09	-4.142501e+01	-2.750268e+02
9.000000e-07	-5.750386e-06	-4.128652e-09	-4.109161e+01	-2.742909e+02
9.100000e-07	-5.703402e-06	-4.132921e-09	-4.075587e+01	-2.735469e+02
9.200000e-07	-5.656040e-06	-4.122536e-09	-4.041742e+01	-2.727966e+02
9.300000e-07	-5.608204e-06	-4.098713e-09	-4.007559e+01	-2.720413e+02
9.400000e-07	-5.559940e-06	-4.080906e-09	-3.973070e+01	-2.712822e+02
9.500000e-07	-5.511186e-06	-4.082209e-09	-3.938231e+01	-2.705204e+02
9.600000e-07	-5.461829e-06	-4.082518e-09	-3.902961e+01	-2.697566e+02
9.700000e-07	-5.411939e-06	-4.065072e-09	-3.867310e+01	-2.689910e+02
9.800000e-07	-5.361426e-06	-4.037995e-09	-3.831214e+01	-2.682236e+02
9.900000e-07	-5.310342e-06	-4.029165e-09	-3.794710e+01	-2.674541e+02
1.000000e-06	-5.258826e-06	-4.029608e-09	-3.757898e+01	-2.666816e+02
1.010000e-06	-5.206849e-06	-4.017938e-09	-3.720755e+01	-2.659049e+02
1.020000e-06	-5.154502e-06	-3.990236e-09	-3.683348e+01	-2.651227e+02
1.030000e-06	-5.101816e-06	-3.973786e-09	-3.645700e+01	-2.643330e+02
1.040000e-06	-5.048776e-06	-3.969707e-09	-3.607798e+01	-2.635339e+02
1.050000e-06	-4.995403e-06	-3.962554e-09	-3.569659e+01	-2.627233e+02
1.060000e-06	-4.941677e-06	-3.942187e-09	-3.531266e+01	-2.618987e+02
1.070000e-06	-4.887618e-06	-3.923184e-09	-3.492637e+01	-2.610580e+02
1.080000e-06	-4.833231e-06	-3.913138e-09	-3.453773e+01	-2.601987e+02
1.090000e-06	-4.778473e-06	-3.906043e-09	-3.414643e+01	-2.593186e+02
1.100000e-06	-4.723373e-06	-3.888012e-09	-3.375269e+01	-2.584158e+02
1.110000e-06	-4.668024e-06	-3.865232e-09	-3.335717e+01	-2.574885e+02
1.120000e-06	-4.612440e-06	-3.848050e-09	-3.295997e+01	-2.565352e+02
1.130000e-06	-4.556547e-06	-3.838307e-09	-3.256057e+01	-2.555546e+02
1.140000e-06	-4.500369e-06	-3.823924e-09	-3.215913e+01	-2.545461e+02
1.150000e-06	-4.443887e-06	-3.803463e-09	-3.175551e+01	-2.535091e+02
1.160000e-06	-4.387098e-06	-3.784483e-09	-3.134970e+01	-2.524437e+02
1.170000e-06	-4.329887e-06	-3.770278e-09	-3.094088e+01	-2.513502e+02
1.180000e-06	-4.272271e-06	-3.755891e-09	-3.052916e+01	-2.502292e+02
1.190000e-06	-4.214368e-06	-3.736927e-09	-3.011539e+01	-2.490819e+02
1.200000e-06	-4.156117e-06	-3.716365e-09	-2.969914e+01	-2.479093e+02
1.210000e-06	-4.097491e-06	-3.698506e-09	-2.928021e+01	-2.467129e+02
1.220000e-06	-4.038520e-06	-3.683607e-09	-2.885881e+01	-2.454942e+02
1.230000e-06	-3.979219e-06	-3.665516e-09	-2.843505e+01	-2.442548e+02
1.240000e-06	-3.919550e-06	-3.644768e-09	-2.800866e+01	-2.429962e+02
1.250000e-06	-3.859573e-06	-3.622625e-09	-2.758007e+01	-2.417198e+02
1.260000e-06	-3.799417e-06	-3.601041e-09	-2.715020e+01	-2.404267e+02
1.270000e-06	-3.739087e-06	-3.578663e-09	-2.671909e+01	-2.391179e+02
1.280000e-06	-3.678586e-06	-3.557968e-09	-2.628676e+01	-2.377938e+02
1.290000e-06	-3.617879e-06	-3.537774e-09	-2.585295e+01	-2.364545e+02
1.300000e-06	-3.556988e-06	-3.519236e-09	-2.541784e+01	-2.350998e+02
1.310000e-06	-3.495849e-06	-3.497572e-09	-2.498094e+01	-2.337288e+02
1.320000e-06	-3.434407e-06	-3.475319e-09	-2.454189e+01	-2.323402e+02
1.330000e-06	-3.372777e-06	-3.450727e-09	-2.410149e+01	-2.309323e+02
1.340000e-06	-3.310906e-06	-3.425807e-09	-2.365936e+01	-2.295029e+02
1.350000e-06	-3.248714e-06	-3.400650e-09	-2.321495e+01	-2.280493e+02
1.360000e-06	-3.186204e-06	-3.376934e-09	-2.276825e+01	-2.265685e+02
1.370000e-06	-3.123527e-06	-3.351080e-09	-2.232037e+01	-2.250574e+02
1.380000e-06	-3.060759e-06	-3.324497e-09	-2.187183e+01	-2.235124e+02
1.390000e-06	-2.997831e-06	-3.300843e-09	-2.142216e+01	-2.219300e+02
1.400000e-06	-2.934653e-06	-3.276789e-09	-2.097070e+01	-2.203067e+02
1.410000e-06	-2.871301e-06	-3.250145e-09	-2.051799e+01	-2.186390e+02
1.420000e-06	-2.807794e-06	-3.220599e-09	-2.006418e+01	-2.169236e+02
1.430000e-06	-2.744091e-06	-3.192568e-09	-1.960897e+01	-2.151576e+02
1.440000e-06	-2.680216e-06	-3.163971e-09	-1.915252e+01	-2.133382e+02
1.450000e-06	-2.616185e-06	-3.137163e-09	-1.869496e+01	-2.114635e+02
1.460000e-06	-2.552015e-06	-3.110515e-09	-1.823641e+01	-2.095316e+02
1.470000e-06	-2.487669e-06	-3.083919e-09	-1.777660e+01	-2.075413e+02
1.480000e-06	-2.423111e-06	-3.055210e-09	-1.731528e+01	-2.054921e+02
1.490000e-06	-2.358361e-06	-3.023939e-09	-1.685258e+01	-2.033837e+02
1.500000e-06	-2.293427e-06	-2.992348e-09	-1.638857e+01	-2.012165e+02
1.510000e-06	-2.228240e-06	-2.960401e-09	-1.592275e+01	-1.989912e+02
1.520000e-06	-2.162844e-06	-2.926270e-09	-1.545544e+01	-1.967088e+02
1.530000e-06	-2.097269e-06	-2.892369e-09	-1.498685e+01	-1.943707e+02
1.540000e-06	-2.031581e-06	-2.857116e-09	-1.451745e+01	-1.919781e+02
1.550000e-06	-1.965772e-06	-2.820399e-09	-1.404718e+01	-1.895322e+02
1.560000e-06	-1.899774e-06	-2.782457e-09	-1.357557e+01	-1.870342e+02
1.570000e-06	-1.833669e-06	-2.743945e-09	-1.310319e+01	-1.844845e+02
1.580000e-06	-1.767431e-06	-2.704387e-09	-1.262986e+01	-1.818833e+02
1.590000e-06	-1.701024e-06	-2.665180e-09	-1.215533e+01	-1.792297e+02
1.600000e-06	-1.634532e-06	-2.627229e-09	-1.168018e+01	-1.765223e+02
1.610000e-06	-1.567908e-06	-2.588005e-09	-1.120409e+01	-1.737582e+02
1.620000e-06	-1.501136e-06	-2.543128e-09	-1.072695e+01	-1.709335e+02
1.630000e-06	-1.434199e-06	-2.496333e-09	-1.024862e+01	-1.680431e+02
1.640000e-06	-1.367089e-06	-2.451489e-09	-9.769063e+00	-1.650804e+02
1.650000e-06	-1.299855e-06	-2.407081e-09	-9.288618e+00	-1.620374e+02
1.660000e-06	-1.232462e-06	-2.361662e-09	-8.807035e+00	-1.589048e+02
1.670000e-06	-1.164928e-06	-2.310795e-09	-8.324443e+00	-1.556717e+02
1.680000e-06	-1.097294e-06	-2.257820e-09	-7.841140e+00	-1.523261e+02
1.690000e-06	-1.029577e-06	-2.201240e-09	-7.357237e+00	-1.488548e+02
1.700000e-06	-9.617813e-07	-2.143907e-09	-6.872780e+00	-1.452437e+02
1.710000e-06	-8.939950e-07	-2.082763e-09	-6.388387e+00	-1.414776e+02
1.720000e-06	-8.262040e-07	-2.017178e-09	-5.903961e+00	-1.375411e+02
1.730000e-06	-7.583367e-07	-1.952257e-09	-5.418988e+00	-1.334185e+02
1.740000e-06	-6.904643e-07	-1.890495e-09	-4.933980e+00	-1.290939e+02
1.750000e-06	-6.225548e-07	-1.824635e-09	-4.448706e+00	-1.245520e+02
1.760000e-06	-5.545416e-07	-1.751286e-09	-3.962692e+00	-1.197783e+02
1.770000e-06	-4.865017e-07	-1.671546e-09	-3.476486e+00	-1.147592e+02
1.780000e-06	-4.185228e-07	-1.590041e-09	-2.990717e+00	-1.094827e+02
1.790000e-06	-3.505030e-07	-1.505929e-09	-2.504655e+00	-1.039386e+02
1.800000e-06	-2.823753e-07	-1.417584e-09	-2.017822e+00	-9.811869e+01
1.810000e-06	-2.142442e-07	-1.325875e-09	-1.530965e+00	-9.201736e+01
1.820000e-06	-1.461252e-07	-1.232941e-09	-1.044194e+00	-8.563162e+01
1.830000e-06	-7.804102e-08	-1.140252e-09	-5.576723e-01	-7.896145e+01
1.840000e-06	-9.993686e-09	-1.042229e-09	-7.141375e-02	-7.200993e+01
1.850000e-06	5.806697e-08	-9.387199e-10	4.149400e-01	-6.478342e+01
1.860000e-06	1.261239e-07	-8.278031e-10	9.012668e-01	-5.729158e+01
1.870000e-06	1.941701e-07	-7.111208e-10	1.387517e+00	-4.954742e+01
1.880000e-06	2.621838e-07	-5.913404e-10	1.873536e+00	-4.156723e+01
1.890000e-06	3.301883e-07	-4.681310e-10	2.359488e+00	-3.337045e+01
1.900000e-06	3.982215e-07	-3.396915e-10	2.845646e+00	-2.497952e+01
1.910000e-06	4.662492e-07	-2.102444e-10	3.331764e+00	-1.641964e+01
1.920000e-06	5.342611e-07	-8.068270e-11	3.817769e+00	-7.718442e+00
1.930000e-06	6.023027e-07	5.193313e-11	4.303987e+00	1.094318e+00
1.940000e-06	6.703020e-07	1.885208e-10	4.789902e+00	9.987173e+00
1.950000e-06	7.382096e-07	3.258505e-10	5.275162e+00	1.892736e+01
1.960000e-06	8.060881e-07	4.643306e-10	5.760214e+00	2.788127e+01
1.970000e-06	8.738671e-07	6.050199e-10	6.244555e+00	3.681495e+01
1.980000e-06	9.415549e-07	7.466860e-10	6.728245e+00	4.569453e+01
1.990000e-06	1.009172e-06	8.847902e-10	7.211429e+00	5.448677e+01
2.000000e-06	1.076713e-06	1.018312e-09	7.694067e+00	6.315947e+01
2.010000e-06	1.144183e-06	1.149235e-09	8.176202e+00	7.168198e+01
2.020000e-06	1.211589e-06	1.276727e-09	8.657876e+00	8.002555e+01
2.030000e-06	1.278906e-06	1.398144e-09	9.138918e+00	8.816377e+01
2.040000e-06	1.346094e-06	1.514429e-09	9.619034e+00	9.607290e+01
2.050000e-06	1.413138e-06	1.626489e-09	1.009812e+01	1.037321e+02
2.060000e-06	1.480083e-06	1.732228e-09	1.057651e+01	1.111238e+02
2.070000e-06	1.546972e-06	1.832290e-09	1.105448e+01	1.182335e+02
2.080000e-06	1.613776e-06	1.928022e-09	1.153186e+01	1.250505e+02
2.090000e-06	1.680386e-06	2.020958e-09	1.200785e+01	1.315672e+02
2.100000e-06	1.746758e-06	2.112558e-09	1.248213e+01	1.377797e+02
2.110000e-06	1.812922e-06	2.200556e-09	1.295493e+01	1.436874e+02
2.120000e-06	1.878871e-06	2.283003e-09	1.342620e+01	1.492926e+02
2.130000e-06	1.944669e-06	2.361356e-09	1.389639e+01	1.546011e+02
2.140000e-06	2.010341e-06	2.435913e-09	1.436567e+01	1.596208e+02
2.150000e-06	2.075897e-06	2.506682e-09	1.483413e+01	1.643627e+02
2.160000e-06	2.141288e-06	2.571613e-09	1.530140e+01	1.688393e+02
2.170000e-06	2.206527e-06	2.630047e-09	1.576759e+01	1.730652e+02
2.180000e-06	2.271654e-06	2.687782e-09	1.623298e+01	1.770563e+02
2.190000e-06	2.336662e-06	2.745766e-09	1.669752e+01	1.808294e+02
2.200000e-06	2.401459e-06	2.799013e-09	1.716055e+01	1.844020e+02
2.210000e-06	2.466027e-06	2.847984e-09	1.762195e+01	1.877917e+02
2.220000e-06	2.530369e-06	2.895995e-09	1.808173e+01	1.910163e+02
2.230000e-06	2.594419e-06	2.943914e-09	1.853943e+01	1.940927e+02
2.240000e-06	2.658357e-06	2.988069e-09	1.899631e+01	1.970375e+02
2.250000e-06	2.722139e-06	3.029151e-09	1.945210e+01	1.998660e+02
2.260000e-06	2.785654e-06	3.067100e-09	1.990597e+01	2.025924e+02
2.270000e-06	2.848980e-06	3.100495e-09	2.035849e+01	2.052295e+02
2.280000e-06	2.912113e-06	3.133513e-09	2.080963e+01	2.077887e+02
2.290000e-06	2.975087e-06	3.167501e-09	2.125963e+01	2.102795e+02
2.300000e-06	3.037902e-06	3.202947e-09	2.170850e+01	2.127100e+02
2.310000e-06	3.100555e-06	3.238903e-09	2.215621e+01	2.150867e+02
2.320000e-06	3.163065e-06	3.274813e-09	2.260290e+01	2.174145e+02
2.330000e-06	3.225422e-06	3.309292e-09	2.304850e+01	2.196967e+02
2.340000e-06	3.287586e-06	3.341871e-09	2.349271e+01	2.219353e+02
2.350000e-06	3.349482e-06	3.370963e-09	2.393502e+01	2.241313e+02
2.360000e-06	3.411062e-06	3.397337e-09	2.437506e+01	2.262843e+02
2.370000e-06	3.472403e-06	3.422718e-09	2.481340e+01	2.283935e+02
2.380000e-06	3.533564e-06	3.449115e-09	2.525045e+01	2.304571e+02
2.390000e-06	3.594490e-06	3.475486e-09	2.568582e+01	2.324730e+02
2.400000e-06	3.655187e-06	3.499919e-09	2.611955e+01	2.344389e+02
2.410000e-06	3.715644e-06	3.523471e-09	2.655157e+01	2.363524e+02
2.420000e-06	3.775925e-06	3.549153e-09	2.698233e+01	2.382112e+02
2.430000e-06	3.836026e-06	3.576656e-09	2.741181e+01	2.400133e+02
2.440000e-06	3.895864e-06	3.601896e-09	2.783940e+01	2.417572e+02
2.450000e-06	3.955436e-06	3.624334e-09	2.826510e+01	2.434417e+02
2.460000e-06	4.014677e-06	3.645487e-09	2.868843e+01	2.450665e+02
2.470000e-06	4.073608e-06	3.667435e-09	2.910954e+01	2.466317e+02
2.480000e-06	4.132301e-06	3.688445e-09	2.952896e+01	2.481382e+02
2.490000e-06	4.190551e-06	3.708117e-09	2.994521e+01	2.495875e+02
2.500000e-06	4.248371e-06	3.725350e-09	3.035838e+01	2.509819e+02
2.510000e-06	4.305884e-06	3.743968e-09	3.076936e+01	2.523240e+02
2.520000e-06	4.363069e-06	3.765510e-09	3.117800e+01	2.536172e+02
2.530000e-06	4.419802e-06	3.786510e-09	3.158341e+01	2.548651e+02
2.540000e-06	4.476020e-06	3.804563e-09	3.198513e+01	2.560718e+02
2.550000e-06	4.531893e-06	3.823061e-09	3.238440e+01	2.572414e+02
2.560000e-06	4.587495e-06	3.842203e-09	3.278172e+01	2.583783e+02
2.570000e-06	4.642800e-06	3.860147e-09	3.317693e+01	2.594866e+02
2.580000e-06	4.697860e-06	3.875648e-09	3.357037e+01	2.605705e+02
2.590000e-06	4.752702e-06	3.891399e-09	3.396227e+01	2.616337e+02
2.600000e-06	4.807294e-06	3.908697e-09	3.435238e+01	2.626798e+02
2.610000e-06	4.861583e-06	3.925543e-09	3.474032e+01	2.637118e+02
2.620000e-06	4.915561e-06	3.942049e-09	3.512604e+01	2.647322e+02
2.630000e-06	4.969196e-06	3.958848e-09	3.550931e+01	2.657431e+02
2.640000e-06	5.022397e-06	3.976577e-09	3.588948e+01	2.667457e+02
2.650000e-06	5.075208e-06	3.993798e-09	3.626686e+01	2.677410e+02
2.660000e-06	5.127689e-06	4.008659e-09	3.664189e+01	2.687293e+02
2.670000e-06	5.179798e-06	4.021985e-09	3.701425e+01	2.697103e+02
2.680000e-06	5.231460e-06	4.034698e-09	3.738342e+01	2.706833e+02
2.690000e-06	5.282656e-06	4.047859e-09	3.774926e+01	2.716470e+02
2.700000e-06	5.333417e-06	4.059116e-09	3.811199e+01	2.726001e+02
2.710000e-06	5.383594e-06	4.070114e-09	3.847056e+01	2.735408e+02
2.720000e-06	5.433088e-06	4.084180e-09	3.882423e+01	2.744672e+02
2.730000e-06	5.482056e-06	4.098989e-09	3.917415e+01	2.753772e+02
2.740000e-06	5.530608e-06	4.112458e-09	3.952110e+01	2.762690e+02
2.750000e-06	5.578728e-06	4.123732e-09	3.986496e+01	2.771406e+02
2.760000e-06	5.626404e-06	4.136695e-09	4.020565e+01	2.779904e+02
2.770000e-06	5.673742e-06	4.149948e-09	4.054392e+01	2.788170e+02
2.780000e-06	5.720719e-06	4.162975e-09	4.087961e+01	2.796193e+02
2.790000e-06	5.767294e-06	4.174093e-09	4.121243e+01	2.803966e+02
2.800000e-06	5.813492e-06	4.183816e-09	4.154256e+01	2.811486e+02
2.810000e-06	5.859272e-06	4.194153e-09	4.186969e+01	2.818754e+02
2.820000e-06	5.904573e-06	4.206308e-09	4.219341e+01	2.825774e+02
2.830000e-06	5.949469e-06	4.219071e-09	4.251423e+01	2.832557e+02
2.840000e-06	5.994019e-06	4.230735e-09	4.283258e+01	2.839114e+02
2.850000e-06	6.038205e-06	4.242936e-09	4.314833e+01	2.845461e+02
2.860000e-06	6.082124e-06	4.255568e-09	4.346217e+01	2.851617e+02
2.870000e-06	6.125825e-06	4.267708e-09	4.377445e+01	2.857603e+02
2.880000e-06	6.169183e-06	4.278229e-09	4.408428e+01	2.863441e+02
2.890000e-06	6.211990e-06	4.288412e-09	4.439018e+01	2.869152e+02
2.900000e-06	6.254263e-06	4.297621e-09	4.469226e+01	2.874759e+02
