# Temperatura_=_20.0
# Concentracion g/m^3_=_9000.0
# C_Vs_to_Am_M_A/Vsm_=_65563218390.804596
# pendiente_HvsI_1/m_=_3716.3
# ordenada_HvsI_A/m_=_1297.0
# frecuencia_Hz_=_135465.22359475246

Tiempo_(s)	Campo_(V.s)	Magnetizacion_(V.s)	Campo_(kA/m)	Magnetizacion_(A/m)
0.000000e+00	-7.951146e-06	-4.689181e-09	-5.691972e+01	-3.059989e+02
1.000000e-08	-7.951408e-06	-4.688225e-09	-5.692160e+01	-3.060741e+02
2.000000e-08	-7.951276e-06	-4.688214e-09	-5.692065e+01	-3.061416e+02
3.000000e-08	-7.950564e-06	-4.690265e-09	-5.691556e+01	-3.061977e+02
4.000000e-08	-7.949190e-06	-4.693291e-09	-5.690572e+01	-3.062387e+02
5.000000e-08	-7.946997e-06	-4.692706e-09	-5.689002e+01	-3.062608e+02
6.000000e-08	-7.943962e-06	-4.691427e-09	-5.686830e+01	-3.062605e+02
7.000000e-08	-7.940434e-06	-4.690448e-09	-5.684304e+01	-3.062345e+02
8.000000e-08	-7.936567e-06	-4.684520e-09	-5.681535e+01	-3.061796e+02
9.000000e-08	-7.932289e-06	-4.664499e-09	-5.678473e+01	-3.060932e+02
1.000000e-07	-7.927394e-06	-4.669006e-09	-5.674969e+01	-3.059732e+02
1.100000e-07	-7.921685e-06	-4.742604e-09	-5.670882e+01	-3.058181e+02
1.200000e-07	-7.915060e-06	-4.802933e-09	-5.666139e+01	-3.056266e+02
1.300000e-07	-7.907620e-06	-4.737141e-09	-5.660813e+01	-3.053986e+02
1.400000e-07	-7.899874e-06	-4.545733e-09	-5.655268e+01	-3.051342e+02
1.500000e-07	-7.892053e-06	-4.528356e-09	-5.649669e+01	-3.048343e+02
1.600000e-07	-7.883949e-06	-4.783510e-09	-5.643868e+01	-3.045004e+02
1.700000e-07	-7.875333e-06	-4.861586e-09	-5.637700e+01	-3.041346e+02
1.800000e-07	-7.865927e-06	-4.604243e-09	-5.630967e+01	-3.037395e+02
1.900000e-07	-7.855687e-06	-4.518393e-09	-5.623636e+01	-3.033182e+02
2.000000e-07	-7.844631e-06	-4.649049e-09	-5.615722e+01	-3.028741e+02
2.100000e-07	-7.832949e-06	-4.788651e-09	-5.607358e+01	-3.024110e+02
2.200000e-07	-7.820904e-06	-4.808567e-09	-5.598736e+01	-3.019328e+02
2.300000e-07	-7.808210e-06	-4.644248e-09	-5.589649e+01	-3.014435e+02
2.400000e-07	-7.794708e-06	-4.465493e-09	-5.579983e+01	-3.009473e+02
2.500000e-07	-7.780754e-06	-4.588000e-09	-5.569994e+01	-3.004479e+02
2.600000e-07	-7.766146e-06	-4.812367e-09	-5.559536e+01	-2.999493e+02
2.700000e-07	-7.750353e-06	-4.601925e-09	-5.548231e+01	-2.994548e+02
2.800000e-07	-7.733665e-06	-4.302568e-09	-5.536285e+01	-2.989674e+02
2.900000e-07	-7.716664e-06	-4.453628e-09	-5.524114e+01	-2.984900e+02
3.000000e-07	-7.699281e-06	-4.665362e-09	-5.511670e+01	-2.980246e+02
3.100000e-07	-7.681349e-06	-4.470927e-09	-5.498833e+01	-2.975729e+02
3.200000e-07	-7.662998e-06	-4.297530e-09	-5.485696e+01	-2.971361e+02
3.300000e-07	-7.644115e-06	-4.422488e-09	-5.472179e+01	-2.967147e+02
3.400000e-07	-7.624654e-06	-4.508284e-09	-5.458247e+01	-2.963086e+02
3.500000e-07	-7.604862e-06	-4.484996e-09	-5.444078e+01	-2.959176e+02
3.600000e-07	-7.584815e-06	-4.483866e-09	-5.429728e+01	-2.955406e+02
3.700000e-07	-7.564277e-06	-4.343289e-09	-5.415025e+01	-2.951762e+02
3.800000e-07	-7.543111e-06	-4.326869e-09	-5.399873e+01	-2.948229e+02
3.900000e-07	-7.521396e-06	-4.532879e-09	-5.384328e+01	-2.944785e+02
4.000000e-07	-7.499151e-06	-4.562574e-09	-5.368403e+01	-2.941409e+02
4.100000e-07	-7.476312e-06	-4.330670e-09	-5.352054e+01	-2.938079e+02
4.200000e-07	-7.452925e-06	-4.308839e-09	-5.335311e+01	-2.934770e+02
4.300000e-07	-7.429156e-06	-4.521046e-09	-5.318296e+01	-2.931460e+02
4.400000e-07	-7.405043e-06	-4.569446e-09	-5.301035e+01	-2.928128e+02
4.500000e-07	-7.380245e-06	-4.363532e-09	-5.283282e+01	-2.924753e+02
4.600000e-07	-7.354727e-06	-4.278206e-09	-5.265015e+01	-2.921318e+02
4.700000e-07	-7.328663e-06	-4.463866e-09	-5.246356e+01	-2.917808e+02
4.800000e-07	-7.301816e-06	-4.524248e-09	-5.227137e+01	-2.914214e+02
4.900000e-07	-7.274347e-06	-4.356951e-09	-5.207473e+01	-2.910526e+02
5.000000e-07	-7.246613e-06	-4.305409e-09	-5.187619e+01	-2.906741e+02
5.100000e-07	-7.218557e-06	-4.399650e-09	-5.167535e+01	-2.902860e+02
5.200000e-07	-7.189942e-06	-4.413078e-09	-5.147050e+01	-2.898884e+02
5.300000e-07	-7.160749e-06	-4.398233e-09	-5.126152e+01	-2.894821e+02
5.400000e-07	-7.131057e-06	-4.355915e-09	-5.104897e+01	-2.890678e+02
5.500000e-07	-7.100813e-06	-4.295759e-09	-5.083246e+01	-2.886467e+02
5.600000e-07	-7.070019e-06	-4.344442e-09	-5.061201e+01	-2.882201e+02
5.700000e-07	-7.038773e-06	-4.425713e-09	-5.038833e+01	-2.877894e+02
5.800000e-07	-7.007196e-06	-4.337915e-09	-5.016228e+01	-2.873558e+02
5.900000e-07	-6.975318e-06	-4.250542e-09	-4.993408e+01	-2.869207e+02
6.000000e-07	-6.943065e-06	-4.309354e-09	-4.970319e+01	-2.864854e+02
6.100000e-07	-6.910185e-06	-4.378242e-09	-4.946781e+01	-2.860510e+02
6.200000e-07	-6.876524e-06	-4.329804e-09	-4.922684e+01	-2.856184e+02
6.300000e-07	-6.842114e-06	-4.259015e-09	-4.898051e+01	-2.851880e+02
6.400000e-07	-6.807027e-06	-4.260590e-09	-4.872934e+01	-2.847603e+02
6.500000e-07	-6.771468e-06	-4.318720e-09	-4.847478e+01	-2.843353e+02
6.600000e-07	-6.735644e-06	-4.316129e-09	-4.821833e+01	-2.839126e+02
6.700000e-07	-6.699490e-06	-4.247597e-09	-4.795951e+01	-2.834915e+02
6.800000e-07	-6.662842e-06	-4.231411e-09	-4.769716e+01	-2.830710e+02
6.900000e-07	-6.625707e-06	-4.273633e-09	-4.743133e+01	-2.826500e+02
7.000000e-07	-6.588058e-06	-4.272869e-09	-4.716181e+01	-2.822268e+02
7.100000e-07	-6.549949e-06	-4.237900e-09	-4.688899e+01	-2.817997e+02
7.200000e-07	-6.511388e-06	-4.222162e-09	-4.661295e+01	-2.813668e+02
7.300000e-07	-6.472334e-06	-4.215429e-09	-4.633338e+01	-2.809262e+02
7.400000e-07	-6.432934e-06	-4.222935e-09	-4.605132e+01	-2.804758e+02
7.500000e-07	-6.393292e-06	-4.223510e-09	-4.576754e+01	-2.800136e+02
7.600000e-07	-6.353431e-06	-4.186971e-09	-4.548219e+01	-2.795377e+02
7.700000e-07	-6.313175e-06	-4.161841e-09	-4.519401e+01	-2.790465e+02
7.800000e-07	-6.272282e-06	-4.190128e-09	-4.490127e+01	-2.785383e+02
7.900000e-07	-6.230589e-06	-4.192581e-09	-4.460280e+01	-2.780120e+02
8.000000e-07	-6.188127e-06	-4.148387e-09	-4.429883e+01	-2.774666e+02
8.100000e-07	-6.145040e-06	-4.130719e-09	-4.399039e+01	-2.769015e+02
8.200000e-07	-6.101504e-06	-4.158282e-09	-4.367872e+01	-2.763163e+02
8.300000e-07	-6.057689e-06	-4.159768e-09	-4.336506e+01	-2.757113e+02
8.400000e-07	-6.013561e-06	-4.127394e-09	-4.304917e+01	-2.750869e+02
8.500000e-07	-5.969044e-06	-4.103646e-09	-4.273048e+01	-2.744438e+02
8.600000e-07	-5.924046e-06	-4.113646e-09	-4.240836e+01	-2.737830e+02
8.700000e-07	-5.878618e-06	-4.122060e-09	-4.208315e+01	-2.731060e+02
8.800000e-07	-5.832894e-06	-4.099423e-09	-4.175583e+01	-2.724142e+02
8.900000e-07	-5.786753e-06	-4.064447e-09	-4.142552e+01	-2.717094e+02
9.000000e-07	-5.740189e-06	-4.057560e-09	-4.109219e+01	-2.709932e+02
9.100000e-07	-5.693308e-06	-4.068030e-09	-4.075658e+01	-2.702675e+02
9.200000e-07	-5.646080e-06	-4.060998e-09	-4.041849e+01	-2.695340e+02
9.300000e-07	-5.598566e-06	-4.033259e-09	-4.007835e+01	-2.687942e+02
9.400000e-07	-5.550659e-06	-4.014024e-09	-3.973540e+01	-2.680497e+02
9.500000e-07	-5.502159e-06	-4.015539e-09	-3.938820e+01	-2.673016e+02
9.600000e-07	-5.453032e-06	-4.019346e-09	-3.903652e+01	-2.665508e+02
9.700000e-07	-5.403249e-06	-3.998129e-09	-3.868014e+01	-2.657979e+02
9.800000e-07	-5.352829e-06	-3.964109e-09	-3.831920e+01	-2.650432e+02
9.900000e-07	-5.301907e-06	-3.954318e-09	-3.795466e+01	-2.642864e+02
1.000000e-06	-5.250539e-06	-3.962470e-09	-3.758693e+01	-2.635272e+02
1.010000e-06	-5.198660e-06	-3.951149e-09	-3.721555e+01	-2.627647e+02
1.020000e-06	-5.146383e-06	-3.918507e-09	-3.684132e+01	-2.619976e+02
1.030000e-06	-5.093726e-06	-3.903042e-09	-3.646436e+01	-2.612246e+02
1.040000e-06	-5.040769e-06	-3.907471e-09	-3.608526e+01	-2.604438e+02
1.050000e-06	-4.987591e-06	-3.903003e-09	-3.570458e+01	-2.596534e+02
1.060000e-06	-4.934013e-06	-3.879754e-09	-3.532103e+01	-2.588514e+02
1.070000e-06	-4.880014e-06	-3.856913e-09	-3.493446e+01	-2.580354e+02
1.080000e-06	-4.825651e-06	-3.849447e-09	-3.454530e+01	-2.572036e+02
1.090000e-06	-4.770942e-06	-3.847148e-09	-3.415365e+01	-2.563536e+02
1.100000e-06	-4.715875e-06	-3.829768e-09	-3.375945e+01	-2.554837e+02
1.110000e-06	-4.660531e-06	-3.806267e-09	-3.336325e+01	-2.545920e+02
1.120000e-06	-4.604924e-06	-3.790867e-09	-3.296519e+01	-2.536771e+02
1.130000e-06	-4.549066e-06	-3.785929e-09	-3.256532e+01	-2.527377e+02
1.140000e-06	-4.493038e-06	-3.774246e-09	-3.216423e+01	-2.517728e+02
1.150000e-06	-4.436778e-06	-3.750425e-09	-3.176148e+01	-2.507819e+02
1.160000e-06	-4.380229e-06	-3.727284e-09	-3.135666e+01	-2.497647e+02
1.170000e-06	-4.323394e-06	-3.717059e-09	-3.094980e+01	-2.487213e+02
1.180000e-06	-4.266122e-06	-3.708790e-09	-3.053981e+01	-2.476520e+02
1.190000e-06	-4.208325e-06	-3.688129e-09	-3.012606e+01	-2.465576e+02
1.200000e-06	-4.149994e-06	-3.661215e-09	-2.970848e+01	-2.454387e+02
1.210000e-06	-4.091247e-06	-3.642964e-09	-2.928793e+01	-2.442966e+02
1.220000e-06	-4.032234e-06	-3.632674e-09	-2.886548e+01	-2.431323e+02
1.230000e-06	-3.972924e-06	-3.618386e-09	-2.844090e+01	-2.419469e+02
1.240000e-06	-3.913314e-06	-3.596712e-09	-2.801417e+01	-2.407416e+02
1.250000e-06	-3.853474e-06	-3.575666e-09	-2.758579e+01	-2.395175e+02
1.260000e-06	-3.793441e-06	-3.558195e-09	-2.715604e+01	-2.382752e+02
1.270000e-06	-3.733160e-06	-3.540133e-09	-2.672450e+01	-2.370153e+02
1.280000e-06	-3.672663e-06	-3.518711e-09	-2.629142e+01	-2.357381e+02
1.290000e-06	-3.611950e-06	-3.496614e-09	-2.585680e+01	-2.344434e+02
1.300000e-06	-3.550990e-06	-3.479034e-09	-2.542041e+01	-2.331307e+02
1.310000e-06	-3.489805e-06	-3.460857e-09	-2.498241e+01	-2.317990e+02
1.320000e-06	-3.428426e-06	-3.439438e-09	-2.454301e+01	-2.304469e+02
1.330000e-06	-3.366843e-06	-3.415053e-09	-2.410216e+01	-2.290725e+02
1.340000e-06	-3.304993e-06	-3.391830e-09	-2.365939e+01	-2.276736e+02
1.350000e-06	-3.242926e-06	-3.370462e-09	-2.321508e+01	-2.262476e+02
1.360000e-06	-3.180683e-06	-3.348783e-09	-2.276950e+01	-2.247917e+02
1.370000e-06	-3.118148e-06	-3.320951e-09	-2.232183e+01	-2.233027e+02
1.380000e-06	-3.055341e-06	-3.292620e-09	-2.187222e+01	-2.217773e+02
1.390000e-06	-2.992361e-06	-3.269455e-09	-2.142136e+01	-2.202123e+02
1.400000e-06	-2.929233e-06	-3.246440e-09	-2.096944e+01	-2.186042e+02
1.410000e-06	-2.865996e-06	-3.218728e-09	-2.051675e+01	-2.169499e+02
1.420000e-06	-2.802612e-06	-3.190068e-09	-2.006300e+01	-2.152465e+02
1.430000e-06	-2.739006e-06	-3.165073e-09	-1.960767e+01	-2.134913e+02
1.440000e-06	-2.675239e-06	-3.139344e-09	-1.915118e+01	-2.116820e+02
1.450000e-06	-2.611383e-06	-3.111248e-09	-1.869406e+01	-2.098167e+02
1.460000e-06	-2.547355e-06	-3.084129e-09	-1.823570e+01	-2.078941e+02
1.470000e-06	-2.483174e-06	-3.056806e-09	-1.777625e+01	-2.059132e+02
1.480000e-06	-2.418857e-06	-3.027652e-09	-1.731582e+01	-2.038738e+02
1.490000e-06	-2.354352e-06	-2.996711e-09	-1.685406e+01	-2.017761e+02
1.500000e-06	-2.289623e-06	-2.964180e-09	-1.639068e+01	-1.996205e+02
1.510000e-06	-2.224617e-06	-2.931991e-09	-1.592532e+01	-1.974081e+02
1.520000e-06	-2.159356e-06	-2.901309e-09	-1.545814e+01	-1.951402e+02
1.530000e-06	-2.093851e-06	-2.870452e-09	-1.498921e+01	-1.928182e+02
1.540000e-06	-2.028154e-06	-2.835872e-09	-1.451891e+01	-1.904436e+02
1.550000e-06	-1.962334e-06	-2.800089e-09	-1.404772e+01	-1.880178e+02
1.560000e-06	-1.896343e-06	-2.764424e-09	-1.357531e+01	-1.855419e+02
1.570000e-06	-1.830178e-06	-2.728027e-09	-1.310166e+01	-1.830166e+02
1.580000e-06	-1.763893e-06	-2.687876e-09	-1.262715e+01	-1.804420e+02
1.590000e-06	-1.697491e-06	-2.646810e-09	-1.215180e+01	-1.778174e+02
1.600000e-06	-1.630973e-06	-2.609395e-09	-1.167562e+01	-1.751411e+02
1.610000e-06	-1.564273e-06	-2.572056e-09	-1.119813e+01	-1.724103e+02
1.620000e-06	-1.497421e-06	-2.526926e-09	-1.071956e+01	-1.696212e+02
1.630000e-06	-1.430511e-06	-2.481957e-09	-1.024058e+01	-1.667684e+02
1.640000e-06	-1.363469e-06	-2.439406e-09	-9.760637e+00	-1.638452e+02
1.650000e-06	-1.296229e-06	-2.394722e-09	-9.279294e+00	-1.608436e+02
1.660000e-06	-1.228874e-06	-2.346481e-09	-8.797118e+00	-1.577540e+02
1.670000e-06	-1.161453e-06	-2.296124e-09	-8.314472e+00	-1.545654e+02
1.680000e-06	-1.094021e-06	-2.244725e-09	-7.831751e+00	-1.512657e+02
1.690000e-06	-1.026575e-06	-2.187928e-09	-7.348926e+00	-1.478413e+02
1.700000e-06	-9.590222e-07	-2.129958e-09	-6.865334e+00	-1.442780e+02
1.710000e-06	-8.913595e-07	-2.071239e-09	-6.380959e+00	-1.405605e+02
1.720000e-06	-8.236884e-07	-2.011633e-09	-5.896523e+00	-1.366730e+02
1.730000e-06	-7.560115e-07	-1.951204e-09	-5.412046e+00	-1.325996e+02
1.740000e-06	-6.882395e-07	-1.889053e-09	-4.926887e+00	-1.283242e+02
1.750000e-06	-6.204547e-07	-1.822375e-09	-4.441637e+00	-1.238314e+02
1.760000e-06	-5.526601e-07	-1.749695e-09	-3.956317e+00	-1.191062e+02
1.770000e-06	-4.848310e-07	-1.672262e-09	-3.470751e+00	-1.141350e+02
1.780000e-06	-4.170274e-07	-1.591707e-09	-2.985366e+00	-1.089055e+02
1.790000e-06	-3.491770e-07	-1.505649e-09	-2.499647e+00	-1.034072e+02
1.800000e-06	-2.812891e-07	-1.417229e-09	-2.013659e+00	-9.763194e+01
1.810000e-06	-2.133945e-07	-1.329129e-09	-1.527623e+00	-9.157373e+01
1.820000e-06	-1.454697e-07	-1.237597e-09	-1.041371e+00	-8.522950e+01
1.830000e-06	-7.753159e-08	-1.143121e-09	-5.550240e-01	-7.859907e+01
1.840000e-06	-9.599329e-09	-1.045711e-09	-6.871853e-02	-7.168543e+01
1.850000e-06	5.829124e-08	-9.440426e-10	4.172884e-01	-6.449485e+01
1.860000e-06	1.261353e-07	-8.357490e-10	9.029624e-01	-5.703693e+01
1.870000e-06	1.939551e-07	-7.184339e-10	1.388463e+00	-4.932467e+01
1.880000e-06	2.617638e-07	-5.954083e-10	1.873883e+00	-4.137434e+01
1.890000e-06	3.295940e-07	-4.710653e-10	2.359458e+00	-3.320544e+01
1.900000e-06	3.974787e-07	-3.442240e-10	2.845424e+00	-2.484047e+01
1.910000e-06	4.653765e-07	-2.158864e-10	3.331482e+00	-1.630471e+01
1.920000e-06	5.332456e-07	-8.558418e-11	3.817335e+00	-7.625936e+00
1.930000e-06	6.011053e-07	4.613259e-11	4.303121e+00	1.165959e+00
1.940000e-06	6.689532e-07	1.809613e-10	4.788823e+00	1.003933e+01
1.950000e-06	7.367411e-07	3.192303e-10	5.274095e+00	1.896122e+01
1.960000e-06	8.044222e-07	4.599411e-10	5.758602e+00	2.789782e+01
1.970000e-06	8.720509e-07	6.019581e-10	6.242734e+00	3.681494e+01
1.980000e-06	9.396092e-07	7.422673e-10	6.726363e+00	4.567850e+01
1.990000e-06	1.007070e-06	8.799765e-10	7.209294e+00	5.445502e+01
2.000000e-06	1.074466e-06	1.014574e-09	7.691762e+00	6.311209e+01
2.010000e-06	1.141795e-06	1.146615e-09	8.173748e+00	7.161882e+01
2.020000e-06	1.209055e-06	1.272004e-09	8.655242e+00	7.994630e+01
2.030000e-06	1.276210e-06	1.390390e-09	9.135978e+00	8.806792e+01
2.040000e-06	1.343287e-06	1.505899e-09	9.616162e+00	9.595978e+01
2.050000e-06	1.410306e-06	1.617186e-09	1.009593e+01	1.036009e+02
2.060000e-06	1.477242e-06	1.723068e-09	1.057511e+01	1.109737e+02
2.070000e-06	1.544113e-06	1.825704e-09	1.105381e+01	1.180636e+02
2.080000e-06	1.610782e-06	1.925078e-09	1.153108e+01	1.248597e+02
2.090000e-06	1.677217e-06	2.019580e-09	1.200666e+01	1.313547e+02
2.100000e-06	1.743519e-06	2.110625e-09	1.248130e+01	1.375447e+02
2.110000e-06	1.809623e-06	2.197978e-09	1.295451e+01	1.434289e+02
2.120000e-06	1.875629e-06	2.279076e-09	1.342703e+01	1.490102e+02
2.130000e-06	1.941412e-06	2.354171e-09	1.389795e+01	1.542941e+02
2.140000e-06	2.006916e-06	2.424527e-09	1.436687e+01	1.592891e+02
2.150000e-06	2.072268e-06	2.493016e-09	1.483470e+01	1.640060e+02
2.160000e-06	2.137341e-06	2.558516e-09	1.530055e+01	1.684579e+02
2.170000e-06	2.202269e-06	2.619780e-09	1.576534e+01	1.726594e+02
2.180000e-06	2.267058e-06	2.677709e-09	1.622914e+01	1.766266e+02
2.190000e-06	2.331671e-06	2.732342e-09	1.669169e+01	1.803767e+02
2.200000e-06	2.396214e-06	2.785393e-09	1.715374e+01	1.839273e+02
2.210000e-06	2.460615e-06	2.835481e-09	1.761476e+01	1.872964e+02
2.220000e-06	2.524814e-06	2.882542e-09	1.807434e+01	1.905016e+02
2.230000e-06	2.588826e-06	2.928173e-09	1.853258e+01	1.935603e+02
2.240000e-06	2.652628e-06	2.973154e-09	1.898932e+01	1.964889e+02
2.250000e-06	2.716285e-06	3.015642e-09	1.944502e+01	1.993030e+02
2.260000e-06	2.779723e-06	3.054407e-09	1.989915e+01	2.020167e+02
2.270000e-06	2.842916e-06	3.092044e-09	2.035153e+01	2.046429e+02
2.280000e-06	2.906006e-06	3.129486e-09	2.080317e+01	2.071927e+02
2.290000e-06	2.968927e-06	3.166990e-09	2.125361e+01	2.096757e+02
2.300000e-06	3.031671e-06	3.201887e-09	2.170277e+01	2.120997e+02
2.310000e-06	3.094230e-06	3.234502e-09	2.215061e+01	2.144711e+02
2.320000e-06	3.156549e-06	3.269068e-09	2.259673e+01	2.167945e+02
2.330000e-06	3.218754e-06	3.303493e-09	2.304204e+01	2.190730e+02
2.340000e-06	3.280830e-06	3.333061e-09	2.348642e+01	2.213083e+02
2.350000e-06	3.342590e-06	3.360010e-09	2.392854e+01	2.235010e+02
2.360000e-06	3.404041e-06	3.388874e-09	2.436845e+01	2.256507e+02
2.370000e-06	3.465229e-06	3.419520e-09	2.480647e+01	2.277559e+02
2.380000e-06	3.526196e-06	3.448119e-09	2.524291e+01	2.298148e+02
2.390000e-06	3.586911e-06	3.474095e-09	2.567755e+01	2.318251e+02
2.400000e-06	3.647426e-06	3.498573e-09	2.611076e+01	2.337841e+02
2.410000e-06	3.707756e-06	3.522252e-09	2.654264e+01	2.356892e+02
2.420000e-06	3.767842e-06	3.545906e-09	2.697278e+01	2.375382e+02
2.430000e-06	3.827793e-06	3.569111e-09	2.740195e+01	2.393288e+02
2.440000e-06	3.887615e-06	3.592172e-09	2.783020e+01	2.410595e+02
2.450000e-06	3.947207e-06	3.614349e-09	2.825680e+01	2.427293e+02
2.460000e-06	4.006482e-06	3.635680e-09	2.868113e+01	2.443377e+02
2.470000e-06	4.065371e-06	3.657225e-09	2.910269e+01	2.458852e+02
2.480000e-06	4.123832e-06	3.679894e-09	2.952120e+01	2.473728e+02
2.490000e-06	4.181857e-06	3.702797e-09	2.993658e+01	2.488022e+02
2.500000e-06	4.239465e-06	3.721389e-09	3.034898e+01	2.501760e+02
2.510000e-06	4.296727e-06	3.740662e-09	3.075890e+01	2.514973e+02
2.520000e-06	4.353674e-06	3.760342e-09	3.116656e+01	2.527696e+02
2.530000e-06	4.410319e-06	3.777598e-09	3.157207e+01	2.539971e+02
2.540000e-06	4.466571e-06	3.795947e-09	3.197476e+01	2.551841e+02
2.550000e-06	4.522501e-06	3.814816e-09	3.237515e+01	2.563353e+02
2.560000e-06	4.578150e-06	3.832920e-09	3.277351e+01	2.574553e+02
2.570000e-06	4.633494e-06	3.851366e-09	3.316971e+01	2.585487e+02
2.580000e-06	4.688582e-06	3.870100e-09	3.356406e+01	2.596199e+02
2.590000e-06	4.743349e-06	3.887294e-09	3.395612e+01	2.606730e+02
2.600000e-06	4.797831e-06	3.902881e-09	3.434614e+01	2.617116e+02
2.610000e-06	4.852032e-06	3.915737e-09	3.473415e+01	2.627390e+02
2.620000e-06	4.905876e-06	3.930271e-09	3.511960e+01	2.637578e+02
2.630000e-06	4.959334e-06	3.947869e-09	3.550229e+01	2.647700e+02
2.640000e-06	5.012484e-06	3.964565e-09	3.588278e+01	2.657769e+02
2.650000e-06	5.065321e-06	3.980145e-09	3.626102e+01	2.667793e+02
2.660000e-06	5.117753e-06	3.996098e-09	3.663637e+01	2.677772e+02
2.670000e-06	5.169736e-06	4.010130e-09	3.700849e+01	2.687701e+02
2.680000e-06	5.221219e-06	4.023864e-09	3.737704e+01	2.697569e+02
2.690000e-06	5.272174e-06	4.038085e-09	3.774181e+01	2.707362e+02
2.700000e-06	5.322616e-06	4.051005e-09	3.810291e+01	2.717059e+02
2.710000e-06	5.372590e-06	4.064038e-09	3.846066e+01	2.726639e+02
2.720000e-06	5.422097e-06	4.078143e-09	3.881506e+01	2.736078e+02
2.730000e-06	5.471071e-06	4.092142e-09	3.916565e+01	2.745350e+02
2.740000e-06	5.519530e-06	4.104534e-09	3.951256e+01	2.754432e+02
2.750000e-06	5.567586e-06	4.115479e-09	3.985658e+01	2.763300e+02
2.760000e-06	5.615251e-06	4.126912e-09	4.019779e+01	2.771932e+02
2.770000e-06	5.662518e-06	4.138763e-09	4.053617e+01	2.780311e+02
2.780000e-06	5.709454e-06	4.151282e-09	4.087216e+01	2.788423e+02
2.790000e-06	5.755982e-06	4.163665e-09	4.120524e+01	2.796257e+02
2.800000e-06	5.802102e-06	4.174087e-09	4.153540e+01	2.803809e+02
2.810000e-06	5.847842e-06	4.183761e-09	4.186284e+01	2.811077e+02
2.820000e-06	5.893161e-06	4.195004e-09	4.218726e+01	2.818068e+02
2.830000e-06	5.938058e-06	4.207508e-09	4.250866e+01	2.824791e+02
2.840000e-06	5.982561e-06	4.218378e-09	4.282725e+01	2.831258e+02
2.850000e-06	6.026761e-06	4.228605e-09	4.314366e+01	2.837490e+02
2.860000e-06	6.070751e-06	4.238555e-09	4.345857e+01	2.843507e+02
2.870000e-06	6.114419e-06	4.249108e-09	4.377118e+01	2.849334e+02
2.880000e-06	6.157672e-06	4.258655e-09	4.408081e+01	2.854997e+02
2.890000e-06	6.200478e-06	4.267927e-09	4.438725e+01	2.860524e+02
2.900000e-06	6.242699e-06	4.277848e-09	4.468950e+01	2.865941e+02
