# Temperatura_=_20.0
# Concentracion g/m^3_=_9000.0
# C_Vs_to_Am_M_A/Vsm_=_65563218390.804596
# pendiente_HvsI_1/m_=_3716.3
# ordenada_HvsI_A/m_=_1297.0
# frecuencia_Hz_=_135466.9016514125

Tiempo_(s)	Campo_(V.s)	Magnetizacion_(V.s)	Campo_(kA/m)	Magnetizacion_(A/m)
0.000000e+00	-7.928474e-06	-4.669915e-09	-5.691432e+01	-3.081980e+02
1.000000e-08	-7.928752e-06	-4.667170e-09	-5.691631e+01	-3.082482e+02
2.000000e-08	-7.928659e-06	-4.666829e-09	-5.691565e+01	-3.082913e+02
3.000000e-08	-7.928021e-06	-4.666478e-09	-5.691106e+01	-3.083236e+02
4.000000e-08	-7.926625e-06	-4.666969e-09	-5.690104e+01	-3.083412e+02
5.000000e-08	-7.924404e-06	-4.670407e-09	-5.688510e+01	-3.083403e+02
6.000000e-08	-7.921455e-06	-4.670579e-09	-5.686393e+01	-3.083172e+02
7.000000e-08	-7.918006e-06	-4.669769e-09	-5.683917e+01	-3.082682e+02
8.000000e-08	-7.914228e-06	-4.668385e-09	-5.681205e+01	-3.081900e+02
9.000000e-08	-7.909994e-06	-4.679149e-09	-5.678166e+01	-3.080795e+02
1.000000e-07	-7.905110e-06	-4.682457e-09	-5.674659e+01	-3.079343e+02
1.100000e-07	-7.899366e-06	-4.672283e-09	-5.670536e+01	-3.077523e+02
1.200000e-07	-7.892761e-06	-4.664986e-09	-5.665795e+01	-3.075321e+02
1.300000e-07	-7.885551e-06	-4.659611e-09	-5.660619e+01	-3.072728e+02
1.400000e-07	-7.878028e-06	-4.703346e-09	-5.655219e+01	-3.069743e+02
1.500000e-07	-7.870264e-06	-4.700952e-09	-5.649645e+01	-3.066369e+02
1.600000e-07	-7.862070e-06	-4.616731e-09	-5.643764e+01	-3.062618e+02
1.700000e-07	-7.853267e-06	-4.655614e-09	-5.637444e+01	-3.058508e+02
1.800000e-07	-7.843744e-06	-4.731419e-09	-5.630608e+01	-3.054062e+02
1.900000e-07	-7.833457e-06	-4.697608e-09	-5.623224e+01	-3.049308e+02
2.000000e-07	-7.822526e-06	-4.673491e-09	-5.615377e+01	-3.044280e+02
2.100000e-07	-7.810982e-06	-4.690809e-09	-5.607090e+01	-3.039014e+02
2.200000e-07	-7.798815e-06	-4.686167e-09	-5.598356e+01	-3.033550e+02
2.300000e-07	-7.786017e-06	-4.672941e-09	-5.589170e+01	-3.027930e+02
2.400000e-07	-7.772682e-06	-4.721573e-09	-5.579597e+01	-3.022196e+02
2.500000e-07	-7.758820e-06	-4.638985e-09	-5.569646e+01	-3.016391e+02
2.600000e-07	-7.744107e-06	-4.560371e-09	-5.559084e+01	-3.010557e+02
2.700000e-07	-7.728509e-06	-4.664931e-09	-5.547887e+01	-3.004733e+02
2.800000e-07	-7.712254e-06	-4.717350e-09	-5.536219e+01	-2.998956e+02
2.900000e-07	-7.695409e-06	-4.556446e-09	-5.524127e+01	-2.993258e+02
3.000000e-07	-7.678118e-06	-4.516523e-09	-5.511714e+01	-2.987670e+02
3.100000e-07	-7.660353e-06	-4.640060e-09	-5.498962e+01	-2.982215e+02
3.200000e-07	-7.641979e-06	-4.581630e-09	-5.485772e+01	-2.976912e+02
3.300000e-07	-7.623056e-06	-4.454737e-09	-5.472188e+01	-2.971774e+02
3.400000e-07	-7.603731e-06	-4.549703e-09	-5.458316e+01	-2.966812e+02
3.500000e-07	-7.584093e-06	-4.602158e-09	-5.444219e+01	-2.962026e+02
3.600000e-07	-7.563972e-06	-4.477295e-09	-5.429775e+01	-2.957417e+02
3.700000e-07	-7.543319e-06	-4.506156e-09	-5.414949e+01	-2.952976e+02
3.800000e-07	-7.522203e-06	-4.579932e-09	-5.399791e+01	-2.948694e+02
3.900000e-07	-7.500519e-06	-4.493633e-09	-5.384225e+01	-2.944556e+02
4.000000e-07	-7.478270e-06	-4.459867e-09	-5.368254e+01	-2.940545e+02
4.100000e-07	-7.455499e-06	-4.557917e-09	-5.351908e+01	-2.936641e+02
4.200000e-07	-7.432245e-06	-4.536930e-09	-5.335215e+01	-2.932823e+02
4.300000e-07	-7.408620e-06	-4.454216e-09	-5.318256e+01	-2.929070e+02
4.400000e-07	-7.384525e-06	-4.493751e-09	-5.300960e+01	-2.925359e+02
4.500000e-07	-7.359825e-06	-4.567219e-09	-5.283228e+01	-2.921671e+02
4.600000e-07	-7.334373e-06	-4.478631e-09	-5.264958e+01	-2.917984e+02
4.700000e-07	-7.308159e-06	-4.423161e-09	-5.246140e+01	-2.914281e+02
4.800000e-07	-7.281291e-06	-4.508151e-09	-5.226853e+01	-2.910547e+02
4.900000e-07	-7.253902e-06	-4.525032e-09	-5.207192e+01	-2.906768e+02
5.000000e-07	-7.226154e-06	-4.416809e-09	-5.187273e+01	-2.902933e+02
5.100000e-07	-7.197992e-06	-4.421433e-09	-5.167057e+01	-2.899035e+02
5.200000e-07	-7.169355e-06	-4.480029e-09	-5.146500e+01	-2.895070e+02
5.300000e-07	-7.140226e-06	-4.456272e-09	-5.125590e+01	-2.891036e+02
5.400000e-07	-7.110541e-06	-4.431010e-09	-5.104281e+01	-2.886933e+02
5.500000e-07	-7.080337e-06	-4.438281e-09	-5.082599e+01	-2.882765e+02
5.600000e-07	-7.049689e-06	-4.417562e-09	-5.060599e+01	-2.878535e+02
5.700000e-07	-7.018614e-06	-4.427081e-09	-5.038291e+01	-2.874251e+02
5.800000e-07	-6.987129e-06	-4.444148e-09	-5.015690e+01	-2.869917e+02
5.900000e-07	-6.955211e-06	-4.401946e-09	-4.992777e+01	-2.865543e+02
6.000000e-07	-6.922872e-06	-4.369182e-09	-4.969563e+01	-2.861134e+02
6.100000e-07	-6.889973e-06	-4.388594e-09	-4.945947e+01	-2.856697e+02
6.200000e-07	-6.856367e-06	-4.405088e-09	-4.921823e+01	-2.852237e+02
6.300000e-07	-6.822117e-06	-4.384767e-09	-4.897236e+01	-2.847758e+02
6.400000e-07	-6.787237e-06	-4.356248e-09	-4.872198e+01	-2.843262e+02
6.500000e-07	-6.751828e-06	-4.348089e-09	-4.846779e+01	-2.838748e+02
6.600000e-07	-6.716042e-06	-4.374866e-09	-4.821091e+01	-2.834214e+02
6.700000e-07	-6.679924e-06	-4.372252e-09	-4.795164e+01	-2.829656e+02
6.800000e-07	-6.643358e-06	-4.332705e-09	-4.768915e+01	-2.825067e+02
6.900000e-07	-6.606273e-06	-4.313938e-09	-4.742293e+01	-2.820439e+02
7.000000e-07	-6.568662e-06	-4.334766e-09	-4.715294e+01	-2.815761e+02
7.100000e-07	-6.530564e-06	-4.332881e-09	-4.687946e+01	-2.811021e+02
7.200000e-07	-6.492030e-06	-4.314597e-09	-4.660285e+01	-2.806208e+02
7.300000e-07	-6.453075e-06	-4.298200e-09	-4.632321e+01	-2.801307e+02
7.400000e-07	-6.413758e-06	-4.290749e-09	-4.604097e+01	-2.796305e+02
7.500000e-07	-6.374042e-06	-4.284596e-09	-4.575587e+01	-2.791190e+02
7.600000e-07	-6.333977e-06	-4.283374e-09	-4.546826e+01	-2.785950e+02
7.700000e-07	-6.293524e-06	-4.268534e-09	-4.517788e+01	-2.780573e+02
7.800000e-07	-6.252547e-06	-4.250563e-09	-4.488372e+01	-2.775051e+02
7.900000e-07	-6.210994e-06	-4.244195e-09	-4.458544e+01	-2.769377e+02
8.000000e-07	-6.168802e-06	-4.248314e-09	-4.428256e+01	-2.763547e+02
8.100000e-07	-6.126013e-06	-4.239105e-09	-4.397540e+01	-2.757558e+02
8.200000e-07	-6.082718e-06	-4.222212e-09	-4.366461e+01	-2.751411e+02
8.300000e-07	-6.038975e-06	-4.213034e-09	-4.335060e+01	-2.745110e+02
8.400000e-07	-5.994789e-06	-4.208703e-09	-4.303341e+01	-2.738660e+02
8.500000e-07	-5.950227e-06	-4.197690e-09	-4.271353e+01	-2.732070e+02
8.600000e-07	-5.905388e-06	-4.183353e-09	-4.239165e+01	-2.725349e+02
8.700000e-07	-5.860121e-06	-4.174099e-09	-4.206671e+01	-2.718510e+02
8.800000e-07	-5.814416e-06	-4.164939e-09	-4.173861e+01	-2.711565e+02
8.900000e-07	-5.768428e-06	-4.154632e-09	-4.140849e+01	-2.704527e+02
9.000000e-07	-5.722123e-06	-4.142418e-09	-4.107609e+01	-2.697411e+02
9.100000e-07	-5.675415e-06	-4.133901e-09	-4.074080e+01	-2.690230e+02
9.200000e-07	-5.628196e-06	-4.121073e-09	-4.040184e+01	-2.682996e+02
9.300000e-07	-5.580472e-06	-4.105004e-09	-4.005925e+01	-2.675718e+02
9.400000e-07	-5.532403e-06	-4.091465e-09	-3.971419e+01	-2.668407e+02
9.500000e-07	-5.483922e-06	-4.083253e-09	-3.936617e+01	-2.661067e+02
9.600000e-07	-5.434882e-06	-4.069352e-09	-3.901414e+01	-2.653701e+02
9.700000e-07	-5.385268e-06	-4.055630e-09	-3.865799e+01	-2.646310e+02
9.800000e-07	-5.335102e-06	-4.042043e-09	-3.829788e+01	-2.638891e+02
9.900000e-07	-5.284388e-06	-4.030117e-09	-3.793382e+01	-2.631435e+02
1.000000e-06	-5.233086e-06	-4.019190e-09	-3.756555e+01	-2.623934e+02
1.010000e-06	-5.181359e-06	-4.009758e-09	-3.719423e+01	-2.616375e+02
1.020000e-06	-5.129292e-06	-3.993144e-09	-3.682047e+01	-2.608742e+02
1.030000e-06	-5.076922e-06	-3.976726e-09	-3.644453e+01	-2.601016e+02
1.040000e-06	-5.024282e-06	-3.965409e-09	-3.606666e+01	-2.593178e+02
1.050000e-06	-4.971249e-06	-3.954870e-09	-3.568596e+01	-2.585207e+02
1.060000e-06	-4.917810e-06	-3.937461e-09	-3.530235e+01	-2.577080e+02
1.070000e-06	-4.864000e-06	-3.917815e-09	-3.491608e+01	-2.568775e+02
1.080000e-06	-4.809755e-06	-3.907987e-09	-3.452668e+01	-2.560272e+02
1.090000e-06	-4.755134e-06	-3.901349e-09	-3.413459e+01	-2.551549e+02
1.100000e-06	-4.700253e-06	-3.886702e-09	-3.374062e+01	-2.542589e+02
1.110000e-06	-4.645085e-06	-3.867931e-09	-3.334460e+01	-2.533376e+02
1.120000e-06	-4.589648e-06	-3.851047e-09	-3.294666e+01	-2.523897e+02
1.130000e-06	-4.533930e-06	-3.837492e-09	-3.254668e+01	-2.514142e+02
1.140000e-06	-4.477913e-06	-3.821662e-09	-3.214457e+01	-2.504104e+02
1.150000e-06	-4.421624e-06	-3.801607e-09	-3.174050e+01	-2.493782e+02
1.160000e-06	-4.365057e-06	-3.783109e-09	-3.133443e+01	-2.483176e+02
1.170000e-06	-4.308252e-06	-3.767991e-09	-3.092666e+01	-2.472289e+02
1.180000e-06	-4.251198e-06	-3.756393e-09	-3.051710e+01	-2.461131e+02
1.190000e-06	-4.193771e-06	-3.741899e-09	-3.010486e+01	-2.449711e+02
1.200000e-06	-4.135884e-06	-3.722698e-09	-2.968932e+01	-2.438041e+02
1.210000e-06	-4.077520e-06	-3.700773e-09	-2.927036e+01	-2.426136e+02
1.220000e-06	-4.018758e-06	-3.684497e-09	-2.884854e+01	-2.414010e+02
1.230000e-06	-3.959698e-06	-3.669257e-09	-2.842457e+01	-2.401680e+02
1.240000e-06	-3.900284e-06	-3.646092e-09	-2.799807e+01	-2.389159e+02
1.250000e-06	-3.840482e-06	-3.617658e-09	-2.756879e+01	-2.376461e+02
1.260000e-06	-3.780417e-06	-3.595077e-09	-2.713761e+01	-2.363597e+02
1.270000e-06	-3.720211e-06	-3.576286e-09	-2.670542e+01	-2.350576e+02
1.280000e-06	-3.659864e-06	-3.557751e-09	-2.627222e+01	-2.337403e+02
1.290000e-06	-3.599354e-06	-3.541651e-09	-2.583785e+01	-2.324078e+02
1.300000e-06	-3.538677e-06	-3.529289e-09	-2.540229e+01	-2.310600e+02
1.310000e-06	-3.477744e-06	-3.512428e-09	-2.496488e+01	-2.296960e+02
1.320000e-06	-3.416537e-06	-3.490431e-09	-2.452551e+01	-2.283146e+02
1.330000e-06	-3.355124e-06	-3.464531e-09	-2.408466e+01	-2.269142e+02
1.340000e-06	-3.293401e-06	-3.436395e-09	-2.364158e+01	-2.254926e+02
1.350000e-06	-3.231348e-06	-3.407845e-09	-2.319614e+01	-2.240475e+02
1.360000e-06	-3.169175e-06	-3.382445e-09	-2.274983e+01	-2.225759e+02
1.370000e-06	-3.106898e-06	-3.356782e-09	-2.230278e+01	-2.210749e+02
1.380000e-06	-3.044354e-06	-3.328082e-09	-2.185381e+01	-2.195411e+02
1.390000e-06	-2.981598e-06	-3.306753e-09	-2.140331e+01	-2.179712e+02
1.400000e-06	-2.918683e-06	-3.287043e-09	-2.095168e+01	-2.163619e+02
1.410000e-06	-2.855625e-06	-3.261290e-09	-2.049902e+01	-2.147098e+02
1.420000e-06	-2.792375e-06	-3.230648e-09	-2.004498e+01	-2.130120e+02
1.430000e-06	-2.728904e-06	-3.203164e-09	-1.958936e+01	-2.112654e+02
1.440000e-06	-2.665348e-06	-3.178601e-09	-1.913312e+01	-2.094677e+02
1.450000e-06	-2.601613e-06	-3.151651e-09	-1.867560e+01	-2.076168e+02
1.460000e-06	-2.537627e-06	-3.120947e-09	-1.821628e+01	-2.057108e+02
1.470000e-06	-2.473491e-06	-3.089057e-09	-1.775588e+01	-2.037488e+02
1.480000e-06	-2.409183e-06	-3.059378e-09	-1.729425e+01	-2.017299e+02
1.490000e-06	-2.344611e-06	-3.031034e-09	-1.683072e+01	-1.996538e+02
1.500000e-06	-2.279879e-06	-2.999629e-09	-1.636604e+01	-1.975209e+02
1.510000e-06	-2.215003e-06	-2.966396e-09	-1.590033e+01	-1.953316e+02
1.520000e-06	-2.149950e-06	-2.934705e-09	-1.543335e+01	-1.930867e+02
1.530000e-06	-2.084750e-06	-2.900924e-09	-1.496532e+01	-1.907872e+02
1.540000e-06	-2.019376e-06	-2.864982e-09	-1.449603e+01	-1.884341e+02
1.550000e-06	-1.953811e-06	-2.828082e-09	-1.402537e+01	-1.860284e+02
1.560000e-06	-1.888087e-06	-2.787439e-09	-1.355358e+01	-1.835707e+02
1.570000e-06	-1.822265e-06	-2.747003e-09	-1.308108e+01	-1.810613e+02
1.580000e-06	-1.756329e-06	-2.707054e-09	-1.260775e+01	-1.785000e+02
1.590000e-06	-1.690315e-06	-2.669185e-09	-1.213387e+01	-1.758856e+02
1.600000e-06	-1.624133e-06	-2.632665e-09	-1.165879e+01	-1.732161e+02
1.610000e-06	-1.557769e-06	-2.593399e-09	-1.118240e+01	-1.704888e+02
1.620000e-06	-1.491315e-06	-2.549969e-09	-1.070536e+01	-1.676993e+02
1.630000e-06	-1.424731e-06	-2.504688e-09	-1.022739e+01	-1.648423e+02
1.640000e-06	-1.358065e-06	-2.458614e-09	-9.748829e+00	-1.619110e+02
1.650000e-06	-1.291273e-06	-2.411971e-09	-9.269363e+00	-1.588975e+02
1.660000e-06	-1.224257e-06	-2.364539e-09	-8.788294e+00	-1.557923e+02
1.670000e-06	-1.157086e-06	-2.313336e-09	-8.306109e+00	-1.525846e+02
1.680000e-06	-1.089828e-06	-2.260055e-09	-7.823298e+00	-1.492625e+02
1.690000e-06	-1.022496e-06	-2.202510e-09	-7.339955e+00	-1.458129e+02
1.700000e-06	-9.550268e-07	-2.140689e-09	-6.855632e+00	-1.422217e+02
1.710000e-06	-8.875323e-07	-2.077324e-09	-6.371124e+00	-1.384742e+02
1.720000e-06	-8.200436e-07	-2.013530e-09	-5.886659e+00	-1.345550e+02
1.730000e-06	-7.524726e-07	-1.951626e-09	-5.401602e+00	-1.304488e+02
1.740000e-06	-6.848986e-07	-1.887239e-09	-4.916524e+00	-1.261401e+02
1.750000e-06	-6.173202e-07	-1.816944e-09	-4.431415e+00	-1.216139e+02
1.760000e-06	-5.497199e-07	-1.741852e-09	-3.946148e+00	-1.168559e+02
1.770000e-06	-4.820134e-07	-1.663289e-09	-3.460119e+00	-1.118529e+02
1.780000e-06	-4.141609e-07	-1.581811e-09	-2.973041e+00	-1.065932e+02
1.790000e-06	-3.462274e-07	-1.493242e-09	-2.485383e+00	-1.010669e+02
1.800000e-06	-2.783233e-07	-1.402687e-09	-1.997935e+00	-9.526601e+01
1.810000e-06	-2.104134e-07	-1.314776e-09	-1.510447e+00	-8.918513e+01
1.820000e-06	-1.424665e-07	-1.224124e-09	-1.022691e+00	-8.282145e+01
1.830000e-06	-7.461961e-08	-1.129541e-09	-5.356547e-01	-7.617507e+01
1.840000e-06	-6.773153e-09	-1.030799e-09	-4.862088e-02	-6.924915e+01
1.850000e-06	6.105306e-08	-9.288748e-10	4.382676e-01	-6.205005e+01
1.860000e-06	1.288219e-07	-8.203255e-10	9.247444e-01	-5.458740e+01
1.870000e-06	1.965973e-07	-7.014912e-10	1.411268e+00	-4.687413e+01
1.880000e-06	2.643099e-07	-5.764189e-10	1.897341e+00	-3.892640e+01
1.890000e-06	3.320118e-07	-4.511167e-10	2.383337e+00	-3.076347e+01
1.900000e-06	3.997884e-07	-3.239352e-10	2.869869e+00	-2.240758e+01
1.910000e-06	4.675783e-07	-1.945577e-10	3.356497e+00	-1.388367e+01
1.920000e-06	5.353081e-07	-6.700460e-11	3.842693e+00	-5.219134e+00
1.930000e-06	6.029360e-07	6.330332e-11	4.328158e+00	3.556563e+00
1.940000e-06	6.705489e-07	1.986517e-10	4.813515e+00	1.241223e+01
1.950000e-06	7.382340e-07	3.346987e-10	5.299391e+00	2.131539e+01
1.960000e-06	8.059162e-07	4.710069e-10	5.785246e+00	3.023270e+01
1.970000e-06	8.734249e-07	6.092875e-10	6.269855e+00	3.913044e+01
1.980000e-06	9.407476e-07	7.498660e-10	6.753129e+00	4.797499e+01
1.990000e-06	1.008030e-06	8.892680e-10	7.236112e+00	5.673329e+01
2.000000e-06	1.075226e-06	1.025529e-09	7.718477e+00	6.537332e+01
2.010000e-06	1.142288e-06	1.155673e-09	8.199881e+00	7.386451e+01
2.020000e-06	1.209268e-06	1.278661e-09	8.680692e+00	8.217824e+01
2.030000e-06	1.276206e-06	1.397162e-09	9.161207e+00	9.028811e+01
2.040000e-06	1.343087e-06	1.512973e-09	9.641308e+00	9.817038e+01
2.050000e-06	1.409805e-06	1.625318e-09	1.012024e+01	1.058042e+02
2.060000e-06	1.476387e-06	1.732669e-09	1.059820e+01	1.131718e+02
2.070000e-06	1.542855e-06	1.836973e-09	1.107534e+01	1.202588e+02
2.080000e-06	1.609174e-06	1.936106e-09	1.155140e+01	1.270542e+02
2.090000e-06	1.675375e-06	2.030390e-09	1.202663e+01	1.335503e+02
2.100000e-06	1.741444e-06	2.120831e-09	1.250091e+01	1.397430e+02
2.110000e-06	1.807365e-06	2.206390e-09	1.297412e+01	1.456315e+02
2.120000e-06	1.873083e-06	2.287500e-09	1.344587e+01	1.512181e+02
2.130000e-06	1.938574e-06	2.363558e-09	1.391599e+01	1.565081e+02
2.140000e-06	2.003854e-06	2.434456e-09	1.438461e+01	1.615097e+02
2.150000e-06	2.068986e-06	2.503338e-09	1.485216e+01	1.662334e+02
2.160000e-06	2.133936e-06	2.570466e-09	1.531840e+01	1.706918e+02
2.170000e-06	2.198695e-06	2.632894e-09	1.578327e+01	1.748993e+02
2.180000e-06	2.263378e-06	2.690921e-09	1.624759e+01	1.788717e+02
2.190000e-06	2.327924e-06	2.746685e-09	1.671093e+01	1.826260e+02
2.200000e-06	2.392297e-06	2.800192e-09	1.717303e+01	1.861796e+02
2.210000e-06	2.456490e-06	2.849701e-09	1.763384e+01	1.895502e+02
2.220000e-06	2.520478e-06	2.895850e-09	1.809318e+01	1.927555e+02
2.230000e-06	2.584314e-06	2.940383e-09	1.855142e+01	1.958127e+02
2.240000e-06	2.647985e-06	2.984296e-09	1.900848e+01	1.987384e+02
2.250000e-06	2.711485e-06	3.026751e-09	1.946431e+01	2.015482e+02
2.260000e-06	2.774824e-06	3.065404e-09	1.991899e+01	2.042565e+02
2.270000e-06	2.837954e-06	3.101995e-09	2.037217e+01	2.068760e+02
2.280000e-06	2.900851e-06	3.140496e-09	2.082367e+01	2.094185e+02
2.290000e-06	2.963607e-06	3.179191e-09	2.127416e+01	2.118936e+02
2.300000e-06	3.026189e-06	3.213237e-09	2.172341e+01	2.143097e+02
2.310000e-06	3.088550e-06	3.246059e-09	2.217106e+01	2.166732e+02
2.320000e-06	3.150716e-06	3.281843e-09	2.261732e+01	2.189893e+02
2.330000e-06	3.212786e-06	3.317242e-09	2.306289e+01	2.212613e+02
2.340000e-06	3.274601e-06	3.347625e-09	2.350663e+01	2.234915e+02
2.350000e-06	3.336079e-06	3.376825e-09	2.394795e+01	2.256807e+02
2.360000e-06	3.397404e-06	3.407802e-09	2.438817e+01	2.278286e+02
2.370000e-06	3.458518e-06	3.438130e-09	2.482687e+01	2.299344e+02
2.380000e-06	3.519373e-06	3.466441e-09	2.526372e+01	2.319962e+02
2.390000e-06	3.580025e-06	3.492336e-09	2.569910e+01	2.340120e+02
2.400000e-06	3.640428e-06	3.517283e-09	2.613271e+01	2.359792e+02
2.410000e-06	3.700601e-06	3.542440e-09	2.656466e+01	2.378953e+02
2.420000e-06	3.760650e-06	3.568181e-09	2.699571e+01	2.397580e+02
2.430000e-06	3.820494e-06	3.591480e-09	2.742530e+01	2.415652e+02
2.440000e-06	3.880008e-06	3.613077e-09	2.785252e+01	2.433150e+02
2.450000e-06	3.939153e-06	3.634218e-09	2.827710e+01	2.450063e+02
2.460000e-06	3.997980e-06	3.656210e-09	2.869938e+01	2.466385e+02
2.470000e-06	4.056536e-06	3.678622e-09	2.911972e+01	2.482117e+02
2.480000e-06	4.114850e-06	3.700326e-09	2.953833e+01	2.497265e+02
2.490000e-06	4.172823e-06	3.722058e-09	2.995449e+01	2.511845e+02
2.500000e-06	4.230408e-06	3.741405e-09	3.036786e+01	2.525877e+02
2.510000e-06	4.287614e-06	3.761212e-09	3.077851e+01	2.539388e+02
2.520000e-06	4.344429e-06	3.781093e-09	3.118635e+01	2.552411e+02
2.530000e-06	4.400896e-06	3.799822e-09	3.159170e+01	2.564982e+02
2.540000e-06	4.457008e-06	3.817386e-09	3.199450e+01	2.577142e+02
2.550000e-06	4.512752e-06	3.834546e-09	3.239466e+01	2.588933e+02
2.560000e-06	4.568186e-06	3.852507e-09	3.279259e+01	2.600398e+02
2.570000e-06	4.623347e-06	3.871589e-09	3.318856e+01	2.611581e+02
2.580000e-06	4.678229e-06	3.890671e-09	3.358253e+01	2.622522e+02
2.590000e-06	4.732862e-06	3.906441e-09	3.397471e+01	2.633261e+02
2.600000e-06	4.787201e-06	3.921294e-09	3.436478e+01	2.643834e+02
2.610000e-06	4.841217e-06	3.937255e-09	3.475253e+01	2.654271e+02
2.620000e-06	4.894893e-06	3.954859e-09	3.513784e+01	2.664599e+02
2.630000e-06	4.948205e-06	3.973516e-09	3.552054e+01	2.674837e+02
2.640000e-06	5.001224e-06	3.988748e-09	3.590114e+01	2.685000e+02
2.650000e-06	5.053875e-06	4.002828e-09	3.627909e+01	2.695096e+02
2.660000e-06	5.106044e-06	4.018526e-09	3.665358e+01	2.705128e+02
2.670000e-06	5.157768e-06	4.031357e-09	3.702489e+01	2.715093e+02
2.680000e-06	5.209044e-06	4.041193e-09	3.739297e+01	2.724981e+02
2.690000e-06	5.259861e-06	4.053153e-09	3.775775e+01	2.734781e+02
2.700000e-06	5.310156e-06	4.067982e-09	3.811880e+01	2.744476e+02
2.710000e-06	5.359887e-06	4.081913e-09	3.847579e+01	2.754047e+02
2.720000e-06	5.409146e-06	4.095210e-09	3.882939e+01	2.763471e+02
2.730000e-06	5.457985e-06	4.110074e-09	3.917999e+01	2.772728e+02
2.740000e-06	5.506391e-06	4.125171e-09	3.952747e+01	2.781794e+02
2.750000e-06	5.554301e-06	4.136895e-09	3.987138e+01	2.790650e+02
2.760000e-06	5.601751e-06	4.147264e-09	4.021200e+01	2.799276e+02
2.770000e-06	5.648867e-06	4.159079e-09	4.055022e+01	2.807655e+02
2.780000e-06	5.695682e-06	4.172559e-09	4.088628e+01	2.815774e+02
2.790000e-06	5.742108e-06	4.185274e-09	4.121955e+01	2.823625e+02
2.800000e-06	5.788076e-06	4.196251e-09	4.154953e+01	2.831203e+02
2.810000e-06	5.833655e-06	4.207392e-09	4.187672e+01	2.838507e+02
2.820000e-06	5.878820e-06	4.219956e-09	4.220094e+01	2.845542e+02
2.830000e-06	5.923545e-06	4.231749e-09	4.252199e+01	2.852317e+02
2.840000e-06	5.967905e-06	4.241144e-09	4.284043e+01	2.858845e+02
2.850000e-06	6.012017e-06	4.251749e-09	4.315709e+01	2.865142e+02
2.860000e-06	6.055826e-06	4.262487e-09	4.347157e+01	2.871228e+02
2.870000e-06	6.099166e-06	4.272421e-09	4.378268e+01	2.877125e+02
2.880000e-06	6.142071e-06	4.282856e-09	4.409067e+01	2.882859e+02
2.890000e-06	6.184610e-06	4.294044e-09	4.439604e+01	2.888453e+02
2.900000e-06	6.226621e-06	4.305112e-09	4.469761e+01	2.893933e+02
