# Temperatura_=_20.0
# Concentracion g/m^3_=_9000.0
# C_Vs_to_Am_M_A/Vsm_=_65563218390.804596
# pendiente_HvsI_1/m_=_3716.3
# ordenada_HvsI_A/m_=_1297.0
# frecuencia_Hz_=_135465.0291081542

Tiempo_(s)	Campo_(V.s)	Magnetizacion_(V.s)	Campo_(kA/m)	Magnetizacion_(A/m)
0.000000e+00	-7.951718e-06	-4.540901e-09	-5.693289e+01	-3.040551e+02
1.000000e-08	-7.952069e-06	-4.537797e-09	-5.693540e+01	-3.042781e+02
2.000000e-08	-7.952058e-06	-4.534641e-09	-5.693532e+01	-3.044963e+02
3.000000e-08	-7.951410e-06	-4.535614e-09	-5.693068e+01	-3.047000e+02
4.000000e-08	-7.950002e-06	-4.538425e-09	-5.692060e+01	-3.048790e+02
5.000000e-08	-7.947719e-06	-4.536586e-09	-5.690426e+01	-3.050228e+02
6.000000e-08	-7.944715e-06	-4.533001e-09	-5.688275e+01	-3.051207e+02
7.000000e-08	-7.941288e-06	-4.527733e-09	-5.685821e+01	-3.051625e+02
8.000000e-08	-7.937549e-06	-4.513532e-09	-5.683144e+01	-3.051382e+02
9.000000e-08	-7.933414e-06	-4.489256e-09	-5.680183e+01	-3.050390e+02
1.000000e-07	-7.928606e-06	-4.514923e-09	-5.676741e+01	-3.048566e+02
1.100000e-07	-7.922976e-06	-4.612363e-09	-5.672710e+01	-3.045845e+02
1.200000e-07	-7.916455e-06	-4.663320e-09	-5.668041e+01	-3.042172e+02
1.300000e-07	-7.909194e-06	-4.541886e-09	-5.662842e+01	-3.037512e+02
1.400000e-07	-7.901644e-06	-4.296683e-09	-5.657437e+01	-3.031844e+02
1.500000e-07	-7.894000e-06	-4.378300e-09	-5.651964e+01	-3.025167e+02
1.600000e-07	-7.885986e-06	-4.708615e-09	-5.646226e+01	-3.017500e+02
1.700000e-07	-7.877313e-06	-4.684383e-09	-5.640016e+01	-3.008880e+02
1.800000e-07	-7.867905e-06	-4.392379e-09	-5.633280e+01	-2.999361e+02
1.900000e-07	-7.857644e-06	-4.360601e-09	-5.625933e+01	-2.989016e+02
2.000000e-07	-7.846551e-06	-4.545965e-09	-5.617991e+01	-2.977933e+02
2.100000e-07	-7.834982e-06	-4.709313e-09	-5.609708e+01	-2.966214e+02
2.200000e-07	-7.823070e-06	-4.669647e-09	-5.601179e+01	-2.953975e+02
2.300000e-07	-7.810414e-06	-4.422625e-09	-5.592118e+01	-2.941340e+02
2.400000e-07	-7.796990e-06	-4.289280e-09	-5.582506e+01	-2.928438e+02
2.500000e-07	-7.783231e-06	-4.571819e-09	-5.572655e+01	-2.915407e+02
2.600000e-07	-7.768770e-06	-4.699829e-09	-5.562301e+01	-2.902382e+02
2.700000e-07	-7.753064e-06	-4.339936e-09	-5.551056e+01	-2.889497e+02
2.800000e-07	-7.736534e-06	-4.146558e-09	-5.539221e+01	-2.876882e+02
2.900000e-07	-7.719641e-06	-4.437439e-09	-5.527126e+01	-2.864660e+02
3.000000e-07	-7.702341e-06	-4.532408e-09	-5.514739e+01	-2.852943e+02
3.100000e-07	-7.684535e-06	-4.258818e-09	-5.501990e+01	-2.841831e+02
3.200000e-07	-7.666296e-06	-4.210732e-09	-5.488932e+01	-2.831410e+02
3.300000e-07	-7.647527e-06	-4.397080e-09	-5.475493e+01	-2.821750e+02
3.400000e-07	-7.628161e-06	-4.419913e-09	-5.461628e+01	-2.812903e+02
3.500000e-07	-7.608475e-06	-4.381197e-09	-5.447533e+01	-2.804905e+02
3.600000e-07	-7.588473e-06	-4.381750e-09	-5.433212e+01	-2.797774e+02
3.700000e-07	-7.567901e-06	-4.210539e-09	-5.418482e+01	-2.791507e+02
3.800000e-07	-7.546751e-06	-4.268270e-09	-5.403339e+01	-2.786087e+02
3.900000e-07	-7.525166e-06	-4.500610e-09	-5.387885e+01	-2.781479e+02
4.000000e-07	-7.503043e-06	-4.405042e-09	-5.372046e+01	-2.777634e+02
4.100000e-07	-7.480304e-06	-4.151421e-09	-5.355764e+01	-2.774488e+02
4.200000e-07	-7.457041e-06	-4.268899e-09	-5.339109e+01	-2.771967e+02
4.300000e-07	-7.433375e-06	-4.483647e-09	-5.322164e+01	-2.769987e+02
4.400000e-07	-7.409265e-06	-4.395798e-09	-5.304902e+01	-2.768457e+02
4.500000e-07	-7.384417e-06	-4.176976e-09	-5.287111e+01	-2.767284e+02
4.600000e-07	-7.358796e-06	-4.231540e-09	-5.268767e+01	-2.766369e+02
4.700000e-07	-7.332587e-06	-4.411087e-09	-5.250002e+01	-2.765617e+02
4.800000e-07	-7.305747e-06	-4.369696e-09	-5.230785e+01	-2.764933e+02
4.900000e-07	-7.278360e-06	-4.198603e-09	-5.211176e+01	-2.764231e+02
5.000000e-07	-7.250673e-06	-4.225220e-09	-5.191353e+01	-2.763427e+02
5.100000e-07	-7.222634e-06	-4.324886e-09	-5.171278e+01	-2.762448e+02
5.200000e-07	-7.194017e-06	-4.309994e-09	-5.150788e+01	-2.761232e+02
5.300000e-07	-7.164834e-06	-4.259130e-09	-5.129894e+01	-2.759726e+02
5.400000e-07	-7.135157e-06	-4.229266e-09	-5.108645e+01	-2.757889e+02
5.500000e-07	-7.104993e-06	-4.230007e-09	-5.087048e+01	-2.755693e+02
5.600000e-07	-7.074383e-06	-4.287600e-09	-5.065133e+01	-2.753120e+02
5.700000e-07	-7.043299e-06	-4.300253e-09	-5.042877e+01	-2.750165e+02
5.800000e-07	-7.011787e-06	-4.203002e-09	-5.020315e+01	-2.746835e+02
5.900000e-07	-6.979913e-06	-4.170699e-09	-4.997494e+01	-2.743143e+02
6.000000e-07	-6.947656e-06	-4.249105e-09	-4.974398e+01	-2.739115e+02
6.100000e-07	-6.914799e-06	-4.276445e-09	-4.950873e+01	-2.734783e+02
6.200000e-07	-6.881081e-06	-4.194239e-09	-4.926731e+01	-2.730183e+02
6.300000e-07	-6.846552e-06	-4.153697e-09	-4.902009e+01	-2.725357e+02
6.400000e-07	-6.811527e-06	-4.203869e-09	-4.876932e+01	-2.720349e+02
6.500000e-07	-6.776154e-06	-4.244230e-09	-4.851606e+01	-2.715205e+02
6.600000e-07	-6.740410e-06	-4.185452e-09	-4.826013e+01	-2.709968e+02
6.700000e-07	-6.704309e-06	-4.131775e-09	-4.800166e+01	-2.704681e+02
6.800000e-07	-6.667744e-06	-4.157402e-09	-4.773986e+01	-2.699381e+02
6.900000e-07	-6.630649e-06	-4.191444e-09	-4.747427e+01	-2.694103e+02
7.000000e-07	-6.593054e-06	-4.147545e-09	-4.720509e+01	-2.688875e+02
7.100000e-07	-6.554946e-06	-4.113521e-09	-4.693224e+01	-2.683718e+02
7.200000e-07	-6.516374e-06	-4.121059e-09	-4.665608e+01	-2.678648e+02
7.300000e-07	-6.477401e-06	-4.130111e-09	-4.637704e+01	-2.673672e+02
7.400000e-07	-6.438119e-06	-4.120375e-09	-4.609579e+01	-2.668791e+02
7.500000e-07	-6.398565e-06	-4.102816e-09	-4.581259e+01	-2.664000e+02
7.600000e-07	-6.358603e-06	-4.073813e-09	-4.552646e+01	-2.659287e+02
7.700000e-07	-6.318140e-06	-4.075426e-09	-4.523676e+01	-2.654634e+02
7.800000e-07	-6.277184e-06	-4.099703e-09	-4.494352e+01	-2.650021e+02
7.900000e-07	-6.235582e-06	-4.078794e-09	-4.464566e+01	-2.645421e+02
8.000000e-07	-6.193240e-06	-4.031494e-09	-4.434250e+01	-2.640806e+02
8.100000e-07	-6.150254e-06	-4.039116e-09	-4.403473e+01	-2.636148e+02
8.200000e-07	-6.106820e-06	-4.071210e-09	-4.372374e+01	-2.631416e+02
8.300000e-07	-6.063051e-06	-4.052413e-09	-4.341037e+01	-2.626581e+02
8.400000e-07	-6.018931e-06	-4.009102e-09	-4.309448e+01	-2.621616e+02
8.500000e-07	-5.974423e-06	-4.001233e-09	-4.277581e+01	-2.616497e+02
8.600000e-07	-5.929461e-06	-4.022523e-09	-4.245389e+01	-2.611201e+02
8.700000e-07	-5.884094e-06	-4.017413e-09	-4.212907e+01	-2.605712e+02
8.800000e-07	-5.838331e-06	-3.983763e-09	-4.180141e+01	-2.600017e+02
8.900000e-07	-5.792232e-06	-3.957949e-09	-4.147135e+01	-2.594108e+02
9.000000e-07	-5.745791e-06	-3.964480e-09	-4.113884e+01	-2.587981e+02
9.100000e-07	-5.698946e-06	-3.967182e-09	-4.080344e+01	-2.581638e+02
9.200000e-07	-5.651731e-06	-3.947574e-09	-4.046539e+01	-2.575084e+02
9.300000e-07	-5.604067e-06	-3.919007e-09	-4.012412e+01	-2.568330e+02
9.400000e-07	-5.555940e-06	-3.909423e-09	-3.977954e+01	-2.561387e+02
9.500000e-07	-5.507368e-06	-3.911707e-09	-3.943178e+01	-2.554272e+02
9.600000e-07	-5.458190e-06	-3.907248e-09	-3.907967e+01	-2.547002e+02
9.700000e-07	-5.408361e-06	-3.881190e-09	-3.872291e+01	-2.539597e+02
9.800000e-07	-5.357906e-06	-3.857615e-09	-3.836166e+01	-2.532074e+02
9.900000e-07	-5.306868e-06	-3.855229e-09	-3.799623e+01	-2.524453e+02
1.000000e-06	-5.255363e-06	-3.857761e-09	-3.762746e+01	-2.516751e+02
1.010000e-06	-5.203447e-06	-3.836906e-09	-3.725576e+01	-2.508984e+02
1.020000e-06	-5.151223e-06	-3.810986e-09	-3.688184e+01	-2.501162e+02
1.030000e-06	-5.098698e-06	-3.803525e-09	-3.650577e+01	-2.493296e+02
1.040000e-06	-5.045831e-06	-3.803874e-09	-3.612725e+01	-2.485392e+02
1.050000e-06	-4.992660e-06	-3.788484e-09	-3.574655e+01	-2.477452e+02
1.060000e-06	-4.939089e-06	-3.767113e-09	-3.536300e+01	-2.469473e+02
1.070000e-06	-4.885100e-06	-3.754384e-09	-3.497645e+01	-2.461450e+02
1.080000e-06	-4.830795e-06	-3.748949e-09	-3.458763e+01	-2.453375e+02
1.090000e-06	-4.776205e-06	-3.738418e-09	-3.419678e+01	-2.445234e+02
1.100000e-06	-4.721344e-06	-3.717656e-09	-3.380398e+01	-2.437012e+02
1.110000e-06	-4.666177e-06	-3.698600e-09	-3.340900e+01	-2.428692e+02
1.120000e-06	-4.610675e-06	-3.685682e-09	-3.301161e+01	-2.420254e+02
1.130000e-06	-4.554875e-06	-3.676460e-09	-3.261210e+01	-2.411678e+02
1.140000e-06	-4.498878e-06	-3.660719e-09	-3.221117e+01	-2.402944e+02
1.150000e-06	-4.442584e-06	-3.641047e-09	-3.180811e+01	-2.394030e+02
1.160000e-06	-4.385946e-06	-3.625098e-09	-3.140259e+01	-2.384917e+02
1.170000e-06	-4.328957e-06	-3.614119e-09	-3.099456e+01	-2.375586e+02
1.180000e-06	-4.271546e-06	-3.599034e-09	-3.058351e+01	-2.366022e+02
1.190000e-06	-4.213775e-06	-3.580972e-09	-3.016988e+01	-2.356210e+02
1.200000e-06	-4.155674e-06	-3.561838e-09	-2.975389e+01	-2.346138e+02
1.210000e-06	-4.097174e-06	-3.546680e-09	-2.933504e+01	-2.335797e+02
1.220000e-06	-4.038246e-06	-3.529902e-09	-2.891313e+01	-2.325181e+02
1.230000e-06	-3.978970e-06	-3.512725e-09	-2.848872e+01	-2.314285e+02
1.240000e-06	-3.919368e-06	-3.494735e-09	-2.806198e+01	-2.303109e+02
1.250000e-06	-3.859441e-06	-3.476935e-09	-2.763291e+01	-2.291652e+02
1.260000e-06	-3.799320e-06	-3.456862e-09	-2.720246e+01	-2.279916e+02
1.270000e-06	-3.739111e-06	-3.437918e-09	-2.677137e+01	-2.267905e+02
1.280000e-06	-3.678706e-06	-3.419920e-09	-2.633888e+01	-2.255621e+02
1.290000e-06	-3.618038e-06	-3.402667e-09	-2.590451e+01	-2.243069e+02
1.300000e-06	-3.557184e-06	-3.384568e-09	-2.546880e+01	-2.230250e+02
1.310000e-06	-3.496118e-06	-3.365777e-09	-2.503158e+01	-2.217168e+02
1.320000e-06	-3.434812e-06	-3.343249e-09	-2.459264e+01	-2.203821e+02
1.330000e-06	-3.373251e-06	-3.318332e-09	-2.415188e+01	-2.190208e+02
1.340000e-06	-3.311459e-06	-3.295315e-09	-2.370946e+01	-2.176325e+02
1.350000e-06	-3.249479e-06	-3.271335e-09	-2.326569e+01	-2.162165e+02
1.360000e-06	-3.187276e-06	-3.247024e-09	-2.282033e+01	-2.147719e+02
1.370000e-06	-3.124868e-06	-3.220724e-09	-2.237350e+01	-2.132974e+02
1.380000e-06	-3.062235e-06	-3.195681e-09	-2.192506e+01	-2.117916e+02
1.390000e-06	-2.999329e-06	-3.172193e-09	-2.147466e+01	-2.102529e+02
1.400000e-06	-2.936290e-06	-3.149287e-09	-2.102332e+01	-2.086794e+02
1.410000e-06	-2.873110e-06	-3.123289e-09	-2.057096e+01	-2.070691e+02
1.420000e-06	-2.809732e-06	-3.095396e-09	-2.011718e+01	-2.054199e+02
1.430000e-06	-2.746181e-06	-3.067175e-09	-1.966216e+01	-2.037297e+02
1.440000e-06	-2.682445e-06	-3.039236e-09	-1.920583e+01	-2.019965e+02
1.450000e-06	-2.618579e-06	-3.011361e-09	-1.874856e+01	-2.002184e+02
1.460000e-06	-2.554585e-06	-2.985897e-09	-1.829037e+01	-1.983934e+02
1.470000e-06	-2.490401e-06	-2.958989e-09	-1.783083e+01	-1.965198e+02
1.480000e-06	-2.425979e-06	-2.929815e-09	-1.736958e+01	-1.945963e+02
1.490000e-06	-2.361308e-06	-2.898881e-09	-1.690654e+01	-1.926216e+02
1.500000e-06	-2.296387e-06	-2.869317e-09	-1.644172e+01	-1.905948e+02
1.510000e-06	-2.231291e-06	-2.838127e-09	-1.597565e+01	-1.885150e+02
1.520000e-06	-2.166097e-06	-2.805332e-09	-1.550887e+01	-1.863818e+02
1.530000e-06	-2.100769e-06	-2.771386e-09	-1.504114e+01	-1.841946e+02
1.540000e-06	-2.035183e-06	-2.737246e-09	-1.457155e+01	-1.819531e+02
1.550000e-06	-1.969369e-06	-2.702998e-09	-1.410033e+01	-1.796568e+02
1.560000e-06	-1.903462e-06	-2.667674e-09	-1.362845e+01	-1.773054e+02
1.570000e-06	-1.837426e-06	-2.631920e-09	-1.315564e+01	-1.748980e+02
1.580000e-06	-1.771312e-06	-2.593022e-09	-1.268228e+01	-1.724335e+02
1.590000e-06	-1.705108e-06	-2.555281e-09	-1.220827e+01	-1.699103e+02
1.600000e-06	-1.638694e-06	-2.521229e-09	-1.173276e+01	-1.673262e+02
1.610000e-06	-1.572099e-06	-2.485418e-09	-1.125595e+01	-1.646780e+02
1.620000e-06	-1.505432e-06	-2.443299e-09	-1.077863e+01	-1.619620e+02
1.630000e-06	-1.438687e-06	-2.399479e-09	-1.030075e+01	-1.591733e+02
1.640000e-06	-1.371723e-06	-2.356750e-09	-9.821291e+00	-1.563060e+02
1.650000e-06	-1.304559e-06	-2.312103e-09	-9.340409e+00	-1.533528e+02
1.660000e-06	-1.237268e-06	-2.264199e-09	-8.858617e+00	-1.503057e+02
1.670000e-06	-1.169941e-06	-2.214354e-09	-8.376569e+00	-1.471552e+02
1.680000e-06	-1.102596e-06	-2.161196e-09	-7.894391e+00	-1.438908e+02
1.690000e-06	-1.035151e-06	-2.104681e-09	-7.411500e+00	-1.405008e+02
1.700000e-06	-9.675846e-07	-2.048763e-09	-6.927734e+00	-1.369727e+02
1.710000e-06	-8.999986e-07	-1.992370e-09	-6.443830e+00	-1.332931e+02
1.720000e-06	-8.323820e-07	-1.931808e-09	-5.959707e+00	-1.294480e+02
1.730000e-06	-7.646403e-07	-1.871035e-09	-5.474689e+00	-1.254231e+02
1.740000e-06	-6.968032e-07	-1.810231e-09	-4.988987e+00	-1.212039e+02
1.750000e-06	-6.290106e-07	-1.745154e-09	-4.503604e+00	-1.167760e+02
1.760000e-06	-5.612194e-07	-1.672540e-09	-4.018231e+00	-1.121255e+02
1.770000e-06	-4.933466e-07	-1.595374e-09	-3.532274e+00	-1.072394e+02
1.780000e-06	-4.254642e-07	-1.515897e-09	-3.046248e+00	-1.021058e+02
1.790000e-06	-3.575698e-07	-1.432403e-09	-2.560136e+00	-9.671415e+01
1.800000e-06	-2.896906e-07	-1.344323e-09	-2.074133e+00	-9.105578e+01
1.810000e-06	-2.218120e-07	-1.254443e-09	-1.588134e+00	-8.512416e+01
1.820000e-06	-1.538739e-07	-1.166051e-09	-1.101710e+00	-7.891516e+01
1.830000e-06	-8.593098e-08	-1.075335e-09	-6.152505e-01	-7.242732e+01
1.840000e-06	-1.800806e-08	-9.773493e-10	-1.289345e-01	-6.566208e+01
1.850000e-06	4.990743e-08	-8.746979e-10	3.573283e-01	-5.862399e+01
1.860000e-06	1.177549e-07	-7.669821e-10	8.431038e-01	-5.132077e+01
1.870000e-06	1.856130e-07	-6.530023e-10	1.328956e+00	-4.376345e+01
1.880000e-06	2.535311e-07	-5.323359e-10	1.815237e+00	-3.596630e+01
1.890000e-06	3.213974e-07	-4.069361e-10	2.301148e+00	-2.794685e+01
1.900000e-06	3.893232e-07	-2.800702e-10	2.787485e+00	-1.972572e+01
1.910000e-06	4.573035e-07	-1.525958e-10	3.274212e+00	-1.132645e+01
1.920000e-06	5.251959e-07	-2.482206e-11	3.760309e+00	-2.775260e+00
1.930000e-06	5.930114e-07	1.055236e-10	4.245856e+00	5.899272e+00
1.940000e-06	6.607569e-07	2.393374e-10	4.730902e+00	1.466655e+01
1.950000e-06	7.284348e-07	3.742391e-10	5.215464e+00	2.349436e+01
1.960000e-06	7.960800e-07	5.111769e-10	5.699792e+00	3.234934e+01
1.970000e-06	8.636963e-07	6.517657e-10	6.183912e+00	4.119741e+01
1.980000e-06	9.312140e-07	7.925013e-10	6.667326e+00	5.000429e+01
1.990000e-06	9.986222e-07	9.310466e-10	7.149958e+00	5.873599e+01
2.000000e-06	1.065924e-06	1.064912e-09	7.631827e+00	6.735931e+01
2.010000e-06	1.133195e-06	1.194584e-09	8.113473e+00	7.584232e+01
2.020000e-06	1.200459e-06	1.321792e-09	8.595076e+00	8.415483e+01
2.030000e-06	1.267621e-06	1.444184e-09	9.075942e+00	9.226882e+01
2.040000e-06	1.334657e-06	1.559949e-09	9.555907e+00	1.001588e+02
2.050000e-06	1.401697e-06	1.671447e-09	1.003590e+01	1.078023e+02
2.060000e-06	1.468712e-06	1.779910e-09	1.051571e+01	1.151798e+02
2.070000e-06	1.535518e-06	1.884556e-09	1.099404e+01	1.222754e+02
2.080000e-06	1.602110e-06	1.983423e-09	1.147082e+01	1.290766e+02
2.090000e-06	1.668599e-06	2.076434e-09	1.194687e+01	1.355747e+02
2.100000e-06	1.734957e-06	2.165899e-09	1.242198e+01	1.417643e+02
2.110000e-06	1.801174e-06	2.252166e-09	1.289609e+01	1.476440e+02
2.120000e-06	1.867173e-06	2.332427e-09	1.336862e+01	1.532156e+02
2.130000e-06	1.932992e-06	2.407131e-09	1.383988e+01	1.584842e+02
2.140000e-06	1.998617e-06	2.480337e-09	1.430974e+01	1.634579e+02
2.150000e-06	2.064073e-06	2.551648e-09	1.477840e+01	1.681474e+02
2.160000e-06	2.129411e-06	2.619315e-09	1.524620e+01	1.725661e+02
2.170000e-06	2.194493e-06	2.682696e-09	1.571218e+01	1.767290e+02
2.180000e-06	2.259368e-06	2.741315e-09	1.617667e+01	1.806529e+02
2.190000e-06	2.324054e-06	2.799163e-09	1.663981e+01	1.843557e+02
2.200000e-06	2.388581e-06	2.855689e-09	1.710181e+01	1.878558e+02
2.210000e-06	2.452942e-06	2.905942e-09	1.756263e+01	1.911724e+02
2.220000e-06	2.517100e-06	2.952479e-09	1.802199e+01	1.943242e+02
2.230000e-06	2.581103e-06	2.999684e-09	1.848024e+01	1.973296e+02
2.240000e-06	2.644909e-06	3.045481e-09	1.893708e+01	2.002061e+02
2.250000e-06	2.708434e-06	3.085549e-09	1.939190e+01	2.029702e+02
2.260000e-06	2.771768e-06	3.121044e-09	1.984537e+01	2.056368e+02
2.270000e-06	2.834972e-06	3.154985e-09	2.029789e+01	2.082195e+02
2.280000e-06	2.898075e-06	3.190435e-09	2.074970e+01	2.107300e+02
2.290000e-06	2.960986e-06	3.227314e-09	2.120013e+01	2.131781e+02
2.300000e-06	3.023651e-06	3.262919e-09	2.164880e+01	2.155718e+02
2.310000e-06	3.086193e-06	3.296666e-09	2.209660e+01	2.179173e+02
2.320000e-06	3.148687e-06	3.332234e-09	2.254404e+01	2.202189e+02
2.330000e-06	3.210994e-06	3.368916e-09	2.299015e+01	2.224790e+02
2.340000e-06	3.273004e-06	3.400353e-09	2.343413e+01	2.246989e+02
2.350000e-06	3.334773e-06	3.426330e-09	2.387638e+01	2.268781e+02
2.360000e-06	3.396294e-06	3.452573e-09	2.431686e+01	2.290152e+02
2.370000e-06	3.457607e-06	3.481243e-09	2.475585e+01	2.311078e+02
2.380000e-06	3.518767e-06	3.510161e-09	2.519375e+01	2.331527e+02
2.390000e-06	3.579639e-06	3.537429e-09	2.562958e+01	2.351467e+02
2.400000e-06	3.640168e-06	3.562548e-09	2.606296e+01	2.370859e+02
2.410000e-06	3.700485e-06	3.587436e-09	2.649481e+01	2.389668e+02
2.420000e-06	3.760606e-06	3.612159e-09	2.692527e+01	2.407861e+02
2.430000e-06	3.820499e-06	3.635998e-09	2.735409e+01	2.425410e+02
2.440000e-06	3.880196e-06	3.659373e-09	2.778151e+01	2.442294e+02
2.450000e-06	3.939683e-06	3.681643e-09	2.820743e+01	2.458498e+02
2.460000e-06	3.998886e-06	3.703865e-09	2.863132e+01	2.474018e+02
2.470000e-06	4.057819e-06	3.726157e-09	2.905326e+01	2.488858e+02
2.480000e-06	4.116495e-06	3.747808e-09	2.947337e+01	2.503033e+02
2.490000e-06	4.174819e-06	3.769801e-09	2.989096e+01	2.516565e+02
2.500000e-06	4.232653e-06	3.789912e-09	3.030504e+01	2.529487e+02
2.510000e-06	4.290019e-06	3.809608e-09	3.071578e+01	2.541839e+02
2.520000e-06	4.346986e-06	3.829091e-09	3.112364e+01	2.553669e+02
2.530000e-06	4.403526e-06	3.847776e-09	3.152846e+01	2.565029e+02
2.540000e-06	4.459652e-06	3.864914e-09	3.193032e+01	2.575977e+02
2.550000e-06	4.515482e-06	3.882658e-09	3.233005e+01	2.586571e+02
2.560000e-06	4.571076e-06	3.900568e-09	3.272809e+01	2.596871e+02
2.570000e-06	4.626336e-06	3.919010e-09	3.312375e+01	2.606935e+02
2.580000e-06	4.681341e-06	3.936961e-09	3.351757e+01	2.616818e+02
2.590000e-06	4.736188e-06	3.951990e-09	3.391027e+01	2.626573e+02
2.600000e-06	4.790743e-06	3.967723e-09	3.430087e+01	2.636243e+02
2.610000e-06	4.844986e-06	3.981639e-09	3.468924e+01	2.645867e+02
2.620000e-06	4.898856e-06	3.996939e-09	3.507494e+01	2.655475e+02
2.630000e-06	4.952339e-06	4.013039e-09	3.545787e+01	2.665089e+02
2.640000e-06	5.005521e-06	4.030358e-09	3.583864e+01	2.674722e+02
2.650000e-06	5.058358e-06	4.048087e-09	3.621694e+01	2.684378e+02
2.660000e-06	5.110824e-06	4.065885e-09	3.659259e+01	2.694052e+02
2.670000e-06	5.162890e-06	4.081210e-09	3.696537e+01	2.703731e+02
2.680000e-06	5.214497e-06	4.094612e-09	3.733487e+01	2.713395e+02
2.690000e-06	5.265618e-06	4.107179e-09	3.770089e+01	2.723018e+02
2.700000e-06	5.316261e-06	4.118378e-09	3.806348e+01	2.732568e+02
2.710000e-06	5.366428e-06	4.127918e-09	3.842267e+01	2.742010e+02
2.720000e-06	5.416033e-06	4.139842e-09	3.877783e+01	2.751307e+02
2.730000e-06	5.465040e-06	4.155280e-09	3.912871e+01	2.760422e+02
2.740000e-06	5.513546e-06	4.169544e-09	3.947601e+01	2.769318e+02
2.750000e-06	5.561612e-06	4.181409e-09	3.982016e+01	2.777960e+02
2.760000e-06	5.609316e-06	4.193719e-09	4.016170e+01	2.786317e+02
2.770000e-06	5.656672e-06	4.207149e-09	4.050076e+01	2.794365e+02
2.780000e-06	5.703655e-06	4.220073e-09	4.083715e+01	2.802083e+02
2.790000e-06	5.750243e-06	4.229900e-09	4.117071e+01	2.809458e+02
2.800000e-06	5.796434e-06	4.238388e-09	4.150144e+01	2.816484e+02
2.810000e-06	5.842169e-06	4.248128e-09	4.182889e+01	2.823163e+02
2.820000e-06	5.887484e-06	4.259306e-09	4.215334e+01	2.829504e+02
2.830000e-06	5.932426e-06	4.272876e-09	4.247512e+01	2.835524e+02
2.840000e-06	5.976950e-06	4.284170e-09	4.279390e+01	2.841245e+02
2.850000e-06	6.021100e-06	4.296295e-09	4.311001e+01	2.846696e+02
2.860000e-06	6.064903e-06	4.310772e-09	4.342362e+01	2.851910e+02
2.870000e-06	6.108413e-06	4.325319e-09	4.373515e+01	2.856926e+02
2.880000e-06	6.151717e-06	4.335106e-09	4.404520e+01	2.861782e+02
2.890000e-06	6.194732e-06	4.342842e-09	4.435318e+01	2.866520e+02
2.900000e-06	6.237182e-06	4.352887e-09	4.465711e+01	2.871181e+02
