# Temperatura_=_20.0
# Concentracion g/m^3_=_9000.0
# C_Vs_to_Am_M_A/Vsm_=_65563218390.804596
# pendiente_HvsI_1/m_=_3716.3
# ordenada_HvsI_A/m_=_1297.0
# frecuencia_Hz_=_135468.08419419904

Tiempo_(s)	Campo_(V.s)	Magnetizacion_(V.s)	Campo_(kA/m)	Magnetizacion_(A/m)
0.000000e+00	-7.879022e-06	-4.591479e-09	-5.693155e+01	-3.059213e+02
1.000000e-08	-7.879249e-06	-4.589952e-09	-5.693319e+01	-3.060111e+02
2.000000e-08	-7.879044e-06	-4.589833e-09	-5.693171e+01	-3.060991e+02
3.000000e-08	-7.878292e-06	-4.592255e-09	-5.692627e+01	-3.061819e+02
4.000000e-08	-7.876814e-06	-4.594479e-09	-5.691559e+01	-3.062558e+02
5.000000e-08	-7.874483e-06	-4.594200e-09	-5.689875e+01	-3.063171e+02
6.000000e-08	-7.871479e-06	-4.591955e-09	-5.687704e+01	-3.063620e+02
7.000000e-08	-7.867985e-06	-4.591824e-09	-5.685180e+01	-3.063866e+02
8.000000e-08	-7.864104e-06	-4.591978e-09	-5.682376e+01	-3.063875e+02
9.000000e-08	-7.859754e-06	-4.592733e-09	-5.679232e+01	-3.063613e+02
1.000000e-07	-7.854708e-06	-4.603903e-09	-5.675586e+01	-3.063052e+02
1.100000e-07	-7.848792e-06	-4.618052e-09	-5.671312e+01	-3.062166e+02
1.200000e-07	-7.841996e-06	-4.614786e-09	-5.666401e+01	-3.060935e+02
1.300000e-07	-7.834590e-06	-4.581862e-09	-5.661049e+01	-3.059344e+02
1.400000e-07	-7.826972e-06	-4.561356e-09	-5.655545e+01	-3.057385e+02
1.500000e-07	-7.819221e-06	-4.614239e-09	-5.649944e+01	-3.055054e+02
1.600000e-07	-7.811014e-06	-4.631088e-09	-5.644015e+01	-3.052356e+02
1.700000e-07	-7.802167e-06	-4.587989e-09	-5.637622e+01	-3.049299e+02
1.800000e-07	-7.792662e-06	-4.590904e-09	-5.630753e+01	-3.045899e+02
1.900000e-07	-7.782314e-06	-4.617959e-09	-5.623276e+01	-3.042177e+02
2.000000e-07	-7.771237e-06	-4.634567e-09	-5.615273e+01	-3.038159e+02
2.100000e-07	-7.759728e-06	-4.662198e-09	-5.606957e+01	-3.033874e+02
2.200000e-07	-7.747631e-06	-4.633253e-09	-5.598215e+01	-3.029356e+02
2.300000e-07	-7.734761e-06	-4.572359e-09	-5.588916e+01	-3.024641e+02
2.400000e-07	-7.721349e-06	-4.589870e-09	-5.579225e+01	-3.019766e+02
2.500000e-07	-7.707531e-06	-4.657650e-09	-5.569241e+01	-3.014771e+02
2.600000e-07	-7.692785e-06	-4.604319e-09	-5.558585e+01	-3.009694e+02
2.700000e-07	-7.676933e-06	-4.541932e-09	-5.547131e+01	-3.004573e+02
2.800000e-07	-7.660517e-06	-4.576826e-09	-5.535269e+01	-2.999444e+02
2.900000e-07	-7.643707e-06	-4.601330e-09	-5.523123e+01	-2.994341e+02
3.000000e-07	-7.626376e-06	-4.565455e-09	-5.510600e+01	-2.989292e+02
3.100000e-07	-7.608574e-06	-4.567093e-09	-5.497737e+01	-2.984326e+02
3.200000e-07	-7.590305e-06	-4.561507e-09	-5.484536e+01	-2.979463e+02
3.300000e-07	-7.571462e-06	-4.524489e-09	-5.470921e+01	-2.974723e+02
3.400000e-07	-7.552115e-06	-4.552156e-09	-5.456941e+01	-2.970116e+02
3.500000e-07	-7.532490e-06	-4.589329e-09	-5.442761e+01	-2.965652e+02
3.600000e-07	-7.512444e-06	-4.524850e-09	-5.428276e+01	-2.961334e+02
3.700000e-07	-7.491775e-06	-4.462757e-09	-5.413341e+01	-2.957160e+02
3.800000e-07	-7.470680e-06	-4.542301e-09	-5.398099e+01	-2.953125e+02
3.900000e-07	-7.449153e-06	-4.573434e-09	-5.382544e+01	-2.949220e+02
4.000000e-07	-7.426964e-06	-4.502318e-09	-5.366511e+01	-2.945434e+02
4.100000e-07	-7.404169e-06	-4.483306e-09	-5.350040e+01	-2.941750e+02
4.200000e-07	-7.380987e-06	-4.549901e-09	-5.333289e+01	-2.938153e+02
4.300000e-07	-7.357407e-06	-4.558034e-09	-5.316251e+01	-2.934623e+02
4.400000e-07	-7.333252e-06	-4.520280e-09	-5.298797e+01	-2.931142e+02
4.500000e-07	-7.308412e-06	-4.507354e-09	-5.280848e+01	-2.927691e+02
4.600000e-07	-7.283053e-06	-4.515123e-09	-5.262525e+01	-2.924251e+02
4.700000e-07	-7.257120e-06	-4.506395e-09	-5.243787e+01	-2.920805e+02
4.800000e-07	-7.230403e-06	-4.518268e-09	-5.224481e+01	-2.917336e+02
4.900000e-07	-7.203088e-06	-4.510855e-09	-5.204744e+01	-2.913831e+02
5.000000e-07	-7.175333e-06	-4.474167e-09	-5.184689e+01	-2.910276e+02
5.100000e-07	-7.147208e-06	-4.468741e-09	-5.164367e+01	-2.906663e+02
5.200000e-07	-7.118730e-06	-4.508228e-09	-5.143789e+01	-2.902984e+02
5.300000e-07	-7.089756e-06	-4.501141e-09	-5.122854e+01	-2.899233e+02
5.400000e-07	-7.060195e-06	-4.459515e-09	-5.101494e+01	-2.895408e+02
5.500000e-07	-7.030162e-06	-4.451333e-09	-5.079793e+01	-2.891508e+02
5.600000e-07	-6.999731e-06	-4.471256e-09	-5.057805e+01	-2.887534e+02
5.700000e-07	-6.968825e-06	-4.468613e-09	-5.035472e+01	-2.883488e+02
5.800000e-07	-6.937457e-06	-4.440081e-09	-5.012807e+01	-2.879373e+02
5.900000e-07	-6.905723e-06	-4.420274e-09	-4.989877e+01	-2.875194e+02
6.000000e-07	-6.873627e-06	-4.425751e-09	-4.966685e+01	-2.870956e+02
6.100000e-07	-6.840987e-06	-4.435614e-09	-4.943101e+01	-2.866661e+02
6.200000e-07	-6.807577e-06	-4.425689e-09	-4.918960e+01	-2.862314e+02
6.300000e-07	-6.773413e-06	-4.410492e-09	-4.894274e+01	-2.857919e+02
6.400000e-07	-6.738593e-06	-4.401781e-09	-4.869114e+01	-2.853475e+02
6.500000e-07	-6.703247e-06	-4.403506e-09	-4.843574e+01	-2.848984e+02
6.600000e-07	-6.667559e-06	-4.399087e-09	-4.817787e+01	-2.844445e+02
6.700000e-07	-6.631559e-06	-4.386608e-09	-4.791774e+01	-2.839854e+02
6.800000e-07	-6.595177e-06	-4.365148e-09	-4.765485e+01	-2.835207e+02
6.900000e-07	-6.558224e-06	-4.358169e-09	-4.738784e+01	-2.830499e+02
7.000000e-07	-6.520728e-06	-4.360788e-09	-4.711691e+01	-2.825722e+02
7.100000e-07	-6.482792e-06	-4.356287e-09	-4.684279e+01	-2.820867e+02
7.200000e-07	-6.444329e-06	-4.336329e-09	-4.656487e+01	-2.815927e+02
7.300000e-07	-6.405455e-06	-4.330862e-09	-4.628397e+01	-2.810890e+02
7.400000e-07	-6.366292e-06	-4.331743e-09	-4.600100e+01	-2.805748e+02
7.500000e-07	-6.326783e-06	-4.321437e-09	-4.571551e+01	-2.800490e+02
7.600000e-07	-6.286881e-06	-4.301079e-09	-4.542720e+01	-2.795108e+02
7.700000e-07	-6.246655e-06	-4.292796e-09	-4.513654e+01	-2.789594e+02
7.800000e-07	-6.206068e-06	-4.287181e-09	-4.484326e+01	-2.783941e+02
7.900000e-07	-6.164848e-06	-4.276020e-09	-4.454542e+01	-2.778145e+02
8.000000e-07	-6.122871e-06	-4.263449e-09	-4.424211e+01	-2.772201e+02
8.100000e-07	-6.080314e-06	-4.258462e-09	-4.393460e+01	-2.766110e+02
8.200000e-07	-6.037260e-06	-4.253810e-09	-4.362350e+01	-2.759872e+02
8.300000e-07	-5.993670e-06	-4.243411e-09	-4.330854e+01	-2.753489e+02
8.400000e-07	-5.949688e-06	-4.228482e-09	-4.299074e+01	-2.746968e+02
8.500000e-07	-5.905437e-06	-4.217418e-09	-4.267099e+01	-2.740314e+02
8.600000e-07	-5.860819e-06	-4.209773e-09	-4.234860e+01	-2.733536e+02
8.700000e-07	-5.815795e-06	-4.196613e-09	-4.202326e+01	-2.726643e+02
8.800000e-07	-5.770380e-06	-4.181616e-09	-4.169511e+01	-2.719648e+02
8.900000e-07	-5.724559e-06	-4.167025e-09	-4.136402e+01	-2.712559e+02
9.000000e-07	-5.678367e-06	-4.157342e-09	-4.103025e+01	-2.705389e+02
9.100000e-07	-5.631806e-06	-4.150629e-09	-4.069381e+01	-2.698148e+02
9.200000e-07	-5.584855e-06	-4.139332e-09	-4.035456e+01	-2.690845e+02
9.300000e-07	-5.537544e-06	-4.121095e-09	-4.001270e+01	-2.683490e+02
9.400000e-07	-5.489817e-06	-4.110856e-09	-3.966784e+01	-2.676089e+02
9.500000e-07	-5.441646e-06	-4.106511e-09	-3.931977e+01	-2.668646e+02
9.600000e-07	-5.393026e-06	-4.096744e-09	-3.896845e+01	-2.661164e+02
9.700000e-07	-5.343788e-06	-4.076491e-09	-3.861268e+01	-2.653642e+02
9.800000e-07	-5.293975e-06	-4.061239e-09	-3.825274e+01	-2.646078e+02
9.900000e-07	-5.243596e-06	-4.052530e-09	-3.788872e+01	-2.638464e+02
1.000000e-06	-5.192656e-06	-4.044363e-09	-3.752064e+01	-2.630793e+02
1.010000e-06	-5.141238e-06	-4.028036e-09	-3.714911e+01	-2.623054e+02
1.020000e-06	-5.089343e-06	-4.008955e-09	-3.677413e+01	-2.615233e+02
1.030000e-06	-5.037126e-06	-3.996455e-09	-3.639683e+01	-2.607314e+02
1.040000e-06	-4.984628e-06	-3.992850e-09	-3.601749e+01	-2.599282e+02
1.050000e-06	-4.931815e-06	-3.982042e-09	-3.563588e+01	-2.591118e+02
1.060000e-06	-4.878614e-06	-3.963213e-09	-3.525146e+01	-2.582804e+02
1.070000e-06	-4.825043e-06	-3.944638e-09	-3.486438e+01	-2.574321e+02
1.080000e-06	-4.771171e-06	-3.935849e-09	-3.447511e+01	-2.565653e+02
1.090000e-06	-4.717034e-06	-3.925617e-09	-3.408393e+01	-2.556781e+02
1.100000e-06	-4.662519e-06	-3.905592e-09	-3.369002e+01	-2.547693e+02
1.110000e-06	-4.607619e-06	-3.884043e-09	-3.329333e+01	-2.538373e+02
1.120000e-06	-4.552453e-06	-3.868209e-09	-3.289472e+01	-2.528813e+02
1.130000e-06	-4.496938e-06	-3.860098e-09	-3.249358e+01	-2.519005e+02
1.140000e-06	-4.441165e-06	-3.845744e-09	-3.209058e+01	-2.508943e+02
1.150000e-06	-4.385182e-06	-3.825289e-09	-3.168606e+01	-2.498626e+02
1.160000e-06	-4.328989e-06	-3.807343e-09	-3.128003e+01	-2.488056e+02
1.170000e-06	-4.272631e-06	-3.798475e-09	-3.087280e+01	-2.477235e+02
1.180000e-06	-4.215973e-06	-3.789016e-09	-3.046341e+01	-2.466172e+02
1.190000e-06	-4.158992e-06	-3.770845e-09	-3.005168e+01	-2.454874e+02
1.200000e-06	-4.101577e-06	-3.748380e-09	-2.963682e+01	-2.443352e+02
1.210000e-06	-4.043619e-06	-3.730632e-09	-2.921803e+01	-2.431617e+02
1.220000e-06	-3.985318e-06	-3.717254e-09	-2.879676e+01	-2.419682e+02
1.230000e-06	-3.926612e-06	-3.703281e-09	-2.837257e+01	-2.407557e+02
1.240000e-06	-3.867423e-06	-3.679506e-09	-2.794488e+01	-2.395256e+02
1.250000e-06	-3.807918e-06	-3.651417e-09	-2.751492e+01	-2.382786e+02
1.260000e-06	-3.748184e-06	-3.630501e-09	-2.708330e+01	-2.370156e+02
1.270000e-06	-3.688272e-06	-3.614761e-09	-2.665039e+01	-2.357370e+02
1.280000e-06	-3.628193e-06	-3.595865e-09	-2.621628e+01	-2.344429e+02
1.290000e-06	-3.567973e-06	-3.576993e-09	-2.578114e+01	-2.331331e+02
1.300000e-06	-3.507590e-06	-3.560595e-09	-2.534484e+01	-2.318071e+02
1.310000e-06	-3.446946e-06	-3.543361e-09	-2.490664e+01	-2.304637e+02
1.320000e-06	-3.386090e-06	-3.521570e-09	-2.446692e+01	-2.291016e+02
1.330000e-06	-3.325045e-06	-3.494914e-09	-2.402582e+01	-2.277189e+02
1.340000e-06	-3.263804e-06	-3.467465e-09	-2.358331e+01	-2.263134e+02
1.350000e-06	-3.202384e-06	-3.440281e-09	-2.313951e+01	-2.248824e+02
1.360000e-06	-3.140657e-06	-3.416673e-09	-2.269349e+01	-2.234233e+02
1.370000e-06	-3.078660e-06	-3.390256e-09	-2.224551e+01	-2.219329e+02
1.380000e-06	-3.016448e-06	-3.361331e-09	-2.179599e+01	-2.204081e+02
1.390000e-06	-2.954020e-06	-3.339024e-09	-2.134490e+01	-2.188456e+02
1.400000e-06	-2.891423e-06	-3.319841e-09	-2.089259e+01	-2.172422e+02
1.410000e-06	-2.828626e-06	-3.295426e-09	-2.043884e+01	-2.155948e+02
1.420000e-06	-2.765634e-06	-3.265828e-09	-1.998368e+01	-2.139006e+02
1.430000e-06	-2.702517e-06	-3.234186e-09	-1.952761e+01	-2.121567e+02
1.440000e-06	-2.639248e-06	-3.202364e-09	-1.907045e+01	-2.103611e+02
1.450000e-06	-2.575782e-06	-3.173833e-09	-1.861186e+01	-2.085117e+02
1.460000e-06	-2.512135e-06	-3.146366e-09	-1.815197e+01	-2.066071e+02
1.470000e-06	-2.448349e-06	-3.116634e-09	-1.769106e+01	-2.046463e+02
1.480000e-06	-2.384468e-06	-3.087217e-09	-1.722948e+01	-2.026288e+02
1.490000e-06	-2.320448e-06	-3.060217e-09	-1.676689e+01	-2.005544e+02
1.500000e-06	-2.256261e-06	-3.032502e-09	-1.630309e+01	-1.984234e+02
1.510000e-06	-2.191954e-06	-2.999338e-09	-1.583843e+01	-1.962364e+02
1.520000e-06	-2.127483e-06	-2.962120e-09	-1.537258e+01	-1.939944e+02
1.530000e-06	-2.062823e-06	-2.926163e-09	-1.490536e+01	-1.916983e+02
1.540000e-06	-1.998074e-06	-2.892522e-09	-1.443751e+01	-1.893491e+02
1.550000e-06	-1.933223e-06	-2.856962e-09	-1.396891e+01	-1.869477e+02
1.560000e-06	-1.868272e-06	-2.818893e-09	-1.349960e+01	-1.844948e+02
1.570000e-06	-1.803215e-06	-2.781362e-09	-1.302951e+01	-1.819906e+02
1.580000e-06	-1.737930e-06	-2.743695e-09	-1.255778e+01	-1.794346e+02
1.590000e-06	-1.672428e-06	-2.705598e-09	-1.208448e+01	-1.768259e+02
1.600000e-06	-1.606716e-06	-2.667020e-09	-1.160967e+01	-1.741623e+02
1.610000e-06	-1.540888e-06	-2.628074e-09	-1.113401e+01	-1.714408e+02
1.620000e-06	-1.474924e-06	-2.586966e-09	-1.065738e+01	-1.686573e+02
1.630000e-06	-1.408811e-06	-2.541352e-09	-1.017967e+01	-1.658064e+02
1.640000e-06	-1.342617e-06	-2.492691e-09	-9.701367e+00	-1.628813e+02
1.650000e-06	-1.276166e-06	-2.444806e-09	-9.221210e+00	-1.598742e+02
1.660000e-06	-1.209446e-06	-2.397864e-09	-8.739106e+00	-1.567755e+02
1.670000e-06	-1.142578e-06	-2.349865e-09	-8.255938e+00	-1.535749e+02
1.680000e-06	-1.075671e-06	-2.300000e-09	-7.772491e+00	-1.502603e+02
1.690000e-06	-1.008784e-06	-2.244246e-09	-7.289185e+00	-1.468190e+02
1.700000e-06	-9.417919e-07	-2.186584e-09	-6.805118e+00	-1.432372e+02
1.710000e-06	-8.745922e-07	-2.127233e-09	-6.319552e+00	-1.395003e+02
1.720000e-06	-8.073473e-07	-2.064860e-09	-5.833660e+00	-1.355934e+02
1.730000e-06	-7.401275e-07	-2.002537e-09	-5.347949e+00	-1.315013e+02
1.740000e-06	-6.728783e-07	-1.938966e-09	-4.862025e+00	-1.272089e+02
1.750000e-06	-6.056066e-07	-1.871432e-09	-4.375939e+00	-1.227015e+02
1.760000e-06	-5.382573e-07	-1.798349e-09	-3.889293e+00	-1.179651e+02
1.770000e-06	-4.708142e-07	-1.722289e-09	-3.401968e+00	-1.129869e+02
1.780000e-06	-4.033264e-07	-1.644224e-09	-2.914321e+00	-1.077553e+02
1.790000e-06	-3.358129e-07	-1.561447e-09	-2.426487e+00	-1.022607e+02
1.800000e-06	-2.683367e-07	-1.475128e-09	-1.938924e+00	-9.649522e+01
1.810000e-06	-2.008839e-07	-1.386211e-09	-1.451530e+00	-9.045366e+01
1.820000e-06	-1.333668e-07	-1.294359e-09	-9.636705e-01	-8.413325e+01
1.830000e-06	-6.582989e-08	-1.202414e-09	-4.756679e-01	-7.753407e+01
1.840000e-06	1.670208e-09	-1.105590e-09	1.206845e-02	-7.065924e+01
1.850000e-06	6.913508e-08	-1.000247e-09	4.995502e-01	-6.351499e+01
1.860000e-06	1.365705e-07	-8.890120e-10	9.868194e-01	-5.611075e+01
1.870000e-06	2.040284e-07	-7.742022e-10	1.474250e+00	-4.845920e+01
1.880000e-06	2.715157e-07	-6.548518e-10	1.961894e+00	-4.057616e+01
1.890000e-06	3.389255e-07	-5.320892e-10	2.448978e+00	-3.248054e+01
1.900000e-06	4.062613e-07	-4.060854e-10	2.935527e+00	-2.419416e+01
1.910000e-06	4.736996e-07	-2.792082e-10	3.422817e+00	-1.574151e+01
1.920000e-06	5.411554e-07	-1.520972e-10	3.910234e+00	-7.149473e+00
1.930000e-06	6.084783e-07	-2.037548e-11	4.396690e+00	1.552977e+00
1.940000e-06	6.757680e-07	1.163273e-10	4.882905e+00	1.033517e+01
1.950000e-06	7.430652e-07	2.545648e-10	5.369176e+00	1.916513e+01
1.960000e-06	8.102910e-07	3.952389e-10	5.854930e+00	2.801003e+01
1.970000e-06	8.774395e-07	5.377062e-10	6.340126e+00	3.683664e+01
1.980000e-06	9.445577e-07	6.794724e-10	6.825102e+00	4.561177e+01
1.990000e-06	1.011498e-06	8.135096e-10	7.308795e+00	5.430278e+01
2.000000e-06	1.078272e-06	9.425998e-10	7.791285e+00	6.287800e+01
2.010000e-06	1.145001e-06	1.069066e-09	8.273449e+00	7.130719e+01
2.020000e-06	1.211607e-06	1.189644e-09	8.754724e+00	7.956196e+01
2.030000e-06	1.278107e-06	1.306198e-09	9.235234e+00	8.761613e+01
2.040000e-06	1.344521e-06	1.420813e-09	9.715124e+00	9.544608e+01
2.050000e-06	1.410798e-06	1.531641e-09	1.019402e+01	1.030310e+02
2.060000e-06	1.476967e-06	1.640056e-09	1.067214e+01	1.103532e+02
2.070000e-06	1.543009e-06	1.744479e-09	1.114934e+01	1.173983e+02
2.080000e-06	1.608814e-06	1.841666e-09	1.162483e+01	1.241550e+02
2.090000e-06	1.674446e-06	1.934506e-09	1.209907e+01	1.306158e+02
2.100000e-06	1.739911e-06	2.026305e-09	1.257209e+01	1.367763e+02
2.110000e-06	1.805131e-06	2.112608e-09	1.304336e+01	1.426354e+02
2.120000e-06	1.870125e-06	2.190009e-09	1.351298e+01	1.481954e+02
2.130000e-06	1.934925e-06	2.264040e-09	1.398121e+01	1.534613e+02
2.140000e-06	1.999580e-06	2.336990e-09	1.444839e+01	1.584411e+02
2.150000e-06	2.064107e-06	2.410011e-09	1.491465e+01	1.631451e+02
2.160000e-06	2.128517e-06	2.478185e-09	1.538005e+01	1.675857e+02
2.170000e-06	2.192766e-06	2.540865e-09	1.584430e+01	1.717773e+02
2.180000e-06	2.256839e-06	2.601860e-09	1.630727e+01	1.757356e+02
2.190000e-06	2.320810e-06	2.662543e-09	1.676951e+01	1.794772e+02
2.200000e-06	2.384675e-06	2.716857e-09	1.723098e+01	1.830197e+02
2.210000e-06	2.448389e-06	2.764491e-09	1.769136e+01	1.863807e+02
2.220000e-06	2.511928e-06	2.808821e-09	1.815047e+01	1.895779e+02
2.230000e-06	2.575317e-06	2.853691e-09	1.860850e+01	1.926286e+02
2.240000e-06	2.638566e-06	2.898093e-09	1.906552e+01	1.955495e+02
2.250000e-06	2.701653e-06	2.940642e-09	1.952137e+01	1.983561e+02
2.260000e-06	2.764609e-06	2.978841e-09	1.997627e+01	2.010629e+02
2.270000e-06	2.827439e-06	3.016192e-09	2.043026e+01	2.036831e+02
2.280000e-06	2.890128e-06	3.055869e-09	2.088323e+01	2.062280e+02
2.290000e-06	2.952613e-06	3.096113e-09	2.133473e+01	2.087079e+02
2.300000e-06	3.014847e-06	3.130782e-09	2.178442e+01	2.111308e+02
2.310000e-06	3.076831e-06	3.161655e-09	2.223229e+01	2.135034e+02
2.320000e-06	3.138655e-06	3.196074e-09	2.267902e+01	2.158309e+02
2.330000e-06	3.200326e-06	3.229826e-09	2.312464e+01	2.181166e+02
2.340000e-06	3.261780e-06	3.257839e-09	2.356869e+01	2.203626e+02
2.350000e-06	3.322947e-06	3.285591e-09	2.401066e+01	2.225697e+02
2.360000e-06	3.383808e-06	3.317602e-09	2.445042e+01	2.247376e+02
2.370000e-06	3.444474e-06	3.348117e-09	2.488878e+01	2.268650e+02
2.380000e-06	3.504914e-06	3.376549e-09	2.532550e+01	2.289499e+02
2.390000e-06	3.565100e-06	3.403737e-09	2.576039e+01	2.309899e+02
2.400000e-06	3.625095e-06	3.430222e-09	2.619389e+01	2.329823e+02
2.410000e-06	3.684891e-06	3.454161e-09	2.662596e+01	2.349241e+02
2.420000e-06	3.744504e-06	3.476079e-09	2.705671e+01	2.368125e+02
2.430000e-06	3.803975e-06	3.497598e-09	2.748643e+01	2.386450e+02
2.440000e-06	3.863219e-06	3.520008e-09	2.791451e+01	2.404194e+02
2.450000e-06	3.922170e-06	3.541493e-09	2.834047e+01	2.421340e+02
2.460000e-06	3.980849e-06	3.563036e-09	2.876447e+01	2.437879e+02
2.470000e-06	4.039117e-06	3.586052e-09	2.918550e+01	2.453808e+02
2.480000e-06	4.096929e-06	3.610413e-09	2.960323e+01	2.469129e+02
2.490000e-06	4.154353e-06	3.632412e-09	3.001816e+01	2.483855e+02
2.500000e-06	4.211275e-06	3.649831e-09	3.042946e+01	2.498004e+02
2.510000e-06	4.267733e-06	3.667982e-09	3.083741e+01	2.511601e+02
2.520000e-06	4.323931e-06	3.686874e-09	3.124349e+01	2.524677e+02
2.530000e-06	4.379897e-06	3.706335e-09	3.164788e+01	2.537269e+02
2.540000e-06	4.435532e-06	3.721392e-09	3.204988e+01	2.549416e+02
2.550000e-06	4.490870e-06	3.736008e-09	3.244973e+01	2.561162e+02
2.560000e-06	4.545972e-06	3.754353e-09	3.284789e+01	2.572553e+02
2.570000e-06	4.600762e-06	3.775758e-09	3.324378e+01	2.583633e+02
2.580000e-06	4.655213e-06	3.794870e-09	3.363723e+01	2.594448e+02
2.590000e-06	4.709429e-06	3.810657e-09	3.402898e+01	2.605041e+02
2.600000e-06	4.763364e-06	3.827208e-09	3.441870e+01	2.615451e+02
2.610000e-06	4.816889e-06	3.841919e-09	3.480546e+01	2.625714e+02
2.620000e-06	4.870085e-06	3.856024e-09	3.518983e+01	2.635861e+02
2.630000e-06	4.922991e-06	3.872449e-09	3.557212e+01	2.645917e+02
2.640000e-06	4.975554e-06	3.887702e-09	3.595192e+01	2.655903e+02
2.650000e-06	5.027813e-06	3.901492e-09	3.632953e+01	2.665831e+02
2.660000e-06	5.079683e-06	3.915368e-09	3.670433e+01	2.675710e+02
2.670000e-06	5.131071e-06	3.928139e-09	3.707565e+01	2.685539e+02
2.680000e-06	5.181937e-06	3.941077e-09	3.744319e+01	2.695316e+02
2.690000e-06	5.232208e-06	3.955279e-09	3.780643e+01	2.705030e+02
2.700000e-06	5.281850e-06	3.969794e-09	3.816513e+01	2.714669e+02
2.710000e-06	5.330983e-06	3.984248e-09	3.852015e+01	2.724215e+02
2.720000e-06	5.379756e-06	3.998246e-09	3.887257e+01	2.733648e+02
2.730000e-06	5.428067e-06	4.010863e-09	3.922165e+01	2.742946e+02
2.740000e-06	5.475957e-06	4.021030e-09	3.956769e+01	2.752088e+02
2.750000e-06	5.523513e-06	4.030868e-09	3.991132e+01	2.761052e+02
2.760000e-06	5.570716e-06	4.042798e-09	4.025239e+01	2.769815e+02
2.770000e-06	5.617620e-06	4.055121e-09	4.059131e+01	2.778361e+02
2.780000e-06	5.664136e-06	4.069105e-09	4.092742e+01	2.786672e+02
2.790000e-06	5.710175e-06	4.082003e-09	4.126008e+01	2.794737e+02
2.800000e-06	5.755732e-06	4.093780e-09	4.158927e+01	2.802545e+02
2.810000e-06	5.800915e-06	4.105376e-09	4.191574e+01	2.810094e+02
2.820000e-06	5.845811e-06	4.117724e-09	4.224015e+01	2.817382e+02
2.830000e-06	5.890321e-06	4.127356e-09	4.256176e+01	2.824415e+02
2.840000e-06	5.934465e-06	4.134937e-09	4.288074e+01	2.831200e+02
2.850000e-06	5.978370e-06	4.144797e-09	4.319798e+01	2.837751e+02
2.860000e-06	6.021993e-06	4.157723e-09	4.351319e+01	2.844082e+02
2.870000e-06	6.065217e-06	4.171143e-09	4.382552e+01	2.850213e+02
2.880000e-06	6.107944e-06	4.183660e-09	4.413425e+01	2.856166e+02
2.890000e-06	6.150068e-06	4.197154e-09	4.443862e+01	2.861962e+02
2.900000e-06	6.191543e-06	4.210723e-09	4.473831e+01	2.867625e+02
