# Temperatura_=_20.0
# Concentracion g/m^3_=_9000.0
# C_Vs_to_Am_M_A/Vsm_=_65563218390.804596
# pendiente_HvsI_1/m_=_3716.3
# ordenada_HvsI_A/m_=_1297.0
# frecuencia_Hz_=_135462.6465454366

Tiempo_(s)	Campo_(V.s)	Magnetizacion_(V.s)	Campo_(kA/m)	Magnetizacion_(A/m)
0.000000e+00	-8.013287e-06	-4.499276e-09	-5.692306e+01	-3.014854e+02
1.000000e-08	-8.013532e-06	-4.494220e-09	-5.692480e+01	-3.015648e+02
2.000000e-08	-8.013414e-06	-4.491993e-09	-5.692396e+01	-3.016386e+02
3.000000e-08	-8.012683e-06	-4.494799e-09	-5.691877e+01	-3.017023e+02
4.000000e-08	-8.011098e-06	-4.498690e-09	-5.690752e+01	-3.017513e+02
5.000000e-08	-8.008671e-06	-4.498144e-09	-5.689027e+01	-3.017807e+02
6.000000e-08	-8.005514e-06	-4.497611e-09	-5.686784e+01	-3.017857e+02
7.000000e-08	-8.001898e-06	-4.493852e-09	-5.684216e+01	-3.017617e+02
8.000000e-08	-7.998016e-06	-4.475323e-09	-5.681458e+01	-3.017045e+02
9.000000e-08	-7.993698e-06	-4.463718e-09	-5.678391e+01	-3.016101e+02
1.000000e-07	-7.988654e-06	-4.511441e-09	-5.674808e+01	-3.014751e+02
1.100000e-07	-7.982685e-06	-4.605785e-09	-5.670568e+01	-3.012968e+02
1.200000e-07	-7.975739e-06	-4.620287e-09	-5.665634e+01	-3.010730e+02
1.300000e-07	-7.968209e-06	-4.447070e-09	-5.660285e+01	-3.008025e+02
1.400000e-07	-7.960561e-06	-4.264587e-09	-5.654852e+01	-3.004846e+02
1.500000e-07	-7.952794e-06	-4.435657e-09	-5.649334e+01	-3.001198e+02
1.600000e-07	-7.944638e-06	-4.679508e-09	-5.643541e+01	-2.997090e+02
1.700000e-07	-7.935827e-06	-4.578401e-09	-5.637282e+01	-2.992541e+02
1.800000e-07	-7.926234e-06	-4.335509e-09	-5.630467e+01	-2.987580e+02
1.900000e-07	-7.915639e-06	-4.363600e-09	-5.622941e+01	-2.982239e+02
2.000000e-07	-7.904270e-06	-4.537342e-09	-5.614865e+01	-2.976558e+02
2.100000e-07	-7.892623e-06	-4.663551e-09	-5.606592e+01	-2.970583e+02
2.200000e-07	-7.880447e-06	-4.586436e-09	-5.597942e+01	-2.964363e+02
2.300000e-07	-7.867410e-06	-4.333751e-09	-5.588681e+01	-2.957952e+02
2.400000e-07	-7.853842e-06	-4.322489e-09	-5.579043e+01	-2.951402e+02
2.500000e-07	-7.839884e-06	-4.612708e-09	-5.569128e+01	-2.944771e+02
2.600000e-07	-7.824915e-06	-4.644301e-09	-5.558495e+01	-2.938112e+02
2.700000e-07	-7.808723e-06	-4.300685e-09	-5.546992e+01	-2.931478e+02
2.800000e-07	-7.791924e-06	-4.256457e-09	-5.535059e+01	-2.924919e+02
2.900000e-07	-7.774825e-06	-4.558013e-09	-5.522913e+01	-2.918481e+02
3.000000e-07	-7.757212e-06	-4.608380e-09	-5.510401e+01	-2.912204e+02
3.100000e-07	-7.739028e-06	-4.403016e-09	-5.497484e+01	-2.906123e+02
3.200000e-07	-7.720357e-06	-4.376715e-09	-5.484221e+01	-2.900267e+02
3.300000e-07	-7.701125e-06	-4.488662e-09	-5.470559e+01	-2.894658e+02
3.400000e-07	-7.681518e-06	-4.544057e-09	-5.456631e+01	-2.889312e+02
3.500000e-07	-7.661683e-06	-4.549784e-09	-5.442541e+01	-2.884235e+02
3.600000e-07	-7.641280e-06	-4.448665e-09	-5.428048e+01	-2.879430e+02
3.700000e-07	-7.620230e-06	-4.310100e-09	-5.413095e+01	-2.874890e+02
3.800000e-07	-7.598784e-06	-4.467811e-09	-5.397861e+01	-2.870604e+02
3.900000e-07	-7.576886e-06	-4.609191e-09	-5.382305e+01	-2.866556e+02
4.000000e-07	-7.554305e-06	-4.455764e-09	-5.366264e+01	-2.862723e+02
4.100000e-07	-7.531088e-06	-4.292321e-09	-5.349772e+01	-2.859080e+02
4.200000e-07	-7.507508e-06	-4.424465e-09	-5.333022e+01	-2.855599e+02
4.300000e-07	-7.483637e-06	-4.582019e-09	-5.316065e+01	-2.852249e+02
4.400000e-07	-7.459128e-06	-4.490583e-09	-5.298655e+01	-2.848999e+02
4.500000e-07	-7.433672e-06	-4.307676e-09	-5.280572e+01	-2.845816e+02
4.600000e-07	-7.407575e-06	-4.363067e-09	-5.262034e+01	-2.842671e+02
4.700000e-07	-7.380952e-06	-4.536467e-09	-5.243122e+01	-2.839533e+02
4.800000e-07	-7.353676e-06	-4.469556e-09	-5.223746e+01	-2.836377e+02
4.900000e-07	-7.325972e-06	-4.313504e-09	-5.204066e+01	-2.833176e+02
5.000000e-07	-7.298006e-06	-4.339920e-09	-5.184200e+01	-2.829912e+02
5.100000e-07	-7.269574e-06	-4.422403e-09	-5.164003e+01	-2.826565e+02
5.200000e-07	-7.240508e-06	-4.411325e-09	-5.143356e+01	-2.823124e+02
5.300000e-07	-7.210957e-06	-4.384031e-09	-5.122365e+01	-2.819578e+02
5.400000e-07	-7.180982e-06	-4.332264e-09	-5.101072e+01	-2.815923e+02
5.500000e-07	-7.150429e-06	-4.327330e-09	-5.079368e+01	-2.812155e+02
5.600000e-07	-7.119343e-06	-4.410581e-09	-5.057285e+01	-2.808276e+02
5.700000e-07	-7.087905e-06	-4.420596e-09	-5.034953e+01	-2.804291e+02
5.800000e-07	-7.056132e-06	-4.291692e-09	-5.012383e+01	-2.800206e+02
5.900000e-07	-7.023951e-06	-4.270797e-09	-4.989523e+01	-2.796028e+02
6.000000e-07	-6.991164e-06	-4.361364e-09	-4.966233e+01	-2.791768e+02
6.100000e-07	-6.957656e-06	-4.374329e-09	-4.942430e+01	-2.787434e+02
6.200000e-07	-6.923348e-06	-4.290413e-09	-4.918059e+01	-2.783038e+02
6.300000e-07	-6.888322e-06	-4.259637e-09	-4.893178e+01	-2.778588e+02
6.400000e-07	-6.852899e-06	-4.302326e-09	-4.868015e+01	-2.774093e+02
6.500000e-07	-6.817151e-06	-4.339260e-09	-4.842621e+01	-2.769559e+02
6.600000e-07	-6.781015e-06	-4.297515e-09	-4.816951e+01	-2.764992e+02
6.700000e-07	-6.744396e-06	-4.240566e-09	-4.790939e+01	-2.760393e+02
6.800000e-07	-6.707292e-06	-4.249299e-09	-4.764581e+01	-2.755764e+02
6.900000e-07	-6.669697e-06	-4.275989e-09	-4.737876e+01	-2.751103e+02
7.000000e-07	-6.631640e-06	-4.254102e-09	-4.710841e+01	-2.746405e+02
7.100000e-07	-6.593134e-06	-4.219153e-09	-4.683488e+01	-2.741665e+02
7.200000e-07	-6.554141e-06	-4.210208e-09	-4.655790e+01	-2.736875e+02
7.300000e-07	-6.514773e-06	-4.218455e-09	-4.627824e+01	-2.732025e+02
7.400000e-07	-6.475182e-06	-4.232659e-09	-4.599701e+01	-2.727105e+02
7.500000e-07	-6.435267e-06	-4.214338e-09	-4.571346e+01	-2.722104e+02
7.600000e-07	-6.394935e-06	-4.176285e-09	-4.542696e+01	-2.717010e+02
7.700000e-07	-6.354097e-06	-4.176929e-09	-4.513687e+01	-2.711814e+02
7.800000e-07	-6.312508e-06	-4.201843e-09	-4.484143e+01	-2.706503e+02
7.900000e-07	-6.270085e-06	-4.171687e-09	-4.454008e+01	-2.701070e+02
8.000000e-07	-6.227051e-06	-4.124082e-09	-4.423438e+01	-2.695506e+02
8.100000e-07	-6.183628e-06	-4.129997e-09	-4.392593e+01	-2.689807e+02
8.200000e-07	-6.139814e-06	-4.157040e-09	-4.361469e+01	-2.683968e+02
8.300000e-07	-6.095683e-06	-4.138394e-09	-4.330120e+01	-2.677988e+02
8.400000e-07	-6.051133e-06	-4.106516e-09	-4.298474e+01	-2.671868e+02
8.500000e-07	-6.006088e-06	-4.103933e-09	-4.266476e+01	-2.665612e+02
8.600000e-07	-5.960649e-06	-4.122853e-09	-4.234198e+01	-2.659225e+02
8.700000e-07	-5.914861e-06	-4.116918e-09	-4.201672e+01	-2.652713e+02
8.800000e-07	-5.868658e-06	-4.082779e-09	-4.168851e+01	-2.646087e+02
8.900000e-07	-5.822058e-06	-4.054708e-09	-4.135748e+01	-2.639354e+02
9.000000e-07	-5.775118e-06	-4.055364e-09	-4.102404e+01	-2.632528e+02
9.100000e-07	-5.727803e-06	-4.059914e-09	-4.068793e+01	-2.625617e+02
9.200000e-07	-5.680151e-06	-4.042925e-09	-4.034943e+01	-2.618633e+02
9.300000e-07	-5.632051e-06	-4.015871e-09	-4.000775e+01	-2.611587e+02
9.400000e-07	-5.583364e-06	-4.011341e-09	-3.966190e+01	-2.604486e+02
9.500000e-07	-5.533986e-06	-4.024282e-09	-3.931114e+01	-2.597337e+02
9.600000e-07	-5.483990e-06	-4.018806e-09	-3.895599e+01	-2.590146e+02
9.700000e-07	-5.433436e-06	-3.986192e-09	-3.859687e+01	-2.582915e+02
9.800000e-07	-5.382294e-06	-3.957942e-09	-3.823358e+01	-2.575645e+02
9.900000e-07	-5.330706e-06	-3.955297e-09	-3.786712e+01	-2.568331e+02
1.000000e-06	-5.278767e-06	-3.953453e-09	-3.749817e+01	-2.560970e+02
1.010000e-06	-5.226534e-06	-3.930521e-09	-3.712713e+01	-2.553551e+02
1.020000e-06	-5.173833e-06	-3.904396e-09	-3.675276e+01	-2.546065e+02
1.030000e-06	-5.120670e-06	-3.902735e-09	-3.637512e+01	-2.538498e+02
1.040000e-06	-5.067255e-06	-3.909993e-09	-3.599568e+01	-2.530835e+02
1.050000e-06	-5.013565e-06	-3.899442e-09	-3.561428e+01	-2.523059e+02
1.060000e-06	-4.959554e-06	-3.876097e-09	-3.523061e+01	-2.515153e+02
1.070000e-06	-4.905182e-06	-3.858539e-09	-3.484438e+01	-2.507097e+02
1.080000e-06	-4.850392e-06	-3.851198e-09	-3.445517e+01	-2.498874e+02
1.090000e-06	-4.795256e-06	-3.839608e-09	-3.406351e+01	-2.490467e+02
1.100000e-06	-4.739861e-06	-3.814641e-09	-3.367000e+01	-2.481858e+02
1.110000e-06	-4.684230e-06	-3.791110e-09	-3.327482e+01	-2.473033e+02
1.120000e-06	-4.628318e-06	-3.780295e-09	-3.287765e+01	-2.463979e+02
1.130000e-06	-4.572135e-06	-3.777341e-09	-3.247855e+01	-2.454687e+02
1.140000e-06	-4.515705e-06	-3.762991e-09	-3.207770e+01	-2.445148e+02
1.150000e-06	-4.458852e-06	-3.743166e-09	-3.167383e+01	-2.435359e+02
1.160000e-06	-4.401493e-06	-3.730401e-09	-3.126638e+01	-2.425317e+02
1.170000e-06	-4.343743e-06	-3.722481e-09	-3.085615e+01	-2.415024e+02
1.180000e-06	-4.285637e-06	-3.706035e-09	-3.044338e+01	-2.404484e+02
1.190000e-06	-4.227091e-06	-3.680487e-09	-3.002750e+01	-2.393704e+02
1.200000e-06	-4.168084e-06	-3.657190e-09	-2.960834e+01	-2.382690e+02
1.210000e-06	-4.108810e-06	-3.642714e-09	-2.918728e+01	-2.371455e+02
1.220000e-06	-4.049323e-06	-3.629633e-09	-2.876471e+01	-2.360007e+02
1.230000e-06	-3.989575e-06	-3.613477e-09	-2.834029e+01	-2.348359e+02
1.240000e-06	-3.929561e-06	-3.592423e-09	-2.791397e+01	-2.336519e+02
1.250000e-06	-3.869301e-06	-3.569614e-09	-2.748591e+01	-2.324499e+02
1.260000e-06	-3.808761e-06	-3.551641e-09	-2.705586e+01	-2.312304e+02
1.270000e-06	-3.747960e-06	-3.531945e-09	-2.662395e+01	-2.299941e+02
1.280000e-06	-3.686954e-06	-3.507550e-09	-2.619059e+01	-2.287411e+02
1.290000e-06	-3.625775e-06	-3.488590e-09	-2.575600e+01	-2.274713e+02
1.300000e-06	-3.564385e-06	-3.474994e-09	-2.531991e+01	-2.261842e+02
1.310000e-06	-3.502787e-06	-3.457289e-09	-2.488234e+01	-2.248789e+02
1.320000e-06	-3.441064e-06	-3.436065e-09	-2.444389e+01	-2.235540e+02
1.330000e-06	-3.379066e-06	-3.411600e-09	-2.400348e+01	-2.222079e+02
1.340000e-06	-3.316716e-06	-3.388155e-09	-2.356057e+01	-2.208385e+02
1.350000e-06	-3.254063e-06	-3.367162e-09	-2.311551e+01	-2.194433e+02
1.360000e-06	-3.191118e-06	-3.345768e-09	-2.266838e+01	-2.180195e+02
1.370000e-06	-3.127981e-06	-3.317867e-09	-2.221988e+01	-2.165643e+02
1.380000e-06	-3.064677e-06	-3.288785e-09	-2.177019e+01	-2.150745e+02
1.390000e-06	-3.001252e-06	-3.267445e-09	-2.131965e+01	-2.135469e+02
1.400000e-06	-2.937796e-06	-3.246477e-09	-2.086888e+01	-2.119784e+02
1.410000e-06	-2.874185e-06	-3.219904e-09	-2.041702e+01	-2.103658e+02
1.420000e-06	-2.810424e-06	-3.190692e-09	-1.996409e+01	-2.087064e+02
1.430000e-06	-2.746548e-06	-3.164121e-09	-1.951034e+01	-2.069973e+02
1.440000e-06	-2.682506e-06	-3.136704e-09	-1.905541e+01	-2.052364e+02
1.450000e-06	-2.618292e-06	-3.110269e-09	-1.859926e+01	-2.034218e+02
1.460000e-06	-2.553851e-06	-3.082940e-09	-1.814150e+01	-2.015518e+02
1.470000e-06	-2.489093e-06	-3.052211e-09	-1.768148e+01	-1.996257e+02
1.480000e-06	-2.424096e-06	-3.023919e-09	-1.721977e+01	-1.976427e+02
1.490000e-06	-2.358902e-06	-2.992698e-09	-1.675666e+01	-1.956029e+02
1.500000e-06	-2.293477e-06	-2.960839e-09	-1.629190e+01	-1.935064e+02
1.510000e-06	-2.227775e-06	-2.928548e-09	-1.582519e+01	-1.913541e+02
1.520000e-06	-2.161773e-06	-2.898633e-09	-1.535633e+01	-1.891467e+02
1.530000e-06	-2.095489e-06	-2.868749e-09	-1.488548e+01	-1.868855e+02
1.540000e-06	-2.028952e-06	-2.835492e-09	-1.441284e+01	-1.845714e+02
1.550000e-06	-1.962287e-06	-2.800754e-09	-1.393928e+01	-1.822054e+02
1.560000e-06	-1.895499e-06	-2.758166e-09	-1.346484e+01	-1.797884e+02
1.570000e-06	-1.828589e-06	-2.716589e-09	-1.298954e+01	-1.773205e+02
1.580000e-06	-1.761631e-06	-2.676802e-09	-1.251390e+01	-1.748015e+02
1.590000e-06	-1.694620e-06	-2.636358e-09	-1.203787e+01	-1.722303e+02
1.600000e-06	-1.627549e-06	-2.596957e-09	-1.156143e+01	-1.696050e+02
1.610000e-06	-1.560395e-06	-2.557082e-09	-1.108439e+01	-1.669225e+02
1.620000e-06	-1.493111e-06	-2.517522e-09	-1.060644e+01	-1.641787e+02
1.630000e-06	-1.425704e-06	-2.475036e-09	-1.012761e+01	-1.613680e+02
1.640000e-06	-1.358207e-06	-2.426714e-09	-9.648142e+00	-1.584836e+02
1.650000e-06	-1.290603e-06	-2.378302e-09	-9.167907e+00	-1.555174e+02
1.660000e-06	-1.222880e-06	-2.329456e-09	-8.686829e+00	-1.524597e+02
1.670000e-06	-1.155109e-06	-2.277698e-09	-8.205415e+00	-1.492997e+02
1.680000e-06	-1.087324e-06	-2.226033e-09	-7.723900e+00	-1.460252e+02
1.690000e-06	-1.019486e-06	-2.171761e-09	-7.242006e+00	-1.426229e+02
1.700000e-06	-9.516048e-07	-2.112642e-09	-6.759805e+00	-1.390785e+02
1.710000e-06	-8.837312e-07	-2.051118e-09	-6.277659e+00	-1.353769e+02
1.720000e-06	-8.158372e-07	-1.988302e-09	-5.795369e+00	-1.315027e+02
1.730000e-06	-7.478766e-07	-1.928095e-09	-5.312605e+00	-1.274400e+02
1.740000e-06	-6.798048e-07	-1.866370e-09	-4.829051e+00	-1.231732e+02
1.750000e-06	-6.116116e-07	-1.798757e-09	-4.344635e+00	-1.186868e+02
1.760000e-06	-5.434460e-07	-1.726300e-09	-3.860415e+00	-1.139665e+02
1.770000e-06	-4.752251e-07	-1.649899e-09	-3.375802e+00	-1.089986e+02
1.780000e-06	-4.069210e-07	-1.568749e-09	-2.890598e+00	-1.037712e+02
1.790000e-06	-3.386577e-07	-1.481543e-09	-2.405683e+00	-9.827400e+01
1.800000e-06	-2.703866e-07	-1.393375e-09	-1.920714e+00	-9.249904e+01
1.810000e-06	-2.020724e-07	-1.303974e-09	-1.435439e+00	-8.644064e+01
1.820000e-06	-1.336895e-07	-1.211147e-09	-9.496745e-01	-8.009586e+01
1.830000e-06	-6.536832e-08	-1.115916e-09	-4.643494e-01	-7.346476e+01
1.840000e-06	2.824745e-09	-1.016589e-09	2.006581e-02	-6.655048e+01
1.850000e-06	7.100756e-08	-9.111742e-10	5.044082e-01	-5.935946e+01
1.860000e-06	1.392622e-07	-7.995158e-10	9.892610e-01	-5.190148e+01
1.870000e-06	2.075819e-07	-6.814442e-10	1.474576e+00	-4.418968e+01
1.880000e-06	2.759388e-07	-5.576396e-10	1.960155e+00	-3.624052e+01
1.890000e-06	3.443598e-07	-4.322037e-10	2.446189e+00	-2.807365e+01
1.900000e-06	4.127725e-07	-3.048163e-10	2.932165e+00	-1.971176e+01
1.910000e-06	4.811117e-07	-1.728543e-10	3.417618e+00	-1.118032e+01
1.920000e-06	5.494255e-07	-4.120982e-11	3.902891e+00	-2.507300e+00
1.930000e-06	6.176726e-07	8.931137e-11	4.387690e+00	6.277166e+00
1.940000e-06	6.858229e-07	2.244539e-10	4.871801e+00	1.514119e+01
1.950000e-06	7.538609e-07	3.645567e-10	5.355115e+00	2.405157e+01
1.960000e-06	8.218749e-07	5.044446e-10	5.838258e+00	3.297419e+01
1.970000e-06	8.898611e-07	6.438752e-10	6.321204e+00	4.187458e+01
1.980000e-06	9.577643e-07	7.835467e-10	6.803560e+00	5.071834e+01
1.990000e-06	1.025596e-06	9.216512e-10	7.285406e+00	5.947168e+01
2.000000e-06	1.093342e-06	1.055359e-09	7.766649e+00	6.810186e+01
2.010000e-06	1.161003e-06	1.182535e-09	8.247286e+00	7.657769e+01
2.020000e-06	1.228581e-06	1.303913e-09	8.727327e+00	8.486993e+01
2.030000e-06	1.296192e-06	1.422575e-09	9.207608e+00	9.295170e+01
2.040000e-06	1.363755e-06	1.539272e-09	9.687547e+00	1.007988e+02
2.050000e-06	1.431223e-06	1.650314e-09	1.016681e+01	1.083902e+02
2.060000e-06	1.498633e-06	1.756269e-09	1.064566e+01	1.157078e+02
2.070000e-06	1.565906e-06	1.859463e-09	1.112354e+01	1.227373e+02
2.080000e-06	1.633106e-06	1.958329e-09	1.160091e+01	1.294675e+02
2.090000e-06	1.700289e-06	2.052157e-09	1.207815e+01	1.358911e+02
2.100000e-06	1.767321e-06	2.141210e-09	1.255431e+01	1.420043e+02
2.110000e-06	1.834158e-06	2.226329e-09	1.302910e+01	1.478066e+02
2.120000e-06	1.900852e-06	2.305448e-09	1.350286e+01	1.533009e+02
2.130000e-06	1.967256e-06	2.377537e-09	1.397457e+01	1.584932e+02
2.140000e-06	2.033424e-06	2.446052e-09	1.444460e+01	1.633922e+02
2.150000e-06	2.099534e-06	2.512457e-09	1.491421e+01	1.680093e+02
2.160000e-06	2.165477e-06	2.578345e-09	1.538265e+01	1.723580e+02
2.170000e-06	2.231188e-06	2.639007e-09	1.584944e+01	1.764536e+02
2.180000e-06	2.296715e-06	2.696054e-09	1.631491e+01	1.803129e+02
2.190000e-06	2.362035e-06	2.753849e-09	1.677891e+01	1.839535e+02
2.200000e-06	2.427188e-06	2.809178e-09	1.724173e+01	1.873939e+02
2.210000e-06	2.492114e-06	2.855426e-09	1.770295e+01	1.906526e+02
2.220000e-06	2.556826e-06	2.896013e-09	1.816263e+01	1.937482e+02
2.230000e-06	2.621325e-06	2.939595e-09	1.862080e+01	1.966986e+02
2.240000e-06	2.685473e-06	2.983241e-09	1.907648e+01	1.995210e+02
2.250000e-06	2.749297e-06	3.023532e-09	1.952986e+01	2.022314e+02
2.260000e-06	2.812964e-06	3.059456e-09	1.998213e+01	2.048448e+02
2.270000e-06	2.876498e-06	3.094818e-09	2.043345e+01	2.073743e+02
2.280000e-06	2.939914e-06	3.132846e-09	2.088393e+01	2.098316e+02
2.290000e-06	3.003277e-06	3.170966e-09	2.133403e+01	2.122267e+02
2.300000e-06	3.066531e-06	3.204840e-09	2.178337e+01	2.145676e+02
2.310000e-06	3.129554e-06	3.237096e-09	2.223105e+01	2.168608e+02
2.320000e-06	3.192331e-06	3.272469e-09	2.267699e+01	2.191110e+02
2.330000e-06	3.254931e-06	3.307472e-09	2.312168e+01	2.213212e+02
2.340000e-06	3.317349e-06	3.336574e-09	2.356507e+01	2.234931e+02
2.350000e-06	3.379563e-06	3.362853e-09	2.400701e+01	2.256271e+02
2.360000e-06	3.441450e-06	3.392079e-09	2.444663e+01	2.277222e+02
2.370000e-06	3.503095e-06	3.422431e-09	2.488454e+01	2.297768e+02
2.380000e-06	3.564575e-06	3.450011e-09	2.532126e+01	2.317885e+02
2.390000e-06	3.625743e-06	3.475070e-09	2.575577e+01	2.337543e+02
2.400000e-06	3.686623e-06	3.499581e-09	2.618824e+01	2.356712e+02
2.410000e-06	3.747305e-06	3.524427e-09	2.661930e+01	2.375360e+02
2.420000e-06	3.807778e-06	3.549013e-09	2.704887e+01	2.393456e+02
2.430000e-06	3.868011e-06	3.570978e-09	2.747675e+01	2.410973e+02
2.440000e-06	3.927992e-06	3.591629e-09	2.790282e+01	2.427889e+02
2.450000e-06	3.987745e-06	3.612908e-09	2.832729e+01	2.444187e+02
2.460000e-06	4.047279e-06	3.633418e-09	2.875019e+01	2.459859e+02
2.470000e-06	4.106633e-06	3.655061e-09	2.917181e+01	2.474902e+02
2.480000e-06	4.165842e-06	3.676981e-09	2.959241e+01	2.489323e+02
2.490000e-06	4.224802e-06	3.698160e-09	3.001124e+01	2.503135e+02
2.500000e-06	4.283300e-06	3.717139e-09	3.042678e+01	2.516360e+02
2.510000e-06	4.341204e-06	3.736908e-09	3.083811e+01	2.529027e+02
2.520000e-06	4.398662e-06	3.757616e-09	3.124627e+01	2.541170e+02
2.530000e-06	4.455767e-06	3.777032e-09	3.165192e+01	2.552829e+02
2.540000e-06	4.512355e-06	3.793311e-09	3.205390e+01	2.564048e+02
2.550000e-06	4.568442e-06	3.807098e-09	3.245232e+01	2.574874e+02
2.560000e-06	4.624233e-06	3.823159e-09	3.284863e+01	2.585355e+02
2.570000e-06	4.679830e-06	3.842180e-09	3.324357e+01	2.595539e+02
2.580000e-06	4.735211e-06	3.858889e-09	3.363697e+01	2.605472e+02
2.590000e-06	4.790251e-06	3.873472e-09	3.402795e+01	2.615199e+02
2.600000e-06	4.845006e-06	3.889343e-09	3.441691e+01	2.624759e+02
2.610000e-06	4.899498e-06	3.905948e-09	3.480400e+01	2.634189e+02
2.620000e-06	4.953619e-06	3.921625e-09	3.518845e+01	2.643519e+02
2.630000e-06	5.007367e-06	3.938049e-09	3.557026e+01	2.652773e+02
2.640000e-06	5.060785e-06	3.953578e-09	3.594972e+01	2.661968e+02
2.650000e-06	5.113909e-06	3.965997e-09	3.632708e+01	2.671115e+02
2.660000e-06	5.166771e-06	3.978019e-09	3.670259e+01	2.680220e+02
2.670000e-06	5.219250e-06	3.985575e-09	3.707539e+01	2.689279e+02
2.680000e-06	5.271185e-06	3.994792e-09	3.744431e+01	2.698286e+02
2.690000e-06	5.322672e-06	4.008012e-09	3.781005e+01	2.707228e+02
2.700000e-06	5.373743e-06	4.022168e-09	3.817284e+01	2.716088e+02
2.710000e-06	5.424201e-06	4.033878e-09	3.853127e+01	2.724846e+02
2.720000e-06	5.474145e-06	4.046848e-09	3.888605e+01	2.733479e+02
2.730000e-06	5.523613e-06	4.062572e-09	3.923745e+01	2.741963e+02
2.740000e-06	5.572410e-06	4.074416e-09	3.958408e+01	2.750274e+02
2.750000e-06	5.620652e-06	4.081579e-09	3.992677e+01	2.758390e+02
2.760000e-06	5.668485e-06	4.088626e-09	4.026656e+01	2.766289e+02
2.770000e-06	5.715957e-06	4.098930e-09	4.060378e+01	2.773952e+02
2.780000e-06	5.763124e-06	4.113177e-09	4.093884e+01	2.781364e+02
2.790000e-06	5.810003e-06	4.124970e-09	4.127185e+01	2.788515e+02
2.800000e-06	5.856494e-06	4.134233e-09	4.160210e+01	2.795399e+02
2.810000e-06	5.902442e-06	4.144021e-09	4.192850e+01	2.802012e+02
2.820000e-06	5.947964e-06	4.156701e-09	4.225187e+01	2.808360e+02
2.830000e-06	5.993132e-06	4.168061e-09	4.257272e+01	2.814450e+02
2.840000e-06	6.037923e-06	4.176592e-09	4.289090e+01	2.820294e+02
2.850000e-06	6.082356e-06	4.184731e-09	4.320653e+01	2.825910e+02
2.860000e-06	6.126414e-06	4.194544e-09	4.351950e+01	2.831317e+02
2.870000e-06	6.170206e-06	4.205349e-09	4.383058e+01	2.836539e+02
2.880000e-06	6.213721e-06	4.214854e-09	4.413969e+01	2.841600e+02
2.890000e-06	6.256811e-06	4.225059e-09	4.444579e+01	2.846527e+02
2.900000e-06	6.299320e-06	4.235799e-09	4.474776e+01	2.851345e+02
2.910000e-06	6.341228e-06	4.246493e-09	4.504545e+01	2.856081e+02
