# Temperatura_=_20.0
# Concentracion g/m^3_=_9000.0
# C_Vs_to_Am_M_A/Vsm_=_65563218390.804596
# pendiente_HvsI_1/m_=_3716.3
# ordenada_HvsI_A/m_=_1297.0
# frecuencia_Hz_=_135466.09765851815

Tiempo_(s)	Campo_(V.s)	Magnetizacion_(V.s)	Campo_(kA/m)	Magnetizacion_(A/m)
0.000000e+00	-7.983285e-06	-4.456569e-09	-5.692267e+01	-2.993702e+02
1.000000e-08	-7.983538e-06	-4.452525e-09	-5.692447e+01	-2.993988e+02
2.000000e-08	-7.983313e-06	-4.449488e-09	-5.692287e+01	-2.994149e+02
3.000000e-08	-7.982490e-06	-4.446907e-09	-5.691700e+01	-2.994148e+02
4.000000e-08	-7.980986e-06	-4.443619e-09	-5.690627e+01	-2.993954e+02
5.000000e-08	-7.978710e-06	-4.444924e-09	-5.689005e+01	-2.993533e+02
6.000000e-08	-7.975714e-06	-4.448304e-09	-5.686868e+01	-2.992857e+02
7.000000e-08	-7.972222e-06	-4.451743e-09	-5.684379e+01	-2.991900e+02
8.000000e-08	-7.968343e-06	-4.461466e-09	-5.681613e+01	-2.990640e+02
9.000000e-08	-7.963954e-06	-4.486837e-09	-5.678483e+01	-2.989061e+02
1.000000e-07	-7.958823e-06	-4.468234e-09	-5.674824e+01	-2.987155e+02
1.100000e-07	-7.952836e-06	-4.406367e-09	-5.670555e+01	-2.984916e+02
1.200000e-07	-7.946106e-06	-4.367651e-09	-5.665757e+01	-2.982349e+02
1.300000e-07	-7.938803e-06	-4.459174e-09	-5.660550e+01	-2.979462e+02
1.400000e-07	-7.931160e-06	-4.593638e-09	-5.655100e+01	-2.976272e+02
1.500000e-07	-7.923273e-06	-4.508422e-09	-5.649476e+01	-2.972801e+02
1.600000e-07	-7.914971e-06	-4.271177e-09	-5.643557e+01	-2.969079e+02
1.700000e-07	-7.906135e-06	-4.365427e-09	-5.637257e+01	-2.965139e+02
1.800000e-07	-7.896554e-06	-4.570995e-09	-5.630425e+01	-2.961018e+02
1.900000e-07	-7.886139e-06	-4.521040e-09	-5.622999e+01	-2.956759e+02
2.000000e-07	-7.875032e-06	-4.409873e-09	-5.615079e+01	-2.952404e+02
2.100000e-07	-7.863264e-06	-4.374342e-09	-5.606689e+01	-2.947999e+02
2.200000e-07	-7.850830e-06	-4.392511e-09	-5.597823e+01	-2.943590e+02
2.300000e-07	-7.837836e-06	-4.484882e-09	-5.588558e+01	-2.939219e+02
2.400000e-07	-7.824342e-06	-4.562835e-09	-5.578937e+01	-2.934929e+02
2.500000e-07	-7.810168e-06	-4.362561e-09	-5.568830e+01	-2.930758e+02
2.600000e-07	-7.795043e-06	-4.252972e-09	-5.558046e+01	-2.926740e+02
2.700000e-07	-7.779117e-06	-4.545519e-09	-5.546690e+01	-2.922904e+02
2.800000e-07	-7.762628e-06	-4.697798e-09	-5.534933e+01	-2.919273e+02
2.900000e-07	-7.745506e-06	-4.432504e-09	-5.522725e+01	-2.915862e+02
3.000000e-07	-7.727924e-06	-4.401688e-09	-5.510189e+01	-2.912681e+02
3.100000e-07	-7.709903e-06	-4.685989e-09	-5.497339e+01	-2.909733e+02
3.200000e-07	-7.691298e-06	-4.637702e-09	-5.484073e+01	-2.907013e+02
3.300000e-07	-7.672195e-06	-4.408751e-09	-5.470452e+01	-2.904509e+02
3.400000e-07	-7.652754e-06	-4.526823e-09	-5.456591e+01	-2.902204e+02
3.500000e-07	-7.632901e-06	-4.588665e-09	-5.442434e+01	-2.900075e+02
3.600000e-07	-7.612546e-06	-4.479891e-09	-5.427921e+01	-2.898092e+02
3.700000e-07	-7.591736e-06	-4.541526e-09	-5.413083e+01	-2.896222e+02
3.800000e-07	-7.570434e-06	-4.588975e-09	-5.397894e+01	-2.894432e+02
3.900000e-07	-7.548538e-06	-4.427669e-09	-5.382282e+01	-2.892681e+02
4.000000e-07	-7.526001e-06	-4.442703e-09	-5.366213e+01	-2.890932e+02
4.100000e-07	-7.502952e-06	-4.620101e-09	-5.349778e+01	-2.889146e+02
4.200000e-07	-7.479526e-06	-4.551358e-09	-5.333075e+01	-2.887286e+02
4.300000e-07	-7.455594e-06	-4.372975e-09	-5.316011e+01	-2.885317e+02
4.400000e-07	-7.431090e-06	-4.465729e-09	-5.298539e+01	-2.883208e+02
4.500000e-07	-7.406076e-06	-4.651232e-09	-5.280703e+01	-2.880931e+02
4.600000e-07	-7.380313e-06	-4.513841e-09	-5.262334e+01	-2.878463e+02
4.700000e-07	-7.353857e-06	-4.344766e-09	-5.243470e+01	-2.875788e+02
4.800000e-07	-7.326915e-06	-4.489840e-09	-5.224260e+01	-2.872894e+02
4.900000e-07	-7.299434e-06	-4.605471e-09	-5.204665e+01	-2.869775e+02
5.000000e-07	-7.271428e-06	-4.447590e-09	-5.184696e+01	-2.866431e+02
5.100000e-07	-7.242935e-06	-4.394938e-09	-5.164380e+01	-2.862870e+02
5.200000e-07	-7.214013e-06	-4.482697e-09	-5.143758e+01	-2.859101e+02
5.300000e-07	-7.184599e-06	-4.485292e-09	-5.122785e+01	-2.855141e+02
5.400000e-07	-7.154646e-06	-4.459068e-09	-5.101428e+01	-2.851011e+02
5.500000e-07	-7.124197e-06	-4.460204e-09	-5.079717e+01	-2.846732e+02
5.600000e-07	-7.093259e-06	-4.403447e-09	-5.057657e+01	-2.842332e+02
5.700000e-07	-7.061937e-06	-4.410405e-09	-5.035324e+01	-2.837837e+02
5.800000e-07	-7.030316e-06	-4.478992e-09	-5.012778e+01	-2.833276e+02
5.900000e-07	-6.998300e-06	-4.451784e-09	-4.989949e+01	-2.828674e+02
6.000000e-07	-6.965642e-06	-4.366670e-09	-4.966664e+01	-2.824059e+02
6.100000e-07	-6.932218e-06	-4.373014e-09	-4.942832e+01	-2.819453e+02
6.200000e-07	-6.898144e-06	-4.433816e-09	-4.918536e+01	-2.814876e+02
6.300000e-07	-6.863526e-06	-4.437667e-09	-4.893853e+01	-2.810346e+02
6.400000e-07	-6.828405e-06	-4.370683e-09	-4.868810e+01	-2.805874e+02
6.500000e-07	-6.792835e-06	-4.334213e-09	-4.843448e+01	-2.801467e+02
6.600000e-07	-6.756893e-06	-4.386943e-09	-4.817821e+01	-2.797130e+02
6.700000e-07	-6.720480e-06	-4.411316e-09	-4.791858e+01	-2.792859e+02
6.800000e-07	-6.683505e-06	-4.346787e-09	-4.765493e+01	-2.788647e+02
6.900000e-07	-6.645965e-06	-4.309045e-09	-4.738727e+01	-2.784484e+02
7.000000e-07	-6.607990e-06	-4.339160e-09	-4.711649e+01	-2.780352e+02
7.100000e-07	-6.569558e-06	-4.342297e-09	-4.684246e+01	-2.776234e+02
7.200000e-07	-6.530640e-06	-4.318635e-09	-4.656497e+01	-2.772107e+02
7.300000e-07	-6.491425e-06	-4.303987e-09	-4.628536e+01	-2.767948e+02
7.400000e-07	-6.451931e-06	-4.292773e-09	-4.600376e+01	-2.763731e+02
7.500000e-07	-6.412079e-06	-4.288173e-09	-4.571961e+01	-2.759430e+02
7.600000e-07	-6.371762e-06	-4.299928e-09	-4.543214e+01	-2.755020e+02
7.700000e-07	-6.330880e-06	-4.279460e-09	-4.514064e+01	-2.750477e+02
7.800000e-07	-6.289394e-06	-4.245766e-09	-4.484483e+01	-2.745781e+02
7.900000e-07	-6.247302e-06	-4.247114e-09	-4.454471e+01	-2.740910e+02
8.000000e-07	-6.204683e-06	-4.265516e-09	-4.424082e+01	-2.735851e+02
8.100000e-07	-6.161639e-06	-4.247099e-09	-4.393391e+01	-2.730590e+02
8.200000e-07	-6.118168e-06	-4.219917e-09	-4.362395e+01	-2.725121e+02
8.300000e-07	-6.074178e-06	-4.218958e-09	-4.331029e+01	-2.719439e+02
8.400000e-07	-6.029686e-06	-4.225803e-09	-4.299306e+01	-2.713545e+02
8.500000e-07	-5.984842e-06	-4.209179e-09	-4.267331e+01	-2.707444e+02
8.600000e-07	-5.939621e-06	-4.187483e-09	-4.235087e+01	-2.701145e+02
8.700000e-07	-5.894014e-06	-4.184863e-09	-4.202568e+01	-2.694660e+02
8.800000e-07	-5.848016e-06	-4.190627e-09	-4.169771e+01	-2.688004e+02
8.900000e-07	-5.801607e-06	-4.176418e-09	-4.136680e+01	-2.681195e+02
9.000000e-07	-5.754826e-06	-4.152088e-09	-4.103324e+01	-2.674251e+02
9.100000e-07	-5.707733e-06	-4.144321e-09	-4.069746e+01	-2.667192e+02
9.200000e-07	-5.660300e-06	-4.143340e-09	-4.035925e+01	-2.660038e+02
9.300000e-07	-5.612396e-06	-4.130337e-09	-4.001768e+01	-2.652808e+02
9.400000e-07	-5.563986e-06	-4.112199e-09	-3.967251e+01	-2.645519e+02
9.500000e-07	-5.514993e-06	-4.101198e-09	-3.932317e+01	-2.638187e+02
9.600000e-07	-5.465381e-06	-4.093273e-09	-3.896943e+01	-2.630822e+02
9.700000e-07	-5.415253e-06	-4.087696e-09	-3.861201e+01	-2.623435e+02
9.800000e-07	-5.364574e-06	-4.073689e-09	-3.825065e+01	-2.616030e+02
9.900000e-07	-5.313412e-06	-4.052372e-09	-3.788586e+01	-2.608609e+02
1.000000e-06	-5.261802e-06	-4.039673e-09	-3.751786e+01	-2.601168e+02
1.010000e-06	-5.209642e-06	-4.039820e-09	-3.714595e+01	-2.593700e+02
1.020000e-06	-5.157073e-06	-4.025483e-09	-3.677112e+01	-2.586195e+02
1.030000e-06	-5.104171e-06	-4.001112e-09	-3.639392e+01	-2.578638e+02
1.040000e-06	-5.050958e-06	-3.988392e-09	-3.601450e+01	-2.571011e+02
1.050000e-06	-4.997516e-06	-3.987174e-09	-3.563344e+01	-2.563294e+02
1.060000e-06	-4.943761e-06	-3.975043e-09	-3.525016e+01	-2.555465e+02
1.070000e-06	-4.889587e-06	-3.953527e-09	-3.486388e+01	-2.547501e+02
1.080000e-06	-4.835054e-06	-3.940960e-09	-3.447505e+01	-2.539379e+02
1.090000e-06	-4.780173e-06	-3.937882e-09	-3.408374e+01	-2.531076e+02
1.100000e-06	-4.724970e-06	-3.927185e-09	-3.369013e+01	-2.522569e+02
1.110000e-06	-4.669507e-06	-3.907338e-09	-3.329466e+01	-2.513838e+02
1.120000e-06	-4.613812e-06	-3.888907e-09	-3.289755e+01	-2.504865e+02
1.130000e-06	-4.557947e-06	-3.876173e-09	-3.249922e+01	-2.495636e+02
1.140000e-06	-4.501789e-06	-3.862314e-09	-3.209880e+01	-2.486139e+02
1.150000e-06	-4.445190e-06	-3.844135e-09	-3.169523e+01	-2.476367e+02
1.160000e-06	-4.388104e-06	-3.825357e-09	-3.128819e+01	-2.466315e+02
1.170000e-06	-4.330613e-06	-3.809690e-09	-3.087827e+01	-2.455983e+02
1.180000e-06	-4.272701e-06	-3.798672e-09	-3.046534e+01	-2.445375e+02
1.190000e-06	-4.214339e-06	-3.785488e-09	-3.004921e+01	-2.434497e+02
1.200000e-06	-4.155707e-06	-3.766246e-09	-2.963115e+01	-2.423359e+02
1.210000e-06	-4.096775e-06	-3.745008e-09	-2.921095e+01	-2.411972e+02
1.220000e-06	-4.037541e-06	-3.729775e-09	-2.878860e+01	-2.400350e+02
1.230000e-06	-3.978153e-06	-3.716249e-09	-2.836515e+01	-2.388507e+02
1.240000e-06	-3.918524e-06	-3.693639e-09	-2.793998e+01	-2.376457e+02
1.250000e-06	-3.858539e-06	-3.665638e-09	-2.751228e+01	-2.364214e+02
1.260000e-06	-3.798257e-06	-3.644186e-09	-2.708245e+01	-2.351790e+02
1.270000e-06	-3.737692e-06	-3.624901e-09	-2.665061e+01	-2.339194e+02
1.280000e-06	-3.676903e-06	-3.606654e-09	-2.621716e+01	-2.326432e+02
1.290000e-06	-3.615905e-06	-3.591259e-09	-2.578224e+01	-2.313507e+02
1.300000e-06	-3.554712e-06	-3.577204e-09	-2.534592e+01	-2.300418e+02
1.310000e-06	-3.493363e-06	-3.558025e-09	-2.490848e+01	-2.287159e+02
1.320000e-06	-3.431849e-06	-3.536212e-09	-2.446987e+01	-2.273721e+02
1.330000e-06	-3.370135e-06	-3.510812e-09	-2.402984e+01	-2.260087e+02
1.340000e-06	-3.308063e-06	-3.483613e-09	-2.358725e+01	-2.246239e+02
1.350000e-06	-3.245625e-06	-3.455885e-09	-2.314205e+01	-2.232154e+02
1.360000e-06	-3.182908e-06	-3.432233e-09	-2.269487e+01	-2.217804e+02
1.370000e-06	-3.119993e-06	-3.409153e-09	-2.224627e+01	-2.203160e+02
1.380000e-06	-3.056931e-06	-3.381756e-09	-2.179662e+01	-2.188190e+02
1.390000e-06	-2.993722e-06	-3.358269e-09	-2.134593e+01	-2.172861e+02
1.400000e-06	-2.930402e-06	-3.336536e-09	-2.089444e+01	-2.157140e+02
1.410000e-06	-2.866979e-06	-3.310661e-09	-2.044223e+01	-2.140995e+02
1.420000e-06	-2.803474e-06	-3.279049e-09	-1.998942e+01	-2.124393e+02
1.430000e-06	-2.739855e-06	-3.250508e-09	-1.953580e+01	-2.107307e+02
1.440000e-06	-2.676046e-06	-3.223975e-09	-1.908083e+01	-2.089712e+02
1.450000e-06	-2.612045e-06	-3.198294e-09	-1.862449e+01	-2.071586e+02
1.460000e-06	-2.547830e-06	-3.171048e-09	-1.816661e+01	-2.052913e+02
1.470000e-06	-2.483349e-06	-3.141856e-09	-1.770685e+01	-2.033681e+02
1.480000e-06	-2.418611e-06	-3.111111e-09	-1.724525e+01	-2.013883e+02
1.490000e-06	-2.353691e-06	-3.079669e-09	-1.678236e+01	-1.993517e+02
1.500000e-06	-2.288445e-06	-3.048890e-09	-1.631714e+01	-1.972585e+02
1.510000e-06	-2.222853e-06	-3.018153e-09	-1.584945e+01	-1.951094e+02
1.520000e-06	-2.157080e-06	-2.986154e-09	-1.538048e+01	-1.929052e+02
1.530000e-06	-2.091126e-06	-2.954355e-09	-1.491021e+01	-1.906471e+02
1.540000e-06	-2.024934e-06	-2.922500e-09	-1.443824e+01	-1.883362e+02
1.550000e-06	-1.958583e-06	-2.887383e-09	-1.396515e+01	-1.859736e+02
1.560000e-06	-1.892159e-06	-2.845212e-09	-1.349153e+01	-1.835600e+02
1.570000e-06	-1.825535e-06	-2.804942e-09	-1.301649e+01	-1.810959e+02
1.580000e-06	-1.758762e-06	-2.767896e-09	-1.254038e+01	-1.785810e+02
1.590000e-06	-1.691934e-06	-2.730360e-09	-1.206388e+01	-1.760144e+02
1.600000e-06	-1.625007e-06	-2.691079e-09	-1.158668e+01	-1.733941e+02
1.610000e-06	-1.558012e-06	-2.653405e-09	-1.110898e+01	-1.707171e+02
1.620000e-06	-1.490978e-06	-2.615787e-09	-1.063102e+01	-1.679792e+02
1.630000e-06	-1.423811e-06	-2.573668e-09	-1.015210e+01	-1.651751e+02
1.640000e-06	-1.356515e-06	-2.528413e-09	-9.672263e+00	-1.622977e+02
1.650000e-06	-1.289215e-06	-2.480792e-09	-9.192398e+00	-1.593388e+02
1.660000e-06	-1.221862e-06	-2.432738e-09	-8.712155e+00	-1.562887e+02
1.670000e-06	-1.154365e-06	-2.382552e-09	-8.230890e+00	-1.531363e+02
1.680000e-06	-1.086861e-06	-2.330713e-09	-7.749568e+00	-1.498693e+02
1.690000e-06	-1.019298e-06	-2.272964e-09	-7.267833e+00	-1.464742e+02
1.700000e-06	-9.516607e-07	-2.214409e-09	-6.785560e+00	-1.429365e+02
1.710000e-06	-8.840113e-07	-2.156748e-09	-6.303205e+00	-1.392410e+02
1.720000e-06	-8.163134e-07	-2.097140e-09	-5.820503e+00	-1.353719e+02
1.730000e-06	-7.485293e-07	-2.035008e-09	-5.337187e+00	-1.313133e+02
1.740000e-06	-6.806130e-07	-1.971204e-09	-4.852928e+00	-1.270493e+02
1.750000e-06	-6.127313e-07	-1.903394e-09	-4.368916e+00	-1.225645e+02
1.760000e-06	-5.448430e-07	-1.830896e-09	-3.884857e+00	-1.178442e+02
1.770000e-06	-4.768226e-07	-1.752787e-09	-3.399855e+00	-1.128751e+02
1.780000e-06	-4.088360e-07	-1.670904e-09	-2.915095e+00	-1.076450e+02
1.790000e-06	-3.408320e-07	-1.585054e-09	-2.430211e+00	-1.021440e+02
1.800000e-06	-2.727061e-07	-1.497348e-09	-1.944457e+00	-9.636411e+01
1.810000e-06	-2.045614e-07	-1.408780e-09	-1.458570e+00	-9.030002e+01
1.820000e-06	-1.364716e-07	-1.317969e-09	-9.730740e-01	-8.394909e+01
1.830000e-06	-6.846048e-08	-1.225077e-09	-4.881390e-01	-7.731174e+01
1.840000e-06	-4.674405e-10	-1.126617e-09	-3.332959e-03	-7.039157e+01
1.850000e-06	6.753009e-08	-1.020633e-09	4.815051e-01	-6.319547e+01
1.860000e-06	1.355121e-07	-9.070642e-10	9.662325e-01	-5.573372e+01
1.870000e-06	2.035201e-07	-7.892980e-10	1.451145e+00	-4.801999e+01
1.880000e-06	2.714872e-07	-6.663552e-10	1.935766e+00	-4.007123e+01
1.890000e-06	3.394089e-07	-5.397677e-10	2.420064e+00	-3.190760e+01
1.900000e-06	4.073835e-07	-4.104527e-10	2.904739e+00	-2.355223e+01
1.910000e-06	4.753779e-07	-2.801231e-10	3.389554e+00	-1.503101e+01
1.920000e-06	5.433366e-07	-1.509132e-10	3.874116e+00	-6.372248e+00
1.930000e-06	6.112524e-07	-1.996470e-11	4.358371e+00	2.393685e+00
1.940000e-06	6.790817e-07	1.184660e-10	4.842009e+00	1.123475e+01
1.950000e-06	7.468634e-07	2.603745e-10	5.325308e+00	2.011767e+01
1.960000e-06	8.146522e-07	4.002603e-10	5.808658e+00	2.900845e+01
1.970000e-06	8.823570e-07	5.382155e-10	6.291409e+00	3.787278e+01
1.980000e-06	9.500047e-07	6.767061e-10	6.773753e+00	4.667662e+01
1.990000e-06	1.017556e-06	8.129521e-10	7.255406e+00	5.538661e+01
2.000000e-06	1.084988e-06	9.442739e-10	7.736214e+00	6.397060e+01
2.010000e-06	1.152396e-06	1.070751e-09	8.216853e+00	7.239806e+01
2.020000e-06	1.219774e-06	1.192587e-09	8.697270e+00	8.064056e+01
2.030000e-06	1.287101e-06	1.311108e-09	9.177326e+00	8.867209e+01
2.040000e-06	1.354371e-06	1.425397e-09	9.656980e+00	9.646943e+01
2.050000e-06	1.421632e-06	1.533087e-09	1.013656e+01	1.040124e+02
2.060000e-06	1.488859e-06	1.636987e-09	1.061591e+01	1.112841e+02
2.070000e-06	1.555988e-06	1.739925e-09	1.109455e+01	1.182710e+02
2.080000e-06	1.622975e-06	1.837573e-09	1.157219e+01	1.249632e+02
2.090000e-06	1.689895e-06	1.929933e-09	1.204934e+01	1.313542e+02
2.100000e-06	1.756798e-06	2.019813e-09	1.252637e+01	1.374409e+02
2.110000e-06	1.823517e-06	2.106618e-09	1.300209e+01	1.432237e+02
2.120000e-06	1.890003e-06	2.186449e-09	1.347616e+01	1.487061e+02
2.130000e-06	1.956307e-06	2.259784e-09	1.394892e+01	1.538947e+02
2.140000e-06	2.022369e-06	2.330804e-09	1.441996e+01	1.587985e+02
2.150000e-06	2.088217e-06	2.398911e-09	1.488947e+01	1.634291e+02
2.160000e-06	2.153916e-06	2.463318e-09	1.535792e+01	1.677999e+02
2.170000e-06	2.219386e-06	2.524258e-09	1.582473e+01	1.719262e+02
2.180000e-06	2.284633e-06	2.581539e-09	1.628996e+01	1.758242e+02
2.190000e-06	2.349553e-06	2.638348e-09	1.675286e+01	1.795113e+02
2.200000e-06	2.414225e-06	2.693109e-09	1.721398e+01	1.830051e+02
2.210000e-06	2.478746e-06	2.740657e-09	1.767403e+01	1.863234e+02
2.220000e-06	2.543035e-06	2.783417e-09	1.813243e+01	1.894837e+02
2.230000e-06	2.607101e-06	2.826729e-09	1.858923e+01	1.925029e+02
2.240000e-06	2.670942e-06	2.870511e-09	1.904443e+01	1.953971e+02
2.250000e-06	2.734614e-06	2.910813e-09	1.949843e+01	1.981811e+02
2.260000e-06	2.798185e-06	2.945269e-09	1.995171e+01	2.008686e+02
2.270000e-06	2.861693e-06	2.979394e-09	2.040453e+01	2.034714e+02
2.280000e-06	2.924968e-06	3.016624e-09	2.085570e+01	2.060001e+02
2.290000e-06	2.988073e-06	3.054872e-09	2.130565e+01	2.084635e+02
2.300000e-06	3.051144e-06	3.089560e-09	2.175536e+01	2.108686e+02
2.310000e-06	3.114019e-06	3.122823e-09	2.220368e+01	2.132209e+02
2.320000e-06	3.176618e-06	3.158894e-09	2.265002e+01	2.155242e+02
2.330000e-06	3.239055e-06	3.193321e-09	2.309521e+01	2.177810e+02
2.340000e-06	3.301353e-06	3.221399e-09	2.353941e+01	2.199923e+02
2.350000e-06	3.363400e-06	3.246356e-09	2.398182e+01	2.221582e+02
2.360000e-06	3.425146e-06	3.274162e-09	2.442208e+01	2.242777e+02
2.370000e-06	3.486687e-06	3.303697e-09	2.486088e+01	2.263492e+02
2.380000e-06	3.548060e-06	3.330450e-09	2.529849e+01	2.283703e+02
2.390000e-06	3.609147e-06	3.355523e-09	2.573405e+01	2.303387e+02
2.400000e-06	3.669922e-06	3.382094e-09	2.616739e+01	2.322517e+02
2.410000e-06	3.730411e-06	3.408170e-09	2.659869e+01	2.341069e+02
2.420000e-06	3.790651e-06	3.432332e-09	2.702822e+01	2.359020e+02
2.430000e-06	3.850630e-06	3.453812e-09	2.745588e+01	2.376352e+02
2.440000e-06	3.910344e-06	3.474882e-09	2.788166e+01	2.393052e+02
2.450000e-06	3.969884e-06	3.495715e-09	2.830619e+01	2.409115e+02
2.460000e-06	4.029299e-06	3.513932e-09	2.872983e+01	2.424542e+02
2.470000e-06	4.088530e-06	3.532608e-09	2.915216e+01	2.439342e+02
2.480000e-06	4.147450e-06	3.553194e-09	2.957228e+01	2.453531e+02
2.490000e-06	4.205932e-06	3.575773e-09	2.998927e+01	2.467131e+02
2.500000e-06	4.264071e-06	3.595239e-09	3.040381e+01	2.480175e+02
2.510000e-06	4.321806e-06	3.614580e-09	3.081547e+01	2.492698e+02
2.520000e-06	4.378868e-06	3.635701e-09	3.122234e+01	2.504740e+02
2.530000e-06	4.435401e-06	3.655952e-09	3.162543e+01	2.516348e+02
2.540000e-06	4.491619e-06	3.672962e-09	3.202628e+01	2.527569e+02
2.550000e-06	4.547573e-06	3.687009e-09	3.242525e+01	2.538452e+02
2.560000e-06	4.603267e-06	3.702525e-09	3.282236e+01	2.549045e+02
2.570000e-06	4.658739e-06	3.721124e-09	3.321789e+01	2.559396e+02
2.580000e-06	4.713990e-06	3.739700e-09	3.361183e+01	2.569549e+02
2.590000e-06	4.768995e-06	3.755451e-09	3.400404e+01	2.579545e+02
2.600000e-06	4.823708e-06	3.771019e-09	3.439415e+01	2.589420e+02
2.610000e-06	4.878078e-06	3.788853e-09	3.478182e+01	2.599202e+02
2.620000e-06	4.932085e-06	3.808016e-09	3.516690e+01	2.608917e+02
2.630000e-06	4.985742e-06	3.824475e-09	3.554949e+01	2.618581e+02
2.640000e-06	5.039077e-06	3.839558e-09	3.592978e+01	2.628204e+02
2.650000e-06	5.092053e-06	3.856160e-09	3.630751e+01	2.637789e+02
2.660000e-06	5.144640e-06	3.871881e-09	3.668247e+01	2.647334e+02
2.670000e-06	5.196813e-06	3.881787e-09	3.705448e+01	2.656828e+02
2.680000e-06	5.248525e-06	3.891348e-09	3.742320e+01	2.666258e+02
2.690000e-06	5.299795e-06	3.906591e-09	3.778876e+01	2.675603e+02
2.700000e-06	5.350683e-06	3.922283e-09	3.815161e+01	2.684843e+02
2.710000e-06	5.401028e-06	3.935684e-09	3.851058e+01	2.693951e+02
2.720000e-06	5.450633e-06	3.947410e-09	3.886428e+01	2.702902e+02
2.730000e-06	5.499541e-06	3.961986e-09	3.921299e+01	2.711670e+02
2.740000e-06	5.547936e-06	3.977565e-09	3.955806e+01	2.720227e+02
2.750000e-06	5.596006e-06	3.988569e-09	3.990081e+01	2.728552e+02
2.760000e-06	5.643780e-06	3.996181e-09	4.024145e+01	2.736624e+02
2.770000e-06	5.691206e-06	4.004173e-09	4.057961e+01	2.744425e+02
2.780000e-06	5.738270e-06	4.016670e-09	4.091519e+01	2.751944e+02
2.790000e-06	5.784911e-06	4.028913e-09	4.124775e+01	2.759172e+02
2.800000e-06	5.831095e-06	4.036459e-09	4.157705e+01	2.766107e+02
2.810000e-06	5.876966e-06	4.045526e-09	4.190413e+01	2.772754e+02
2.820000e-06	5.922490e-06	4.059502e-09	4.222872e+01	2.779118e+02
2.830000e-06	5.967504e-06	4.072704e-09	4.254968e+01	2.785215e+02
2.840000e-06	6.012130e-06	4.081118e-09	4.286787e+01	2.791062e+02
2.850000e-06	6.056458e-06	4.087606e-09	4.318395e+01	2.796681e+02
2.860000e-06	6.100421e-06	4.097531e-09	4.349741e+01	2.802097e+02
2.870000e-06	6.144014e-06	4.108547e-09	4.380824e+01	2.807337e+02
2.880000e-06	6.187247e-06	4.116420e-09	4.411650e+01	2.812430e+02
2.890000e-06	6.230223e-06	4.122352e-09	4.442293e+01	2.817407e+02
2.900000e-06	6.272774e-06	4.131562e-09	4.472633e+01	2.822296e+02
