# Temperatura_=_20.0
# Concentracion g/m^3_=_9000.0
# C_Vs_to_Am_M_A/Vsm_=_65563218390.804596
# pendiente_HvsI_1/m_=_3716.3
# ordenada_HvsI_A/m_=_1297.0
# frecuencia_Hz_=_135466.2116399486

Tiempo_(s)	Campo_(V.s)	Magnetizacion_(V.s)	Campo_(kA/m)	Magnetizacion_(A/m)
0.000000e+00	-8.043133e-06	-5.729836e-10	-5.694017e+01	-3.765958e+01
1.000000e-08	-8.043446e-06	-5.710195e-10	-5.694239e+01	-3.739219e+01
2.000000e-08	-8.043344e-06	-5.667423e-10	-5.694167e+01	-3.710425e+01
3.000000e-08	-8.042699e-06	-5.595851e-10	-5.693710e+01	-3.679440e+01
4.000000e-08	-8.041310e-06	-5.535476e-10	-5.692727e+01	-3.646165e+01
5.000000e-08	-8.039023e-06	-5.488580e-10	-5.691108e+01	-3.610534e+01
6.000000e-08	-8.035973e-06	-5.423973e-10	-5.688949e+01	-3.572525e+01
7.000000e-08	-8.032512e-06	-5.396930e-10	-5.686498e+01	-3.532156e+01
8.000000e-08	-8.028705e-06	-5.480195e-10	-5.683803e+01	-3.489492e+01
9.000000e-08	-8.024465e-06	-5.571158e-10	-5.680801e+01	-3.444642e+01
1.000000e-07	-8.019575e-06	-5.231304e-10	-5.677340e+01	-3.397760e+01
1.100000e-07	-8.013801e-06	-4.620198e-10	-5.673252e+01	-3.349043e+01
1.200000e-07	-8.007124e-06	-4.404926e-10	-5.668525e+01	-3.298726e+01
1.300000e-07	-7.999735e-06	-5.312805e-10	-5.663294e+01	-3.247082e+01
1.400000e-07	-7.992050e-06	-6.320285e-10	-5.657854e+01	-3.194411e+01
1.500000e-07	-7.984211e-06	-4.951705e-10	-5.652304e+01	-3.141041e+01
1.600000e-07	-7.975843e-06	-3.549089e-10	-5.646380e+01	-3.087315e+01
1.700000e-07	-7.966843e-06	-5.057893e-10	-5.640009e+01	-3.033590e+01
1.800000e-07	-7.957272e-06	-6.336985e-10	-5.633233e+01	-2.980225e+01
1.900000e-07	-7.946844e-06	-5.827467e-10	-5.625851e+01	-2.927572e+01
2.000000e-07	-7.935566e-06	-5.038604e-10	-5.617867e+01	-2.875973e+01
2.100000e-07	-7.923825e-06	-4.459153e-10	-5.609555e+01	-2.825752e+01
2.200000e-07	-7.911604e-06	-4.811229e-10	-5.600903e+01	-2.777202e+01
2.300000e-07	-7.898584e-06	-6.128091e-10	-5.591686e+01	-2.730585e+01
2.400000e-07	-7.884931e-06	-5.761357e-10	-5.582020e+01	-2.686123e+01
2.500000e-07	-7.870904e-06	-2.835963e-10	-5.572090e+01	-2.643993e+01
2.600000e-07	-7.856041e-06	-2.991653e-10	-5.561568e+01	-2.604325e+01
2.700000e-07	-7.840053e-06	-5.791194e-10	-5.550250e+01	-2.567198e+01
2.800000e-07	-7.823415e-06	-5.452853e-10	-5.538471e+01	-2.532637e+01
2.900000e-07	-7.806369e-06	-2.916776e-10	-5.526404e+01	-2.500616e+01
3.000000e-07	-7.788852e-06	-3.602486e-10	-5.514003e+01	-2.471055e+01
3.100000e-07	-7.770765e-06	-5.396264e-10	-5.501198e+01	-2.443827e+01
3.200000e-07	-7.752052e-06	-4.633571e-10	-5.487950e+01	-2.418756e+01
3.300000e-07	-7.732878e-06	-3.798795e-10	-5.474377e+01	-2.395626e+01
3.400000e-07	-7.713372e-06	-4.199843e-10	-5.460568e+01	-2.374182e+01
3.500000e-07	-7.693539e-06	-3.755887e-10	-5.446527e+01	-2.354142e+01
3.600000e-07	-7.673220e-06	-3.986049e-10	-5.432143e+01	-2.335195e+01
3.700000e-07	-7.652313e-06	-5.301144e-10	-5.417342e+01	-2.317019e+01
3.800000e-07	-7.630958e-06	-4.228802e-10	-5.402224e+01	-2.299279e+01
3.900000e-07	-7.609207e-06	-2.629384e-10	-5.386826e+01	-2.281640e+01
4.000000e-07	-7.586784e-06	-3.903336e-10	-5.370952e+01	-2.263773e+01
4.100000e-07	-7.563637e-06	-5.238368e-10	-5.354565e+01	-2.245364e+01
4.200000e-07	-7.540105e-06	-3.572626e-10	-5.337906e+01	-2.226115e+01
4.300000e-07	-7.516288e-06	-2.193323e-10	-5.321045e+01	-2.205758e+01
4.400000e-07	-7.491810e-06	-3.373098e-10	-5.303716e+01	-2.184055e+01
4.500000e-07	-7.466369e-06	-4.423067e-10	-5.285705e+01	-2.160802e+01
4.600000e-07	-7.440309e-06	-3.195973e-10	-5.267257e+01	-2.135837e+01
4.700000e-07	-7.413705e-06	-2.357316e-10	-5.248423e+01	-2.109038e+01
4.800000e-07	-7.386503e-06	-3.024761e-10	-5.229166e+01	-2.080323e+01
4.900000e-07	-7.358942e-06	-3.512252e-10	-5.209654e+01	-2.049658e+01
5.000000e-07	-7.331023e-06	-3.083582e-10	-5.189890e+01	-2.017044e+01
5.100000e-07	-7.302566e-06	-2.809549e-10	-5.169744e+01	-1.982527e+01
5.200000e-07	-7.273522e-06	-2.540777e-10	-5.149183e+01	-1.946187e+01
5.300000e-07	-7.243998e-06	-2.583745e-10	-5.128281e+01	-1.908135e+01
5.400000e-07	-7.213921e-06	-2.915132e-10	-5.106989e+01	-1.868512e+01
5.500000e-07	-7.183308e-06	-2.758625e-10	-5.085317e+01	-1.827481e+01
5.600000e-07	-7.152307e-06	-2.120778e-10	-5.063370e+01	-1.785224e+01
5.700000e-07	-7.120941e-06	-2.139833e-10	-5.041165e+01	-1.741931e+01
5.800000e-07	-7.089099e-06	-2.618784e-10	-5.018623e+01	-1.697800e+01
5.900000e-07	-7.056787e-06	-2.625765e-10	-4.995748e+01	-1.653028e+01
6.000000e-07	-7.023916e-06	-2.071655e-10	-4.972478e+01	-1.607808e+01
6.100000e-07	-6.990272e-06	-1.799432e-10	-4.948660e+01	-1.562318e+01
6.200000e-07	-6.955921e-06	-2.154681e-10	-4.924342e+01	-1.516726e+01
6.300000e-07	-6.921025e-06	-2.295921e-10	-4.899638e+01	-1.471176e+01
6.400000e-07	-6.885689e-06	-1.782756e-10	-4.874622e+01	-1.425793e+01
6.500000e-07	-6.850008e-06	-1.471402e-10	-4.849362e+01	-1.380675e+01
6.600000e-07	-6.813997e-06	-1.838332e-10	-4.823868e+01	-1.335895e+01
6.700000e-07	-6.777474e-06	-1.910086e-10	-4.798013e+01	-1.291498e+01
6.800000e-07	-6.740269e-06	-1.571636e-10	-4.771674e+01	-1.247504e+01
6.900000e-07	-6.702474e-06	-1.452723e-10	-4.744918e+01	-1.203905e+01
7.000000e-07	-6.664249e-06	-1.582341e-10	-4.717856e+01	-1.160671e+01
7.100000e-07	-6.625571e-06	-1.488372e-10	-4.690475e+01	-1.117752e+01
7.200000e-07	-6.586493e-06	-1.419793e-10	-4.662810e+01	-1.075077e+01
7.300000e-07	-6.547139e-06	-1.295850e-10	-4.634950e+01	-1.032562e+01
7.400000e-07	-6.507472e-06	-1.116445e-10	-4.606868e+01	-9.901134e+00
7.500000e-07	-6.467488e-06	-1.118019e-10	-4.578563e+01	-9.476286e+00
7.600000e-07	-6.427086e-06	-1.260215e-10	-4.549960e+01	-9.050045e+00
7.700000e-07	-6.386038e-06	-1.034552e-10	-4.520901e+01	-8.621391e+00
7.800000e-07	-6.344283e-06	-7.875749e-11	-4.491342e+01	-8.189364e+00
7.900000e-07	-6.301856e-06	-9.065573e-11	-4.461306e+01	-7.753092e+00
8.000000e-07	-6.258814e-06	-1.058399e-10	-4.430835e+01	-7.311829e+00
8.100000e-07	-6.215302e-06	-8.177615e-11	-4.400032e+01	-6.864979e+00
8.200000e-07	-6.171378e-06	-5.154250e-11	-4.368936e+01	-6.412113e+00
8.300000e-07	-6.127052e-06	-5.373515e-11	-4.337556e+01	-5.952989e+00
8.400000e-07	-6.082411e-06	-6.715422e-11	-4.305953e+01	-5.487554e+00
8.500000e-07	-6.037371e-06	-5.034963e-11	-4.274068e+01	-5.015946e+00
8.600000e-07	-5.991881e-06	-1.568038e-11	-4.241863e+01	-4.538487e+00
8.700000e-07	-5.945910e-06	-7.453929e-12	-4.209319e+01	-4.055673e+00
8.800000e-07	-5.899527e-06	-2.355138e-11	-4.176483e+01	-3.568150e+00
8.900000e-07	-5.852854e-06	-2.370034e-11	-4.143442e+01	-3.076695e+00
9.000000e-07	-5.805870e-06	-3.935602e-12	-4.110180e+01	-2.582188e+00
9.100000e-07	-5.758464e-06	8.247799e-12	-4.076619e+01	-2.085579e+00
9.200000e-07	-5.710624e-06	8.408297e-12	-4.042752e+01	-1.587858e+00
9.300000e-07	-5.662382e-06	6.724120e-12	-4.008600e+01	-1.090021e+00
9.400000e-07	-5.613497e-06	2.049833e-11	-3.973992e+01	-5.930345e-01
9.500000e-07	-5.563917e-06	4.628620e-11	-3.938892e+01	-9.780730e-02
9.600000e-07	-5.513734e-06	6.195506e-11	-3.903367e+01	3.948408e-01
9.700000e-07	-5.462989e-06	5.315518e-11	-3.867442e+01	8.842041e-01
9.800000e-07	-5.411727e-06	5.091502e-11	-3.831152e+01	1.369712e+00
9.900000e-07	-5.360009e-06	6.944298e-11	-3.794539e+01	1.850948e+00
1.000000e-06	-5.307890e-06	8.550064e-11	-3.757642e+01	2.327655e+00
1.010000e-06	-5.255334e-06	8.248358e-11	-3.720436e+01	2.799748e+00
1.020000e-06	-5.202419e-06	8.123844e-11	-3.682976e+01	3.267308e+00
1.030000e-06	-5.149183e-06	9.719015e-11	-3.645288e+01	3.730578e+00
1.040000e-06	-5.095573e-06	1.214065e-10	-3.607336e+01	4.189951e+00
1.050000e-06	-5.041673e-06	1.334686e-10	-3.569178e+01	4.645951e+00
1.060000e-06	-4.987420e-06	1.367581e-10	-3.530770e+01	5.099216e+00
1.070000e-06	-4.932719e-06	1.421644e-10	-3.492045e+01	5.550469e+00
1.080000e-06	-4.877775e-06	1.571391e-10	-3.453149e+01	6.000492e+00
1.090000e-06	-4.822545e-06	1.672908e-10	-3.414050e+01	6.450097e+00
1.100000e-06	-4.766985e-06	1.673218e-10	-3.374717e+01	6.900093e+00
1.110000e-06	-4.711176e-06	1.670740e-10	-3.335208e+01	7.351260e+00
1.120000e-06	-4.655143e-06	1.764636e-10	-3.295540e+01	7.804318e+00
1.130000e-06	-4.598880e-06	1.954706e-10	-3.255709e+01	8.259898e+00
1.140000e-06	-4.542220e-06	2.104523e-10	-3.215597e+01	8.718523e+00
1.150000e-06	-4.485080e-06	2.208824e-10	-3.175146e+01	9.180586e+00
1.160000e-06	-4.427408e-06	2.328250e-10	-3.134318e+01	9.646337e+00
1.170000e-06	-4.369265e-06	2.465569e-10	-3.093157e+01	1.011587e+01
1.180000e-06	-4.310758e-06	2.540067e-10	-3.051738e+01	1.058911e+01
1.190000e-06	-4.251922e-06	2.572487e-10	-3.010085e+01	1.106585e+01
1.200000e-06	-4.192765e-06	2.605628e-10	-2.968206e+01	1.154570e+01
1.210000e-06	-4.133402e-06	2.686221e-10	-2.926181e+01	1.202814e+01
1.220000e-06	-4.073841e-06	2.790924e-10	-2.884016e+01	1.251254e+01
1.230000e-06	-4.013961e-06	2.928162e-10	-2.841624e+01	1.299814e+01
1.240000e-06	-3.953751e-06	3.054367e-10	-2.799000e+01	1.348412e+01
1.250000e-06	-3.893337e-06	3.132563e-10	-2.756230e+01	1.396960e+01
1.260000e-06	-3.832759e-06	3.188097e-10	-2.713345e+01	1.445366e+01
1.270000e-06	-3.771866e-06	3.250703e-10	-2.670237e+01	1.493541e+01
1.280000e-06	-3.710708e-06	3.316061e-10	-2.626941e+01	1.541396e+01
1.290000e-06	-3.649327e-06	3.415283e-10	-2.583487e+01	1.588852e+01
1.300000e-06	-3.587758e-06	3.532123e-10	-2.539900e+01	1.635835e+01
1.310000e-06	-3.525939e-06	3.644079e-10	-2.496137e+01	1.682284e+01
1.320000e-06	-3.463858e-06	3.726778e-10	-2.452187e+01	1.728151e+01
1.330000e-06	-3.401580e-06	3.797566e-10	-2.408098e+01	1.773400e+01
1.340000e-06	-3.338998e-06	3.860158e-10	-2.363794e+01	1.818013e+01
1.350000e-06	-3.276100e-06	3.899013e-10	-2.319267e+01	1.861988e+01
1.360000e-06	-3.212940e-06	3.939915e-10	-2.274554e+01	1.905336e+01
1.370000e-06	-3.149612e-06	3.994296e-10	-2.229721e+01	1.948085e+01
1.380000e-06	-3.086212e-06	4.040494e-10	-2.184838e+01	1.990279e+01
1.390000e-06	-3.022699e-06	4.094286e-10	-2.139875e+01	2.031971e+01
1.400000e-06	-2.959004e-06	4.165129e-10	-2.094783e+01	2.073225e+01
1.410000e-06	-2.895221e-06	4.229094e-10	-2.049629e+01	2.114117e+01
1.420000e-06	-2.831347e-06	4.273426e-10	-2.004410e+01	2.154722e+01
1.430000e-06	-2.767291e-06	4.312209e-10	-1.959063e+01	2.195122e+01
1.440000e-06	-2.702971e-06	4.383932e-10	-1.913528e+01	2.235398e+01
1.450000e-06	-2.638375e-06	4.483478e-10	-1.867798e+01	2.275624e+01
1.460000e-06	-2.573618e-06	4.575057e-10	-1.821955e+01	2.315870e+01
1.470000e-06	-2.508585e-06	4.631959e-10	-1.775916e+01	2.356196e+01
1.480000e-06	-2.443234e-06	4.683296e-10	-1.729651e+01	2.396649e+01
1.490000e-06	-2.377632e-06	4.718743e-10	-1.683210e+01	2.437262e+01
1.500000e-06	-2.311685e-06	4.756401e-10	-1.636523e+01	2.478050e+01
1.510000e-06	-2.245425e-06	4.810461e-10	-1.589616e+01	2.519014e+01
1.520000e-06	-2.178975e-06	4.885394e-10	-1.542573e+01	2.560131e+01
1.530000e-06	-2.112401e-06	4.956140e-10	-1.495443e+01	2.601365e+01
1.540000e-06	-2.045720e-06	5.031850e-10	-1.448237e+01	2.642655e+01
1.550000e-06	-1.978860e-06	5.111434e-10	-1.400905e+01	2.683927e+01
1.560000e-06	-1.911811e-06	5.173274e-10	-1.353439e+01	2.725088e+01
1.570000e-06	-1.844687e-06	5.220269e-10	-1.305919e+01	2.766029e+01
1.580000e-06	-1.777477e-06	5.251574e-10	-1.258339e+01	2.806631e+01
1.590000e-06	-1.710148e-06	5.275866e-10	-1.210674e+01	2.846762e+01
1.600000e-06	-1.642732e-06	5.337028e-10	-1.162948e+01	2.886283e+01
1.610000e-06	-1.575243e-06	5.420323e-10	-1.115170e+01	2.925052e+01
1.620000e-06	-1.507682e-06	5.500663e-10	-1.067342e+01	2.962924e+01
1.630000e-06	-1.440064e-06	5.568328e-10	-1.019472e+01	2.999757e+01
1.640000e-06	-1.372378e-06	5.616992e-10	-9.715551e+00	3.035413e+01
1.650000e-06	-1.304586e-06	5.670137e-10	-9.235623e+00	3.069762e+01
1.660000e-06	-1.236683e-06	5.741704e-10	-8.754912e+00	3.102686e+01
1.670000e-06	-1.168702e-06	5.782218e-10	-8.273655e+00	3.134079e+01
1.680000e-06	-1.100658e-06	5.805721e-10	-7.791946e+00	3.163850e+01
1.690000e-06	-1.032631e-06	5.822765e-10	-7.310361e+00	3.191925e+01
1.700000e-06	-9.646101e-07	5.846818e-10	-6.828815e+00	3.218248e+01
1.710000e-06	-8.965773e-07	5.890230e-10	-6.347187e+00	3.242782e+01
1.720000e-06	-8.285097e-07	5.936426e-10	-5.865312e+00	3.265507e+01
1.730000e-06	-7.604040e-07	6.016568e-10	-5.383168e+00	3.286425e+01
1.740000e-06	-6.922205e-07	6.108144e-10	-4.900473e+00	3.305553e+01
1.750000e-06	-6.239221e-07	6.161469e-10	-4.416964e+00	3.322925e+01
1.760000e-06	-5.555929e-07	6.185965e-10	-3.933238e+00	3.338592e+01
1.770000e-06	-4.871820e-07	6.213519e-10	-3.448933e+00	3.352616e+01
1.780000e-06	-4.186604e-07	6.227613e-10	-2.963845e+00	3.365072e+01
1.790000e-06	-3.501186e-07	6.213028e-10	-2.478613e+00	3.376045e+01
1.800000e-06	-2.815684e-07	6.203641e-10	-1.993322e+00	3.385624e+01
1.810000e-06	-2.129948e-07	6.236344e-10	-1.507865e+00	3.393905e+01
1.820000e-06	-1.444446e-07	6.287701e-10	-1.022574e+00	3.400985e+01
1.830000e-06	-7.585731e-08	6.333605e-10	-5.370206e-01	3.406962e+01
1.840000e-06	-7.275143e-09	6.371356e-10	-5.150330e-02	3.411933e+01
1.850000e-06	6.123983e-08	6.383597e-10	4.335384e-01	3.415989e+01
1.860000e-06	1.297748e-07	6.388654e-10	9.187219e-01	3.419219e+01
1.870000e-06	1.983618e-07	6.386220e-10	1.404273e+00	3.421704e+01
1.880000e-06	2.669042e-07	6.336036e-10	1.889509e+00	3.423520e+01
1.890000e-06	3.353850e-07	6.282768e-10	2.374309e+00	3.424736e+01
1.900000e-06	4.038560e-07	6.275498e-10	2.859039e+00	3.425413e+01
1.910000e-06	4.723251e-07	6.293762e-10	3.343756e+00	3.425607e+01
1.920000e-06	5.407360e-07	6.319937e-10	3.828060e+00	3.425366e+01
1.930000e-06	6.090597e-07	6.342457e-10	4.311748e+00	3.424737e+01
1.940000e-06	6.773744e-07	6.353988e-10	4.795372e+00	3.423758e+01
1.950000e-06	7.456648e-07	6.364664e-10	5.278824e+00	3.422469e+01
1.960000e-06	8.138860e-07	6.364247e-10	5.761786e+00	3.420905e+01
1.970000e-06	8.819957e-07	6.350409e-10	6.243958e+00	3.419105e+01
1.980000e-06	9.499954e-07	6.314627e-10	6.725352e+00	3.417106e+01
1.990000e-06	1.017913e-06	6.289099e-10	7.206162e+00	3.414949e+01
2.000000e-06	1.085738e-06	6.276281e-10	7.686325e+00	3.412679e+01
2.010000e-06	1.153568e-06	6.266788e-10	8.166512e+00	3.410346e+01
2.020000e-06	1.221379e-06	6.277518e-10	8.646573e+00	3.408003e+01
2.030000e-06	1.289078e-06	6.309105e-10	9.125838e+00	3.405712e+01
2.040000e-06	1.356679e-06	6.315915e-10	9.604412e+00	3.403536e+01
2.050000e-06	1.424231e-06	6.322144e-10	1.008264e+01	3.401548e+01
2.060000e-06	1.491722e-06	6.332435e-10	1.056043e+01	3.399821e+01
2.070000e-06	1.559116e-06	6.342254e-10	1.103753e+01	3.398435e+01
2.080000e-06	1.626462e-06	6.349387e-10	1.151430e+01	3.397470e+01
2.090000e-06	1.693780e-06	6.345468e-10	1.199086e+01	3.397008e+01
2.100000e-06	1.761025e-06	6.323827e-10	1.246692e+01	3.397131e+01
2.110000e-06	1.828113e-06	6.301908e-10	1.294185e+01	3.397916e+01
2.120000e-06	1.895102e-06	6.308255e-10	1.341609e+01	3.399440e+01
2.130000e-06	1.962063e-06	6.337067e-10	1.389013e+01	3.401768e+01
2.140000e-06	2.028798e-06	6.353142e-10	1.436257e+01	3.404964e+01
2.150000e-06	2.095363e-06	6.368715e-10	1.483381e+01	3.409076e+01
2.160000e-06	2.161914e-06	6.394612e-10	1.530495e+01	3.414146e+01
2.170000e-06	2.228325e-06	6.414105e-10	1.577510e+01	3.420202e+01
2.180000e-06	2.294454e-06	6.425634e-10	1.624325e+01	3.427258e+01
2.190000e-06	2.360352e-06	6.426627e-10	1.670976e+01	3.435317e+01
2.200000e-06	2.425971e-06	6.436079e-10	1.717430e+01	3.444367e+01
2.210000e-06	2.491172e-06	6.463318e-10	1.763588e+01	3.454382e+01
2.220000e-06	2.556052e-06	6.476670e-10	1.809519e+01	3.465325e+01
2.230000e-06	2.620634e-06	6.467442e-10	1.855239e+01	3.477146e+01
2.240000e-06	2.684939e-06	6.493106e-10	1.900763e+01	3.489785e+01
2.250000e-06	2.749000e-06	6.523549e-10	1.946114e+01	3.503171e+01
2.260000e-06	2.812856e-06	6.542725e-10	1.991320e+01	3.517231e+01
2.270000e-06	2.876578e-06	6.575167e-10	2.036431e+01	3.531881e+01
2.280000e-06	2.940190e-06	6.611991e-10	2.081464e+01	3.547039e+01
2.290000e-06	3.003703e-06	6.613000e-10	2.126427e+01	3.562621e+01
2.300000e-06	3.067082e-06	6.613576e-10	2.171295e+01	3.578545e+01
2.310000e-06	3.130302e-06	6.630179e-10	2.216051e+01	3.594734e+01
2.320000e-06	3.193393e-06	6.627233e-10	2.260715e+01	3.611116e+01
2.330000e-06	3.256362e-06	6.622219e-10	2.305294e+01	3.627629e+01
2.340000e-06	3.319081e-06	6.643180e-10	2.349695e+01	3.644219e+01
2.350000e-06	3.381575e-06	6.680410e-10	2.393936e+01	3.660845e+01
2.360000e-06	3.443899e-06	6.741606e-10	2.438057e+01	3.677476e+01
2.370000e-06	3.505964e-06	6.811356e-10	2.481995e+01	3.694095e+01
2.380000e-06	3.567712e-06	6.865100e-10	2.525709e+01	3.710696e+01
2.390000e-06	3.629201e-06	6.918174e-10	2.569239e+01	3.727285e+01
2.400000e-06	3.690498e-06	6.971806e-10	2.612634e+01	3.743881e+01
2.410000e-06	3.751547e-06	7.012141e-10	2.655852e+01	3.760509e+01
2.420000e-06	3.812306e-06	7.028434e-10	2.698865e+01	3.777207e+01
2.430000e-06	3.872799e-06	7.038905e-10	2.741691e+01	3.794014e+01
2.440000e-06	3.933023e-06	7.076800e-10	2.784325e+01	3.810977e+01
2.450000e-06	3.992955e-06	7.158640e-10	2.826754e+01	3.828142e+01
2.460000e-06	4.052627e-06	7.256960e-10	2.868998e+01	3.845556e+01
2.470000e-06	4.112139e-06	7.311662e-10	2.911128e+01	3.863261e+01
2.480000e-06	4.171528e-06	7.344247e-10	2.953171e+01	3.881294e+01
2.490000e-06	4.230749e-06	7.392319e-10	2.995096e+01	3.899685e+01
2.500000e-06	4.289760e-06	7.472199e-10	3.036872e+01	3.918451e+01
2.510000e-06	4.348384e-06	7.523940e-10	3.078375e+01	3.937600e+01
2.520000e-06	4.406475e-06	7.530220e-10	3.119499e+01	3.957124e+01
2.530000e-06	4.463938e-06	7.539229e-10	3.160179e+01	3.977005e+01
2.540000e-06	4.520890e-06	7.578508e-10	3.200497e+01	3.997205e+01
2.550000e-06	4.577447e-06	7.639003e-10	3.240536e+01	4.017677e+01
2.560000e-06	4.633605e-06	7.686656e-10	3.280292e+01	4.038354e+01
2.570000e-06	4.689408e-06	7.732778e-10	3.319797e+01	4.059161e+01
2.580000e-06	4.744947e-06	7.794044e-10	3.359115e+01	4.080008e+01
2.590000e-06	4.800330e-06	7.860953e-10	3.398322e+01	4.100796e+01
2.600000e-06	4.855497e-06	7.905571e-10	3.437378e+01	4.121420e+01
2.610000e-06	4.910338e-06	7.937043e-10	3.476201e+01	4.141767e+01
2.620000e-06	4.964747e-06	7.954895e-10	3.514719e+01	4.161724e+01
2.630000e-06	5.018752e-06	7.944796e-10	3.552952e+01	4.181178e+01
2.640000e-06	5.072451e-06	7.922964e-10	3.590967e+01	4.200020e+01
2.650000e-06	5.125897e-06	7.931576e-10	3.628803e+01	4.218147e+01
2.660000e-06	5.178959e-06	7.971232e-10	3.666367e+01	4.235466e+01
2.670000e-06	5.231589e-06	8.057614e-10	3.703626e+01	4.251896e+01
2.680000e-06	5.283826e-06	8.151941e-10	3.740606e+01	4.267370e+01
2.690000e-06	5.335583e-06	8.209912e-10	3.777247e+01	4.281838e+01
2.700000e-06	5.386897e-06	8.254950e-10	3.813574e+01	4.295266e+01
2.710000e-06	5.437742e-06	8.295808e-10	3.849569e+01	4.307641e+01
2.720000e-06	5.488149e-06	8.299086e-10	3.885254e+01	4.318968e+01
2.730000e-06	5.537973e-06	8.274562e-10	3.920526e+01	4.329271e+01
2.740000e-06	5.587006e-06	8.270664e-10	3.955238e+01	4.338591e+01
2.750000e-06	5.635472e-06	8.290644e-10	3.989549e+01	4.346988e+01
2.760000e-06	5.683496e-06	8.321989e-10	4.023547e+01	4.354537e+01
2.770000e-06	5.731157e-06	8.379145e-10	4.057288e+01	4.361325e+01
2.780000e-06	5.778520e-06	8.419595e-10	4.090818e+01	4.367450e+01
2.790000e-06	5.825428e-06	8.440475e-10	4.124026e+01	4.373017e+01
2.800000e-06	5.871945e-06	8.464336e-10	4.156957e+01	4.378136e+01
2.810000e-06	5.918102e-06	8.493667e-10	4.189633e+01	4.382919e+01
2.820000e-06	5.963824e-06	8.505477e-10	4.222001e+01	4.387474e+01
2.830000e-06	6.009076e-06	8.497592e-10	4.254036e+01	4.391905e+01
2.840000e-06	6.053862e-06	8.499665e-10	4.285742e+01	4.396305e+01
2.850000e-06	6.098371e-06	8.516602e-10	4.317251e+01	4.400760e+01
2.860000e-06	6.142564e-06	8.525408e-10	4.348537e+01	4.405337e+01
2.870000e-06	6.186361e-06	8.523898e-10	4.379543e+01	4.410092e+01
2.880000e-06	6.229872e-06	8.540354e-10	4.410346e+01	4.415059e+01
2.890000e-06	6.273141e-06	8.563018e-10	4.440977e+01	4.420259e+01
2.900000e-06	6.316062e-06	8.591402e-10	4.471363e+01	4.425688e+01
2.910000e-06	6.358392e-06	8.613471e-10	4.501330e+01	4.431330e+01
2.920000e-06	6.399932e-06	8.629041e-10	4.530738e+01	4.437145e+01
2.930000e-06	6.440683e-06	8.619757e-10	4.559587e+01	4.443081e+01
2.940000e-06	6.480787e-06	8.613255e-10	4.587977e+01	4.449069e+01
