# Temperatura_=_20.0
# Concentracion g/m^3_=_9000.0
# C_Vs_to_Am_M_A/Vsm_=_65563218390.804596
# pendiente_HvsI_1/m_=_3716.3
# ordenada_HvsI_A/m_=_1297.0
# frecuencia_Hz_=_135464.15968913815

Tiempo_(s)	Campo_(V.s)	Magnetizacion_(V.s)	Campo_(kA/m)	Magnetizacion_(A/m)
0.000000e+00	-7.953979e-06	-4.446968e-09	-5.692785e+01	-2.965781e+02
1.000000e-08	-7.954048e-06	-4.445083e-09	-5.692834e+01	-2.966238e+02
2.000000e-08	-7.953634e-06	-4.443838e-09	-5.692538e+01	-2.966594e+02
3.000000e-08	-7.952508e-06	-4.446616e-09	-5.691732e+01	-2.966824e+02
4.000000e-08	-7.950550e-06	-4.446076e-09	-5.690330e+01	-2.966902e+02
5.000000e-08	-7.947758e-06	-4.444139e-09	-5.688332e+01	-2.966806e+02
6.000000e-08	-7.944315e-06	-4.443468e-09	-5.685868e+01	-2.966514e+02
7.000000e-08	-7.940524e-06	-4.436490e-09	-5.683154e+01	-2.966010e+02
8.000000e-08	-7.936405e-06	-4.422506e-09	-5.680206e+01	-2.965282e+02
9.000000e-08	-7.931670e-06	-4.425044e-09	-5.676817e+01	-2.964321e+02
1.000000e-07	-7.926008e-06	-4.505111e-09	-5.672765e+01	-2.963123e+02
1.100000e-07	-7.919475e-06	-4.567204e-09	-5.668089e+01	-2.961691e+02
1.200000e-07	-7.912266e-06	-4.521547e-09	-5.662930e+01	-2.960031e+02
1.300000e-07	-7.904649e-06	-4.294143e-09	-5.657478e+01	-2.958155e+02
1.400000e-07	-7.896893e-06	-4.255738e-09	-5.651927e+01	-2.956079e+02
1.500000e-07	-7.888916e-06	-4.532930e-09	-5.646217e+01	-2.953824e+02
1.600000e-07	-7.880362e-06	-4.670331e-09	-5.640095e+01	-2.951414e+02
1.700000e-07	-7.871056e-06	-4.382430e-09	-5.633435e+01	-2.948877e+02
1.800000e-07	-7.861046e-06	-4.275510e-09	-5.626270e+01	-2.946242e+02
1.900000e-07	-7.850136e-06	-4.422690e-09	-5.618463e+01	-2.943540e+02
2.000000e-07	-7.838554e-06	-4.587026e-09	-5.610173e+01	-2.940802e+02
2.100000e-07	-7.826662e-06	-4.636392e-09	-5.601662e+01	-2.938059e+02
2.200000e-07	-7.814139e-06	-4.454061e-09	-5.592699e+01	-2.935341e+02
2.300000e-07	-7.800749e-06	-4.245648e-09	-5.583115e+01	-2.932674e+02
2.400000e-07	-7.786869e-06	-4.388828e-09	-5.573181e+01	-2.930083e+02
2.500000e-07	-7.772515e-06	-4.712906e-09	-5.562908e+01	-2.927588e+02
2.600000e-07	-7.757147e-06	-4.530896e-09	-5.551908e+01	-2.925205e+02
2.700000e-07	-7.740707e-06	-4.185250e-09	-5.540143e+01	-2.922944e+02
2.800000e-07	-7.723852e-06	-4.357015e-09	-5.528079e+01	-2.920811e+02
2.900000e-07	-7.706650e-06	-4.681794e-09	-5.515767e+01	-2.918807e+02
3.000000e-07	-7.688828e-06	-4.528454e-09	-5.503012e+01	-2.916925e+02
3.100000e-07	-7.670578e-06	-4.323599e-09	-5.489950e+01	-2.915155e+02
3.200000e-07	-7.651807e-06	-4.449042e-09	-5.476515e+01	-2.913483e+02
3.300000e-07	-7.632438e-06	-4.561915e-09	-5.462653e+01	-2.911887e+02
3.400000e-07	-7.612693e-06	-4.499572e-09	-5.448521e+01	-2.910344e+02
3.500000e-07	-7.592676e-06	-4.547808e-09	-5.434194e+01	-2.908828e+02
3.600000e-07	-7.572107e-06	-4.399345e-09	-5.419473e+01	-2.907308e+02
3.700000e-07	-7.550949e-06	-4.321000e-09	-5.404330e+01	-2.905756e+02
3.800000e-07	-7.529358e-06	-4.525058e-09	-5.388877e+01	-2.904138e+02
3.900000e-07	-7.507289e-06	-4.633504e-09	-5.373081e+01	-2.902426e+02
4.000000e-07	-7.484542e-06	-4.378564e-09	-5.356801e+01	-2.900589e+02
4.100000e-07	-7.461175e-06	-4.297430e-09	-5.340077e+01	-2.898602e+02
4.200000e-07	-7.437526e-06	-4.547092e-09	-5.323151e+01	-2.896440e+02
4.300000e-07	-7.413530e-06	-4.646808e-09	-5.305977e+01	-2.894084e+02
4.400000e-07	-7.388764e-06	-4.407952e-09	-5.288252e+01	-2.891518e+02
4.500000e-07	-7.363244e-06	-4.300442e-09	-5.269986e+01	-2.888731e+02
4.600000e-07	-7.337135e-06	-4.515598e-09	-5.251299e+01	-2.885719e+02
4.700000e-07	-7.310371e-06	-4.568991e-09	-5.232144e+01	-2.882480e+02
4.800000e-07	-7.283044e-06	-4.392214e-09	-5.212586e+01	-2.879020e+02
4.900000e-07	-7.255313e-06	-4.361442e-09	-5.192738e+01	-2.875349e+02
5.000000e-07	-7.227203e-06	-4.463175e-09	-5.172620e+01	-2.871481e+02
5.100000e-07	-7.198655e-06	-4.437655e-09	-5.152187e+01	-2.867435e+02
5.200000e-07	-7.169617e-06	-4.439236e-09	-5.131405e+01	-2.863232e+02
5.300000e-07	-7.140096e-06	-4.432331e-09	-5.110276e+01	-2.858898e+02
5.400000e-07	-7.110009e-06	-4.368765e-09	-5.088742e+01	-2.854459e+02
5.500000e-07	-7.079355e-06	-4.379716e-09	-5.066803e+01	-2.849942e+02
5.600000e-07	-7.048341e-06	-4.477536e-09	-5.044605e+01	-2.845375e+02
5.700000e-07	-7.016937e-06	-4.407680e-09	-5.022129e+01	-2.840784e+02
5.800000e-07	-6.985037e-06	-4.315674e-09	-4.999298e+01	-2.836195e+02
5.900000e-07	-6.952669e-06	-4.359247e-09	-4.976132e+01	-2.831630e+02
6.000000e-07	-6.919823e-06	-4.432755e-09	-4.952623e+01	-2.827108e+02
6.100000e-07	-6.886338e-06	-4.380291e-09	-4.928657e+01	-2.822644e+02
6.200000e-07	-6.852076e-06	-4.316283e-09	-4.904136e+01	-2.818248e+02
6.300000e-07	-6.817140e-06	-4.331538e-09	-4.879131e+01	-2.813928e+02
6.400000e-07	-6.781738e-06	-4.391338e-09	-4.853794e+01	-2.809683e+02
6.500000e-07	-6.746006e-06	-4.372944e-09	-4.828219e+01	-2.805510e+02
6.600000e-07	-6.709934e-06	-4.304670e-09	-4.802402e+01	-2.801401e+02
6.700000e-07	-6.673433e-06	-4.301454e-09	-4.776278e+01	-2.797342e+02
6.800000e-07	-6.636444e-06	-4.340625e-09	-4.749805e+01	-2.793316e+02
6.900000e-07	-6.598908e-06	-4.322010e-09	-4.722939e+01	-2.789302e+02
7.000000e-07	-6.560817e-06	-4.282989e-09	-4.695677e+01	-2.785278e+02
7.100000e-07	-6.522262e-06	-4.280027e-09	-4.668082e+01	-2.781217e+02
7.200000e-07	-6.483345e-06	-4.279559e-09	-4.640229e+01	-2.777094e+02
7.300000e-07	-6.444075e-06	-4.282772e-09	-4.612123e+01	-2.772881e+02
7.400000e-07	-6.404515e-06	-4.277438e-09	-4.583809e+01	-2.768552e+02
7.500000e-07	-6.364690e-06	-4.243891e-09	-4.555306e+01	-2.764082e+02
7.600000e-07	-6.324423e-06	-4.216595e-09	-4.526486e+01	-2.759449e+02
7.700000e-07	-6.283635e-06	-4.248160e-09	-4.497294e+01	-2.754633e+02
7.800000e-07	-6.242147e-06	-4.249657e-09	-4.467600e+01	-2.749618e+02
7.900000e-07	-6.199824e-06	-4.198292e-09	-4.437308e+01	-2.744392e+02
8.000000e-07	-6.156845e-06	-4.173373e-09	-4.406548e+01	-2.738948e+02
8.100000e-07	-6.113429e-06	-4.214116e-09	-4.375474e+01	-2.733282e+02
8.200000e-07	-6.069687e-06	-4.222059e-09	-4.344168e+01	-2.727395e+02
8.300000e-07	-6.025521e-06	-4.182891e-09	-4.312558e+01	-2.721295e+02
8.400000e-07	-5.981053e-06	-4.153165e-09	-4.280731e+01	-2.714992e+02
8.500000e-07	-5.936285e-06	-4.170764e-09	-4.248690e+01	-2.708499e+02
8.600000e-07	-5.891041e-06	-4.179333e-09	-4.216308e+01	-2.701833e+02
8.700000e-07	-5.845343e-06	-4.154161e-09	-4.183601e+01	-2.695016e+02
8.800000e-07	-5.799223e-06	-4.118605e-09	-4.150593e+01	-2.688067e+02
8.900000e-07	-5.752734e-06	-4.114418e-09	-4.117319e+01	-2.681011e+02
9.000000e-07	-5.705911e-06	-4.124556e-09	-4.083808e+01	-2.673870e+02
9.100000e-07	-5.658708e-06	-4.119154e-09	-4.050024e+01	-2.666666e+02
9.200000e-07	-5.611150e-06	-4.090277e-09	-4.015986e+01	-2.659420e+02
9.300000e-07	-5.563077e-06	-4.068867e-09	-3.981579e+01	-2.652149e+02
9.400000e-07	-5.514418e-06	-4.070225e-09	-3.946753e+01	-2.644869e+02
9.500000e-07	-5.465262e-06	-4.078639e-09	-3.911572e+01	-2.637592e+02
9.600000e-07	-5.415521e-06	-4.061067e-09	-3.875971e+01	-2.630325e+02
9.700000e-07	-5.365141e-06	-4.026494e-09	-3.839913e+01	-2.623070e+02
9.800000e-07	-5.314299e-06	-4.016280e-09	-3.803525e+01	-2.615827e+02
9.900000e-07	-5.263023e-06	-4.021496e-09	-3.766826e+01	-2.608589e+02
1.000000e-06	-5.211261e-06	-4.011842e-09	-3.729779e+01	-2.601344e+02
1.010000e-06	-5.159100e-06	-3.981631e-09	-3.692447e+01	-2.594079e+02
1.020000e-06	-5.106494e-06	-3.969769e-09	-3.654796e+01	-2.586774e+02
1.030000e-06	-5.053544e-06	-3.971968e-09	-3.616899e+01	-2.579406e+02
1.040000e-06	-5.000318e-06	-3.967368e-09	-3.578804e+01	-2.571953e+02
1.050000e-06	-4.946838e-06	-3.949285e-09	-3.540528e+01	-2.564387e+02
1.060000e-06	-4.893045e-06	-3.931928e-09	-3.502027e+01	-2.556680e+02
1.070000e-06	-4.838739e-06	-3.920065e-09	-3.463159e+01	-2.548806e+02
1.080000e-06	-4.784028e-06	-3.914136e-09	-3.424002e+01	-2.540739e+02
1.090000e-06	-4.729046e-06	-3.898408e-09	-3.384651e+01	-2.532452e+02
1.100000e-06	-4.673828e-06	-3.877283e-09	-3.345130e+01	-2.523925e+02
1.110000e-06	-4.618375e-06	-3.856336e-09	-3.305442e+01	-2.515136e+02
1.120000e-06	-4.562651e-06	-3.847491e-09	-3.265559e+01	-2.506071e+02
1.130000e-06	-4.506652e-06	-3.838728e-09	-3.225480e+01	-2.496717e+02
1.140000e-06	-4.450401e-06	-3.822534e-09	-3.185220e+01	-2.487067e+02
1.150000e-06	-4.393884e-06	-3.803203e-09	-3.144770e+01	-2.477118e+02
1.160000e-06	-4.336879e-06	-3.790262e-09	-3.103971e+01	-2.466872e+02
1.170000e-06	-4.279444e-06	-3.779113e-09	-3.062863e+01	-2.456333e+02
1.180000e-06	-4.221682e-06	-3.759868e-09	-3.021522e+01	-2.445512e+02
1.190000e-06	-4.163467e-06	-3.735165e-09	-2.979857e+01	-2.434421e+02
1.200000e-06	-4.104873e-06	-3.715649e-09	-2.937921e+01	-2.423076e+02
1.210000e-06	-4.046045e-06	-3.701587e-09	-2.895816e+01	-2.411492e+02
1.220000e-06	-3.986872e-06	-3.685558e-09	-2.853465e+01	-2.399690e+02
1.230000e-06	-3.927274e-06	-3.667629e-09	-2.810810e+01	-2.387687e+02
1.240000e-06	-3.867341e-06	-3.648155e-09	-2.767915e+01	-2.375500e+02
1.250000e-06	-3.807291e-06	-3.626171e-09	-2.724937e+01	-2.363146e+02
1.260000e-06	-3.747139e-06	-3.604452e-09	-2.681885e+01	-2.350636e+02
1.270000e-06	-3.686705e-06	-3.586472e-09	-2.638631e+01	-2.337983e+02
1.280000e-06	-3.625978e-06	-3.567609e-09	-2.595168e+01	-2.325189e+02
1.290000e-06	-3.565107e-06	-3.549987e-09	-2.551602e+01	-2.312258e+02
1.300000e-06	-3.504171e-06	-3.531050e-09	-2.507989e+01	-2.299184e+02
1.310000e-06	-3.443018e-06	-3.510931e-09	-2.464220e+01	-2.285959e+02
1.320000e-06	-3.381585e-06	-3.487138e-09	-2.420252e+01	-2.272567e+02
1.330000e-06	-3.319931e-06	-3.465194e-09	-2.376125e+01	-2.258990e+02
1.340000e-06	-3.257963e-06	-3.439420e-09	-2.331774e+01	-2.245202e+02
1.350000e-06	-3.195703e-06	-3.411368e-09	-2.287213e+01	-2.231175e+02
1.360000e-06	-3.133278e-06	-3.383063e-09	-2.242535e+01	-2.216877e+02
1.370000e-06	-3.070621e-06	-3.355237e-09	-2.197690e+01	-2.202272e+02
1.380000e-06	-3.007744e-06	-3.328682e-09	-2.152688e+01	-2.187323e+02
1.390000e-06	-2.944707e-06	-3.304075e-09	-2.107572e+01	-2.171994e+02
1.400000e-06	-2.881479e-06	-3.278200e-09	-2.062319e+01	-2.156246e+02
1.410000e-06	-2.818139e-06	-3.251739e-09	-2.016985e+01	-2.140044e+02
1.420000e-06	-2.754698e-06	-3.226825e-09	-1.971580e+01	-2.123353e+02
1.430000e-06	-2.691063e-06	-3.200838e-09	-1.926035e+01	-2.106144e+02
1.440000e-06	-2.627220e-06	-3.170697e-09	-1.880341e+01	-2.088390e+02
1.450000e-06	-2.563225e-06	-3.141282e-09	-1.834539e+01	-2.070070e+02
1.460000e-06	-2.499121e-06	-3.113468e-09	-1.788659e+01	-2.051167e+02
1.470000e-06	-2.434773e-06	-3.085490e-09	-1.742604e+01	-2.031671e+02
1.480000e-06	-2.370148e-06	-3.055144e-09	-1.696351e+01	-2.011577e+02
1.490000e-06	-2.305325e-06	-3.022000e-09	-1.649957e+01	-1.990884e+02
1.500000e-06	-2.240311e-06	-2.990446e-09	-1.603425e+01	-1.969597e+02
1.510000e-06	-2.175059e-06	-2.959767e-09	-1.556723e+01	-1.947725e+02
1.520000e-06	-2.109539e-06	-2.927940e-09	-1.509829e+01	-1.925280e+02
1.530000e-06	-2.043894e-06	-2.891753e-09	-1.462846e+01	-1.902275e+02
1.540000e-06	-1.978209e-06	-2.857591e-09	-1.415835e+01	-1.878723e+02
1.550000e-06	-1.912324e-06	-2.825159e-09	-1.368679e+01	-1.854637e+02
1.560000e-06	-1.846203e-06	-2.790354e-09	-1.321356e+01	-1.830025e+02
1.570000e-06	-1.779967e-06	-2.751533e-09	-1.273949e+01	-1.804893e+02
1.580000e-06	-1.713562e-06	-2.711969e-09	-1.226422e+01	-1.779237e+02
1.590000e-06	-1.647082e-06	-2.671778e-09	-1.178842e+01	-1.753047e+02
1.600000e-06	-1.580479e-06	-2.633443e-09	-1.131173e+01	-1.726303e+02
1.610000e-06	-1.513678e-06	-2.593682e-09	-1.083362e+01	-1.698972e+02
1.620000e-06	-1.446857e-06	-2.550815e-09	-1.035538e+01	-1.671010e+02
1.630000e-06	-1.379949e-06	-2.505748e-09	-9.876504e+00	-1.642358e+02
1.640000e-06	-1.312845e-06	-2.460140e-09	-9.396233e+00	-1.612944e+02
1.650000e-06	-1.245645e-06	-2.412565e-09	-8.915275e+00	-1.582681e+02
1.660000e-06	-1.178414e-06	-2.363223e-09	-8.434090e+00	-1.551468e+02
1.670000e-06	-1.111100e-06	-2.312167e-09	-7.952314e+00	-1.519191e+02
1.680000e-06	-1.043712e-06	-2.255944e-09	-7.470005e+00	-1.485724e+02
1.690000e-06	-9.762200e-07	-2.198326e-09	-6.986956e+00	-1.450928e+02
1.700000e-06	-9.086041e-07	-2.140372e-09	-6.503018e+00	-1.414656e+02
1.710000e-06	-8.409509e-07	-2.079629e-09	-6.018814e+00	-1.376756e+02
1.720000e-06	-7.733610e-07	-2.018592e-09	-5.535063e+00	-1.337070e+02
1.730000e-06	-7.057248e-07	-1.959662e-09	-5.050980e+00	-1.295440e+02
1.740000e-06	-6.379529e-07	-1.895703e-09	-4.565926e+00	-1.251711e+02
1.750000e-06	-5.700741e-07	-1.824412e-09	-4.080107e+00	-1.205731e+02
1.760000e-06	-5.021993e-07	-1.749202e-09	-3.594317e+00	-1.157362e+02
1.770000e-06	-4.343364e-07	-1.670954e-09	-3.108612e+00	-1.106476e+02
1.780000e-06	-3.664544e-07	-1.585919e-09	-2.622770e+00	-1.052962e+02
1.790000e-06	-2.985878e-07	-1.496432e-09	-2.137039e+00	-9.967294e+01
1.800000e-06	-2.306829e-07	-1.407404e-09	-1.651033e+00	-9.377121e+01
1.810000e-06	-1.627335e-07	-1.318227e-09	-1.164709e+00	-8.758688e+01
1.820000e-06	-9.481647e-08	-1.225691e-09	-6.786160e-01	-8.111873e+01
1.830000e-06	-2.698370e-08	-1.127858e-09	-1.931265e-01	-7.436861e+01
1.840000e-06	4.087523e-08	-1.025830e-09	2.925503e-01	-6.734163e+01
1.850000e-06	1.087488e-07	-9.190279e-10	7.783317e-01	-6.004619e+01
1.860000e-06	1.765799e-07	-8.042325e-10	1.263809e+00	-5.249407e+01
1.870000e-06	2.444137e-07	-6.818346e-10	1.749306e+00	-4.470036e+01
1.880000e-06	3.122809e-07	-5.590492e-10	2.235042e+00	-3.668341e+01
1.890000e-06	3.802007e-07	-4.374221e-10	2.721155e+00	-2.846462e+01
1.900000e-06	4.481335e-07	-3.116946e-10	3.207360e+00	-2.006826e+01
1.910000e-06	5.160288e-07	-1.830030e-10	3.693297e+00	-1.152118e+01
1.920000e-06	5.838355e-07	-5.300838e-11	4.178600e+00	-2.852467e+00
1.930000e-06	6.515589e-07	8.039358e-11	4.663307e+00	5.906909e+00
1.940000e-06	7.192361e-07	2.178203e-10	5.147683e+00	1.472454e+01
1.950000e-06	7.868684e-07	3.582532e-10	5.631738e+00	2.356702e+01
1.960000e-06	8.544252e-07	4.993082e-10	6.115252e+00	3.240041e+01
1.970000e-06	9.218928e-07	6.385004e-10	6.598128e+00	4.119073e+01
1.980000e-06	9.892905e-07	7.739555e-10	7.080503e+00	4.990446e+01
1.990000e-06	1.056664e-06	9.069951e-10	7.562704e+00	5.850897e+01
2.000000e-06	1.123982e-06	1.038210e-09	8.044515e+00	6.697306e+01
2.010000e-06	1.191177e-06	1.162062e-09	8.525433e+00	7.526733e+01
2.020000e-06	1.258284e-06	1.278776e-09	9.005733e+00	8.336458e+01
2.030000e-06	1.325312e-06	1.394776e-09	9.485463e+00	9.124024e+01
2.040000e-06	1.392255e-06	1.508978e-09	9.964584e+00	9.887255e+01
2.050000e-06	1.459183e-06	1.617721e-09	1.044360e+01	1.062429e+02
2.060000e-06	1.526047e-06	1.721023e-09	1.092215e+01	1.133361e+02
2.070000e-06	1.592792e-06	1.819102e-09	1.139985e+01	1.201401e+02
2.080000e-06	1.659383e-06	1.914537e-09	1.187646e+01	1.266466e+02
2.090000e-06	1.725752e-06	2.006745e-09	1.235147e+01	1.328507e+02
2.100000e-06	1.791894e-06	2.094009e-09	1.282486e+01	1.387509e+02
2.110000e-06	1.857860e-06	2.174855e-09	1.329699e+01	1.443488e+02
2.120000e-06	1.923699e-06	2.250176e-09	1.376821e+01	1.496493e+02
2.130000e-06	1.989325e-06	2.322917e-09	1.423790e+01	1.546600e+02
2.140000e-06	2.054784e-06	2.393158e-09	1.470640e+01	1.593910e+02
2.150000e-06	2.120227e-06	2.459724e-09	1.517479e+01	1.638546e+02
2.160000e-06	2.185507e-06	2.520823e-09	1.564201e+01	1.680650e+02
2.170000e-06	2.250574e-06	2.577187e-09	1.610770e+01	1.720380e+02
2.180000e-06	2.315417e-06	2.632798e-09	1.657179e+01	1.757902e+02
2.190000e-06	2.380007e-06	2.687769e-09	1.703407e+01	1.793390e+02
2.200000e-06	2.444368e-06	2.737268e-09	1.749471e+01	1.827023e+02
2.210000e-06	2.508566e-06	2.782796e-09	1.795419e+01	1.858979e+02
2.220000e-06	2.572694e-06	2.828054e-09	1.841316e+01	1.889430e+02
2.230000e-06	2.636600e-06	2.871722e-09	1.887055e+01	1.918544e+02
2.240000e-06	2.700309e-06	2.913171e-09	1.932653e+01	1.946477e+02
2.250000e-06	2.763854e-06	2.952222e-09	1.978133e+01	1.973376e+02
2.260000e-06	2.827193e-06	2.988915e-09	2.023465e+01	1.999372e+02
2.270000e-06	2.890379e-06	3.023836e-09	2.068688e+01	2.024581e+02
2.280000e-06	2.953364e-06	3.059862e-09	2.113768e+01	2.049105e+02
2.290000e-06	3.016186e-06	3.095100e-09	2.158731e+01	2.073026e+02
2.300000e-06	3.078873e-06	3.126474e-09	2.203597e+01	2.096412e+02
2.310000e-06	3.141311e-06	3.157897e-09	2.248285e+01	2.119315e+02
2.320000e-06	3.203530e-06	3.191108e-09	2.292816e+01	2.141769e+02
2.330000e-06	3.265593e-06	3.223580e-09	2.337235e+01	2.163799e+02
2.340000e-06	3.327421e-06	3.252158e-09	2.381486e+01	2.185412e+02
2.350000e-06	3.388975e-06	3.279166e-09	2.425541e+01	2.206608e+02
2.360000e-06	3.450302e-06	3.308088e-09	2.469434e+01	2.227375e+02
2.370000e-06	3.511470e-06	3.337407e-09	2.513213e+01	2.247697e+02
2.380000e-06	3.572458e-06	3.363121e-09	2.556863e+01	2.267552e+02
2.390000e-06	3.633175e-06	3.387680e-09	2.600319e+01	2.286914e+02
2.400000e-06	3.693579e-06	3.411920e-09	2.643551e+01	2.305758e+02
2.410000e-06	3.753685e-06	3.435677e-09	2.686570e+01	2.324059e+02
2.420000e-06	3.813619e-06	3.459795e-09	2.729465e+01	2.341794e+02
2.430000e-06	3.873338e-06	3.482046e-09	2.772207e+01	2.358945e+02
2.440000e-06	3.932701e-06	3.501402e-09	2.814694e+01	2.375499e+02
2.450000e-06	3.991832e-06	3.520332e-09	2.857015e+01	2.391449e+02
2.460000e-06	4.050795e-06	3.542035e-09	2.899216e+01	2.406794e+02
2.470000e-06	4.109535e-06	3.564045e-09	2.941257e+01	2.421542e+02
2.480000e-06	4.167920e-06	3.584435e-09	2.983044e+01	2.435705e+02
2.490000e-06	4.225927e-06	3.602870e-09	3.024560e+01	2.449305e+02
2.500000e-06	4.283483e-06	3.620943e-09	3.065754e+01	2.462369e+02
2.510000e-06	4.340477e-06	3.640551e-09	3.106546e+01	2.474927e+02
2.520000e-06	4.397035e-06	3.661046e-09	3.147025e+01	2.487019e+02
2.530000e-06	4.453289e-06	3.681241e-09	3.187287e+01	2.498683e+02
2.540000e-06	4.509304e-06	3.699743e-09	3.227378e+01	2.509963e+02
2.550000e-06	4.564919e-06	3.716992e-09	3.267183e+01	2.520904e+02
2.560000e-06	4.620183e-06	3.733902e-09	3.306736e+01	2.531549e+02
2.570000e-06	4.675259e-06	3.748928e-09	3.346154e+01	2.541942e+02
2.580000e-06	4.730184e-06	3.764622e-09	3.385465e+01	2.552123e+02
2.590000e-06	4.784888e-06	3.781698e-09	3.424617e+01	2.562130e+02
2.600000e-06	4.839202e-06	3.798437e-09	3.463491e+01	2.571995e+02
2.610000e-06	4.893137e-06	3.814714e-09	3.502093e+01	2.581747e+02
2.620000e-06	4.946692e-06	3.832685e-09	3.540423e+01	2.591408e+02
2.630000e-06	4.999865e-06	3.851104e-09	3.578480e+01	2.600996e+02
2.640000e-06	5.052710e-06	3.869493e-09	3.616302e+01	2.610520e+02
2.650000e-06	5.105181e-06	3.884941e-09	3.653856e+01	2.619986e+02
2.660000e-06	5.157295e-06	3.895031e-09	3.691155e+01	2.629393e+02
2.670000e-06	5.208982e-06	3.903670e-09	3.728148e+01	2.638736e+02
2.680000e-06	5.260150e-06	3.915596e-09	3.764770e+01	2.648002e+02
2.690000e-06	5.310876e-06	3.927443e-09	3.801075e+01	2.657179e+02
2.700000e-06	5.361105e-06	3.940742e-09	3.837025e+01	2.666248e+02
2.710000e-06	5.410735e-06	3.957978e-09	3.872546e+01	2.675190e+02
2.720000e-06	5.459807e-06	3.976836e-09	3.907667e+01	2.683985e+02
2.730000e-06	5.508402e-06	3.992779e-09	3.942447e+01	2.692610e+02
2.740000e-06	5.556605e-06	3.999980e-09	3.976947e+01	2.701047e+02
2.750000e-06	5.604416e-06	4.006229e-09	4.011166e+01	2.709275e+02
2.760000e-06	5.651825e-06	4.014381e-09	4.045098e+01	2.717280e+02
2.770000e-06	5.698866e-06	4.026399e-09	4.078766e+01	2.725046e+02
2.780000e-06	5.745550e-06	4.039460e-09	4.112178e+01	2.732565e+02
2.790000e-06	5.791901e-06	4.052711e-09	4.145352e+01	2.739830e+02
2.800000e-06	5.837785e-06	4.067002e-09	4.178192e+01	2.746841e+02
2.810000e-06	5.883198e-06	4.084568e-09	4.210695e+01	2.753598e+02
2.820000e-06	5.928315e-06	4.099631e-09	4.242986e+01	2.760109e+02
2.830000e-06	5.973072e-06	4.108828e-09	4.275019e+01	2.766385e+02
2.840000e-06	6.017417e-06	4.111217e-09	4.306757e+01	2.772438e+02
2.850000e-06	6.061303e-06	4.116165e-09	4.338167e+01	2.778287e+02
2.860000e-06	6.104853e-06	4.123737e-09	4.369337e+01	2.783950e+02
2.870000e-06	6.148187e-06	4.132975e-09	4.400351e+01	2.789449e+02
2.880000e-06	6.191094e-06	4.146578e-09	4.431061e+01	2.794805e+02
2.890000e-06	6.233473e-06	4.160923e-09	4.461392e+01	2.800040e+02
2.900000e-06	6.275170e-06	4.175169e-09	4.491235e+01	2.805177e+02
