# Temperatura_=_20.0
# Concentracion g/m^3_=_9000.0
# C_Vs_to_Am_M_A/Vsm_=_65563218390.804596
# pendiente_HvsI_1/m_=_3716.3
# ordenada_HvsI_A/m_=_1297.0
# frecuencia_Hz_=_135466.5199766058

Tiempo_(s)	Campo_(V.s)	Magnetizacion_(V.s)	Campo_(kA/m)	Magnetizacion_(A/m)
0.000000e+00	-7.951824e-06	-4.593126e-09	-5.693172e+01	-3.090605e+02
1.000000e-08	-7.952077e-06	-4.590082e-09	-5.693353e+01	-3.092465e+02
2.000000e-08	-7.951987e-06	-4.590102e-09	-5.693289e+01	-3.094306e+02
3.000000e-08	-7.951278e-06	-4.594053e-09	-5.692781e+01	-3.096041e+02
4.000000e-08	-7.949836e-06	-4.593057e-09	-5.691748e+01	-3.097577e+02
5.000000e-08	-7.947636e-06	-4.588182e-09	-5.690173e+01	-3.098817e+02
6.000000e-08	-7.944664e-06	-4.586179e-09	-5.688045e+01	-3.099665e+02
7.000000e-08	-7.941188e-06	-4.584543e-09	-5.685557e+01	-3.100022e+02
8.000000e-08	-7.937400e-06	-4.574447e-09	-5.682845e+01	-3.099796e+02
9.000000e-08	-7.933141e-06	-4.575927e-09	-5.679796e+01	-3.098899e+02
1.000000e-07	-7.928118e-06	-4.623649e-09	-5.676199e+01	-3.097254e+02
1.100000e-07	-7.922216e-06	-4.664831e-09	-5.671974e+01	-3.094790e+02
1.200000e-07	-7.915457e-06	-4.633867e-09	-5.667135e+01	-3.091453e+02
1.300000e-07	-7.908126e-06	-4.492843e-09	-5.661886e+01	-3.087201e+02
1.400000e-07	-7.900547e-06	-4.468059e-09	-5.656460e+01	-3.082005e+02
1.500000e-07	-7.892692e-06	-4.659201e-09	-5.650836e+01	-3.075857e+02
1.600000e-07	-7.884407e-06	-4.721455e-09	-5.644904e+01	-3.068762e+02
1.700000e-07	-7.875555e-06	-4.538465e-09	-5.638567e+01	-3.060744e+02
1.800000e-07	-7.865998e-06	-4.483530e-09	-5.631724e+01	-3.051844e+02
1.900000e-07	-7.855582e-06	-4.585003e-09	-5.624267e+01	-3.042118e+02
2.000000e-07	-7.844420e-06	-4.675365e-09	-5.616275e+01	-3.031637e+02
2.100000e-07	-7.832875e-06	-4.708839e-09	-5.608009e+01	-3.020487e+02
2.200000e-07	-7.820839e-06	-4.600297e-09	-5.599392e+01	-3.008766e+02
2.300000e-07	-7.807979e-06	-4.438063e-09	-5.590185e+01	-2.996580e+02
2.400000e-07	-7.794523e-06	-4.521475e-09	-5.580551e+01	-2.984044e+02
2.500000e-07	-7.780671e-06	-4.693875e-09	-5.570634e+01	-2.971278e+02
2.600000e-07	-7.765814e-06	-4.521128e-09	-5.559997e+01	-2.958406e+02
2.700000e-07	-7.749870e-06	-4.286791e-09	-5.548581e+01	-2.945549e+02
2.800000e-07	-7.733368e-06	-4.424082e-09	-5.536766e+01	-2.932828e+02
2.900000e-07	-7.716425e-06	-4.572582e-09	-5.524636e+01	-2.920360e+02
3.000000e-07	-7.699047e-06	-4.409897e-09	-5.512194e+01	-2.908251e+02
3.100000e-07	-7.681239e-06	-4.329607e-09	-5.499444e+01	-2.896600e+02
3.200000e-07	-7.662867e-06	-4.457481e-09	-5.486291e+01	-2.885495e+02
3.300000e-07	-7.643880e-06	-4.461315e-09	-5.472697e+01	-2.875010e+02
3.400000e-07	-7.624464e-06	-4.421963e-09	-5.458796e+01	-2.865205e+02
3.500000e-07	-7.604726e-06	-4.513869e-09	-5.444664e+01	-2.856125e+02
3.600000e-07	-7.584564e-06	-4.397103e-09	-5.430229e+01	-2.847801e+02
3.700000e-07	-7.563874e-06	-4.288644e-09	-5.415416e+01	-2.840246e+02
3.800000e-07	-7.542658e-06	-4.475761e-09	-5.400226e+01	-2.833458e+02
3.900000e-07	-7.520954e-06	-4.545822e-09	-5.384687e+01	-2.827422e+02
4.000000e-07	-7.498605e-06	-4.328355e-09	-5.368686e+01	-2.822107e+02
4.100000e-07	-7.475623e-06	-4.298165e-09	-5.352232e+01	-2.817470e+02
4.200000e-07	-7.452268e-06	-4.499511e-09	-5.335511e+01	-2.813457e+02
4.300000e-07	-7.428542e-06	-4.519913e-09	-5.318524e+01	-2.810006e+02
4.400000e-07	-7.404189e-06	-4.352247e-09	-5.301088e+01	-2.807044e+02
4.500000e-07	-7.379082e-06	-4.332714e-09	-5.283113e+01	-2.804497e+02
4.600000e-07	-7.353507e-06	-4.458236e-09	-5.264802e+01	-2.802283e+02
4.700000e-07	-7.327346e-06	-4.450377e-09	-5.246072e+01	-2.800321e+02
4.800000e-07	-7.300358e-06	-4.349071e-09	-5.226750e+01	-2.798532e+02
4.900000e-07	-7.272902e-06	-4.356369e-09	-5.207092e+01	-2.796835e+02
5.000000e-07	-7.245120e-06	-4.384817e-09	-5.187201e+01	-2.795158e+02
5.100000e-07	-7.216846e-06	-4.345361e-09	-5.166958e+01	-2.793430e+02
5.200000e-07	-7.188023e-06	-4.362481e-09	-5.146323e+01	-2.791592e+02
5.300000e-07	-7.158780e-06	-4.379987e-09	-5.125386e+01	-2.789589e+02
5.400000e-07	-7.129091e-06	-4.327845e-09	-5.104130e+01	-2.787376e+02
5.500000e-07	-7.098822e-06	-4.328792e-09	-5.082459e+01	-2.784918e+02
5.600000e-07	-7.068015e-06	-4.387939e-09	-5.060401e+01	-2.782188e+02
5.700000e-07	-7.036757e-06	-4.351181e-09	-5.038022e+01	-2.779171e+02
5.800000e-07	-7.005122e-06	-4.283818e-09	-5.015373e+01	-2.775857e+02
5.900000e-07	-6.973126e-06	-4.301628e-09	-4.992465e+01	-2.772249e+02
6.000000e-07	-6.940754e-06	-4.335837e-09	-4.969289e+01	-2.768354e+02
6.100000e-07	-6.907772e-06	-4.302792e-09	-4.945674e+01	-2.764188e+02
6.200000e-07	-6.873974e-06	-4.269568e-09	-4.921477e+01	-2.759772e+02
6.300000e-07	-6.839451e-06	-4.286329e-09	-4.896760e+01	-2.755131e+02
6.400000e-07	-6.804437e-06	-4.309005e-09	-4.871691e+01	-2.750294e+02
6.500000e-07	-6.769038e-06	-4.286842e-09	-4.846347e+01	-2.745291e+02
6.600000e-07	-6.733208e-06	-4.255741e-09	-4.820694e+01	-2.740154e+02
6.700000e-07	-6.696955e-06	-4.257410e-09	-4.794738e+01	-2.734913e+02
6.800000e-07	-6.660275e-06	-4.264039e-09	-4.768477e+01	-2.729598e+02
6.900000e-07	-6.623037e-06	-4.237214e-09	-4.741816e+01	-2.724235e+02
7.000000e-07	-6.585244e-06	-4.214042e-09	-4.714758e+01	-2.718848e+02
7.100000e-07	-6.546989e-06	-4.213912e-09	-4.687369e+01	-2.713457e+02
7.200000e-07	-6.508248e-06	-4.207928e-09	-4.659632e+01	-2.708076e+02
7.300000e-07	-6.469124e-06	-4.201868e-09	-4.631621e+01	-2.702716e+02
7.400000e-07	-6.429771e-06	-4.200573e-09	-4.603446e+01	-2.697382e+02
7.500000e-07	-6.390104e-06	-4.181586e-09	-4.575046e+01	-2.692075e+02
7.600000e-07	-6.350041e-06	-4.164206e-09	-4.546362e+01	-2.686792e+02
7.700000e-07	-6.309554e-06	-4.176319e-09	-4.517376e+01	-2.681526e+02
7.800000e-07	-6.268459e-06	-4.172739e-09	-4.487953e+01	-2.676264e+02
7.900000e-07	-6.226656e-06	-4.132601e-09	-4.458024e+01	-2.670993e+02
8.000000e-07	-6.184197e-06	-4.113018e-09	-4.427625e+01	-2.665697e+02
8.100000e-07	-6.141213e-06	-4.134114e-09	-4.396850e+01	-2.660357e+02
8.200000e-07	-6.097810e-06	-4.136441e-09	-4.365776e+01	-2.654956e+02
8.300000e-07	-6.054007e-06	-4.107565e-09	-4.334415e+01	-2.649474e+02
8.400000e-07	-6.009808e-06	-4.087455e-09	-4.302770e+01	-2.643894e+02
8.500000e-07	-5.965207e-06	-4.094340e-09	-4.270837e+01	-2.638199e+02
8.600000e-07	-5.920177e-06	-4.098823e-09	-4.238598e+01	-2.632373e+02
8.700000e-07	-5.874766e-06	-4.083250e-09	-4.206086e+01	-2.626405e+02
8.800000e-07	-5.828976e-06	-4.057506e-09	-4.173302e+01	-2.620283e+02
8.900000e-07	-5.782780e-06	-4.041883e-09	-4.140227e+01	-2.614001e+02
9.000000e-07	-5.736265e-06	-4.038189e-09	-4.106924e+01	-2.607553e+02
9.100000e-07	-5.689481e-06	-4.035557e-09	-4.073429e+01	-2.600938e+02
9.200000e-07	-5.642298e-06	-4.019464e-09	-4.039649e+01	-2.594156e+02
9.300000e-07	-5.594582e-06	-3.998250e-09	-4.005486e+01	-2.587210e+02
9.400000e-07	-5.546281e-06	-3.992070e-09	-3.970904e+01	-2.580105e+02
9.500000e-07	-5.497501e-06	-3.998570e-09	-3.935980e+01	-2.572847e+02
9.600000e-07	-5.448261e-06	-3.989059e-09	-3.900726e+01	-2.565443e+02
9.700000e-07	-5.398401e-06	-3.961163e-09	-3.865028e+01	-2.557903e+02
9.800000e-07	-5.348062e-06	-3.942060e-09	-3.828988e+01	-2.550232e+02
9.900000e-07	-5.297229e-06	-3.938747e-09	-3.792594e+01	-2.542441e+02
1.000000e-06	-5.245844e-06	-3.929801e-09	-3.755804e+01	-2.534534e+02
1.010000e-06	-5.194095e-06	-3.907483e-09	-3.718754e+01	-2.526518e+02
1.020000e-06	-5.141978e-06	-3.887797e-09	-3.681440e+01	-2.518397e+02
1.030000e-06	-5.089439e-06	-3.877752e-09	-3.643825e+01	-2.510173e+02
1.040000e-06	-5.036538e-06	-3.872521e-09	-3.605950e+01	-2.501845e+02
1.050000e-06	-4.983315e-06	-3.861600e-09	-3.567844e+01	-2.493413e+02
1.060000e-06	-4.929701e-06	-3.844611e-09	-3.529459e+01	-2.484872e+02
1.070000e-06	-4.875641e-06	-3.826467e-09	-3.490754e+01	-2.476216e+02
1.080000e-06	-4.821247e-06	-3.816342e-09	-3.451810e+01	-2.467439e+02
1.090000e-06	-4.766597e-06	-3.805425e-09	-3.412683e+01	-2.458530e+02
1.100000e-06	-4.711618e-06	-3.784490e-09	-3.373321e+01	-2.449480e+02
1.110000e-06	-4.656293e-06	-3.759886e-09	-3.333710e+01	-2.440279e+02
1.120000e-06	-4.600750e-06	-3.743006e-09	-3.293944e+01	-2.430915e+02
1.130000e-06	-4.545024e-06	-3.732458e-09	-3.254046e+01	-2.421378e+02
1.140000e-06	-4.489044e-06	-3.716961e-09	-3.213967e+01	-2.411657e+02
1.150000e-06	-4.432687e-06	-3.696730e-09	-3.173618e+01	-2.401743e+02
1.160000e-06	-4.375946e-06	-3.682593e-09	-3.132993e+01	-2.391627e+02
1.170000e-06	-4.318889e-06	-3.670747e-09	-3.092143e+01	-2.381302e+02
1.180000e-06	-4.261484e-06	-3.654769e-09	-3.051043e+01	-2.370763e+02
1.190000e-06	-4.203693e-06	-3.633176e-09	-3.009667e+01	-2.360007e+02
1.200000e-06	-4.145419e-06	-3.610357e-09	-2.967946e+01	-2.349031e+02
1.210000e-06	-4.086815e-06	-3.589523e-09	-2.925988e+01	-2.337834e+02
1.220000e-06	-4.027898e-06	-3.571849e-09	-2.883806e+01	-2.326417e+02
1.230000e-06	-3.968558e-06	-3.557101e-09	-2.841321e+01	-2.314783e+02
1.240000e-06	-3.908878e-06	-3.538852e-09	-2.798593e+01	-2.302933e+02
1.250000e-06	-3.848932e-06	-3.516292e-09	-2.755674e+01	-2.290870e+02
1.260000e-06	-3.788806e-06	-3.492480e-09	-2.712626e+01	-2.278597e+02
1.270000e-06	-3.728484e-06	-3.470373e-09	-2.669438e+01	-2.266117e+02
1.280000e-06	-3.667972e-06	-3.449297e-09	-2.626114e+01	-2.253430e+02
1.290000e-06	-3.607308e-06	-3.430678e-09	-2.582681e+01	-2.240536e+02
1.300000e-06	-3.546428e-06	-3.413659e-09	-2.539093e+01	-2.227432e+02
1.310000e-06	-3.485328e-06	-3.396242e-09	-2.495349e+01	-2.214114e+02
1.320000e-06	-3.423980e-06	-3.376162e-09	-2.451426e+01	-2.200575e+02
1.330000e-06	-3.362402e-06	-3.354135e-09	-2.407339e+01	-2.186804e+02
1.340000e-06	-3.300661e-06	-3.329083e-09	-2.363134e+01	-2.172791e+02
1.350000e-06	-3.238589e-06	-3.302392e-09	-2.318694e+01	-2.158519e+02
1.360000e-06	-3.176193e-06	-3.277596e-09	-2.274021e+01	-2.143970e+02
1.370000e-06	-3.113651e-06	-3.251348e-09	-2.229243e+01	-2.129125e+02
1.380000e-06	-3.050922e-06	-3.221797e-09	-2.184332e+01	-2.113962e+02
1.390000e-06	-2.987946e-06	-3.196160e-09	-2.139244e+01	-2.098457e+02
1.400000e-06	-2.924782e-06	-3.175735e-09	-2.094021e+01	-2.082587e+02
1.410000e-06	-2.861562e-06	-3.154348e-09	-2.048758e+01	-2.066325e+02
1.420000e-06	-2.798230e-06	-3.125732e-09	-2.003415e+01	-2.049649e+02
1.430000e-06	-2.734688e-06	-3.094198e-09	-1.957922e+01	-2.032535e+02
1.440000e-06	-2.670964e-06	-3.065362e-09	-1.912298e+01	-2.014961e+02
1.450000e-06	-2.607071e-06	-3.040786e-09	-1.866553e+01	-1.996907e+02
1.460000e-06	-2.543008e-06	-3.014046e-09	-1.820687e+01	-1.978356e+02
1.470000e-06	-2.478694e-06	-2.983664e-09	-1.774641e+01	-1.959293e+02
1.480000e-06	-2.414208e-06	-2.955428e-09	-1.728472e+01	-1.939707e+02
1.490000e-06	-2.349555e-06	-2.927341e-09	-1.682183e+01	-1.919589e+02
1.500000e-06	-2.284619e-06	-2.897119e-09	-1.635691e+01	-1.898934e+02
1.510000e-06	-2.219485e-06	-2.864678e-09	-1.589058e+01	-1.877738e+02
1.520000e-06	-2.154199e-06	-2.831997e-09	-1.542316e+01	-1.856001e+02
1.530000e-06	-2.088766e-06	-2.799257e-09	-1.495468e+01	-1.833723e+02
1.540000e-06	-2.023087e-06	-2.765237e-09	-1.448445e+01	-1.810905e+02
1.550000e-06	-1.957183e-06	-2.728853e-09	-1.401261e+01	-1.787547e+02
1.560000e-06	-1.891207e-06	-2.690262e-09	-1.354025e+01	-1.763647e+02
1.570000e-06	-1.825157e-06	-2.651741e-09	-1.306736e+01	-1.739200e+02
1.580000e-06	-1.758963e-06	-2.613989e-09	-1.259343e+01	-1.714199e+02
1.590000e-06	-1.692622e-06	-2.576601e-09	-1.211847e+01	-1.688626e+02
1.600000e-06	-1.626193e-06	-2.539099e-09	-1.164286e+01	-1.662462e+02
1.610000e-06	-1.559677e-06	-2.498311e-09	-1.116663e+01	-1.635674e+02
1.620000e-06	-1.493029e-06	-2.456607e-09	-1.068946e+01	-1.608223e+02
1.630000e-06	-1.426143e-06	-2.414743e-09	-1.021059e+01	-1.580057e+02
1.640000e-06	-1.359105e-06	-2.370637e-09	-9.730623e+00	-1.551115e+02
1.650000e-06	-1.292052e-06	-2.324184e-09	-9.250547e+00	-1.521322e+02
1.660000e-06	-1.224948e-06	-2.276607e-09	-8.770112e+00	-1.490593e+02
1.670000e-06	-1.157767e-06	-2.226021e-09	-8.289124e+00	-1.458828e+02
1.680000e-06	-1.090490e-06	-2.174017e-09	-7.807452e+00	-1.425917e+02
1.690000e-06	-1.023088e-06	-2.119226e-09	-7.324878e+00	-1.391742e+02
1.700000e-06	-9.556071e-07	-2.061817e-09	-6.841746e+00	-1.356172e+02
1.710000e-06	-8.880033e-07	-2.000555e-09	-6.357730e+00	-1.319069e+02
1.720000e-06	-8.202777e-07	-1.938840e-09	-5.872843e+00	-1.280292e+02
1.730000e-06	-7.525560e-07	-1.878343e-09	-5.387985e+00	-1.239694e+02
1.740000e-06	-6.848001e-07	-1.816671e-09	-4.902881e+00	-1.197129e+02
1.750000e-06	-6.169164e-07	-1.749254e-09	-4.416862e+00	-1.152453e+02
1.760000e-06	-5.489981e-07	-1.675205e-09	-3.930595e+00	-1.105527e+02
1.770000e-06	-4.811086e-07	-1.598292e-09	-3.444535e+00	-1.056223e+02
1.780000e-06	-4.131714e-07	-1.516191e-09	-2.958134e+00	-1.004422e+02
1.790000e-06	-3.452238e-07	-1.428851e-09	-2.471658e+00	-9.500250e+01
1.800000e-06	-2.772826e-07	-1.338419e-09	-1.985227e+00	-8.929476e+01
1.810000e-06	-2.093175e-07	-1.250286e-09	-1.498626e+00	-8.331298e+01
1.820000e-06	-1.413450e-07	-1.161473e-09	-1.011971e+00	-7.705356e+01
1.830000e-06	-7.338356e-08	-1.068978e-09	-5.253955e-01	-7.051564e+01
1.840000e-06	-5.515040e-09	-9.732583e-10	-3.948537e-02	-6.370130e+01
1.850000e-06	6.229583e-08	-8.712547e-10	4.460120e-01	-5.661568e+01
1.860000e-06	1.301466e-07	-7.603444e-10	9.317953e-01	-4.926716e+01
1.870000e-06	1.980466e-07	-6.449610e-10	1.417930e+00	-4.166734e+01
1.880000e-06	2.659799e-07	-5.229032e-10	1.904304e+00	-3.383106e+01
1.890000e-06	3.338852e-07	-3.969624e-10	2.390477e+00	-2.577634e+01
1.900000e-06	4.017583e-07	-2.698681e-10	2.876420e+00	-1.752422e+01
1.910000e-06	4.696207e-07	-1.429940e-10	3.362287e+00	-9.098564e+00
1.920000e-06	5.374938e-07	-1.250634e-11	3.848230e+00	-5.258238e-01
1.930000e-06	6.053266e-07	1.200859e-10	4.333884e+00	8.165288e+00
1.940000e-06	6.731258e-07	2.536738e-10	4.819298e+00	1.694415e+01
1.950000e-06	7.408703e-07	3.902584e-10	5.304320e+00	2.577866e+01
1.960000e-06	8.085346e-07	5.279510e-10	5.788768e+00	3.463562e+01
1.970000e-06	8.762181e-07	6.684072e-10	6.273353e+00	4.348126e+01
1.980000e-06	9.437997e-07	8.117283e-10	6.757209e+00	5.228167e+01
1.990000e-06	1.011215e-06	9.517166e-10	7.239875e+00	6.100334e+01
2.000000e-06	1.078596e-06	1.085443e-09	7.722291e+00	6.961359e+01
2.010000e-06	1.145876e-06	1.214473e-09	8.203989e+00	7.808107e+01
2.020000e-06	1.213046e-06	1.338622e-09	8.684900e+00	8.637620e+01
2.030000e-06	1.280197e-06	1.456785e-09	9.165675e+00	9.447158e+01
2.040000e-06	1.347256e-06	1.569507e-09	9.645786e+00	1.023424e+02
2.050000e-06	1.414197e-06	1.679944e-09	1.012506e+01	1.099666e+02
2.060000e-06	1.481084e-06	1.786489e-09	1.060394e+01	1.173255e+02
2.070000e-06	1.547805e-06	1.888869e-09	1.108164e+01	1.244036e+02
2.080000e-06	1.614300e-06	1.984531e-09	1.155771e+01	1.311888e+02
2.090000e-06	1.680659e-06	2.078769e-09	1.203281e+01	1.376728e+02
2.100000e-06	1.746920e-06	2.170971e-09	1.250722e+01	1.438506e+02
2.110000e-06	1.813046e-06	2.258050e-09	1.298064e+01	1.497208e+02
2.120000e-06	1.878930e-06	2.337894e-09	1.345235e+01	1.552855e+02
2.130000e-06	1.944567e-06	2.412214e-09	1.392228e+01	1.605498e+02
2.140000e-06	2.009994e-06	2.483675e-09	1.439071e+01	1.655218e+02
2.150000e-06	2.075283e-06	2.552344e-09	1.485815e+01	1.702121e+02
2.160000e-06	2.140454e-06	2.619556e-09	1.532475e+01	1.746338e+02
2.170000e-06	2.205467e-06	2.683411e-09	1.579022e+01	1.788017e+02
2.180000e-06	2.270351e-06	2.743080e-09	1.625476e+01	1.827324e+02
2.190000e-06	2.335116e-06	2.800702e-09	1.671845e+01	1.864434e+02
2.200000e-06	2.399728e-06	2.855636e-09	1.718105e+01	1.899531e+02
2.210000e-06	2.464149e-06	2.905753e-09	1.764227e+01	1.932800e+02
2.220000e-06	2.528363e-06	2.951283e-09	1.810202e+01	1.964428e+02
2.230000e-06	2.592362e-06	2.996570e-09	1.856022e+01	1.994595e+02
2.240000e-06	2.656115e-06	3.040104e-09	1.901667e+01	2.023477e+02
2.250000e-06	2.719646e-06	3.079617e-09	1.947152e+01	2.051235e+02
2.260000e-06	2.783036e-06	3.116873e-09	1.992537e+01	2.078020e+02
2.270000e-06	2.846239e-06	3.153487e-09	2.037788e+01	2.103967e+02
2.280000e-06	2.909246e-06	3.190404e-09	2.082898e+01	2.129194e+02
2.290000e-06	2.972126e-06	3.227756e-09	2.127918e+01	2.153802e+02
2.300000e-06	3.034868e-06	3.263762e-09	2.172838e+01	2.177874e+02
2.310000e-06	3.097462e-06	3.298453e-09	2.217653e+01	2.201473e+02
2.320000e-06	3.159890e-06	3.334423e-09	2.262348e+01	2.224647e+02
2.330000e-06	3.222131e-06	3.368217e-09	2.306910e+01	2.247427e+02
2.340000e-06	3.284237e-06	3.397380e-09	2.351376e+01	2.269827e+02
2.350000e-06	3.346123e-06	3.423037e-09	2.395684e+01	2.291849e+02
2.360000e-06	3.407653e-06	3.450886e-09	2.439736e+01	2.313483e+02
2.370000e-06	3.468827e-06	3.479452e-09	2.483534e+01	2.334710e+02
2.380000e-06	3.529717e-06	3.505884e-09	2.527129e+01	2.355504e+02
2.390000e-06	3.590366e-06	3.531090e-09	2.570551e+01	2.375833e+02
2.400000e-06	3.650814e-06	3.557610e-09	2.613829e+01	2.395663e+02
2.410000e-06	3.711141e-06	3.584550e-09	2.657021e+01	2.414961e+02
2.420000e-06	3.771258e-06	3.610066e-09	2.700062e+01	2.433695e+02
2.430000e-06	3.831106e-06	3.634165e-09	2.742911e+01	2.451837e+02
2.440000e-06	3.890788e-06	3.658396e-09	2.785641e+01	2.469364e+02
2.450000e-06	3.950332e-06	3.680321e-09	2.828272e+01	2.486259e+02
2.460000e-06	4.009596e-06	3.698771e-09	2.870702e+01	2.502514e+02
2.470000e-06	4.068544e-06	3.719578e-09	2.912906e+01	2.518129e+02
2.480000e-06	4.127143e-06	3.743039e-09	2.954861e+01	2.533112e+02
2.490000e-06	4.185324e-06	3.766770e-09	2.996516e+01	2.547479e+02
2.500000e-06	4.243090e-06	3.787783e-09	3.037874e+01	2.561255e+02
2.510000e-06	4.300340e-06	3.808481e-09	3.078862e+01	2.574472e+02
2.520000e-06	4.357097e-06	3.830641e-09	3.119499e+01	2.587168e+02
2.530000e-06	4.413536e-06	3.853440e-09	3.159907e+01	2.599387e+02
2.540000e-06	4.469691e-06	3.873849e-09	3.200111e+01	2.611176e+02
2.550000e-06	4.525566e-06	3.892893e-09	3.240115e+01	2.622586e+02
2.560000e-06	4.581206e-06	3.911445e-09	3.279951e+01	2.633667e+02
2.570000e-06	4.636552e-06	3.931308e-09	3.319577e+01	2.644470e+02
2.580000e-06	4.691527e-06	3.947298e-09	3.358936e+01	2.655043e+02
2.590000e-06	4.746211e-06	3.960469e-09	3.398087e+01	2.665431e+02
2.600000e-06	4.800653e-06	3.975017e-09	3.437066e+01	2.675675e+02
2.610000e-06	4.854810e-06	3.989847e-09	3.475840e+01	2.685808e+02
2.620000e-06	4.908657e-06	4.007360e-09	3.514392e+01	2.695859e+02
2.630000e-06	4.962121e-06	4.027277e-09	3.552670e+01	2.705850e+02
2.640000e-06	5.015186e-06	4.045781e-09	3.590662e+01	2.715793e+02
2.650000e-06	5.067873e-06	4.064403e-09	3.628384e+01	2.725694e+02
2.660000e-06	5.120194e-06	4.081142e-09	3.665844e+01	2.735553e+02
2.670000e-06	5.172194e-06	4.092874e-09	3.703073e+01	2.745362e+02
2.680000e-06	5.223743e-06	4.101456e-09	3.739981e+01	2.755106e+02
2.690000e-06	5.274767e-06	4.111921e-09	3.776512e+01	2.764765e+02
2.700000e-06	5.325357e-06	4.124073e-09	3.812732e+01	2.774317e+02
2.710000e-06	5.375484e-06	4.134570e-09	3.848620e+01	2.783735e+02
2.720000e-06	5.424994e-06	4.147718e-09	3.884068e+01	2.792989e+02
2.730000e-06	5.473900e-06	4.164135e-09	3.919082e+01	2.802052e+02
2.740000e-06	5.522380e-06	4.180088e-09	3.953792e+01	2.810894e+02
2.750000e-06	5.570481e-06	4.192526e-09	3.988231e+01	2.819491e+02
2.760000e-06	5.618118e-06	4.202528e-09	4.022337e+01	2.827818e+02
2.770000e-06	5.665379e-06	4.209398e-09	4.056173e+01	2.835856e+02
2.780000e-06	5.712385e-06	4.218156e-09	4.089828e+01	2.843593e+02
2.790000e-06	5.758998e-06	4.227227e-09	4.123201e+01	2.851019e+02
2.800000e-06	5.805067e-06	4.235760e-09	4.156184e+01	2.858133e+02
2.810000e-06	5.850634e-06	4.244928e-09	4.188808e+01	2.864938e+02
2.820000e-06	5.895777e-06	4.257594e-09	4.221129e+01	2.871443e+02
2.830000e-06	5.940643e-06	4.271340e-09	4.253251e+01	2.877666e+02
2.840000e-06	5.985226e-06	4.284873e-09	4.285170e+01	2.883627e+02
2.850000e-06	6.029390e-06	4.298183e-09	4.316790e+01	2.889351e+02
2.860000e-06	6.073282e-06	4.309300e-09	4.348214e+01	2.894869e+02
2.870000e-06	6.116901e-06	4.317328e-09	4.379444e+01	2.900213e+02
2.880000e-06	6.160115e-06	4.325762e-09	4.410384e+01	2.905416e+02
2.890000e-06	6.202884e-06	4.335193e-09	4.441004e+01	2.910513e+02
2.900000e-06	6.245082e-06	4.343309e-09	4.471216e+01	2.915539e+02
