# Temperatura_=_20.0
# Concentracion g/m^3_=_9000.0
# C_Vs_to_Am_M_A/Vsm_=_65563218390.804596
# pendiente_HvsI_1/m_=_3716.3
# ordenada_HvsI_A/m_=_1297.0
# frecuencia_Hz_=_135465.16163460969

Tiempo_(s)	Campo_(V.s)	Magnetizacion_(V.s)	Campo_(kA/m)	Magnetizacion_(A/m)
0.000000e+00	-7.912142e-06	-4.584814e-09	-5.692420e+01	-3.005372e+02
1.000000e-08	-7.912447e-06	-4.583050e-09	-5.692639e+01	-3.006062e+02
2.000000e-08	-7.912305e-06	-4.582096e-09	-5.692537e+01	-3.006698e+02
3.000000e-08	-7.911667e-06	-4.582262e-09	-5.692078e+01	-3.007256e+02
4.000000e-08	-7.910376e-06	-4.584667e-09	-5.691149e+01	-3.007709e+02
5.000000e-08	-7.908258e-06	-4.587476e-09	-5.689625e+01	-3.008030e+02
6.000000e-08	-7.905376e-06	-4.588822e-09	-5.687552e+01	-3.008193e+02
7.000000e-08	-7.901952e-06	-4.589263e-09	-5.685089e+01	-3.008174e+02
8.000000e-08	-7.898135e-06	-4.584299e-09	-5.682342e+01	-3.007948e+02
9.000000e-08	-7.893917e-06	-4.587392e-09	-5.679308e+01	-3.007496e+02
1.000000e-07	-7.889060e-06	-4.597115e-09	-5.675813e+01	-3.006800e+02
1.100000e-07	-7.883298e-06	-4.613227e-09	-5.671667e+01	-3.005845e+02
1.200000e-07	-7.876619e-06	-4.612726e-09	-5.666863e+01	-3.004622e+02
1.300000e-07	-7.869302e-06	-4.566400e-09	-5.661598e+01	-3.003125e+02
1.400000e-07	-7.861668e-06	-4.551533e-09	-5.656106e+01	-3.001352e+02
1.500000e-07	-7.853840e-06	-4.578239e-09	-5.650474e+01	-2.999307e+02
1.600000e-07	-7.845708e-06	-4.587207e-09	-5.644623e+01	-2.996996e+02
1.700000e-07	-7.837046e-06	-4.607629e-09	-5.638391e+01	-2.994433e+02
1.800000e-07	-7.827661e-06	-4.606520e-09	-5.631639e+01	-2.991632e+02
1.900000e-07	-7.817388e-06	-4.569320e-09	-5.624249e+01	-2.988613e+02
2.000000e-07	-7.806360e-06	-4.602688e-09	-5.616314e+01	-2.985397e+02
2.100000e-07	-7.794836e-06	-4.651453e-09	-5.608023e+01	-2.982009e+02
2.200000e-07	-7.782728e-06	-4.629631e-09	-5.599313e+01	-2.978474e+02
2.300000e-07	-7.769936e-06	-4.564683e-09	-5.590109e+01	-2.974820e+02
2.400000e-07	-7.756567e-06	-4.577541e-09	-5.580491e+01	-2.971074e+02
2.500000e-07	-7.742727e-06	-4.569990e-09	-5.570534e+01	-2.967263e+02
2.600000e-07	-7.728152e-06	-4.526360e-09	-5.560047e+01	-2.963412e+02
2.700000e-07	-7.712544e-06	-4.523889e-09	-5.548818e+01	-2.959545e+02
2.800000e-07	-7.696114e-06	-4.514194e-09	-5.536998e+01	-2.955685e+02
2.900000e-07	-7.679142e-06	-4.444729e-09	-5.524787e+01	-2.951850e+02
3.000000e-07	-7.661782e-06	-4.436439e-09	-5.512298e+01	-2.948057e+02
3.100000e-07	-7.644054e-06	-4.480283e-09	-5.499543e+01	-2.944317e+02
3.200000e-07	-7.625814e-06	-4.424829e-09	-5.486420e+01	-2.940641e+02
3.300000e-07	-7.607005e-06	-4.371651e-09	-5.472888e+01	-2.937033e+02
3.400000e-07	-7.587660e-06	-4.450057e-09	-5.458970e+01	-2.933496e+02
3.500000e-07	-7.567887e-06	-4.477989e-09	-5.444744e+01	-2.930028e+02
3.600000e-07	-7.547731e-06	-4.392475e-09	-5.430243e+01	-2.926624e+02
3.700000e-07	-7.527089e-06	-4.388677e-09	-5.415392e+01	-2.923278e+02
3.800000e-07	-7.505930e-06	-4.427048e-09	-5.400169e+01	-2.919979e+02
3.900000e-07	-7.484300e-06	-4.427889e-09	-5.384608e+01	-2.916717e+02
4.000000e-07	-7.462129e-06	-4.403482e-09	-5.368656e+01	-2.913478e+02
4.100000e-07	-7.439362e-06	-4.410687e-09	-5.352276e+01	-2.910250e+02
4.200000e-07	-7.416100e-06	-4.413448e-09	-5.335541e+01	-2.907018e+02
4.300000e-07	-7.392432e-06	-4.407037e-09	-5.318513e+01	-2.903770e+02
4.400000e-07	-7.368323e-06	-4.408022e-09	-5.301167e+01	-2.900492e+02
4.500000e-07	-7.343576e-06	-4.425038e-09	-5.283363e+01	-2.897173e+02
4.600000e-07	-7.318182e-06	-4.378467e-09	-5.265093e+01	-2.893804e+02
4.700000e-07	-7.292145e-06	-4.355587e-09	-5.246361e+01	-2.890376e+02
4.800000e-07	-7.265382e-06	-4.413055e-09	-5.227106e+01	-2.886884e+02
4.900000e-07	-7.238024e-06	-4.409707e-09	-5.207423e+01	-2.883325e+02
5.000000e-07	-7.210250e-06	-4.325078e-09	-5.187441e+01	-2.879696e+02
5.100000e-07	-7.182149e-06	-4.345605e-09	-5.167223e+01	-2.875999e+02
5.200000e-07	-7.153648e-06	-4.400585e-09	-5.146718e+01	-2.872236e+02
5.300000e-07	-7.124666e-06	-4.363607e-09	-5.125867e+01	-2.868412e+02
5.400000e-07	-7.095141e-06	-4.329800e-09	-5.104626e+01	-2.864533e+02
5.500000e-07	-7.065060e-06	-4.342277e-09	-5.082984e+01	-2.860606e+02
5.600000e-07	-7.034468e-06	-4.339501e-09	-5.060974e+01	-2.856638e+02
5.700000e-07	-7.003401e-06	-4.335454e-09	-5.038622e+01	-2.852638e+02
5.800000e-07	-6.971916e-06	-4.331528e-09	-5.015970e+01	-2.848612e+02
5.900000e-07	-6.940085e-06	-4.301573e-09	-4.993070e+01	-2.844567e+02
6.000000e-07	-6.907887e-06	-4.296267e-09	-4.969904e+01	-2.840510e+02
6.100000e-07	-6.875181e-06	-4.316606e-09	-4.946375e+01	-2.836444e+02
6.200000e-07	-6.841820e-06	-4.315283e-09	-4.922373e+01	-2.832372e+02
6.300000e-07	-6.807642e-06	-4.289274e-09	-4.897783e+01	-2.828294e+02
6.400000e-07	-6.772754e-06	-4.273905e-09	-4.872683e+01	-2.824208e+02
6.500000e-07	-6.737444e-06	-4.276743e-09	-4.847279e+01	-2.820111e+02
6.600000e-07	-6.701804e-06	-4.291362e-09	-4.821638e+01	-2.815995e+02
6.700000e-07	-6.665801e-06	-4.274266e-09	-4.795735e+01	-2.811853e+02
6.800000e-07	-6.629367e-06	-4.242774e-09	-4.769522e+01	-2.807674e+02
6.900000e-07	-6.592405e-06	-4.240021e-09	-4.742930e+01	-2.803447e+02
7.000000e-07	-6.554901e-06	-4.255317e-09	-4.715948e+01	-2.799156e+02
7.100000e-07	-6.516946e-06	-4.238108e-09	-4.688641e+01	-2.794789e+02
7.200000e-07	-6.478568e-06	-4.217060e-09	-4.661030e+01	-2.790330e+02
7.300000e-07	-6.439745e-06	-4.212077e-09	-4.633099e+01	-2.785765e+02
7.400000e-07	-6.400489e-06	-4.210557e-09	-4.604856e+01	-2.781079e+02
7.500000e-07	-6.360921e-06	-4.202965e-09	-4.576388e+01	-2.776259e+02
7.600000e-07	-6.321042e-06	-4.195274e-09	-4.547697e+01	-2.771293e+02
7.700000e-07	-6.280771e-06	-4.179295e-09	-4.518724e+01	-2.766170e+02
7.800000e-07	-6.240123e-06	-4.168450e-09	-4.489479e+01	-2.760884e+02
7.900000e-07	-6.198927e-06	-4.168253e-09	-4.459841e+01	-2.755428e+02
8.000000e-07	-6.156969e-06	-4.161898e-09	-4.429654e+01	-2.749801e+02
8.100000e-07	-6.114309e-06	-4.145900e-09	-4.398962e+01	-2.744001e+02
8.200000e-07	-6.071083e-06	-4.137824e-09	-4.367863e+01	-2.738032e+02
8.300000e-07	-6.027428e-06	-4.136011e-09	-4.336455e+01	-2.731900e+02
8.400000e-07	-5.983398e-06	-4.126181e-09	-4.304778e+01	-2.725613e+02
8.500000e-07	-5.939057e-06	-4.110528e-09	-4.272877e+01	-2.719180e+02
8.600000e-07	-5.894381e-06	-4.100757e-09	-4.240734e+01	-2.712615e+02
8.700000e-07	-5.849239e-06	-4.097133e-09	-4.208257e+01	-2.705931e+02
8.800000e-07	-5.803705e-06	-4.086400e-09	-4.175497e+01	-2.699143e+02
8.900000e-07	-5.757817e-06	-4.069467e-09	-4.142483e+01	-2.692266e+02
9.000000e-07	-5.711527e-06	-4.054616e-09	-4.109179e+01	-2.685314e+02
9.100000e-07	-5.664907e-06	-4.050736e-09	-4.075638e+01	-2.678302e+02
9.200000e-07	-5.617974e-06	-4.043235e-09	-4.041872e+01	-2.671243e+02
9.300000e-07	-5.570561e-06	-4.030730e-09	-4.007761e+01	-2.664147e+02
9.400000e-07	-5.522636e-06	-4.020193e-09	-3.973281e+01	-2.657024e+02
9.500000e-07	-5.474262e-06	-4.014739e-09	-3.938478e+01	-2.649878e+02
9.600000e-07	-5.425463e-06	-4.006844e-09	-3.903369e+01	-2.642714e+02
9.700000e-07	-5.376092e-06	-3.995602e-09	-3.867849e+01	-2.635531e+02
9.800000e-07	-5.326080e-06	-3.980254e-09	-3.831868e+01	-2.628326e+02
9.900000e-07	-5.275510e-06	-3.966363e-09	-3.795485e+01	-2.621092e+02
1.000000e-06	-5.224377e-06	-3.956115e-09	-3.758697e+01	-2.613818e+02
1.010000e-06	-5.172804e-06	-3.946505e-09	-3.721593e+01	-2.606493e+02
1.020000e-06	-5.120853e-06	-3.928679e-09	-3.684217e+01	-2.599099e+02
1.030000e-06	-5.068562e-06	-3.913284e-09	-3.646595e+01	-2.591620e+02
1.040000e-06	-5.015927e-06	-3.906023e-09	-3.608727e+01	-2.584036e+02
1.050000e-06	-4.962891e-06	-3.896253e-09	-3.570571e+01	-2.576327e+02
1.060000e-06	-4.909500e-06	-3.877822e-09	-3.532158e+01	-2.568470e+02
1.070000e-06	-4.855755e-06	-3.859571e-09	-3.493491e+01	-2.560446e+02
1.080000e-06	-4.801691e-06	-3.850544e-09	-3.454594e+01	-2.552233e+02
1.090000e-06	-4.747311e-06	-3.841096e-09	-3.415470e+01	-2.543813e+02
1.100000e-06	-4.692500e-06	-3.821614e-09	-3.376037e+01	-2.535168e+02
1.110000e-06	-4.637359e-06	-3.800801e-09	-3.336365e+01	-2.526285e+02
1.120000e-06	-4.581992e-06	-3.787745e-09	-3.296531e+01	-2.517149e+02
1.130000e-06	-4.526371e-06	-3.777788e-09	-3.256514e+01	-2.507754e+02
1.140000e-06	-4.470491e-06	-3.763917e-09	-3.216312e+01	-2.498094e+02
1.150000e-06	-4.414285e-06	-3.745284e-09	-3.175874e+01	-2.488166e+02
1.160000e-06	-4.357815e-06	-3.727751e-09	-3.135246e+01	-2.477972e+02
1.170000e-06	-4.301143e-06	-3.714415e-09	-3.094473e+01	-2.467515e+02
1.180000e-06	-4.244193e-06	-3.701110e-09	-3.053500e+01	-2.456805e+02
1.190000e-06	-4.186828e-06	-3.680346e-09	-3.012229e+01	-2.445849e+02
1.200000e-06	-4.129016e-06	-3.657889e-09	-2.970636e+01	-2.434660e+02
1.210000e-06	-4.070756e-06	-3.639980e-09	-2.928721e+01	-2.423251e+02
1.220000e-06	-4.012078e-06	-3.626318e-09	-2.886504e+01	-2.411635e+02
1.230000e-06	-3.953024e-06	-3.610503e-09	-2.844018e+01	-2.399827e+02
1.240000e-06	-3.893568e-06	-3.591154e-09	-2.801242e+01	-2.387838e+02
1.250000e-06	-3.833817e-06	-3.568414e-09	-2.758254e+01	-2.375680e+02
1.260000e-06	-3.773870e-06	-3.548482e-09	-2.715125e+01	-2.363363e+02
1.270000e-06	-3.713811e-06	-3.528629e-09	-2.671915e+01	-2.350892e+02
1.280000e-06	-3.653603e-06	-3.506663e-09	-2.628598e+01	-2.338271e+02
1.290000e-06	-3.593207e-06	-3.484892e-09	-2.585146e+01	-2.325498e+02
1.300000e-06	-3.532620e-06	-3.465947e-09	-2.541556e+01	-2.312569e+02
1.310000e-06	-3.471872e-06	-3.446473e-09	-2.497851e+01	-2.299475e+02
1.320000e-06	-3.410898e-06	-3.424136e-09	-2.453983e+01	-2.286201e+02
1.330000e-06	-3.349626e-06	-3.401460e-09	-2.409901e+01	-2.272731e+02
1.340000e-06	-3.288156e-06	-3.378260e-09	-2.365676e+01	-2.259042e+02
1.350000e-06	-3.226461e-06	-3.354520e-09	-2.321289e+01	-2.245110e+02
1.360000e-06	-3.164529e-06	-3.331410e-09	-2.276732e+01	-2.230907e+02
1.370000e-06	-3.102363e-06	-3.306550e-09	-2.232007e+01	-2.216403e+02
1.380000e-06	-3.039957e-06	-3.279769e-09	-2.187108e+01	-2.201565e+02
1.390000e-06	-2.977342e-06	-3.256514e-09	-2.142059e+01	-2.186363e+02
1.400000e-06	-2.914584e-06	-3.234405e-09	-2.096908e+01	-2.170763e+02
1.410000e-06	-2.851675e-06	-3.209841e-09	-2.051648e+01	-2.154735e+02
1.420000e-06	-2.788534e-06	-3.181598e-09	-2.006221e+01	-2.138251e+02
1.430000e-06	-2.725169e-06	-3.154139e-09	-1.960633e+01	-2.121284e+02
1.440000e-06	-2.661680e-06	-3.127365e-09	-1.914955e+01	-2.103811e+02
1.450000e-06	-2.598014e-06	-3.102392e-09	-1.869151e+01	-2.085814e+02
1.460000e-06	-2.534173e-06	-3.076011e-09	-1.823220e+01	-2.067279e+02
1.470000e-06	-2.470227e-06	-3.047123e-09	-1.777214e+01	-2.048195e+02
1.480000e-06	-2.406054e-06	-3.017713e-09	-1.731044e+01	-2.028557e+02
1.490000e-06	-2.341685e-06	-2.988562e-09	-1.684734e+01	-2.008364e+02
1.500000e-06	-2.277213e-06	-2.958549e-09	-1.638350e+01	-1.987620e+02
1.510000e-06	-2.212622e-06	-2.927439e-09	-1.591879e+01	-1.966330e+02
1.520000e-06	-2.147892e-06	-2.894770e-09	-1.545309e+01	-1.944503e+02
1.530000e-06	-2.083021e-06	-2.862770e-09	-1.498637e+01	-1.922149e+02
1.540000e-06	-2.018018e-06	-2.831512e-09	-1.451870e+01	-1.899277e+02
1.550000e-06	-1.952834e-06	-2.799293e-09	-1.404973e+01	-1.875895e+02
1.560000e-06	-1.887448e-06	-2.764968e-09	-1.357932e+01	-1.852009e+02
1.570000e-06	-1.821965e-06	-2.729986e-09	-1.310819e+01	-1.827620e+02
1.580000e-06	-1.756343e-06	-2.693958e-09	-1.263607e+01	-1.802722e+02
1.590000e-06	-1.690529e-06	-2.656071e-09	-1.216257e+01	-1.777303e+02
1.600000e-06	-1.624607e-06	-2.618595e-09	-1.168830e+01	-1.751341e+02
1.610000e-06	-1.558572e-06	-2.579305e-09	-1.121320e+01	-1.724803e+02
1.620000e-06	-1.492301e-06	-2.536936e-09	-1.073642e+01	-1.697646e+02
1.630000e-06	-1.425890e-06	-2.494112e-09	-1.025862e+01	-1.669813e+02
1.640000e-06	-1.359372e-06	-2.451504e-09	-9.780050e+00	-1.641235e+02
1.650000e-06	-1.292612e-06	-2.406092e-09	-9.299747e+00	-1.611830e+02
1.660000e-06	-1.225650e-06	-2.356827e-09	-8.817985e+00	-1.581501e+02
1.670000e-06	-1.158598e-06	-2.304945e-09	-8.335575e+00	-1.550141e+02
1.680000e-06	-1.091454e-06	-2.252703e-09	-7.852505e+00	-1.517629e+02
1.690000e-06	-1.024135e-06	-2.198317e-09	-7.368174e+00	-1.483835e+02
1.700000e-06	-9.567640e-07	-2.142544e-09	-6.883473e+00	-1.448618e+02
1.710000e-06	-8.893992e-07	-2.084053e-09	-6.398815e+00	-1.411833e+02
1.720000e-06	-8.219694e-07	-2.023956e-09	-5.913689e+00	-1.373328e+02
1.730000e-06	-7.545211e-07	-1.964025e-09	-5.428430e+00	-1.332952e+02
1.740000e-06	-6.870517e-07	-1.901989e-09	-4.943019e+00	-1.290552e+02
1.750000e-06	-6.195313e-07	-1.833725e-09	-4.457241e+00	-1.245981e+02
1.760000e-06	-5.519277e-07	-1.760516e-09	-3.970864e+00	-1.199102e+02
1.770000e-06	-4.842377e-07	-1.683174e-09	-3.483866e+00	-1.149784e+02
1.780000e-06	-4.165396e-07	-1.601047e-09	-2.996810e+00	-1.097915e+02
1.790000e-06	-3.488144e-07	-1.515046e-09	-2.509558e+00	-1.043398e+02
1.800000e-06	-2.810565e-07	-1.427924e-09	-2.022071e+00	-9.861590e+01
1.810000e-06	-2.133075e-07	-1.339756e-09	-1.534648e+00	-9.261454e+01
1.820000e-06	-1.455681e-07	-1.249763e-09	-1.047295e+00	-8.633322e+01
1.830000e-06	-7.783200e-08	-1.156780e-09	-5.599652e-01	-7.977223e+01
1.840000e-06	-1.017042e-08	-1.059067e-09	-7.317148e-02	-7.293488e+01
1.850000e-06	5.750689e-08	-9.574636e-10	4.137354e-01	-6.582760e+01
1.860000e-06	1.252313e-07	-8.501753e-10	9.009814e-01	-5.846002e+01
1.870000e-06	1.929417e-07	-7.364814e-10	1.388126e+00	-5.084495e+01
1.880000e-06	2.606631e-07	-6.151215e-10	1.875350e+00	-4.299835e+01
1.890000e-06	3.284140e-07	-4.905521e-10	2.362787e+00	-3.493923e+01
1.900000e-06	3.961837e-07	-3.654767e-10	2.850358e+00	-2.668945e+01
1.910000e-06	4.639193e-07	-2.383538e-10	3.337685e+00	-1.827352e+01
1.920000e-06	5.316834e-07	-1.087994e-10	3.825216e+00	-9.718297e+00
1.930000e-06	5.994130e-07	2.282945e-11	4.312499e+00	-1.052679e+00
1.940000e-06	6.670410e-07	1.571723e-10	4.799051e+00	7.692781e+00
1.950000e-06	7.346368e-07	2.933555e-10	5.285372e+00	1.648627e+01
1.960000e-06	8.021877e-07	4.299599e-10	5.771369e+00	2.529515e+01
1.970000e-06	8.696294e-07	5.683700e-10	6.256580e+00	3.408640e+01
1.980000e-06	9.369212e-07	7.078421e-10	6.740714e+00	4.282710e+01
1.990000e-06	1.004095e-06	8.430780e-10	7.223999e+00	5.148485e+01
2.000000e-06	1.071176e-06	9.750622e-10	7.706612e+00	6.002827e+01
2.010000e-06	1.138222e-06	1.104335e-09	8.188979e+00	6.842737e+01
2.020000e-06	1.205303e-06	1.227789e-09	8.671597e+00	7.665402e+01
2.030000e-06	1.272294e-06	1.345164e-09	9.153566e+00	8.468226e+01
2.040000e-06	1.339093e-06	1.458508e-09	9.634156e+00	9.248868e+01
2.050000e-06	1.405721e-06	1.568131e-09	1.011351e+01	1.000526e+02
2.060000e-06	1.472177e-06	1.672708e-09	1.059163e+01	1.073566e+02
2.070000e-06	1.538548e-06	1.773980e-09	1.106914e+01	1.143860e+02
2.080000e-06	1.604783e-06	1.871337e-09	1.154567e+01	1.211299e+02
2.090000e-06	1.670730e-06	1.964816e-09	1.202013e+01	1.275804e+02
2.100000e-06	1.736505e-06	2.056334e-09	1.249335e+01	1.337331e+02
2.110000e-06	1.802094e-06	2.144359e-09	1.296523e+01	1.395867e+02
2.120000e-06	1.867507e-06	2.225346e-09	1.343585e+01	1.451432e+02
2.130000e-06	1.932732e-06	2.299796e-09	1.390511e+01	1.504074e+02
2.140000e-06	1.997666e-06	2.371036e-09	1.437228e+01	1.553866e+02
2.150000e-06	2.062499e-06	2.439957e-09	1.483872e+01	1.600909e+02
2.160000e-06	2.127282e-06	2.504114e-09	1.530481e+01	1.645322e+02
2.170000e-06	2.191915e-06	2.563878e-09	1.576981e+01	1.687242e+02
2.180000e-06	2.256355e-06	2.622525e-09	1.623343e+01	1.726821e+02
2.190000e-06	2.320688e-06	2.679523e-09	1.669627e+01	1.764222e+02
2.200000e-06	2.384893e-06	2.732554e-09	1.715820e+01	1.799612e+02
2.210000e-06	2.448900e-06	2.781046e-09	1.761870e+01	1.833164e+02
2.220000e-06	2.512797e-06	2.826961e-09	1.807841e+01	1.865050e+02
2.230000e-06	2.576556e-06	2.871825e-09	1.853712e+01	1.895438e+02
2.240000e-06	2.640153e-06	2.913024e-09	1.899468e+01	1.924490e+02
2.250000e-06	2.703562e-06	2.951985e-09	1.945088e+01	1.952359e+02
2.260000e-06	2.766695e-06	2.989094e-09	1.990509e+01	1.979187e+02
2.270000e-06	2.829618e-06	3.026164e-09	2.035779e+01	2.005104e+02
2.280000e-06	2.892366e-06	3.062888e-09	2.080923e+01	2.030223e+02
2.290000e-06	2.954987e-06	3.098653e-09	2.125976e+01	2.054644e+02
2.300000e-06	3.017471e-06	3.134209e-09	2.170931e+01	2.078451e+02
2.310000e-06	3.079744e-06	3.167538e-09	2.215733e+01	2.101713e+02
2.320000e-06	3.141830e-06	3.199996e-09	2.260401e+01	2.124481e+02
2.330000e-06	3.203755e-06	3.232109e-09	2.304954e+01	2.146795e+02
2.340000e-06	3.265465e-06	3.262999e-09	2.349350e+01	2.168678e+02
2.350000e-06	3.326894e-06	3.292663e-09	2.393546e+01	2.190143e+02
2.360000e-06	3.388057e-06	3.321278e-09	2.437550e+01	2.211192e+02
2.370000e-06	3.448936e-06	3.349655e-09	2.481350e+01	2.231818e+02
2.380000e-06	3.509575e-06	3.377761e-09	2.524977e+01	2.252008e+02
2.390000e-06	3.570038e-06	3.404513e-09	2.568477e+01	2.271742e+02
2.400000e-06	3.630327e-06	3.429389e-09	2.611852e+01	2.290998e+02
2.410000e-06	3.690433e-06	3.452854e-09	2.655096e+01	2.309754e+02
2.420000e-06	3.750388e-06	3.476994e-09	2.698230e+01	2.327986e+02
2.430000e-06	3.810173e-06	3.500677e-09	2.741243e+01	2.345674e+02
2.440000e-06	3.869720e-06	3.523477e-09	2.784085e+01	2.362801e+02
2.450000e-06	3.928906e-06	3.545276e-09	2.826666e+01	2.379354e+02
2.460000e-06	3.987769e-06	3.565949e-09	2.869015e+01	2.395327e+02
2.470000e-06	4.046405e-06	3.588748e-09	2.911201e+01	2.410717e+02
2.480000e-06	4.104654e-06	3.612636e-09	2.953109e+01	2.425530e+02
2.490000e-06	4.162422e-06	3.635346e-09	2.994670e+01	2.439779e+02
2.500000e-06	4.219709e-06	3.656219e-09	3.035885e+01	2.453481e+02
2.510000e-06	4.276530e-06	3.675394e-09	3.076765e+01	2.466660e+02
2.520000e-06	4.333013e-06	3.693911e-09	3.117402e+01	2.479345e+02
2.530000e-06	4.389266e-06	3.709692e-09	3.157873e+01	2.491572e+02
2.540000e-06	4.445223e-06	3.725158e-09	3.198132e+01	2.503376e+02
2.550000e-06	4.500822e-06	3.741752e-09	3.238133e+01	2.514797e+02
2.560000e-06	4.556121e-06	3.759909e-09	3.277918e+01	2.525877e+02
2.570000e-06	4.611178e-06	3.780442e-09	3.317529e+01	2.536657e+02
2.580000e-06	4.666018e-06	3.799065e-09	3.356984e+01	2.547177e+02
2.590000e-06	4.720580e-06	3.816389e-09	3.396238e+01	2.557476e+02
2.600000e-06	4.774789e-06	3.835584e-09	3.435240e+01	2.567589e+02
2.610000e-06	4.828692e-06	3.852300e-09	3.474020e+01	2.577548e+02
2.620000e-06	4.882264e-06	3.867709e-09	3.512563e+01	2.587380e+02
2.630000e-06	4.935464e-06	3.883883e-09	3.550838e+01	2.597106e+02
2.640000e-06	4.988287e-06	3.899783e-09	3.588842e+01	2.606744e+02
2.650000e-06	5.040770e-06	3.913953e-09	3.626601e+01	2.616305e+02
2.660000e-06	5.092906e-06	3.928347e-09	3.664110e+01	2.625794e+02
2.670000e-06	5.144621e-06	3.941711e-09	3.701316e+01	2.635212e+02
2.680000e-06	5.195822e-06	3.954026e-09	3.738154e+01	2.644553e+02
2.690000e-06	5.246540e-06	3.969605e-09	3.774643e+01	2.653809e+02
2.700000e-06	5.296764e-06	3.984580e-09	3.810776e+01	2.662968e+02
2.710000e-06	5.346389e-06	3.998278e-09	3.846479e+01	2.672012e+02
2.720000e-06	5.395434e-06	4.011047e-09	3.881765e+01	2.680926e+02
2.730000e-06	5.443978e-06	4.023068e-09	3.916690e+01	2.689689e+02
2.740000e-06	5.492175e-06	4.032639e-09	3.951366e+01	2.698282e+02
2.750000e-06	5.540014e-06	4.041051e-09	3.985783e+01	2.706686e+02
2.760000e-06	5.587477e-06	4.051488e-09	4.019931e+01	2.714885e+02
2.770000e-06	5.634552e-06	4.062982e-09	4.053799e+01	2.722862e+02
2.780000e-06	5.681216e-06	4.074384e-09	4.087372e+01	2.730606e+02
2.790000e-06	5.727507e-06	4.086363e-09	4.120676e+01	2.738108e+02
2.800000e-06	5.773423e-06	4.097419e-09	4.153710e+01	2.745361e+02
2.810000e-06	5.818954e-06	4.107183e-09	4.186468e+01	2.752366e+02
2.820000e-06	5.864034e-06	4.119318e-09	4.218901e+01	2.759125e+02
2.830000e-06	5.908696e-06	4.131883e-09	4.251033e+01	2.765644e+02
2.840000e-06	5.953034e-06	4.141569e-09	4.282932e+01	2.771936e+02
2.850000e-06	5.997031e-06	4.152048e-09	4.314586e+01	2.778013e+02
2.860000e-06	6.040758e-06	4.163580e-09	4.346045e+01	2.783894e+02
2.870000e-06	6.084262e-06	4.175616e-09	4.377344e+01	2.789599e+02
2.880000e-06	6.127381e-06	4.186419e-09	4.408367e+01	2.795149e+02
2.890000e-06	6.169941e-06	4.196783e-09	4.438987e+01	2.800568e+02
2.900000e-06	6.211811e-06	4.206436e-09	4.469110e+01	2.805878e+02
