# Temperatura_=_20.0
# Concentracion g/m^3_=_12600.0
# C_Vs_to_Am_M_A/Vsm_=_65563218390.804596
# pendiente_HvsI_1/m_=_3716.3
# ordenada_HvsI_A/m_=_1297.0
# frecuencia_Hz_=_213099.35983482754

Tiempo_(s)	Campo_(V.s)	Magnetizacion_(V.s)	Campo_(kA/m)	Magnetizacion_(A/m)
0.000000e+00	-3.996720e-06	-3.362391e-09	-2.908028e+01	-2.195081e+02
1.000000e-08	-3.996915e-06	-3.361512e-09	-2.908170e+01	-2.195037e+02
2.000000e-08	-3.996469e-06	-3.363653e-09	-2.907845e+01	-2.194576e+02
3.000000e-08	-3.995182e-06	-3.361961e-09	-2.906909e+01	-2.193703e+02
4.000000e-08	-3.992932e-06	-3.357072e-09	-2.905272e+01	-2.192433e+02
5.000000e-08	-3.989863e-06	-3.353901e-09	-2.903038e+01	-2.190787e+02
6.000000e-08	-3.986234e-06	-3.348755e-09	-2.900398e+01	-2.188795e+02
7.000000e-08	-3.982098e-06	-3.334645e-09	-2.897388e+01	-2.186494e+02
8.000000e-08	-3.977309e-06	-3.313761e-09	-2.893904e+01	-2.183926e+02
9.000000e-08	-3.971740e-06	-3.367070e-09	-2.889852e+01	-2.181140e+02
1.000000e-07	-3.965300e-06	-3.445679e-09	-2.885167e+01	-2.178182e+02
1.100000e-07	-3.958093e-06	-3.368808e-09	-2.879923e+01	-2.175103e+02
1.200000e-07	-3.950493e-06	-3.170986e-09	-2.874392e+01	-2.171947e+02
1.300000e-07	-3.942470e-06	-3.243294e-09	-2.868555e+01	-2.168753e+02
1.400000e-07	-3.933502e-06	-3.474522e-09	-2.862030e+01	-2.165554e+02
1.500000e-07	-3.923464e-06	-3.379405e-09	-2.854727e+01	-2.162373e+02
1.600000e-07	-3.912737e-06	-3.284706e-09	-2.846922e+01	-2.159219e+02
1.700000e-07	-3.901135e-06	-3.333242e-09	-2.838480e+01	-2.156093e+02
1.800000e-07	-3.888527e-06	-3.287305e-09	-2.829306e+01	-2.152981e+02
1.900000e-07	-3.875426e-06	-3.244672e-09	-2.819774e+01	-2.149858e+02
2.000000e-07	-3.861834e-06	-3.508028e-09	-2.809884e+01	-2.146688e+02
2.100000e-07	-3.846946e-06	-3.391551e-09	-2.799052e+01	-2.143425e+02
2.200000e-07	-3.830822e-06	-2.993614e-09	-2.787319e+01	-2.140018e+02
2.300000e-07	-3.814221e-06	-3.324551e-09	-2.775241e+01	-2.136411e+02
2.400000e-07	-3.797226e-06	-3.603239e-09	-2.762875e+01	-2.132543e+02
2.500000e-07	-3.779611e-06	-3.231943e-09	-2.750059e+01	-2.128359e+02
2.600000e-07	-3.761182e-06	-3.008570e-09	-2.736649e+01	-2.123804e+02
2.700000e-07	-3.742056e-06	-3.318524e-09	-2.722733e+01	-2.118832e+02
2.800000e-07	-3.722510e-06	-3.376176e-09	-2.708512e+01	-2.113401e+02
2.900000e-07	-3.702528e-06	-3.198897e-09	-2.693973e+01	-2.107484e+02
3.000000e-07	-3.681868e-06	-3.212241e-09	-2.678940e+01	-2.101060e+02
3.100000e-07	-3.660529e-06	-3.161558e-09	-2.663414e+01	-2.094122e+02
3.200000e-07	-3.638564e-06	-3.170764e-09	-2.647432e+01	-2.086672e+02
3.300000e-07	-3.615981e-06	-3.238848e-09	-2.631000e+01	-2.078723e+02
3.400000e-07	-3.592884e-06	-3.195077e-09	-2.614195e+01	-2.070295e+02
3.500000e-07	-3.569374e-06	-3.175553e-09	-2.597089e+01	-2.061415e+02
3.600000e-07	-3.545294e-06	-3.080808e-09	-2.579568e+01	-2.052116e+02
3.700000e-07	-3.520398e-06	-3.060053e-09	-2.561454e+01	-2.042432e+02
3.800000e-07	-3.494608e-06	-3.209074e-09	-2.542690e+01	-2.032396e+02
3.900000e-07	-3.467947e-06	-3.150974e-09	-2.523291e+01	-2.022042e+02
4.000000e-07	-3.440637e-06	-2.975388e-09	-2.503420e+01	-2.011397e+02
4.100000e-07	-3.412911e-06	-2.995177e-09	-2.483246e+01	-2.000486e+02
4.200000e-07	-3.384783e-06	-3.113733e-09	-2.462780e+01	-1.989325e+02
4.300000e-07	-3.356023e-06	-3.046312e-09	-2.441854e+01	-1.977927e+02
4.400000e-07	-3.326576e-06	-2.960718e-09	-2.420428e+01	-1.966297e+02
4.500000e-07	-3.296583e-06	-2.964730e-09	-2.398606e+01	-1.954432e+02
4.600000e-07	-3.266006e-06	-2.949628e-09	-2.376357e+01	-1.942327e+02
4.700000e-07	-3.234912e-06	-2.975976e-09	-2.353734e+01	-1.929973e+02
4.800000e-07	-3.203429e-06	-2.939873e-09	-2.330826e+01	-1.917356e+02
4.900000e-07	-3.171593e-06	-2.879572e-09	-2.307662e+01	-1.904463e+02
5.000000e-07	-3.139266e-06	-2.873003e-09	-2.284141e+01	-1.891282e+02
5.100000e-07	-3.105995e-06	-2.858333e-09	-2.259933e+01	-1.877802e+02
5.200000e-07	-3.071740e-06	-2.871868e-09	-2.235009e+01	-1.864013e+02
5.300000e-07	-3.036811e-06	-2.835021e-09	-2.209594e+01	-1.849913e+02
5.400000e-07	-3.001434e-06	-2.767988e-09	-2.183854e+01	-1.835500e+02
5.500000e-07	-2.965719e-06	-2.760958e-09	-2.157868e+01	-1.820778e+02
5.600000e-07	-2.929614e-06	-2.764468e-09	-2.131598e+01	-1.805757e+02
5.700000e-07	-2.892960e-06	-2.744078e-09	-2.104928e+01	-1.790446e+02
5.800000e-07	-2.855742e-06	-2.674611e-09	-2.077848e+01	-1.774860e+02
5.900000e-07	-2.818107e-06	-2.667680e-09	-2.050465e+01	-1.759015e+02
6.000000e-07	-2.779968e-06	-2.675970e-09	-2.022715e+01	-1.742927e+02
6.100000e-07	-2.741236e-06	-2.619164e-09	-1.994533e+01	-1.726610e+02
6.200000e-07	-2.702068e-06	-2.593745e-09	-1.966035e+01	-1.710079e+02
6.300000e-07	-2.662615e-06	-2.580071e-09	-1.937328e+01	-1.693343e+02
6.400000e-07	-2.622898e-06	-2.563564e-09	-1.908430e+01	-1.676411e+02
6.500000e-07	-2.582790e-06	-2.521784e-09	-1.879247e+01	-1.659284e+02
6.600000e-07	-2.542064e-06	-2.476392e-09	-1.849615e+01	-1.641963e+02
6.700000e-07	-2.500596e-06	-2.478283e-09	-1.819443e+01	-1.624443e+02
6.800000e-07	-2.458450e-06	-2.458464e-09	-1.788777e+01	-1.606716e+02
6.900000e-07	-2.415687e-06	-2.419473e-09	-1.757663e+01	-1.588770e+02
7.000000e-07	-2.372411e-06	-2.372539e-09	-1.726175e+01	-1.570593e+02
7.100000e-07	-2.328841e-06	-2.345410e-09	-1.694473e+01	-1.552170e+02
7.200000e-07	-2.285051e-06	-2.353024e-09	-1.662611e+01	-1.533487e+02
7.300000e-07	-2.240910e-06	-2.315163e-09	-1.630494e+01	-1.514531e+02
7.400000e-07	-2.196370e-06	-2.260626e-09	-1.598087e+01	-1.495289e+02
7.500000e-07	-2.151450e-06	-2.225546e-09	-1.565403e+01	-1.475751e+02
7.600000e-07	-2.106143e-06	-2.214081e-09	-1.532437e+01	-1.455909e+02
7.700000e-07	-2.060498e-06	-2.200343e-09	-1.499226e+01	-1.435760e+02
7.800000e-07	-2.014516e-06	-2.146645e-09	-1.465769e+01	-1.415301e+02
7.900000e-07	-1.968142e-06	-2.108061e-09	-1.432027e+01	-1.394533e+02
8.000000e-07	-1.921362e-06	-2.079866e-09	-1.397990e+01	-1.373459e+02
8.100000e-07	-1.874249e-06	-2.054374e-09	-1.363710e+01	-1.352084e+02
8.200000e-07	-1.826918e-06	-2.033202e-09	-1.329272e+01	-1.330414e+02
8.300000e-07	-1.779394e-06	-1.987501e-09	-1.294693e+01	-1.308456e+02
8.400000e-07	-1.731564e-06	-1.943992e-09	-1.259892e+01	-1.286216e+02
8.500000e-07	-1.683402e-06	-1.905134e-09	-1.224849e+01	-1.263701e+02
8.600000e-07	-1.634941e-06	-1.883215e-09	-1.189589e+01	-1.240915e+02
8.700000e-07	-1.586096e-06	-1.861968e-09	-1.154049e+01	-1.217862e+02
8.800000e-07	-1.536649e-06	-1.808551e-09	-1.118071e+01	-1.194545e+02
8.900000e-07	-1.486614e-06	-1.763392e-09	-1.081666e+01	-1.170965e+02
9.000000e-07	-1.436172e-06	-1.734195e-09	-1.044964e+01	-1.147124e+02
9.100000e-07	-1.385358e-06	-1.718707e-09	-1.007991e+01	-1.123019e+02
9.200000e-07	-1.334255e-06	-1.687005e-09	-9.708087e+00	-1.098651e+02
9.300000e-07	-1.282876e-06	-1.625349e-09	-9.334254e+00	-1.074019e+02
9.400000e-07	-1.231245e-06	-1.582723e-09	-8.958585e+00	-1.049123e+02
9.500000e-07	-1.179416e-06	-1.556351e-09	-8.581473e+00	-1.023963e+02
9.600000e-07	-1.127449e-06	-1.534077e-09	-8.203360e+00	-9.985408e+01
9.700000e-07	-1.075361e-06	-1.487052e-09	-7.824365e+00	-9.728594e+01
9.800000e-07	-1.022993e-06	-1.423307e-09	-7.443332e+00	-9.469226e+01
9.900000e-07	-9.703561e-07	-1.388175e-09	-7.060345e+00	-9.207354e+01
1.000000e-06	-9.174857e-07	-1.364989e-09	-6.675658e+00	-8.943035e+01
1.010000e-06	-8.644599e-07	-1.333996e-09	-6.289841e+00	-8.676330e+01
1.020000e-06	-8.113476e-07	-1.277121e-09	-5.903394e+00	-8.407300e+01
1.030000e-06	-7.580650e-07	-1.217382e-09	-5.515708e+00	-8.136002e+01
1.040000e-06	-7.046202e-07	-1.189811e-09	-5.126842e+00	-7.862482e+01
1.050000e-06	-6.511116e-07	-1.161392e-09	-4.737511e+00	-7.586773e+01
1.060000e-06	-5.975869e-07	-1.113212e-09	-4.348064e+00	-7.308894e+01
1.070000e-06	-5.439460e-07	-1.052821e-09	-3.957770e+00	-7.028845e+01
1.080000e-06	-4.901932e-07	-1.007991e-09	-3.566663e+00	-6.746609e+01
1.090000e-06	-4.364064e-07	-9.830055e-10	-3.175309e+00	-6.462152e+01
1.100000e-06	-3.825894e-07	-9.401490e-10	-2.783734e+00	-6.175429e+01
1.110000e-06	-3.287280e-07	-8.877439e-10	-2.391837e+00	-5.886385e+01
1.120000e-06	-2.747730e-07	-8.376912e-10	-1.999258e+00	-5.594963e+01
1.130000e-06	-2.207457e-07	-7.966998e-10	-1.606153e+00	-5.301109e+01
1.140000e-06	-1.667529e-07	-7.582976e-10	-1.213300e+00	-5.004776e+01
1.150000e-06	-1.127607e-07	-7.070757e-10	-8.204511e-01	-4.705933e+01
1.160000e-06	-5.875422e-08	-6.577203e-10	-4.274978e-01	-4.404568e+01
1.170000e-06	-4.728350e-09	-6.075310e-10	-3.440364e-02	-4.100694e+01
1.180000e-06	4.939499e-08	-5.598052e-10	3.593997e-01	-3.794345e+01
1.190000e-06	1.035300e-07	-5.163924e-10	7.532881e-01	-3.485586e+01
1.200000e-06	1.576004e-07	-4.669470e-10	1.146706e+00	-3.174501e+01
1.210000e-06	2.115797e-07	-4.187660e-10	1.539461e+00	-2.861199e+01
1.220000e-06	2.655193e-07	-3.665852e-10	1.931928e+00	-2.545804e+01
1.230000e-06	3.195252e-07	-3.174446e-10	2.324877e+00	-2.228448e+01
1.240000e-06	3.734533e-07	-2.726513e-10	2.717259e+00	-1.909270e+01
1.250000e-06	4.272238e-07	-2.235005e-10	3.108496e+00	-1.588403e+01
1.260000e-06	4.809432e-07	-1.742623e-10	3.499360e+00	-1.265972e+01
1.270000e-06	5.346134e-07	-1.170689e-10	3.889866e+00	-9.420871e+00
1.280000e-06	5.882239e-07	-6.797854e-11	4.279938e+00	-6.168358e+00
1.290000e-06	6.417494e-07	-2.404582e-11	4.669391e+00	-2.902849e+00
1.300000e-06	6.951873e-07	2.900516e-11	5.058207e+00	3.752338e-01
1.310000e-06	7.484978e-07	8.501764e-11	5.446096e+00	3.665693e+00
1.320000e-06	8.016926e-07	1.366950e-10	5.833144e+00	6.968533e+00
1.330000e-06	8.547495e-07	1.789792e-10	6.219188e+00	1.028391e+01
1.340000e-06	9.075995e-07	2.263584e-10	6.603726e+00	1.361207e+01
1.350000e-06	9.602680e-07	2.854480e-10	6.986944e+00	1.695330e+01
1.360000e-06	1.012683e-06	3.407391e-10	7.368318e+00	2.030781e+01
1.370000e-06	1.064865e-06	3.928694e-10	7.747998e+00	2.367571e+01
1.380000e-06	1.116895e-06	4.419466e-10	8.126566e+00	2.705692e+01
1.390000e-06	1.168700e-06	4.940130e-10	8.503504e+00	3.045111e+01
1.400000e-06	1.220322e-06	5.482777e-10	8.879105e+00	3.385767e+01
1.410000e-06	1.271749e-06	5.988860e-10	9.253289e+00	3.727569e+01
1.420000e-06	1.322861e-06	6.495044e-10	9.625182e+00	4.070394e+01
1.430000e-06	1.373702e-06	6.985668e-10	9.995101e+00	4.414090e+01
1.440000e-06	1.424248e-06	7.547406e-10	1.036288e+01	4.758477e+01
1.450000e-06	1.474439e-06	8.095917e-10	1.072807e+01	5.103354e+01
1.460000e-06	1.524149e-06	8.597089e-10	1.108977e+01	5.448504e+01
1.470000e-06	1.573273e-06	9.110242e-10	1.144719e+01	5.793699e+01
1.480000e-06	1.621907e-06	9.617733e-10	1.180105e+01	6.138705e+01
1.490000e-06	1.670119e-06	1.014193e-09	1.215185e+01	6.483292e+01
1.500000e-06	1.718059e-06	1.066702e-09	1.250066e+01	6.827234e+01
1.510000e-06	1.765818e-06	1.117582e-09	1.284816e+01	7.170317e+01
1.520000e-06	1.813367e-06	1.168592e-09	1.319412e+01	7.512339e+01
1.530000e-06	1.860677e-06	1.217060e-09	1.353835e+01	7.853111e+01
1.540000e-06	1.907713e-06	1.268838e-09	1.388059e+01	8.192458e+01
1.550000e-06	1.954378e-06	1.320905e-09	1.422012e+01	8.530216e+01
1.560000e-06	2.000628e-06	1.372442e-09	1.455664e+01	8.866227e+01
1.570000e-06	2.046571e-06	1.422998e-09	1.489093e+01	9.200340e+01
1.580000e-06	2.092239e-06	1.470531e-09	1.522320e+01	9.532402e+01
1.590000e-06	2.137518e-06	1.521988e-09	1.555266e+01	9.862260e+01
1.600000e-06	2.182342e-06	1.573311e-09	1.587880e+01	1.018975e+02
1.610000e-06	2.226800e-06	1.621629e-09	1.620228e+01	1.051470e+02
1.620000e-06	2.270917e-06	1.665368e-09	1.652327e+01	1.083693e+02
1.630000e-06	2.314725e-06	1.707089e-09	1.684202e+01	1.115625e+02
1.640000e-06	2.358308e-06	1.754336e-09	1.715913e+01	1.147246e+02
1.650000e-06	2.401662e-06	1.802567e-09	1.747458e+01	1.178535e+02
1.660000e-06	2.444628e-06	1.848271e-09	1.778720e+01	1.209471e+02
1.670000e-06	2.487000e-06	1.891759e-09	1.809550e+01	1.240033e+02
1.680000e-06	2.528630e-06	1.936653e-09	1.839840e+01	1.270202e+02
1.690000e-06	2.569479e-06	1.985885e-09	1.869562e+01	1.299959e+02
1.700000e-06	2.609721e-06	2.030483e-09	1.898842e+01	1.329286e+02
1.710000e-06	2.649537e-06	2.069727e-09	1.927812e+01	1.358168e+02
1.720000e-06	2.689039e-06	2.108422e-09	1.956554e+01	1.386592e+02
1.730000e-06	2.728282e-06	2.149024e-09	1.985108e+01	1.414547e+02
1.740000e-06	2.767170e-06	2.191771e-09	2.013402e+01	1.442023e+02
1.750000e-06	2.805562e-06	2.230390e-09	2.041337e+01	1.469014e+02
1.760000e-06	2.843420e-06	2.265808e-09	2.068882e+01	1.495513e+02
1.770000e-06	2.880770e-06	2.303368e-09	2.096059e+01	1.521517e+02
1.780000e-06	2.917528e-06	2.343823e-09	2.122803e+01	1.547021e+02
1.790000e-06	2.953800e-06	2.382305e-09	2.149196e+01	1.572021e+02
1.800000e-06	2.989698e-06	2.415814e-09	2.175315e+01	1.596512e+02
1.810000e-06	3.025242e-06	2.448393e-09	2.201177e+01	1.620489e+02
1.820000e-06	3.060462e-06	2.481190e-09	2.226803e+01	1.643944e+02
1.830000e-06	3.095095e-06	2.515484e-09	2.252002e+01	1.666870e+02
1.840000e-06	3.128866e-06	2.550370e-09	2.276574e+01	1.689258e+02
1.850000e-06	3.161750e-06	2.581964e-09	2.300500e+01	1.711098e+02
1.860000e-06	3.193919e-06	2.611098e-09	2.323907e+01	1.732380e+02
1.870000e-06	3.225606e-06	2.639268e-09	2.346962e+01	1.753094e+02
1.880000e-06	3.256935e-06	2.669540e-09	2.369757e+01	1.773230e+02
1.890000e-06	3.287773e-06	2.699991e-09	2.392195e+01	1.792782e+02
1.900000e-06	3.318004e-06	2.726080e-09	2.414191e+01	1.811745e+02
1.910000e-06	3.347671e-06	2.749586e-09	2.435777e+01	1.830117e+02
1.920000e-06	3.376755e-06	2.773741e-09	2.456939e+01	1.847901e+02
1.930000e-06	3.405249e-06	2.799187e-09	2.477671e+01	1.865102e+02
1.940000e-06	3.433240e-06	2.823219e-09	2.498037e+01	1.881731e+02
1.950000e-06	3.460863e-06	2.843373e-09	2.518136e+01	1.897803e+02
1.960000e-06	3.488100e-06	2.863446e-09	2.537954e+01	1.913335e+02
1.970000e-06	3.514634e-06	2.885786e-09	2.557260e+01	1.928348e+02
1.980000e-06	3.540187e-06	2.909672e-09	2.575853e+01	1.942865e+02
1.990000e-06	3.564756e-06	2.931443e-09	2.593729e+01	1.956911e+02
2.000000e-06	3.588622e-06	2.949514e-09	2.611094e+01	1.970508e+02
2.010000e-06	3.612031e-06	2.968386e-09	2.628127e+01	1.983680e+02
2.020000e-06	3.634864e-06	2.989280e-09	2.644740e+01	1.996447e+02
2.030000e-06	3.657006e-06	3.009564e-09	2.660851e+01	2.008826e+02
2.040000e-06	3.678521e-06	3.026645e-09	2.676505e+01	2.020829e+02
2.050000e-06	3.699387e-06	3.043447e-09	2.691687e+01	2.032466e+02
2.060000e-06	3.719624e-06	3.061946e-09	2.706411e+01	2.043740e+02
2.070000e-06	3.739403e-06	3.079153e-09	2.720803e+01	2.054651e+02
2.080000e-06	3.758797e-06	3.095098e-09	2.734914e+01	2.065193e+02
2.090000e-06	3.777560e-06	3.108830e-09	2.748566e+01	2.075359e+02
2.100000e-06	3.795502e-06	3.121598e-09	2.761621e+01	2.085139e+02
2.110000e-06	3.812763e-06	3.136824e-09	2.774180e+01	2.094521e+02
2.120000e-06	3.829476e-06	3.151645e-09	2.786340e+01	2.103494e+02
2.130000e-06	3.845569e-06	3.164411e-09	2.798050e+01	2.112047e+02
2.140000e-06	3.860895e-06	3.176829e-09	2.809201e+01	2.120172e+02
2.150000e-06	3.875346e-06	3.189117e-09	2.819716e+01	2.127864e+02
2.160000e-06	3.889005e-06	3.200476e-09	2.829654e+01	2.135122e+02
2.170000e-06	3.901961e-06	3.212386e-09	2.839080e+01	2.141949e+02
2.180000e-06	3.914224e-06	3.222821e-09	2.848003e+01	2.148351e+02
2.190000e-06	3.925865e-06	3.233618e-09	2.856474e+01	2.154338e+02
2.200000e-06	3.936792e-06	3.243549e-09	2.864424e+01	2.159924e+02
2.210000e-06	3.946620e-06	3.252757e-09	2.871575e+01	2.165124e+02
2.220000e-06	3.955289e-06	3.262171e-09	2.877882e+01	2.169953e+02
2.230000e-06	3.963255e-06	3.268434e-09	2.883679e+01	2.174426e+02
2.240000e-06	3.970738e-06	3.273873e-09	2.889123e+01	2.178557e+02
2.250000e-06	3.977605e-06	3.279636e-09	2.894119e+01	2.182356e+02
2.260000e-06	3.983808e-06	3.286741e-09	2.898633e+01	2.185831e+02
2.270000e-06	3.989407e-06	3.293325e-09	2.902707e+01	2.188982e+02
2.280000e-06	3.994278e-06	3.297646e-09	2.906251e+01	2.191809e+02
2.290000e-06	3.998411e-06	3.301419e-09	2.909258e+01	2.194305e+02
2.300000e-06	4.002083e-06	3.305430e-09	2.911930e+01	2.196457e+02
2.310000e-06	4.005236e-06	3.307540e-09	2.914224e+01	2.198254e+02
2.320000e-06	4.007488e-06	3.309884e-09	2.915863e+01	2.199679e+02
2.330000e-06	4.008668e-06	3.310804e-09	2.916721e+01	2.200718e+02
2.340000e-06	4.008948e-06	3.312864e-09	2.916925e+01	2.201356e+02
2.350000e-06	4.008629e-06	3.316394e-09	2.916693e+01	2.201582e+02
2.360000e-06	4.007780e-06	3.317161e-09	2.916075e+01	2.201392e+02
2.370000e-06	4.006338e-06	3.312638e-09	2.915026e+01	2.200787e+02
2.380000e-06	4.004273e-06	3.309500e-09	2.913524e+01	2.199774e+02
2.390000e-06	4.001520e-06	3.308130e-09	2.911520e+01	2.198370e+02
2.400000e-06	3.998069e-06	3.306508e-09	2.909009e+01	2.196600e+02
2.410000e-06	3.994074e-06	3.314749e-09	2.906103e+01	2.194496e+02
2.420000e-06	3.989670e-06	3.340609e-09	2.902898e+01	2.192097e+02
2.430000e-06	3.984732e-06	3.270163e-09	2.899305e+01	2.189448e+02
2.440000e-06	3.978700e-06	3.155597e-09	2.894916e+01	2.186597e+02
2.450000e-06	3.971364e-06	3.262343e-09	2.889579e+01	2.183592e+02
2.460000e-06	3.963243e-06	3.457841e-09	2.883670e+01	2.180481e+02
2.470000e-06	3.954881e-06	3.366434e-09	2.877586e+01	2.177308e+02
2.480000e-06	3.946211e-06	3.109971e-09	2.871277e+01	2.174110e+02
2.490000e-06	3.936521e-06	3.223022e-09	2.864227e+01	2.170916e+02
2.500000e-06	3.925906e-06	3.312952e-09	2.856503e+01	2.167745e+02
2.510000e-06	3.915102e-06	3.215511e-09	2.848642e+01	2.164602e+02
2.520000e-06	3.903759e-06	3.298084e-09	2.840389e+01	2.161484e+02
2.530000e-06	3.891053e-06	3.319803e-09	2.831144e+01	2.158372e+02
2.540000e-06	3.877365e-06	3.033252e-09	2.821184e+01	2.155238e+02
2.550000e-06	3.863266e-06	3.172539e-09	2.810926e+01	2.152041e+02
2.560000e-06	3.848278e-06	3.568575e-09	2.800021e+01	2.148735e+02
2.570000e-06	3.832300e-06	3.184868e-09	2.788395e+01	2.145265e+02
2.580000e-06	3.815718e-06	2.874044e-09	2.776330e+01	2.141574e+02
2.590000e-06	3.798543e-06	3.301216e-09	2.763833e+01	2.137603e+02
2.600000e-06	3.780726e-06	3.430827e-09	2.750870e+01	2.133296e+02
2.610000e-06	3.762174e-06	3.010140e-09	2.737372e+01	2.128600e+02
2.620000e-06	3.742843e-06	3.144162e-09	2.723306e+01	2.123472e+02
2.630000e-06	3.723004e-06	3.388463e-09	2.708871e+01	2.117875e+02
2.640000e-06	3.702773e-06	3.173579e-09	2.694151e+01	2.111782e+02
2.650000e-06	3.681849e-06	3.201355e-09	2.678926e+01	2.105179e+02
2.660000e-06	3.660227e-06	3.240373e-09	2.663194e+01	2.098062e+02
2.670000e-06	3.637977e-06	3.150752e-09	2.647005e+01	2.090436e+02
2.680000e-06	3.614772e-06	3.143359e-09	2.630121e+01	2.082317e+02
2.690000e-06	3.590757e-06	3.088226e-09	2.612648e+01	2.073729e+02
2.700000e-06	3.566294e-06	3.199100e-09	2.594848e+01	2.064699e+02
2.710000e-06	3.541212e-06	3.239152e-09	2.576598e+01	2.055262e+02
2.720000e-06	3.515457e-06	2.982612e-09	2.557859e+01	2.045452e+02
2.730000e-06	3.489090e-06	2.996671e-09	2.538675e+01	2.035302e+02
2.740000e-06	3.462134e-06	3.249001e-09	2.519061e+01	2.024843e+02
2.750000e-06	3.434667e-06	3.128580e-09	2.499076e+01	2.014103e+02
2.760000e-06	3.406653e-06	2.949200e-09	2.478693e+01	2.003104e+02
2.770000e-06	3.378185e-06	3.048434e-09	2.457979e+01	1.991860e+02
2.780000e-06	3.349341e-06	3.056508e-09	2.436993e+01	1.980381e+02
2.790000e-06	3.319654e-06	3.039918e-09	2.415392e+01	1.968670e+02
2.800000e-06	3.288827e-06	3.014694e-09	2.392962e+01	1.956722e+02
2.810000e-06	3.257240e-06	2.919349e-09	2.369980e+01	1.944532e+02
2.820000e-06	3.225215e-06	2.978400e-09	2.346678e+01	1.932088e+02
2.830000e-06	3.192788e-06	2.948042e-09	2.323084e+01	1.919377e+02
2.840000e-06	3.159861e-06	2.906993e-09	2.299126e+01	1.906386e+02
2.850000e-06	3.126366e-06	2.935641e-09	2.274755e+01	1.893101e+02
2.860000e-06	3.092329e-06	2.842454e-09	2.249990e+01	1.879514e+02
2.870000e-06	3.057783e-06	2.839324e-09	2.224853e+01	1.865618e+02
2.880000e-06	3.022743e-06	2.856846e-09	2.199358e+01	1.851408e+02
2.890000e-06	2.987184e-06	2.819725e-09	2.173486e+01	1.836887e+02
2.900000e-06	2.951181e-06	2.793585e-09	2.147290e+01	1.822061e+02
2.910000e-06	2.914893e-06	2.749556e-09	2.120886e+01	1.806937e+02
2.920000e-06	2.878174e-06	2.764238e-09	2.094170e+01	1.791529e+02
2.930000e-06	2.840859e-06	2.715362e-09	2.067019e+01	1.775851e+02
2.940000e-06	2.802774e-06	2.671337e-09	2.039308e+01	1.759920e+02
