# Temperatura_=_20.0
# Concentracion g/m^3_=_12600.0
# C_Vs_to_Am_M_A/Vsm_=_65563218390.804596
# pendiente_HvsI_1/m_=_3716.3
# ordenada_HvsI_A/m_=_1297.0
# frecuencia_Hz_=_213091.7646242366

Tiempo_(s)	Campo_(V.s)	Magnetizacion_(V.s)	Campo_(kA/m)	Magnetizacion_(A/m)
0.000000e+00	-3.994079e-06	-2.912532e-09	-2.908461e+01	-1.884900e+02
1.000000e-08	-3.994331e-06	-2.911570e-09	-2.908644e+01	-1.884887e+02
2.000000e-08	-3.994009e-06	-2.910818e-09	-2.908409e+01	-1.884627e+02
3.000000e-08	-3.992817e-06	-2.909091e-09	-2.907542e+01	-1.884120e+02
4.000000e-08	-3.990590e-06	-2.907752e-09	-2.905920e+01	-1.883366e+02
5.000000e-08	-3.987492e-06	-2.908215e-09	-2.903664e+01	-1.882367e+02
6.000000e-08	-3.983812e-06	-2.904463e-09	-2.900984e+01	-1.881127e+02
7.000000e-08	-3.979651e-06	-2.892898e-09	-2.897954e+01	-1.879657e+02
8.000000e-08	-3.974885e-06	-2.878875e-09	-2.894484e+01	-1.877967e+02
9.000000e-08	-3.969339e-06	-2.914341e-09	-2.890445e+01	-1.876073e+02
1.000000e-07	-3.962863e-06	-2.974235e-09	-2.885729e+01	-1.873995e+02
1.100000e-07	-3.955628e-06	-2.926276e-09	-2.880461e+01	-1.871755e+02
1.200000e-07	-3.948004e-06	-2.783771e-09	-2.874910e+01	-1.869376e+02
1.300000e-07	-3.939892e-06	-2.810796e-09	-2.869002e+01	-1.866881e+02
1.400000e-07	-3.930846e-06	-2.975709e-09	-2.862415e+01	-1.864293e+02
1.500000e-07	-3.920821e-06	-2.935487e-09	-2.855115e+01	-1.861635e+02
1.600000e-07	-3.910124e-06	-2.843212e-09	-2.847326e+01	-1.858922e+02
1.700000e-07	-3.898618e-06	-2.873233e-09	-2.838947e+01	-1.856167e+02
1.800000e-07	-3.886137e-06	-2.848577e-09	-2.829858e+01	-1.853377e+02
1.900000e-07	-3.873036e-06	-2.808311e-09	-2.820318e+01	-1.850552e+02
2.000000e-07	-3.859323e-06	-2.971701e-09	-2.810332e+01	-1.847684e+02
2.100000e-07	-3.844459e-06	-2.931708e-09	-2.799509e+01	-1.844758e+02
2.200000e-07	-3.828457e-06	-2.648139e-09	-2.787856e+01	-1.841755e+02
2.300000e-07	-3.811858e-06	-2.793499e-09	-2.775769e+01	-1.838647e+02
2.400000e-07	-3.794830e-06	-3.026235e-09	-2.763369e+01	-1.835401e+02
2.500000e-07	-3.777205e-06	-2.800186e-09	-2.750534e+01	-1.831982e+02
2.600000e-07	-3.758818e-06	-2.592404e-09	-2.737146e+01	-1.828352e+02
2.700000e-07	-3.739730e-06	-2.779717e-09	-2.723246e+01	-1.824472e+02
2.800000e-07	-3.720220e-06	-2.866488e-09	-2.709039e+01	-1.820306e+02
2.900000e-07	-3.700284e-06	-2.763739e-09	-2.694521e+01	-1.815820e+02
3.000000e-07	-3.679720e-06	-2.748611e-09	-2.679547e+01	-1.810982e+02
3.100000e-07	-3.658492e-06	-2.683630e-09	-2.664088e+01	-1.805770e+02
3.200000e-07	-3.636654e-06	-2.660685e-09	-2.648186e+01	-1.800164e+02
3.300000e-07	-3.614190e-06	-2.768299e-09	-2.631828e+01	-1.794154e+02
3.400000e-07	-3.591078e-06	-2.778043e-09	-2.614998e+01	-1.787733e+02
3.500000e-07	-3.567472e-06	-2.682267e-09	-2.597808e+01	-1.780906e+02
3.600000e-07	-3.543337e-06	-2.595547e-09	-2.580234e+01	-1.773679e+02
3.700000e-07	-3.518466e-06	-2.634763e-09	-2.562122e+01	-1.766066e+02
3.800000e-07	-3.492793e-06	-2.762300e-09	-2.543428e+01	-1.758084e+02
3.900000e-07	-3.466219e-06	-2.707501e-09	-2.524077e+01	-1.749753e+02
4.000000e-07	-3.438922e-06	-2.530517e-09	-2.504199e+01	-1.741095e+02
4.100000e-07	-3.411213e-06	-2.536789e-09	-2.484022e+01	-1.732132e+02
4.200000e-07	-3.383074e-06	-2.681237e-09	-2.463531e+01	-1.722883e+02
4.300000e-07	-3.354312e-06	-2.658820e-09	-2.442587e+01	-1.713368e+02
4.400000e-07	-3.324859e-06	-2.521951e-09	-2.421139e+01	-1.703603e+02
4.500000e-07	-3.294862e-06	-2.487782e-09	-2.399296e+01	-1.693599e+02
4.600000e-07	-3.264347e-06	-2.544790e-09	-2.377075e+01	-1.683366e+02
4.700000e-07	-3.233300e-06	-2.591606e-09	-2.354466e+01	-1.672909e+02
4.800000e-07	-3.201853e-06	-2.531170e-09	-2.331567e+01	-1.662228e+02
4.900000e-07	-3.170046e-06	-2.443344e-09	-2.308406e+01	-1.651323e+02
5.000000e-07	-3.137710e-06	-2.443017e-09	-2.284859e+01	-1.640190e+02
5.100000e-07	-3.104544e-06	-2.482346e-09	-2.260707e+01	-1.628824e+02
5.200000e-07	-3.070403e-06	-2.491928e-09	-2.235846e+01	-1.617218e+02
5.300000e-07	-3.035511e-06	-2.426274e-09	-2.210438e+01	-1.605367e+02
5.400000e-07	-3.000144e-06	-2.357612e-09	-2.184684e+01	-1.593266e+02
5.500000e-07	-2.964445e-06	-2.369816e-09	-2.158689e+01	-1.580909e+02
5.600000e-07	-2.928370e-06	-2.398203e-09	-2.132419e+01	-1.568295e+02
5.700000e-07	-2.891725e-06	-2.372252e-09	-2.105734e+01	-1.555423e+02
5.800000e-07	-2.854539e-06	-2.300409e-09	-2.078656e+01	-1.542295e+02
5.900000e-07	-2.816870e-06	-2.280872e-09	-2.051225e+01	-1.528913e+02
6.000000e-07	-2.778719e-06	-2.303572e-09	-2.023444e+01	-1.515283e+02
6.100000e-07	-2.740040e-06	-2.284974e-09	-1.995278e+01	-1.501411e+02
6.200000e-07	-2.700898e-06	-2.250044e-09	-1.966775e+01	-1.487304e+02
6.300000e-07	-2.661470e-06	-2.219374e-09	-1.938064e+01	-1.472969e+02
6.400000e-07	-2.621761e-06	-2.197484e-09	-1.909148e+01	-1.458414e+02
6.500000e-07	-2.581646e-06	-2.181102e-09	-1.879937e+01	-1.443644e+02
6.600000e-07	-2.540910e-06	-2.165473e-09	-1.850273e+01	-1.428667e+02
6.700000e-07	-2.499436e-06	-2.150340e-09	-1.820072e+01	-1.413486e+02
6.800000e-07	-2.457252e-06	-2.111674e-09	-1.789354e+01	-1.398105e+02
6.900000e-07	-2.414407e-06	-2.077107e-09	-1.758154e+01	-1.382525e+02
7.000000e-07	-2.371120e-06	-2.063604e-09	-1.726633e+01	-1.366746e+02
7.100000e-07	-2.327603e-06	-2.051545e-09	-1.694944e+01	-1.350768e+02
7.200000e-07	-2.283857e-06	-2.028783e-09	-1.663089e+01	-1.334589e+02
7.300000e-07	-2.239783e-06	-1.983414e-09	-1.630995e+01	-1.318206e+02
7.400000e-07	-2.195326e-06	-1.953594e-09	-1.598621e+01	-1.301616e+02
7.500000e-07	-2.150418e-06	-1.946844e-09	-1.565919e+01	-1.284815e+02
7.600000e-07	-2.105074e-06	-1.927342e-09	-1.532900e+01	-1.267801e+02
7.700000e-07	-2.059403e-06	-1.889013e-09	-1.499643e+01	-1.250570e+02
7.800000e-07	-2.013418e-06	-1.847942e-09	-1.466157e+01	-1.233120e+02
7.900000e-07	-1.967043e-06	-1.830808e-09	-1.432387e+01	-1.215448e+02
8.000000e-07	-1.920302e-06	-1.813054e-09	-1.398351e+01	-1.197551e+02
8.100000e-07	-1.873255e-06	-1.776364e-09	-1.364091e+01	-1.179428e+02
8.200000e-07	-1.825951e-06	-1.744235e-09	-1.329645e+01	-1.161077e+02
8.300000e-07	-1.778420e-06	-1.717449e-09	-1.295033e+01	-1.142497e+02
8.400000e-07	-1.730592e-06	-1.692493e-09	-1.260205e+01	-1.123683e+02
8.500000e-07	-1.682443e-06	-1.659061e-09	-1.225143e+01	-1.104636e+02
8.600000e-07	-1.633876e-06	-1.628189e-09	-1.189777e+01	-1.085351e+02
8.700000e-07	-1.584892e-06	-1.605025e-09	-1.154107e+01	-1.065827e+02
8.800000e-07	-1.535381e-06	-1.570685e-09	-1.118053e+01	-1.046059e+02
8.900000e-07	-1.485320e-06	-1.535718e-09	-1.081599e+01	-1.026045e+02
9.000000e-07	-1.434797e-06	-1.509352e-09	-1.044809e+01	-1.005782e+02
9.100000e-07	-1.383899e-06	-1.489797e-09	-1.007745e+01	-9.852677e+01
9.200000e-07	-1.332726e-06	-1.459286e-09	-9.704822e+00	-9.644994e+01
9.300000e-07	-1.281330e-06	-1.413685e-09	-9.330554e+00	-9.434762e+01
9.400000e-07	-1.229777e-06	-1.381426e-09	-8.955151e+00	-9.221979e+01
9.500000e-07	-1.178054e-06	-1.360238e-09	-8.578511e+00	-9.006658e+01
9.600000e-07	-1.126147e-06	-1.332262e-09	-8.200527e+00	-8.788821e+01
9.700000e-07	-1.074027e-06	-1.287751e-09	-7.820991e+00	-8.568505e+01
9.800000e-07	-1.021666e-06	-1.240674e-09	-7.439698e+00	-8.345756e+01
9.900000e-07	-9.690968e-07	-1.214773e-09	-7.056896e+00	-8.120631e+01
1.000000e-06	-9.163508e-07	-1.193256e-09	-6.672803e+00	-7.893193e+01
1.010000e-06	-8.634241e-07	-1.157255e-09	-6.287395e+00	-7.663506e+01
1.020000e-06	-8.103971e-07	-1.110749e-09	-5.901255e+00	-7.431635e+01
1.030000e-06	-7.572145e-07	-1.072422e-09	-5.513984e+00	-7.197637e+01
1.040000e-06	-7.038498e-07	-1.048160e-09	-5.125385e+00	-6.961564e+01
1.050000e-06	-6.503846e-07	-1.013365e-09	-4.736055e+00	-6.723452e+01
1.060000e-06	-5.968393e-07	-9.656256e-10	-4.346142e+00	-6.483325e+01
1.070000e-06	-5.432358e-07	-9.226719e-10	-3.955805e+00	-6.241190e+01
1.080000e-06	-4.895792e-07	-8.917097e-10	-3.565082e+00	-5.997042e+01
1.090000e-06	-4.358591e-07	-8.624763e-10	-3.173896e+00	-5.750860e+01
1.100000e-06	-3.820785e-07	-8.195832e-10	-2.782269e+00	-5.502613e+01
1.110000e-06	-3.282253e-07	-7.764637e-10	-2.390114e+00	-5.252264e+01
1.120000e-06	-2.742726e-07	-7.426876e-10	-1.997234e+00	-4.999773e+01
1.130000e-06	-2.202882e-07	-7.090358e-10	-1.604123e+00	-4.745104e+01
1.140000e-06	-1.663414e-07	-6.680486e-10	-1.211287e+00	-4.488231e+01
1.150000e-06	-1.123965e-07	-6.231164e-10	-8.184635e-01	-4.229141e+01
1.160000e-06	-5.843797e-08	-5.852797e-10	-4.255413e-01	-3.967838e+01
1.170000e-06	-4.432225e-09	-5.475321e-10	-3.227515e-02	-3.704349e+01
1.180000e-06	4.965472e-08	-5.045870e-10	3.615823e-01	-3.438721e+01
1.190000e-06	1.036886e-07	-4.634890e-10	7.550531e-01	-3.171025e+01
1.200000e-06	1.576707e-07	-4.250517e-10	1.148147e+00	-2.901355e+01
1.210000e-06	2.116134e-07	-3.857324e-10	1.540954e+00	-2.629818e+01
1.220000e-06	2.654694e-07	-3.406225e-10	1.933130e+00	-2.356536e+01
1.230000e-06	3.193075e-07	-2.949098e-10	2.325175e+00	-2.081637e+01
1.240000e-06	3.730939e-07	-2.538477e-10	2.716844e+00	-1.805248e+01
1.250000e-06	4.267885e-07	-2.128026e-10	3.107845e+00	-1.527489e+01
1.260000e-06	4.803974e-07	-1.696097e-10	3.498221e+00	-1.248466e+01
1.270000e-06	5.339782e-07	-1.221939e-10	3.888392e+00	-9.682645e+00
1.280000e-06	5.875793e-07	-7.996474e-11	4.278712e+00	-6.869455e+00
1.290000e-06	6.410864e-07	-4.111578e-11	4.668347e+00	-4.045432e+00
1.300000e-06	6.944002e-07	3.655265e-12	5.056574e+00	-1.210634e+00
1.310000e-06	7.476284e-07	5.100925e-11	5.444178e+00	1.635143e+00
1.320000e-06	8.007777e-07	9.406262e-11	5.831208e+00	4.492334e+00
1.330000e-06	8.537294e-07	1.328786e-10	6.216798e+00	7.361546e+00
1.340000e-06	9.064954e-07	1.763732e-10	6.601037e+00	1.024349e+01
1.350000e-06	9.590531e-07	2.258038e-10	6.983759e+00	1.313888e+01
1.360000e-06	1.011399e-06	2.721676e-10	7.364935e+00	1.604837e+01
1.370000e-06	1.063543e-06	3.142398e-10	7.744645e+00	1.897243e+01
1.380000e-06	1.115462e-06	3.567166e-10	8.122720e+00	2.191129e+01
1.390000e-06	1.167186e-06	4.009838e-10	8.499368e+00	2.486485e+01
1.400000e-06	1.218744e-06	4.453308e-10	8.874811e+00	2.783263e+01
1.410000e-06	1.270147e-06	4.897333e-10	9.249125e+00	3.081371e+01
1.420000e-06	1.321335e-06	5.356017e-10	9.621868e+00	3.380677e+01
1.430000e-06	1.372212e-06	5.801832e-10	9.992356e+00	3.681006e+01
1.440000e-06	1.422721e-06	6.270841e-10	1.036016e+01	3.982146e+01
1.450000e-06	1.472776e-06	6.743682e-10	1.072466e+01	4.283855e+01
1.460000e-06	1.522360e-06	7.193059e-10	1.108572e+01	4.585865e+01
1.470000e-06	1.571478e-06	7.632864e-10	1.144340e+01	4.887897e+01
1.480000e-06	1.620116e-06	8.066989e-10	1.179758e+01	5.189666e+01
1.490000e-06	1.668282e-06	8.502837e-10	1.214831e+01	5.490892e+01
1.500000e-06	1.716103e-06	8.965246e-10	1.249655e+01	5.791311e+01
1.510000e-06	1.763755e-06	9.435240e-10	1.284354e+01	6.090680e+01
1.520000e-06	1.811285e-06	9.887502e-10	1.318965e+01	6.388784e+01
1.530000e-06	1.858632e-06	1.031858e-09	1.353443e+01	6.685440e+01
1.540000e-06	1.905677e-06	1.077026e-09	1.387701e+01	6.980497e+01
1.550000e-06	1.952378e-06	1.123560e-09	1.421708e+01	7.273836e+01
1.560000e-06	1.998703e-06	1.168747e-09	1.455442e+01	7.565365e+01
1.570000e-06	2.044663e-06	1.211415e-09	1.488909e+01	7.855013e+01
1.580000e-06	2.090219e-06	1.252269e-09	1.522083e+01	8.142726e+01
1.590000e-06	2.135429e-06	1.294880e-09	1.555004e+01	8.428453e+01
1.600000e-06	2.180291e-06	1.337313e-09	1.587673e+01	8.712144e+01
1.610000e-06	2.224722e-06	1.378020e-09	1.620027e+01	8.993737e+01
1.620000e-06	2.268796e-06	1.416090e-09	1.652121e+01	9.273152e+01
1.630000e-06	2.312558e-06	1.454605e-09	1.683989e+01	9.550288e+01
1.640000e-06	2.356083e-06	1.495141e-09	1.715683e+01	9.825016e+01
1.650000e-06	2.399390e-06	1.535710e-09	1.747219e+01	1.009718e+02
1.660000e-06	2.442324e-06	1.575317e-09	1.778484e+01	1.036660e+02
1.670000e-06	2.484664e-06	1.614200e-09	1.809315e+01	1.063306e+02
1.680000e-06	2.526269e-06	1.652413e-09	1.839611e+01	1.089635e+02
1.690000e-06	2.567143e-06	1.690586e-09	1.869375e+01	1.115622e+02
1.700000e-06	2.607410e-06	1.727212e-09	1.898698e+01	1.141245e+02
1.710000e-06	2.647215e-06	1.762092e-09	1.927684e+01	1.166479e+02
1.720000e-06	2.686633e-06	1.795618e-09	1.956388e+01	1.191304e+02
1.730000e-06	2.725719e-06	1.829594e-09	1.984850e+01	1.215699e+02
1.740000e-06	2.764428e-06	1.864724e-09	2.013037e+01	1.239648e+02
1.750000e-06	2.802667e-06	1.897441e-09	2.040883e+01	1.263137e+02
1.760000e-06	2.840434e-06	1.927308e-09	2.068384e+01	1.286156e+02
1.770000e-06	2.877689e-06	1.957166e-09	2.095513e+01	1.308699e+02
1.780000e-06	2.914413e-06	1.990609e-09	2.122256e+01	1.330763e+02
1.790000e-06	2.950688e-06	2.024860e-09	2.148671e+01	1.352346e+02
1.800000e-06	2.986583e-06	2.053605e-09	2.174809e+01	1.373451e+02
1.810000e-06	3.022116e-06	2.078946e-09	2.200684e+01	1.394081e+02
1.820000e-06	3.057278e-06	2.105873e-09	2.226289e+01	1.414241e+02
1.830000e-06	3.091804e-06	2.134086e-09	2.251431e+01	1.433933e+02
1.840000e-06	3.125578e-06	2.162193e-09	2.276024e+01	1.453163e+02
1.850000e-06	3.158569e-06	2.187821e-09	2.300048e+01	1.471931e+02
1.860000e-06	3.190775e-06	2.211940e-09	2.323500e+01	1.490240e+02
1.870000e-06	3.222493e-06	2.238260e-09	2.346597e+01	1.508088e+02
1.880000e-06	3.253751e-06	2.265165e-09	2.369359e+01	1.525473e+02
1.890000e-06	3.284496e-06	2.289099e-09	2.391747e+01	1.542391e+02
1.900000e-06	3.314715e-06	2.309693e-09	2.413753e+01	1.558838e+02
1.910000e-06	3.344395e-06	2.330402e-09	2.435365e+01	1.574808e+02
1.920000e-06	3.373518e-06	2.353415e-09	2.456572e+01	1.590298e+02
1.930000e-06	3.401992e-06	2.376067e-09	2.477307e+01	1.605302e+02
1.940000e-06	3.429933e-06	2.395204e-09	2.497654e+01	1.619821e+02
1.950000e-06	3.457536e-06	2.411789e-09	2.517754e+01	1.633855e+02
1.960000e-06	3.484746e-06	2.429364e-09	2.537568e+01	1.647408e+02
1.970000e-06	3.511242e-06	2.448524e-09	2.556862e+01	1.660488e+02
1.980000e-06	3.536710e-06	2.468301e-09	2.575408e+01	1.673105e+02
1.990000e-06	3.561260e-06	2.486660e-09	2.593285e+01	1.685273e+02
2.000000e-06	3.585139e-06	2.502499e-09	2.610673e+01	1.697009e+02
2.010000e-06	3.608458e-06	2.518343e-09	2.627654e+01	1.708332e+02
2.020000e-06	3.631257e-06	2.535374e-09	2.644257e+01	1.719261e+02
2.030000e-06	3.653449e-06	2.552212e-09	2.660416e+01	1.729817e+02
2.040000e-06	3.674991e-06	2.565728e-09	2.676103e+01	1.740018e+02
2.050000e-06	3.695867e-06	2.578001e-09	2.691305e+01	1.749884e+02
2.060000e-06	3.716164e-06	2.592935e-09	2.706085e+01	1.759429e+02
2.070000e-06	3.735992e-06	2.608592e-09	2.720523e+01	1.768664e+02
2.080000e-06	3.755348e-06	2.622789e-09	2.734618e+01	1.777596e+02
2.090000e-06	3.774156e-06	2.633330e-09	2.748314e+01	1.786230e+02
2.100000e-06	3.792254e-06	2.643033e-09	2.761493e+01	1.794564e+02
2.110000e-06	3.809615e-06	2.656049e-09	2.774136e+01	1.802593e+02
2.120000e-06	3.826299e-06	2.670344e-09	2.786285e+01	1.810308e+02
2.130000e-06	3.842290e-06	2.681010e-09	2.797929e+01	1.817697e+02
2.140000e-06	3.857462e-06	2.688513e-09	2.808977e+01	1.824749e+02
2.150000e-06	3.871842e-06	2.698006e-09	2.819449e+01	1.831448e+02
2.160000e-06	3.885528e-06	2.709921e-09	2.829414e+01	1.837782e+02
2.170000e-06	3.898468e-06	2.720094e-09	2.838837e+01	1.843739e+02
2.180000e-06	3.910688e-06	2.726234e-09	2.847736e+01	1.849309e+02
2.190000e-06	3.922297e-06	2.733422e-09	2.856190e+01	1.854486e+02
2.200000e-06	3.933187e-06	2.741966e-09	2.864120e+01	1.859268e+02
2.210000e-06	3.943060e-06	2.750427e-09	2.871309e+01	1.863656e+02
2.220000e-06	3.951882e-06	2.757399e-09	2.877733e+01	1.867657e+02
2.230000e-06	3.959906e-06	2.762216e-09	2.883576e+01	1.871280e+02
2.240000e-06	3.967351e-06	2.766601e-09	2.888997e+01	1.874537e+02
2.250000e-06	3.974213e-06	2.771232e-09	2.893995e+01	1.877443e+02
2.260000e-06	3.980412e-06	2.776185e-09	2.898508e+01	1.880015e+02
2.270000e-06	3.985942e-06	2.779538e-09	2.902535e+01	1.882271e+02
2.280000e-06	3.990766e-06	2.780800e-09	2.906048e+01	1.884226e+02
2.290000e-06	3.994949e-06	2.782464e-09	2.909094e+01	1.885896e+02
2.300000e-06	3.998637e-06	2.784544e-09	2.911780e+01	1.887295e+02
2.310000e-06	4.001772e-06	2.785330e-09	2.914063e+01	1.888433e+02
2.320000e-06	4.004068e-06	2.787072e-09	2.915735e+01	1.889319e+02
2.330000e-06	4.005326e-06	2.788899e-09	2.916650e+01	1.889956e+02
2.340000e-06	4.005703e-06	2.791448e-09	2.916925e+01	1.890348e+02
2.350000e-06	4.005439e-06	2.794258e-09	2.916733e+01	1.890495e+02
2.360000e-06	4.004596e-06	2.793659e-09	2.916119e+01	1.890396e+02
2.370000e-06	4.003142e-06	2.789219e-09	2.915060e+01	1.890051e+02
2.380000e-06	4.001099e-06	2.785021e-09	2.913572e+01	1.889457e+02
2.390000e-06	3.998457e-06	2.781124e-09	2.911648e+01	1.888617e+02
2.400000e-06	3.995119e-06	2.779482e-09	2.909218e+01	1.887534e+02
2.410000e-06	3.991174e-06	2.787164e-09	2.906346e+01	1.886213e+02
2.420000e-06	3.986797e-06	2.806251e-09	2.903158e+01	1.884664e+02
2.430000e-06	3.981822e-06	2.762369e-09	2.899535e+01	1.882901e+02
2.440000e-06	3.975821e-06	2.676639e-09	2.895166e+01	1.880941e+02
2.450000e-06	3.968553e-06	2.735220e-09	2.889873e+01	1.878805e+02
2.460000e-06	3.960407e-06	2.877456e-09	2.883941e+01	1.876513e+02
2.470000e-06	3.951999e-06	2.836458e-09	2.877818e+01	1.874091e+02
2.480000e-06	3.943280e-06	2.659336e-09	2.871470e+01	1.871562e+02
2.490000e-06	3.933708e-06	2.703444e-09	2.864499e+01	1.868948e+02
2.500000e-06	3.923204e-06	2.791414e-09	2.856850e+01	1.866269e+02
2.510000e-06	3.912289e-06	2.733154e-09	2.848902e+01	1.863541e+02
2.520000e-06	3.900834e-06	2.771880e-09	2.840561e+01	1.860774e+02
2.530000e-06	3.888183e-06	2.801754e-09	2.831348e+01	1.857972e+02
2.540000e-06	3.874576e-06	2.622925e-09	2.821439e+01	1.855133e+02
2.550000e-06	3.860497e-06	2.687471e-09	2.811187e+01	1.852248e+02
2.560000e-06	3.845601e-06	2.989554e-09	2.800340e+01	1.849298e+02
2.570000e-06	3.829681e-06	2.818240e-09	2.788747e+01	1.846262e+02
2.580000e-06	3.813074e-06	2.565031e-09	2.776654e+01	1.843110e+02
2.590000e-06	3.795864e-06	2.830868e-09	2.764122e+01	1.839808e+02
2.600000e-06	3.778041e-06	2.987677e-09	2.751143e+01	1.836320e+02
2.610000e-06	3.759577e-06	2.709517e-09	2.737698e+01	1.832607e+02
2.620000e-06	3.740376e-06	2.710940e-09	2.723716e+01	1.828632e+02
2.630000e-06	3.720570e-06	2.882474e-09	2.709294e+01	1.824358e+02
2.640000e-06	3.700305e-06	2.800348e-09	2.694536e+01	1.819752e+02
2.650000e-06	3.679477e-06	2.840392e-09	2.679370e+01	1.814787e+02
2.660000e-06	3.657995e-06	2.883561e-09	2.663727e+01	1.809439e+02
2.670000e-06	3.635706e-06	2.737755e-09	2.647496e+01	1.803693e+02
2.680000e-06	3.612415e-06	2.698872e-09	2.630536e+01	1.797539e+02
2.690000e-06	3.588383e-06	2.767584e-09	2.613035e+01	1.790976e+02
2.700000e-06	3.563899e-06	2.843162e-09	2.595206e+01	1.784008e+02
2.710000e-06	3.538831e-06	2.798733e-09	2.576952e+01	1.776645e+02
2.720000e-06	3.513027e-06	2.600785e-09	2.558162e+01	1.768901e+02
2.730000e-06	3.486646e-06	2.621193e-09	2.538951e+01	1.760795e+02
2.740000e-06	3.459816e-06	2.851138e-09	2.519414e+01	1.752348e+02
2.750000e-06	3.432456e-06	2.782760e-09	2.499491e+01	1.743581e+02
2.760000e-06	3.404532e-06	2.571193e-09	2.479157e+01	1.734516e+02
2.770000e-06	3.376122e-06	2.619557e-09	2.458468e+01	1.725172e+02
2.780000e-06	3.347320e-06	2.719342e-09	2.437495e+01	1.715569e+02
2.790000e-06	3.317850e-06	2.713951e-09	2.416035e+01	1.705719e+02
2.800000e-06	3.287300e-06	2.631193e-09	2.393789e+01	1.695635e+02
2.810000e-06	3.255792e-06	2.551574e-09	2.370845e+01	1.685323e+02
2.820000e-06	3.223715e-06	2.606230e-09	2.347487e+01	1.674788e+02
2.830000e-06	3.191216e-06	2.622920e-09	2.323822e+01	1.664029e+02
2.840000e-06	3.158220e-06	2.583007e-09	2.299794e+01	1.653046e+02
2.850000e-06	3.124732e-06	2.564973e-09	2.275408e+01	1.641832e+02
2.860000e-06	3.090767e-06	2.506335e-09	2.250675e+01	1.630383e+02
2.870000e-06	3.056290e-06	2.507605e-09	2.225569e+01	1.618693e+02
2.880000e-06	3.021286e-06	2.533838e-09	2.200080e+01	1.606755e+02
2.890000e-06	2.985742e-06	2.503348e-09	2.174197e+01	1.594565e+02
2.900000e-06	2.949730e-06	2.458727e-09	2.147973e+01	1.582119e+02
2.910000e-06	2.913389e-06	2.420499e-09	2.121509e+01	1.569415e+02
2.920000e-06	2.876703e-06	2.432234e-09	2.094795e+01	1.556454e+02
2.930000e-06	2.839412e-06	2.420344e-09	2.067640e+01	1.543237e+02
2.940000e-06	2.801330e-06	2.378280e-09	2.039909e+01	1.529768e+02
