# Temperatura_=_20.0
# Concentracion g/m^3_=_12600.0
# C_Vs_to_Am_M_A/Vsm_=_65563218390.804596
# pendiente_HvsI_1/m_=_3716.3
# ordenada_HvsI_A/m_=_1297.0
# frecuencia_Hz_=_213085.32790183657

Tiempo_(s)	Campo_(V.s)	Magnetizacion_(V.s)	Campo_(kA/m)	Magnetizacion_(A/m)
0.000000e+00	-3.994963e-06	-2.906266e-09	-2.908783e+01	-1.850474e+02
1.000000e-08	-3.995048e-06	-2.905264e-09	-2.908845e+01	-1.850139e+02
2.000000e-08	-3.994380e-06	-2.904603e-09	-2.908358e+01	-1.849568e+02
3.000000e-08	-3.992710e-06	-2.901122e-09	-2.907143e+01	-1.848777e+02
4.000000e-08	-3.990062e-06	-2.896377e-09	-2.905214e+01	-1.847780e+02
5.000000e-08	-3.986727e-06	-2.892850e-09	-2.902786e+01	-1.846590e+02
6.000000e-08	-3.982961e-06	-2.887577e-09	-2.900044e+01	-1.845218e+02
7.000000e-08	-3.978616e-06	-2.875428e-09	-2.896881e+01	-1.843669e+02
8.000000e-08	-3.973521e-06	-2.883207e-09	-2.893171e+01	-1.841947e+02
9.000000e-08	-3.967536e-06	-2.920440e-09	-2.888813e+01	-1.840051e+02
1.000000e-07	-3.960723e-06	-2.920800e-09	-2.883853e+01	-1.837979e+02
1.100000e-07	-3.953344e-06	-2.824043e-09	-2.878480e+01	-1.835725e+02
1.200000e-07	-3.945569e-06	-2.816680e-09	-2.872819e+01	-1.833280e+02
1.300000e-07	-3.937117e-06	-2.907006e-09	-2.866665e+01	-1.830635e+02
1.400000e-07	-3.927608e-06	-2.928297e-09	-2.859742e+01	-1.827779e+02
1.500000e-07	-3.917257e-06	-2.842544e-09	-2.852204e+01	-1.824702e+02
1.600000e-07	-3.906183e-06	-2.869544e-09	-2.844141e+01	-1.821395e+02
1.700000e-07	-3.894204e-06	-2.881263e-09	-2.835420e+01	-1.817849e+02
1.800000e-07	-3.881412e-06	-2.773381e-09	-2.826105e+01	-1.814056e+02
1.900000e-07	-3.868121e-06	-2.874401e-09	-2.816428e+01	-1.810014e+02
2.000000e-07	-3.854018e-06	-2.902835e-09	-2.806159e+01	-1.805720e+02
2.100000e-07	-3.838629e-06	-2.702532e-09	-2.794954e+01	-1.801174e+02
2.200000e-07	-3.822260e-06	-2.681904e-09	-2.783036e+01	-1.796379e+02
2.300000e-07	-3.805423e-06	-2.844650e-09	-2.770777e+01	-1.791339e+02
2.400000e-07	-3.788138e-06	-2.743063e-09	-2.758191e+01	-1.786062e+02
2.500000e-07	-3.770189e-06	-2.544000e-09	-2.745123e+01	-1.780554e+02
2.600000e-07	-3.751610e-06	-2.626762e-09	-2.731595e+01	-1.774822e+02
2.700000e-07	-3.732487e-06	-2.683975e-09	-2.717671e+01	-1.768874e+02
2.800000e-07	-3.712902e-06	-2.584311e-09	-2.703411e+01	-1.762715e+02
2.900000e-07	-3.692767e-06	-2.579948e-09	-2.688750e+01	-1.756351e+02
3.000000e-07	-3.671957e-06	-2.592990e-09	-2.673598e+01	-1.749783e+02
3.100000e-07	-3.650510e-06	-2.594638e-09	-2.657983e+01	-1.743013e+02
3.200000e-07	-3.628417e-06	-2.584304e-09	-2.641896e+01	-1.736040e+02
3.300000e-07	-3.605646e-06	-2.547467e-09	-2.625317e+01	-1.728859e+02
3.400000e-07	-3.582323e-06	-2.558189e-09	-2.608335e+01	-1.721465e+02
3.500000e-07	-3.558542e-06	-2.569987e-09	-2.591019e+01	-1.713851e+02
3.600000e-07	-3.534085e-06	-2.525689e-09	-2.573212e+01	-1.706011e+02
3.700000e-07	-3.508823e-06	-2.498359e-09	-2.554819e+01	-1.697934e+02
3.800000e-07	-3.482700e-06	-2.527000e-09	-2.535798e+01	-1.689614e+02
3.900000e-07	-3.455764e-06	-2.492142e-09	-2.516185e+01	-1.681044e+02
4.000000e-07	-3.428315e-06	-2.466371e-09	-2.496200e+01	-1.672217e+02
4.100000e-07	-3.400468e-06	-2.497030e-09	-2.475924e+01	-1.663129e+02
4.200000e-07	-3.372134e-06	-2.439696e-09	-2.455293e+01	-1.653779e+02
4.300000e-07	-3.343151e-06	-2.396316e-09	-2.434191e+01	-1.644167e+02
4.400000e-07	-3.313489e-06	-2.431439e-09	-2.412594e+01	-1.634296e+02
4.500000e-07	-3.283250e-06	-2.436843e-09	-2.390576e+01	-1.624169e+02
4.600000e-07	-3.252465e-06	-2.394423e-09	-2.368161e+01	-1.613794e+02
4.700000e-07	-3.221252e-06	-2.339796e-09	-2.345435e+01	-1.603179e+02
4.800000e-07	-3.189740e-06	-2.343982e-09	-2.322490e+01	-1.592332e+02
4.900000e-07	-3.157808e-06	-2.363880e-09	-2.299240e+01	-1.581263e+02
5.000000e-07	-3.125118e-06	-2.345138e-09	-2.275438e+01	-1.569982e+02
5.100000e-07	-3.091477e-06	-2.307342e-09	-2.250943e+01	-1.558498e+02
5.200000e-07	-3.056974e-06	-2.268392e-09	-2.225821e+01	-1.546817e+02
5.300000e-07	-3.021838e-06	-2.265630e-09	-2.200239e+01	-1.534947e+02
5.400000e-07	-2.986300e-06	-2.272846e-09	-2.174363e+01	-1.522892e+02
5.500000e-07	-2.950434e-06	-2.261779e-09	-2.148248e+01	-1.510654e+02
5.600000e-07	-2.914143e-06	-2.218926e-09	-2.121825e+01	-1.498237e+02
5.700000e-07	-2.877324e-06	-2.162587e-09	-2.095016e+01	-1.485637e+02
5.800000e-07	-2.839955e-06	-2.173824e-09	-2.067807e+01	-1.472855e+02
5.900000e-07	-2.802072e-06	-2.198362e-09	-2.040224e+01	-1.459888e+02
6.000000e-07	-2.763740e-06	-2.163846e-09	-2.012314e+01	-1.446731e+02
6.100000e-07	-2.724849e-06	-2.102578e-09	-1.983997e+01	-1.433382e+02
6.200000e-07	-2.685533e-06	-2.074910e-09	-1.955371e+01	-1.419837e+02
6.300000e-07	-2.646037e-06	-2.095765e-09	-1.926613e+01	-1.406092e+02
6.400000e-07	-2.606259e-06	-2.093465e-09	-1.897651e+01	-1.392145e+02
6.500000e-07	-2.565974e-06	-2.047115e-09	-1.868318e+01	-1.377993e+02
6.600000e-07	-2.524976e-06	-1.993532e-09	-1.838467e+01	-1.363637e+02
6.700000e-07	-2.483208e-06	-1.975196e-09	-1.808055e+01	-1.349076e+02
6.800000e-07	-2.440771e-06	-1.994618e-09	-1.777156e+01	-1.334310e+02
6.900000e-07	-2.397764e-06	-1.978200e-09	-1.745842e+01	-1.319339e+02
7.000000e-07	-2.354354e-06	-1.921727e-09	-1.714235e+01	-1.304164e+02
7.100000e-07	-2.310728e-06	-1.878098e-09	-1.682470e+01	-1.288786e+02
7.200000e-07	-2.266855e-06	-1.874146e-09	-1.650526e+01	-1.273204e+02
7.300000e-07	-2.222635e-06	-1.885168e-09	-1.618329e+01	-1.257418e+02
7.400000e-07	-2.177952e-06	-1.853705e-09	-1.585794e+01	-1.241425e+02
7.500000e-07	-2.132819e-06	-1.799536e-09	-1.552932e+01	-1.225222e+02
7.600000e-07	-2.087346e-06	-1.761863e-09	-1.519823e+01	-1.208805e+02
7.700000e-07	-2.041521e-06	-1.755489e-09	-1.486457e+01	-1.192168e+02
7.800000e-07	-1.995389e-06	-1.757387e-09	-1.452868e+01	-1.175305e+02
7.900000e-07	-1.948899e-06	-1.720651e-09	-1.419018e+01	-1.158209e+02
8.000000e-07	-1.902014e-06	-1.666356e-09	-1.384880e+01	-1.140873e+02
8.100000e-07	-1.854850e-06	-1.635260e-09	-1.350540e+01	-1.123291e+02
8.200000e-07	-1.807492e-06	-1.635214e-09	-1.316058e+01	-1.105456e+02
8.300000e-07	-1.759902e-06	-1.628617e-09	-1.281407e+01	-1.087362e+02
8.400000e-07	-1.712001e-06	-1.579437e-09	-1.246530e+01	-1.069008e+02
8.500000e-07	-1.663714e-06	-1.524411e-09	-1.211371e+01	-1.050390e+02
8.600000e-07	-1.614982e-06	-1.497616e-09	-1.175889e+01	-1.031508e+02
8.700000e-07	-1.565795e-06	-1.492696e-09	-1.140075e+01	-1.012366e+02
8.800000e-07	-1.516125e-06	-1.475000e-09	-1.103910e+01	-9.929665e+01
8.900000e-07	-1.466017e-06	-1.426976e-09	-1.067426e+01	-9.733157e+01
9.000000e-07	-1.415462e-06	-1.385105e-09	-1.030616e+01	-9.534207e+01
9.100000e-07	-1.364498e-06	-1.366167e-09	-9.935082e+00	-9.332897e+01
9.200000e-07	-1.313264e-06	-1.356721e-09	-9.562039e+00	-9.129314e+01
9.300000e-07	-1.261830e-06	-1.330823e-09	-9.187546e+00	-8.923543e+01
9.400000e-07	-1.210207e-06	-1.280783e-09	-8.811669e+00	-8.715666e+01
9.500000e-07	-1.158411e-06	-1.236155e-09	-8.434536e+00	-8.505754e+01
9.600000e-07	-1.106392e-06	-1.211184e-09	-8.055777e+00	-8.293863e+01
9.700000e-07	-1.054155e-06	-1.197075e-09	-7.675435e+00	-8.080033e+01
9.800000e-07	-1.001744e-06	-1.168223e-09	-7.293823e+00	-7.864285e+01
9.900000e-07	-9.490774e-07	-1.117891e-09	-6.910353e+00	-7.646618e+01
1.000000e-06	-8.962091e-07	-1.077523e-09	-6.525412e+00	-7.427014e+01
1.010000e-06	-8.432004e-07	-1.056910e-09	-6.139449e+00	-7.205439e+01
1.020000e-06	-7.900325e-07	-1.039463e-09	-5.752327e+00	-6.981843e+01
1.030000e-06	-7.367631e-07	-1.001511e-09	-5.364465e+00	-6.756170e+01
1.040000e-06	-6.833899e-07	-9.458831e-10	-4.975849e+00	-6.528356e+01
1.050000e-06	-6.298988e-07	-9.035873e-10	-4.586373e+00	-6.298342e+01
1.060000e-06	-5.763660e-07	-8.812543e-10	-4.196594e+00	-6.066073e+01
1.070000e-06	-5.228259e-07	-8.615043e-10	-3.806762e+00	-5.831502e+01
1.080000e-06	-4.692203e-07	-8.212165e-10	-3.416453e+00	-5.594599e+01
1.090000e-06	-4.154862e-07	-7.682919e-10	-3.025207e+00	-5.355351e+01
1.100000e-06	-3.616318e-07	-7.331478e-10	-2.633087e+00	-5.113760e+01
1.110000e-06	-3.076997e-07	-7.142285e-10	-2.240401e+00	-4.869851e+01
1.120000e-06	-2.537176e-07	-6.878430e-10	-1.847350e+00	-4.623662e+01
1.130000e-06	-1.996802e-07	-6.387634e-10	-1.453897e+00	-4.375248e+01
1.140000e-06	-1.455806e-07	-5.873055e-10	-1.059991e+00	-4.124679e+01
1.150000e-06	-9.147090e-08	-5.553259e-10	-6.660112e-01	-3.872029e+01
1.160000e-06	-3.738238e-08	-5.300595e-10	-2.721858e-01	-3.617379e+01
1.170000e-06	1.662631e-08	-4.937740e-10	1.210583e-01	-3.360810e+01
1.180000e-06	7.065843e-08	-4.422596e-10	5.144730e-01	-3.102397e+01
1.190000e-06	1.248096e-07	-3.948538e-10	9.087548e-01	-2.842211e+01
1.200000e-06	1.788607e-07	-3.622474e-10	1.302307e+00	-2.580309e+01
1.210000e-06	2.328039e-07	-3.307541e-10	1.695075e+00	-2.316739e+01
1.220000e-06	2.867671e-07	-2.911277e-10	2.087988e+00	-2.051537e+01
1.230000e-06	3.407159e-07	-2.417801e-10	2.480796e+00	-1.784725e+01
1.240000e-06	3.946101e-07	-1.961705e-10	2.873206e+00	-1.516318e+01
1.250000e-06	4.484143e-07	-1.611865e-10	3.264961e+00	-1.246320e+01
1.260000e-06	5.021048e-07	-1.254665e-10	3.655889e+00	-9.747309e+00
1.270000e-06	5.556969e-07	-8.138380e-11	4.046100e+00	-7.015503e+00
1.280000e-06	6.092395e-07	-2.909250e-11	4.435950e+00	-4.267787e+00
1.290000e-06	6.627093e-07	1.783319e-11	4.825270e+00	-1.504220e+00
1.300000e-06	7.160418e-07	5.334109e-11	5.213591e+00	1.275055e+00
1.310000e-06	7.691985e-07	8.693645e-11	5.600632e+00	4.069790e+00
1.320000e-06	8.222173e-07	1.281472e-10	5.986668e+00	6.879615e+00
1.330000e-06	8.751068e-07	1.796001e-10	6.371763e+00	9.704033e+00
1.340000e-06	9.278221e-07	2.271460e-10	6.755590e+00	1.254242e+01
1.350000e-06	9.803623e-07	2.625505e-10	7.138142e+00	1.539402e+01
1.360000e-06	1.032661e-06	2.991533e-10	7.518938e+00	1.825800e+01
1.370000e-06	1.084694e-06	3.469287e-10	7.897798e+00	2.113341e+01
1.380000e-06	1.136554e-06	3.994004e-10	8.275392e+00	2.401925e+01
1.390000e-06	1.188258e-06	4.419264e-10	8.651854e+00	2.691449e+01
1.400000e-06	1.239788e-06	4.765159e-10	9.027054e+00	2.981805e+01
1.410000e-06	1.291173e-06	5.169567e-10	9.401191e+00	3.272884e+01
1.420000e-06	1.342306e-06	5.672186e-10	9.773500e+00	3.564580e+01
1.430000e-06	1.393086e-06	6.192230e-10	1.014323e+01	3.856781e+01
1.440000e-06	1.443490e-06	6.612440e-10	1.051024e+01	4.149380e+01
1.450000e-06	1.493482e-06	6.973292e-10	1.087423e+01	4.442263e+01
1.460000e-06	1.542990e-06	7.377955e-10	1.123470e+01	4.735314e+01
1.470000e-06	1.591945e-06	7.857136e-10	1.159116e+01	5.028411e+01
1.480000e-06	1.640427e-06	8.338064e-10	1.194416e+01	5.321422e+01
1.490000e-06	1.688566e-06	8.743382e-10	1.229466e+01	5.614205e+01
1.500000e-06	1.736470e-06	9.134830e-10	1.264346e+01	5.906605e+01
1.510000e-06	1.784138e-06	9.567712e-10	1.299054e+01	6.198453e+01
1.520000e-06	1.831545e-06	1.003862e-09	1.333571e+01	6.489565e+01
1.530000e-06	1.878711e-06	1.051439e-09	1.367913e+01	6.779745e+01
1.540000e-06	1.925640e-06	1.092483e-09	1.402083e+01	7.068783e+01
1.550000e-06	1.972264e-06	1.129445e-09	1.436031e+01	7.356457e+01
1.560000e-06	2.018480e-06	1.170144e-09	1.469681e+01	7.642542e+01
1.570000e-06	2.064291e-06	1.216105e-09	1.503036e+01	7.926809e+01
1.580000e-06	2.109699e-06	1.262271e-09	1.536099e+01	8.209029e+01
1.590000e-06	2.154781e-06	1.300783e-09	1.568924e+01	8.488983e+01
1.600000e-06	2.199527e-06	1.335152e-09	1.601503e+01	8.766459e+01
1.610000e-06	2.243819e-06	1.374175e-09	1.633753e+01	9.041264e+01
1.620000e-06	2.287715e-06	1.417283e-09	1.665714e+01	9.313220e+01
1.630000e-06	2.331369e-06	1.455821e-09	1.697499e+01	9.582173e+01
1.640000e-06	2.374852e-06	1.487441e-09	1.729160e+01	9.847987e+01
1.650000e-06	2.418038e-06	1.522133e-09	1.760604e+01	1.011055e+02
1.660000e-06	2.460784e-06	1.563024e-09	1.791728e+01	1.036978e+02
1.670000e-06	2.502904e-06	1.604190e-09	1.822396e+01	1.062558e+02
1.680000e-06	2.544213e-06	1.640660e-09	1.852474e+01	1.087792e+02
1.690000e-06	2.584784e-06	1.673445e-09	1.882014e+01	1.112672e+02
1.700000e-06	2.624826e-06	1.706063e-09	1.911169e+01	1.137196e+02
1.710000e-06	2.664503e-06	1.740635e-09	1.940058e+01	1.161357e+02
1.720000e-06	2.703840e-06	1.776904e-09	1.968700e+01	1.185152e+02
1.730000e-06	2.742829e-06	1.810165e-09	1.997088e+01	1.208574e+02
1.740000e-06	2.781400e-06	1.839914e-09	2.025173e+01	1.231616e+02
1.750000e-06	2.819500e-06	1.870639e-09	2.052914e+01	1.254269e+02
1.760000e-06	2.857107e-06	1.903759e-09	2.080296e+01	1.276523e+02
1.770000e-06	2.894171e-06	1.937237e-09	2.107283e+01	1.298367e+02
1.780000e-06	2.930769e-06	1.967777e-09	2.133930e+01	1.319788e+02
1.790000e-06	2.966882e-06	1.995870e-09	2.160224e+01	1.340774e+02
1.800000e-06	3.002580e-06	2.025288e-09	2.186217e+01	1.361309e+02
1.810000e-06	3.037968e-06	2.055019e-09	2.211983e+01	1.381381e+02
1.820000e-06	3.072863e-06	2.082245e-09	2.237390e+01	1.400978e+02
1.830000e-06	3.107024e-06	2.107470e-09	2.262264e+01	1.420086e+02
1.840000e-06	3.140358e-06	2.133304e-09	2.286535e+01	1.438698e+02
1.850000e-06	3.172905e-06	2.160970e-09	2.310232e+01	1.456806e+02
1.860000e-06	3.204834e-06	2.187764e-09	2.333480e+01	1.474406e+02
1.870000e-06	3.236357e-06	2.211953e-09	2.356432e+01	1.491495e+02
1.880000e-06	3.267480e-06	2.232713e-09	2.379094e+01	1.508075e+02
1.890000e-06	3.298089e-06	2.251759e-09	2.401380e+01	1.524150e+02
1.900000e-06	3.328097e-06	2.272083e-09	2.423229e+01	1.539727e+02
1.910000e-06	3.357489e-06	2.294453e-09	2.444631e+01	1.554816e+02
1.920000e-06	3.386313e-06	2.315846e-09	2.465617e+01	1.569427e+02
1.930000e-06	3.414568e-06	2.333222e-09	2.486190e+01	1.583574e+02
1.940000e-06	3.442359e-06	2.351021e-09	2.506426e+01	1.597270e+02
1.950000e-06	3.469804e-06	2.370800e-09	2.526408e+01	1.610529e+02
1.960000e-06	3.496709e-06	2.389886e-09	2.545998e+01	1.623365e+02
1.970000e-06	3.522790e-06	2.406838e-09	2.564988e+01	1.635791e+02
1.980000e-06	3.547856e-06	2.422270e-09	2.583239e+01	1.647820e+02
1.990000e-06	3.572046e-06	2.438400e-09	2.600852e+01	1.659464e+02
2.000000e-06	3.595675e-06	2.454895e-09	2.618057e+01	1.670732e+02
2.010000e-06	3.618760e-06	2.470429e-09	2.634865e+01	1.681633e+02
2.020000e-06	3.641224e-06	2.484980e-09	2.651221e+01	1.692176e+02
2.030000e-06	3.663078e-06	2.498337e-09	2.667133e+01	1.702366e+02
2.040000e-06	3.684298e-06	2.512619e-09	2.682584e+01	1.712209e+02
2.050000e-06	3.704898e-06	2.528991e-09	2.697583e+01	1.721709e+02
2.060000e-06	3.724970e-06	2.543783e-09	2.712198e+01	1.730872e+02
2.070000e-06	3.744561e-06	2.555318e-09	2.726462e+01	1.739701e+02
2.080000e-06	3.763681e-06	2.565740e-09	2.740384e+01	1.748199e+02
2.090000e-06	3.782151e-06	2.577124e-09	2.753832e+01	1.756372e+02
2.100000e-06	3.799855e-06	2.589544e-09	2.766723e+01	1.764221e+02
2.110000e-06	3.816873e-06	2.600720e-09	2.779113e+01	1.771751e+02
2.120000e-06	3.833356e-06	2.609592e-09	2.791115e+01	1.778965e+02
2.130000e-06	3.849211e-06	2.618095e-09	2.802659e+01	1.785866e+02
2.140000e-06	3.864151e-06	2.628971e-09	2.813537e+01	1.792455e+02
2.150000e-06	3.878250e-06	2.641776e-09	2.823803e+01	1.798735e+02
2.160000e-06	3.891641e-06	2.652578e-09	2.833553e+01	1.804706e+02
2.170000e-06	3.904312e-06	2.659116e-09	2.842779e+01	1.810366e+02
2.180000e-06	3.916264e-06	2.664914e-09	2.851482e+01	1.815714e+02
2.190000e-06	3.927553e-06	2.673919e-09	2.859701e+01	1.820746e+02
2.200000e-06	3.938057e-06	2.682434e-09	2.867349e+01	1.825458e+02
2.210000e-06	3.947514e-06	2.688380e-09	2.874235e+01	1.829845e+02
2.220000e-06	3.955973e-06	2.691969e-09	2.880394e+01	1.833902e+02
2.230000e-06	3.963771e-06	2.694525e-09	2.886072e+01	1.837622e+02
2.240000e-06	3.971025e-06	2.699521e-09	2.891353e+01	1.841002e+02
2.250000e-06	3.977610e-06	2.706734e-09	2.896148e+01	1.844035e+02
2.260000e-06	3.983451e-06	2.711084e-09	2.900401e+01	1.846721e+02
2.270000e-06	3.988589e-06	2.711950e-09	2.904142e+01	1.849059e+02
2.280000e-06	3.993094e-06	2.713159e-09	2.907423e+01	1.851049e+02
2.290000e-06	3.997048e-06	2.716219e-09	2.910301e+01	1.852697e+02
2.300000e-06	4.000536e-06	2.717980e-09	2.912841e+01	1.854010e+02
2.310000e-06	4.003322e-06	2.717750e-09	2.914870e+01	1.854997e+02
2.320000e-06	4.005142e-06	2.718246e-09	2.916194e+01	1.855671e+02
2.330000e-06	4.006042e-06	2.718731e-09	2.916850e+01	1.856046e+02
2.340000e-06	4.006145e-06	2.720867e-09	2.916925e+01	1.856139e+02
2.350000e-06	4.005634e-06	2.722271e-09	2.916553e+01	1.855966e+02
2.360000e-06	4.004605e-06	2.720096e-09	2.915804e+01	1.855546e+02
2.370000e-06	4.002924e-06	2.716440e-09	2.914580e+01	1.854896e+02
2.380000e-06	4.000609e-06	2.712682e-09	2.912894e+01	1.854030e+02
2.390000e-06	3.997704e-06	2.710937e-09	2.910779e+01	1.852964e+02
2.400000e-06	3.994158e-06	2.713035e-09	2.908197e+01	1.851709e+02
2.410000e-06	3.990060e-06	2.725762e-09	2.905213e+01	1.850274e+02
2.420000e-06	3.985489e-06	2.713740e-09	2.901885e+01	1.848664e+02
2.430000e-06	3.980200e-06	2.651360e-09	2.898034e+01	1.846880e+02
2.440000e-06	3.973747e-06	2.650376e-09	2.893335e+01	1.844923e+02
2.450000e-06	3.966139e-06	2.763551e-09	2.887796e+01	1.842787e+02
2.460000e-06	3.957874e-06	2.759316e-09	2.881779e+01	1.840467e+02
2.470000e-06	3.949354e-06	2.649483e-09	2.875575e+01	1.837952e+02
2.480000e-06	3.940250e-06	2.626589e-09	2.868946e+01	1.835234e+02
2.490000e-06	3.930155e-06	2.712831e-09	2.861595e+01	1.832302e+02
2.500000e-06	3.919477e-06	2.669763e-09	2.853821e+01	1.829145e+02
2.510000e-06	3.908519e-06	2.666837e-09	2.845842e+01	1.825754e+02
2.520000e-06	3.896708e-06	2.767362e-09	2.837242e+01	1.822122e+02
2.530000e-06	3.883679e-06	2.648990e-09	2.827756e+01	1.818242e+02
2.540000e-06	3.869900e-06	2.610779e-09	2.817723e+01	1.814111e+02
2.550000e-06	3.855558e-06	2.819223e-09	2.807281e+01	1.809728e+02
2.560000e-06	3.840301e-06	2.809796e-09	2.796172e+01	1.805094e+02
2.570000e-06	3.824080e-06	2.576740e-09	2.784361e+01	1.800212e+02
2.580000e-06	3.807210e-06	2.688626e-09	2.772078e+01	1.795088e+02
2.590000e-06	3.789775e-06	2.895557e-09	2.759383e+01	1.789729e+02
2.600000e-06	3.771689e-06	2.750534e-09	2.746214e+01	1.784141e+02
2.610000e-06	3.752877e-06	2.711181e-09	2.732517e+01	1.778333e+02
2.620000e-06	3.733365e-06	2.868144e-09	2.718310e+01	1.772310e+02
2.630000e-06	3.713332e-06	2.813727e-09	2.703724e+01	1.766078e+02
2.640000e-06	3.692770e-06	2.733606e-09	2.688753e+01	1.759641e+02
2.650000e-06	3.671669e-06	2.740425e-09	2.673389e+01	1.753003e+02
2.660000e-06	3.649975e-06	2.746761e-09	2.657593e+01	1.746161e+02
2.670000e-06	3.627335e-06	2.750914e-09	2.641109e+01	1.739115e+02
2.680000e-06	3.603708e-06	2.716847e-09	2.623905e+01	1.731859e+02
2.690000e-06	3.579477e-06	2.659067e-09	2.606263e+01	1.724389e+02
2.700000e-06	3.554764e-06	2.711834e-09	2.588268e+01	1.716697e+02
2.710000e-06	3.529423e-06	2.713863e-09	2.569818e+01	1.708774e+02
2.720000e-06	3.503440e-06	2.619555e-09	2.550899e+01	1.700613e+02
2.730000e-06	3.476902e-06	2.678480e-09	2.531577e+01	1.692205e+02
2.740000e-06	3.449863e-06	2.679974e-09	2.511889e+01	1.683545e+02
2.750000e-06	3.422269e-06	2.592390e-09	2.491798e+01	1.674627e+02
2.760000e-06	3.394123e-06	2.644822e-09	2.471304e+01	1.665447e+02
2.770000e-06	3.365547e-06	2.649609e-09	2.450498e+01	1.656004e+02
2.780000e-06	3.336434e-06	2.587732e-09	2.429300e+01	1.646301e+02
2.790000e-06	3.306375e-06	2.560301e-09	2.407414e+01	1.636338e+02
2.800000e-06	3.275308e-06	2.549053e-09	2.384794e+01	1.626123e+02
2.810000e-06	3.243547e-06	2.583954e-09	2.361668e+01	1.615663e+02
2.820000e-06	3.211315e-06	2.543517e-09	2.338199e+01	1.604965e+02
2.830000e-06	3.178634e-06	2.477605e-09	2.314403e+01	1.594039e+02
2.840000e-06	3.145415e-06	2.482457e-09	2.290216e+01	1.582895e+02
2.850000e-06	3.111667e-06	2.486981e-09	2.265644e+01	1.571541e+02
2.860000e-06	3.077460e-06	2.477250e-09	2.240737e+01	1.559986e+02
2.870000e-06	3.042763e-06	2.448194e-09	2.215474e+01	1.548238e+02
2.880000e-06	3.007505e-06	2.409154e-09	2.189803e+01	1.536302e+02
2.890000e-06	2.971750e-06	2.387934e-09	2.163769e+01	1.524183e+02
2.900000e-06	2.935586e-06	2.391718e-09	2.137437e+01	1.511881e+02
2.910000e-06	2.899069e-06	2.396367e-09	2.110849e+01	1.499400e+02
2.920000e-06	2.862117e-06	2.341603e-09	2.083943e+01	1.486736e+02
2.930000e-06	2.824487e-06	2.283112e-09	2.056545e+01	1.473889e+02
2.940000e-06	2.786013e-06	2.293043e-09	2.028531e+01	1.460855e+02
