# Temperatura_=_20.0
# Concentracion g/m^3_=_12600.0
# C_Vs_to_Am_M_A/Vsm_=_65563218390.804596
# pendiente_HvsI_1/m_=_3716.3
# ordenada_HvsI_A/m_=_1297.0
# frecuencia_Hz_=_213095.53397131403

Tiempo_(s)	Campo_(V.s)	Magnetizacion_(V.s)	Campo_(kA/m)	Magnetizacion_(A/m)
0.000000e+00	-4.009668e-06	-3.060610e-09	-2.908052e+01	-1.993582e+02
1.000000e-08	-4.009645e-06	-3.060296e-09	-2.908034e+01	-1.993237e+02
2.000000e-08	-4.008902e-06	-3.059563e-09	-2.907496e+01	-1.992591e+02
3.000000e-08	-4.007229e-06	-3.057847e-09	-2.906282e+01	-1.991659e+02
4.000000e-08	-4.004656e-06	-3.056537e-09	-2.904417e+01	-1.990456e+02
5.000000e-08	-4.001371e-06	-3.054624e-09	-2.902034e+01	-1.989002e+02
6.000000e-08	-3.997541e-06	-3.048246e-09	-2.899256e+01	-1.987317e+02
7.000000e-08	-3.993079e-06	-3.037582e-09	-2.896020e+01	-1.985424e+02
8.000000e-08	-3.987889e-06	-3.047708e-09	-2.892256e+01	-1.983342e+02
9.000000e-08	-3.981893e-06	-3.081911e-09	-2.887907e+01	-1.981091e+02
1.000000e-07	-3.974998e-06	-3.076282e-09	-2.882907e+01	-1.978687e+02
1.100000e-07	-3.967525e-06	-2.979720e-09	-2.877487e+01	-1.976144e+02
1.200000e-07	-3.959749e-06	-2.988474e-09	-2.871847e+01	-1.973469e+02
1.300000e-07	-3.951253e-06	-3.056456e-09	-2.865685e+01	-1.970666e+02
1.400000e-07	-3.941782e-06	-3.081788e-09	-2.858816e+01	-1.967733e+02
1.500000e-07	-3.931509e-06	-3.002471e-09	-2.851366e+01	-1.964662e+02
1.600000e-07	-3.920365e-06	-3.026976e-09	-2.843283e+01	-1.961442e+02
1.700000e-07	-3.908304e-06	-3.031488e-09	-2.834536e+01	-1.958057e+02
1.800000e-07	-3.895532e-06	-2.927033e-09	-2.825273e+01	-1.954486e+02
1.900000e-07	-3.882198e-06	-3.060859e-09	-2.815603e+01	-1.950709e+02
2.000000e-07	-3.868014e-06	-3.047981e-09	-2.805315e+01	-1.946703e+02
2.100000e-07	-3.852633e-06	-2.864986e-09	-2.794160e+01	-1.942446e+02
2.200000e-07	-3.836274e-06	-2.893991e-09	-2.782295e+01	-1.937919e+02
2.300000e-07	-3.819369e-06	-3.065413e-09	-2.770035e+01	-1.933103e+02
2.400000e-07	-3.801963e-06	-2.983709e-09	-2.757411e+01	-1.927986e+02
2.500000e-07	-3.783855e-06	-2.822235e-09	-2.744278e+01	-1.922558e+02
2.600000e-07	-3.765092e-06	-2.919673e-09	-2.730670e+01	-1.916816e+02
2.700000e-07	-3.745819e-06	-2.939614e-09	-2.716692e+01	-1.910760e+02
2.800000e-07	-3.726110e-06	-2.851755e-09	-2.702398e+01	-1.904395e+02
2.900000e-07	-3.705849e-06	-2.881978e-09	-2.687703e+01	-1.897730e+02
3.000000e-07	-3.684929e-06	-2.873926e-09	-2.672531e+01	-1.890777e+02
3.100000e-07	-3.663364e-06	-2.846970e-09	-2.656891e+01	-1.883550e+02
3.200000e-07	-3.641096e-06	-2.823041e-09	-2.640741e+01	-1.876064e+02
3.300000e-07	-3.618190e-06	-2.830806e-09	-2.624128e+01	-1.868332e+02
3.400000e-07	-3.594796e-06	-2.866494e-09	-2.607162e+01	-1.860368e+02
3.500000e-07	-3.570922e-06	-2.827299e-09	-2.589846e+01	-1.852182e+02
3.600000e-07	-3.546375e-06	-2.762112e-09	-2.572044e+01	-1.843781e+02
3.700000e-07	-3.520901e-06	-2.763175e-09	-2.553568e+01	-1.835168e+02
3.800000e-07	-3.494492e-06	-2.829008e-09	-2.534415e+01	-1.826343e+02
3.900000e-07	-3.467423e-06	-2.779059e-09	-2.514783e+01	-1.817302e+02
4.000000e-07	-3.439911e-06	-2.710747e-09	-2.494830e+01	-1.808038e+02
4.100000e-07	-3.411893e-06	-2.728239e-09	-2.474509e+01	-1.798541e+02
4.200000e-07	-3.383329e-06	-2.699799e-09	-2.453793e+01	-1.788800e+02
4.300000e-07	-3.354255e-06	-2.713168e-09	-2.432706e+01	-1.778802e+02
4.400000e-07	-3.324580e-06	-2.712566e-09	-2.411184e+01	-1.768535e+02
4.500000e-07	-3.294261e-06	-2.641070e-09	-2.389195e+01	-1.757991e+02
4.600000e-07	-3.263393e-06	-2.615363e-09	-2.366808e+01	-1.747160e+02
4.700000e-07	-3.232075e-06	-2.622899e-09	-2.344094e+01	-1.736038e+02
4.800000e-07	-3.200396e-06	-2.646646e-09	-2.321119e+01	-1.724623e+02
4.900000e-07	-3.168277e-06	-2.602933e-09	-2.297824e+01	-1.712919e+02
5.000000e-07	-3.135367e-06	-2.540999e-09	-2.273956e+01	-1.700931e+02
5.100000e-07	-3.101484e-06	-2.547803e-09	-2.249382e+01	-1.688669e+02
5.200000e-07	-3.066790e-06	-2.559919e-09	-2.224220e+01	-1.676143e+02
5.300000e-07	-3.031547e-06	-2.548161e-09	-2.198659e+01	-1.663368e+02
5.400000e-07	-2.995913e-06	-2.490129e-09	-2.172815e+01	-1.650358e+02
5.500000e-07	-2.959929e-06	-2.459616e-09	-2.146718e+01	-1.637127e+02
5.600000e-07	-2.923474e-06	-2.463574e-09	-2.120278e+01	-1.623686e+02
5.700000e-07	-2.886456e-06	-2.438115e-09	-2.093430e+01	-1.610047e+02
5.800000e-07	-2.848954e-06	-2.429208e-09	-2.066232e+01	-1.596215e+02
5.900000e-07	-2.810929e-06	-2.397760e-09	-2.038654e+01	-1.582195e+02
6.000000e-07	-2.772279e-06	-2.362779e-09	-2.010623e+01	-1.567986e+02
6.100000e-07	-2.733184e-06	-2.352832e-09	-1.982269e+01	-1.553584e+02
6.200000e-07	-2.693822e-06	-2.342102e-09	-1.953721e+01	-1.538980e+02
6.300000e-07	-2.654205e-06	-2.330001e-09	-1.924988e+01	-1.524165e+02
6.400000e-07	-2.614167e-06	-2.283073e-09	-1.895951e+01	-1.509126e+02
6.500000e-07	-2.573510e-06	-2.250908e-09	-1.866464e+01	-1.493848e+02
6.600000e-07	-2.532181e-06	-2.242753e-09	-1.836489e+01	-1.478318e+02
6.700000e-07	-2.490169e-06	-2.228293e-09	-1.806020e+01	-1.462523e+02
6.800000e-07	-2.447515e-06	-2.207082e-09	-1.775085e+01	-1.446452e+02
6.900000e-07	-2.404334e-06	-2.158238e-09	-1.743767e+01	-1.430097e+02
7.000000e-07	-2.360849e-06	-2.133077e-09	-1.712229e+01	-1.413454e+02
7.100000e-07	-2.317154e-06	-2.126800e-09	-1.680539e+01	-1.396520e+02
7.200000e-07	-2.273144e-06	-2.104728e-09	-1.648620e+01	-1.379298e+02
7.300000e-07	-2.228721e-06	-2.072876e-09	-1.616402e+01	-1.361796e+02
7.400000e-07	-2.183849e-06	-2.030808e-09	-1.583858e+01	-1.344021e+02
7.500000e-07	-2.138584e-06	-2.014946e-09	-1.551029e+01	-1.325985e+02
7.600000e-07	-2.092997e-06	-1.994795e-09	-1.517967e+01	-1.307701e+02
7.700000e-07	-2.047057e-06	-1.955868e-09	-1.484648e+01	-1.289181e+02
7.800000e-07	-2.000741e-06	-1.926195e-09	-1.451057e+01	-1.270438e+02
7.900000e-07	-1.954019e-06	-1.896110e-09	-1.417172e+01	-1.251482e+02
8.000000e-07	-1.906965e-06	-1.873084e-09	-1.383045e+01	-1.232321e+02
8.100000e-07	-1.859658e-06	-1.840962e-09	-1.348736e+01	-1.212959e+02
8.200000e-07	-1.812110e-06	-1.811127e-09	-1.314251e+01	-1.193398e+02
8.300000e-07	-1.764334e-06	-1.789876e-09	-1.279601e+01	-1.173636e+02
8.400000e-07	-1.716261e-06	-1.751679e-09	-1.244735e+01	-1.153666e+02
8.500000e-07	-1.667729e-06	-1.715154e-09	-1.209537e+01	-1.133480e+02
8.600000e-07	-1.618610e-06	-1.680898e-09	-1.173913e+01	-1.113067e+02
8.700000e-07	-1.568922e-06	-1.656738e-09	-1.137876e+01	-1.092414e+02
8.800000e-07	-1.518807e-06	-1.633355e-09	-1.101529e+01	-1.071508e+02
8.900000e-07	-1.468328e-06	-1.591090e-09	-1.064920e+01	-1.050338e+02
9.000000e-07	-1.417443e-06	-1.557225e-09	-1.028015e+01	-1.028894e+02
9.100000e-07	-1.366259e-06	-1.532669e-09	-9.908930e+00	-1.007168e+02
9.200000e-07	-1.314882e-06	-1.511223e-09	-9.536310e+00	-9.851564e+01
9.300000e-07	-1.263310e-06	-1.474858e-09	-9.162278e+00	-9.628585e+01
9.400000e-07	-1.211508e-06	-1.423654e-09	-8.786581e+00	-9.402784e+01
9.500000e-07	-1.159442e-06	-1.391824e-09	-8.408964e+00	-9.174237e+01
9.600000e-07	-1.107164e-06	-1.365216e-09	-8.029814e+00	-8.943054e+01
9.700000e-07	-1.054745e-06	-1.331356e-09	-7.649641e+00	-8.709374e+01
9.800000e-07	-1.002141e-06	-1.285398e-09	-7.268126e+00	-8.473354e+01
9.900000e-07	-9.493117e-07	-1.241875e-09	-6.884977e+00	-8.235158e+01
1.000000e-06	-8.962368e-07	-1.219462e-09	-6.500046e+00	-7.994945e+01
1.010000e-06	-8.429808e-07	-1.188666e-09	-6.113802e+00	-7.752863e+01
1.020000e-06	-7.896593e-07	-1.144669e-09	-5.727082e+00	-7.509032e+01
1.030000e-06	-7.362603e-07	-1.100711e-09	-5.339801e+00	-7.263542e+01
1.040000e-06	-6.826899e-07	-1.067074e-09	-4.951276e+00	-7.016439e+01
1.050000e-06	-6.289791e-07	-1.035759e-09	-4.561733e+00	-6.767731e+01
1.060000e-06	-5.752159e-07	-9.889660e-10	-4.171810e+00	-6.517381e+01
1.070000e-06	-5.214013e-07	-9.459124e-10	-3.781515e+00	-6.265311e+01
1.080000e-06	-4.675133e-07	-9.110539e-10	-3.390687e+00	-6.011410e+01
1.090000e-06	-4.135444e-07	-8.754477e-10	-2.999271e+00	-5.755540e+01
1.100000e-06	-3.595429e-07	-8.354278e-10	-2.607620e+00	-5.497547e+01
1.110000e-06	-3.054713e-07	-7.910660e-10	-2.215461e+00	-5.237271e+01
1.120000e-06	-2.512728e-07	-7.581120e-10	-1.822381e+00	-4.974558e+01
1.130000e-06	-1.970011e-07	-7.232975e-10	-1.428770e+00	-4.709273e+01
1.140000e-06	-1.427057e-07	-6.774080e-10	-1.034987e+00	-4.441307e+01
1.150000e-06	-8.844019e-08	-6.317431e-10	-6.414212e-01	-4.170584e+01
1.160000e-06	-3.418572e-08	-5.896425e-10	-2.479353e-01	-3.897071e+01
1.170000e-06	2.008988e-08	-5.544479e-10	1.457038e-01	-3.620779e+01
1.180000e-06	7.434494e-08	-5.101530e-10	5.391940e-01	-3.341758e+01
1.190000e-06	1.285836e-07	-4.617693e-10	9.325655e-01	-3.060101e+01
1.200000e-06	1.828287e-07	-4.207809e-10	1.325983e+00	-2.775934e+01
1.210000e-06	2.370338e-07	-3.812476e-10	1.719111e+00	-2.489410e+01
1.220000e-06	2.911746e-07	-3.393907e-10	2.111773e+00	-2.200699e+01
1.230000e-06	3.452853e-07	-2.872912e-10	2.504216e+00	-1.909978e+01
1.240000e-06	3.993282e-07	-2.407722e-10	2.896167e+00	-1.617422e+01
1.250000e-06	4.532614e-07	-2.029967e-10	3.287323e+00	-1.323196e+01
1.260000e-06	5.071406e-07	-1.585407e-10	3.678087e+00	-1.027441e+01
1.270000e-06	5.609259e-07	-1.086863e-10	4.068171e+00	-7.302775e+00
1.280000e-06	6.145761e-07	-5.701299e-11	4.457274e+00	-4.317939e+00
1.290000e-06	6.681162e-07	-1.308136e-11	4.845579e+00	-1.320500e+00
1.300000e-06	7.215494e-07	3.021963e-11	5.233108e+00	1.689232e+00
1.310000e-06	7.748966e-07	7.765640e-11	5.620014e+00	4.711191e+00
1.320000e-06	8.281280e-07	1.235981e-10	6.006080e+00	7.745500e+00
1.330000e-06	8.812367e-07	1.710581e-10	6.391256e+00	1.079239e+01
1.340000e-06	9.341334e-07	2.178677e-10	6.774895e+00	1.385213e+01
1.350000e-06	9.868160e-07	2.652726e-10	7.156981e+00	1.692494e+01
1.360000e-06	1.039341e-06	3.136922e-10	7.537920e+00	2.001088e+01
1.370000e-06	1.091640e-06	3.602092e-10	7.917225e+00	2.310982e+01
1.380000e-06	1.143697e-06	4.082204e-10	8.294773e+00	2.622139e+01
1.390000e-06	1.195530e-06	4.556807e-10	8.670702e+00	2.934488e+01
1.400000e-06	1.247186e-06	5.038470e-10	9.045339e+00	3.247930e+01
1.410000e-06	1.298614e-06	5.531596e-10	9.418328e+00	3.562335e+01
1.420000e-06	1.349781e-06	6.023979e-10	9.789423e+00	3.877543e+01
1.430000e-06	1.400699e-06	6.538997e-10	1.015871e+01	4.193373e+01
1.440000e-06	1.451326e-06	7.018791e-10	1.052588e+01	4.509625e+01
1.450000e-06	1.501497e-06	7.465518e-10	1.088976e+01	4.826087e+01
1.460000e-06	1.551163e-06	7.915947e-10	1.124997e+01	5.142544e+01
1.470000e-06	1.600420e-06	8.400955e-10	1.160721e+01	5.458784e+01
1.480000e-06	1.649211e-06	8.887357e-10	1.196107e+01	5.774599e+01
1.490000e-06	1.697567e-06	9.333428e-10	1.231177e+01	6.089797e+01
1.500000e-06	1.745618e-06	9.803673e-10	1.266027e+01	6.404200e+01
1.510000e-06	1.793405e-06	1.029829e-09	1.300685e+01	6.717644e+01
1.520000e-06	1.840907e-06	1.077932e-09	1.335136e+01	7.029983e+01
1.530000e-06	1.888167e-06	1.124010e-09	1.369412e+01	7.341084e+01
1.540000e-06	1.935194e-06	1.167638e-09	1.403519e+01	7.650820e+01
1.550000e-06	1.981868e-06	1.214029e-09	1.437369e+01	7.959072e+01
1.560000e-06	2.028169e-06	1.260524e-09	1.470950e+01	8.265720e+01
1.570000e-06	2.074069e-06	1.305464e-09	1.504239e+01	8.570636e+01
1.580000e-06	2.119591e-06	1.350355e-09	1.537254e+01	8.873683e+01
1.590000e-06	2.164797e-06	1.395544e-09	1.570041e+01	9.174709e+01
1.600000e-06	2.209664e-06	1.442223e-09	1.602581e+01	9.473545e+01
1.610000e-06	2.254169e-06	1.486151e-09	1.634858e+01	9.770005e+01
1.620000e-06	2.298265e-06	1.526571e-09	1.666840e+01	1.006388e+02
1.630000e-06	2.342047e-06	1.567096e-09	1.698593e+01	1.035496e+02
1.640000e-06	2.385577e-06	1.608531e-09	1.730163e+01	1.064302e+02
1.650000e-06	2.428841e-06	1.651767e-09	1.761541e+01	1.092781e+02
1.660000e-06	2.471811e-06	1.692572e-09	1.792705e+01	1.120911e+02
1.670000e-06	2.514243e-06	1.731775e-09	1.823480e+01	1.148668e+02
1.680000e-06	2.555891e-06	1.773014e-09	1.853685e+01	1.176033e+02
1.690000e-06	2.596763e-06	1.814439e-09	1.883328e+01	1.202985e+02
1.700000e-06	2.636991e-06	1.852627e-09	1.912504e+01	1.229509e+02
1.710000e-06	2.676788e-06	1.887607e-09	1.941367e+01	1.255588e+02
1.720000e-06	2.716247e-06	1.923510e-09	1.969985e+01	1.281213e+02
1.730000e-06	2.755379e-06	1.959786e-09	1.998365e+01	1.306375e+02
1.740000e-06	2.794114e-06	1.994284e-09	2.026459e+01	1.331068e+02
1.750000e-06	2.832353e-06	2.026698e-09	2.054192e+01	1.355289e+02
1.760000e-06	2.870059e-06	2.059301e-09	2.081539e+01	1.379036e+02
1.770000e-06	2.907197e-06	2.094499e-09	2.108473e+01	1.402307e+02
1.780000e-06	2.943823e-06	2.128676e-09	2.135037e+01	1.425104e+02
1.790000e-06	2.979981e-06	2.159497e-09	2.161261e+01	1.447427e+02
1.800000e-06	3.015750e-06	2.188743e-09	2.187202e+01	1.469274e+02
1.810000e-06	3.051214e-06	2.217965e-09	2.212923e+01	1.490646e+02
1.820000e-06	3.086260e-06	2.247355e-09	2.238340e+01	1.511540e+02
1.830000e-06	3.120653e-06	2.275716e-09	2.263284e+01	1.531953e+02
1.840000e-06	3.154215e-06	2.304093e-09	2.287625e+01	1.551880e+02
1.850000e-06	3.186944e-06	2.331962e-09	2.311362e+01	1.571315e+02
1.860000e-06	3.219039e-06	2.357680e-09	2.334640e+01	1.590254e+02
1.870000e-06	3.250631e-06	2.383858e-09	2.357552e+01	1.608690e+02
1.880000e-06	3.281737e-06	2.410601e-09	2.380112e+01	1.626619e+02
1.890000e-06	3.312372e-06	2.435900e-09	2.402331e+01	1.644036e+02
1.900000e-06	3.342471e-06	2.459691e-09	2.424160e+01	1.660940e+02
1.910000e-06	3.371983e-06	2.482868e-09	2.445564e+01	1.677331e+02
1.920000e-06	3.400854e-06	2.507057e-09	2.466503e+01	1.693212e+02
1.930000e-06	3.429134e-06	2.528909e-09	2.487013e+01	1.708588e+02
1.940000e-06	3.456968e-06	2.547453e-09	2.507200e+01	1.723467e+02
1.950000e-06	3.484411e-06	2.564697e-09	2.527103e+01	1.737861e+02
1.960000e-06	3.511361e-06	2.582216e-09	2.546649e+01	1.751783e+02
1.970000e-06	3.537565e-06	2.602003e-09	2.565654e+01	1.765246e+02
1.980000e-06	3.562854e-06	2.622230e-09	2.583995e+01	1.778268e+02
1.990000e-06	3.587271e-06	2.641408e-09	2.601704e+01	1.790863e+02
2.000000e-06	3.610995e-06	2.659425e-09	2.618910e+01	1.803047e+02
2.010000e-06	3.634134e-06	2.677626e-09	2.635692e+01	1.814835e+02
2.020000e-06	3.656695e-06	2.697042e-09	2.652054e+01	1.826238e+02
2.030000e-06	3.678626e-06	2.713822e-09	2.667960e+01	1.837267e+02
2.040000e-06	3.699860e-06	2.728430e-09	2.683360e+01	1.847928e+02
2.050000e-06	3.720462e-06	2.743427e-09	2.698302e+01	1.858227e+02
2.060000e-06	3.740531e-06	2.758511e-09	2.712857e+01	1.868166e+02
2.070000e-06	3.760168e-06	2.774094e-09	2.727099e+01	1.877743e+02
2.080000e-06	3.779395e-06	2.788471e-09	2.741043e+01	1.886955e+02
2.090000e-06	3.797992e-06	2.801509e-09	2.754531e+01	1.895800e+02
2.100000e-06	3.815806e-06	2.814006e-09	2.767451e+01	1.904271e+02
2.110000e-06	3.832874e-06	2.826012e-09	2.779830e+01	1.912365e+02
2.120000e-06	3.849298e-06	2.838841e-09	2.791741e+01	1.920077e+02
2.130000e-06	3.865103e-06	2.850138e-09	2.803204e+01	1.927403e+02
2.140000e-06	3.880163e-06	2.859910e-09	2.814126e+01	1.934343e+02
2.150000e-06	3.894348e-06	2.869675e-09	2.824414e+01	1.940897e+02
2.160000e-06	3.907703e-06	2.880686e-09	2.834100e+01	1.947068e+02
2.170000e-06	3.920336e-06	2.892109e-09	2.843262e+01	1.952860e+02
2.180000e-06	3.932286e-06	2.901499e-09	2.851929e+01	1.958280e+02
2.190000e-06	3.943551e-06	2.909538e-09	2.860099e+01	1.963337e+02
2.200000e-06	3.953976e-06	2.916975e-09	2.867660e+01	1.968038e+02
2.210000e-06	3.963378e-06	2.925766e-09	2.874479e+01	1.972394e+02
2.220000e-06	3.971846e-06	2.933794e-09	2.880620e+01	1.976412e+02
2.230000e-06	3.979606e-06	2.938020e-09	2.886248e+01	1.980100e+02
2.240000e-06	3.986776e-06	2.941112e-09	2.891449e+01	1.983466e+02
2.250000e-06	3.993355e-06	2.945818e-09	2.896220e+01	1.986514e+02
2.260000e-06	3.999285e-06	2.952426e-09	2.900521e+01	1.989245e+02
2.270000e-06	4.004514e-06	2.958449e-09	2.904314e+01	1.991662e+02
2.280000e-06	4.009000e-06	2.960529e-09	2.907567e+01	1.993764e+02
2.290000e-06	4.012917e-06	2.960470e-09	2.910407e+01	1.995548e+02
2.300000e-06	4.016363e-06	2.960776e-09	2.912907e+01	1.997012e+02
2.310000e-06	4.019168e-06	2.963314e-09	2.914941e+01	1.998154e+02
2.320000e-06	4.021031e-06	2.966258e-09	2.916292e+01	1.998972e+02
2.330000e-06	4.021869e-06	2.966218e-09	2.916900e+01	1.999466e+02
2.340000e-06	4.021903e-06	2.967008e-09	2.916925e+01	1.999638e+02
2.350000e-06	4.021320e-06	2.968030e-09	2.916502e+01	1.999494e+02
2.360000e-06	4.020145e-06	2.967019e-09	2.915650e+01	1.999042e+02
2.370000e-06	4.018354e-06	2.965489e-09	2.914351e+01	1.998294e+02
2.380000e-06	4.015953e-06	2.962511e-09	2.912610e+01	1.997264e+02
2.390000e-06	4.012890e-06	2.959870e-09	2.910388e+01	1.995971e+02
2.400000e-06	4.009188e-06	2.961102e-09	2.907703e+01	1.994433e+02
2.410000e-06	4.005006e-06	2.970910e-09	2.904670e+01	1.992673e+02
2.420000e-06	4.000404e-06	2.956426e-09	2.901332e+01	1.990710e+02
2.430000e-06	3.995077e-06	2.899461e-09	2.897469e+01	1.988567e+02
2.440000e-06	3.988574e-06	2.908117e-09	2.892753e+01	1.986260e+02
2.450000e-06	3.980917e-06	3.015331e-09	2.887199e+01	1.983806e+02
2.460000e-06	3.972607e-06	2.983339e-09	2.881172e+01	1.981215e+02
2.470000e-06	3.964017e-06	2.899586e-09	2.874942e+01	1.978495e+02
2.480000e-06	3.954852e-06	2.886673e-09	2.868295e+01	1.975646e+02
2.490000e-06	3.944711e-06	2.957588e-09	2.860940e+01	1.972666e+02
2.500000e-06	3.933964e-06	2.913155e-09	2.853146e+01	1.969544e+02
2.510000e-06	3.922878e-06	2.918937e-09	2.845106e+01	1.966268e+02
2.520000e-06	3.910930e-06	3.001553e-09	2.836440e+01	1.962820e+02
2.530000e-06	3.897810e-06	2.860809e-09	2.826925e+01	1.959179e+02
2.540000e-06	3.883874e-06	2.867838e-09	2.816818e+01	1.955324e+02
2.550000e-06	3.869268e-06	3.068977e-09	2.806225e+01	1.951232e+02
2.560000e-06	3.853784e-06	3.036467e-09	2.794995e+01	1.946882e+02
2.570000e-06	3.837457e-06	2.835927e-09	2.783153e+01	1.942255e+02
2.580000e-06	3.820510e-06	2.942700e-09	2.770863e+01	1.937335e+02
2.590000e-06	3.803028e-06	3.064386e-09	2.758184e+01	1.932109e+02
2.600000e-06	3.784898e-06	2.900927e-09	2.745035e+01	1.926571e+02
2.610000e-06	3.765995e-06	2.920900e-09	2.731325e+01	1.920719e+02
2.620000e-06	3.746416e-06	3.036095e-09	2.717125e+01	1.914553e+02
2.630000e-06	3.726315e-06	2.930335e-09	2.702547e+01	1.908081e+02
2.640000e-06	3.705669e-06	2.883395e-09	2.687573e+01	1.901314e+02
2.650000e-06	3.684428e-06	2.930754e-09	2.672168e+01	1.894263e+02
2.660000e-06	3.662587e-06	2.952469e-09	2.656327e+01	1.886943e+02
2.670000e-06	3.639858e-06	2.892197e-09	2.639843e+01	1.879369e+02
2.680000e-06	3.616248e-06	2.829421e-09	2.622719e+01	1.871554e+02
2.690000e-06	3.592037e-06	2.828664e-09	2.605161e+01	1.863511e+02
2.700000e-06	3.567183e-06	2.916561e-09	2.587135e+01	1.855248e+02
2.710000e-06	3.541695e-06	2.882245e-09	2.568650e+01	1.846772e+02
2.720000e-06	3.515602e-06	2.737590e-09	2.549725e+01	1.838085e+02
2.730000e-06	3.488910e-06	2.821639e-09	2.530367e+01	1.829185e+02
2.740000e-06	3.461659e-06	2.856975e-09	2.510602e+01	1.820067e+02
2.750000e-06	3.433868e-06	2.789050e-09	2.490446e+01	1.810722e+02
2.760000e-06	3.405606e-06	2.819718e-09	2.469950e+01	1.801140e+02
2.770000e-06	3.376903e-06	2.757758e-09	2.449132e+01	1.791310e+02
2.780000e-06	3.347570e-06	2.735608e-09	2.427858e+01	1.781219e+02
2.790000e-06	3.317294e-06	2.775125e-09	2.405900e+01	1.770856e+02
2.800000e-06	3.286111e-06	2.746177e-09	2.383285e+01	1.760211e+02
2.810000e-06	3.254297e-06	2.730930e-09	2.360211e+01	1.749278e+02
2.820000e-06	3.221987e-06	2.665772e-09	2.336778e+01	1.738054e+02
2.830000e-06	3.189184e-06	2.660942e-09	2.312988e+01	1.726537e+02
2.840000e-06	3.155827e-06	2.699996e-09	2.288794e+01	1.714732e+02
2.850000e-06	3.121938e-06	2.657163e-09	2.264217e+01	1.702646e+02
2.860000e-06	3.087549e-06	2.606827e-09	2.239275e+01	1.690290e+02
2.870000e-06	3.052617e-06	2.587278e-09	2.213941e+01	1.677675e+02
2.880000e-06	3.017158e-06	2.599057e-09	2.188223e+01	1.664816e+02
2.890000e-06	2.981265e-06	2.584192e-09	2.162192e+01	1.651726e+02
2.900000e-06	2.945000e-06	2.550003e-09	2.135890e+01	1.638420e+02
2.910000e-06	2.908391e-06	2.533214e-09	2.109339e+01	1.624908e+02
2.920000e-06	2.871197e-06	2.493917e-09	2.082364e+01	1.611201e+02
2.930000e-06	2.833264e-06	2.478567e-09	2.054853e+01	1.597302e+02
2.940000e-06	2.794552e-06	2.482516e-09	2.026776e+01	1.583216e+02
