# Temperatura_=_20.0
# Concentracion g/m^3_=_12600.0
# C_Vs_to_Am_M_A/Vsm_=_65563218390.804596
# pendiente_HvsI_1/m_=_3716.3
# ordenada_HvsI_A/m_=_1297.0
# frecuencia_Hz_=_213097.24451771367

Tiempo_(s)	Campo_(V.s)	Magnetizacion_(V.s)	Campo_(kA/m)	Magnetizacion_(A/m)
0.000000e+00	-4.000854e-06	-3.200669e-09	-2.907996e+01	-2.090968e+02
1.000000e-08	-4.001118e-06	-3.199295e-09	-2.908188e+01	-2.091327e+02
2.000000e-08	-4.000721e-06	-3.201047e-09	-2.907899e+01	-2.091375e+02
3.000000e-08	-3.999436e-06	-3.200093e-09	-2.906966e+01	-2.091096e+02
4.000000e-08	-3.997172e-06	-3.197030e-09	-2.905321e+01	-2.090477e+02
5.000000e-08	-3.994091e-06	-3.194889e-09	-2.903080e+01	-2.089509e+02
6.000000e-08	-3.990483e-06	-3.190846e-09	-2.900458e+01	-2.088189e+02
7.000000e-08	-3.986365e-06	-3.183556e-09	-2.897465e+01	-2.086520e+02
8.000000e-08	-3.981527e-06	-3.170360e-09	-2.893949e+01	-2.084515e+02
9.000000e-08	-3.975868e-06	-3.204730e-09	-2.889835e+01	-2.082191e+02
1.000000e-07	-3.969320e-06	-3.240922e-09	-2.885076e+01	-2.079573e+02
1.100000e-07	-3.962092e-06	-3.169011e-09	-2.879823e+01	-2.076692e+02
1.200000e-07	-3.954503e-06	-3.058890e-09	-2.874306e+01	-2.073583e+02
1.300000e-07	-3.946343e-06	-3.155805e-09	-2.868375e+01	-2.070284e+02
1.400000e-07	-3.937197e-06	-3.306433e-09	-2.861728e+01	-2.066834e+02
1.500000e-07	-3.927159e-06	-3.179554e-09	-2.854432e+01	-2.063268e+02
1.600000e-07	-3.916479e-06	-3.135515e-09	-2.846669e+01	-2.059621e+02
1.700000e-07	-3.904864e-06	-3.224541e-09	-2.838227e+01	-2.055921e+02
1.800000e-07	-3.892242e-06	-3.161876e-09	-2.829052e+01	-2.052186e+02
1.900000e-07	-3.879040e-06	-3.132829e-09	-2.819456e+01	-2.048428e+02
2.000000e-07	-3.865249e-06	-3.302858e-09	-2.809433e+01	-2.044649e+02
2.100000e-07	-3.850274e-06	-3.136151e-09	-2.798548e+01	-2.040839e+02
2.200000e-07	-3.834188e-06	-2.901070e-09	-2.786857e+01	-2.036979e+02
2.300000e-07	-3.817640e-06	-3.234570e-09	-2.774828e+01	-2.033042e+02
2.400000e-07	-3.800598e-06	-3.330471e-09	-2.762441e+01	-2.028990e+02
2.500000e-07	-3.782848e-06	-2.964921e-09	-2.749540e+01	-2.024782e+02
2.600000e-07	-3.764362e-06	-2.921162e-09	-2.736104e+01	-2.020370e+02
2.700000e-07	-3.745237e-06	-3.205532e-09	-2.722203e+01	-2.015706e+02
2.800000e-07	-3.725729e-06	-3.166891e-09	-2.708023e+01	-2.010739e+02
2.900000e-07	-3.705781e-06	-3.023669e-09	-2.693525e+01	-2.005425e+02
3.000000e-07	-3.685095e-06	-3.016671e-09	-2.678489e+01	-1.999721e+02
3.100000e-07	-3.663718e-06	-2.962085e-09	-2.662951e+01	-1.993593e+02
3.200000e-07	-3.641786e-06	-3.075892e-09	-2.647010e+01	-1.987014e+02
3.300000e-07	-3.619232e-06	-3.148389e-09	-2.630617e+01	-1.979964e+02
3.400000e-07	-3.596132e-06	-2.970405e-09	-2.613827e+01	-1.972436e+02
3.500000e-07	-3.572528e-06	-2.917237e-09	-2.596671e+01	-1.964429e+02
3.600000e-07	-3.548304e-06	-2.980306e-09	-2.579063e+01	-1.955953e+02
3.700000e-07	-3.523301e-06	-3.028587e-09	-2.560890e+01	-1.947025e+02
3.800000e-07	-3.497378e-06	-3.046422e-09	-2.542048e+01	-1.937666e+02
3.900000e-07	-3.470592e-06	-2.881118e-09	-2.522579e+01	-1.927904e+02
4.000000e-07	-3.443232e-06	-2.782954e-09	-2.502693e+01	-1.917770e+02
4.100000e-07	-3.415486e-06	-2.957364e-09	-2.482526e+01	-1.907294e+02
4.200000e-07	-3.387260e-06	-3.034814e-09	-2.462010e+01	-1.896508e+02
4.300000e-07	-3.358408e-06	-2.812079e-09	-2.441039e+01	-1.885438e+02
4.400000e-07	-3.328919e-06	-2.721847e-09	-2.419604e+01	-1.874109e+02
4.500000e-07	-3.298841e-06	-2.859319e-09	-2.397743e+01	-1.862541e+02
4.600000e-07	-3.268171e-06	-2.906037e-09	-2.375450e+01	-1.850747e+02
4.700000e-07	-3.237006e-06	-2.826334e-09	-2.352798e+01	-1.838738e+02
4.800000e-07	-3.205478e-06	-2.706467e-09	-2.329882e+01	-1.826517e+02
4.900000e-07	-3.173547e-06	-2.700101e-09	-2.306674e+01	-1.814082e+02
5.000000e-07	-3.141055e-06	-2.787040e-09	-2.283056e+01	-1.801430e+02
5.100000e-07	-3.107753e-06	-2.780631e-09	-2.258851e+01	-1.788552e+02
5.200000e-07	-3.073560e-06	-2.694702e-09	-2.233999e+01	-1.775438e+02
5.300000e-07	-3.038648e-06	-2.623356e-09	-2.208623e+01	-1.762080e+02
5.400000e-07	-3.003283e-06	-2.635409e-09	-2.182918e+01	-1.748466e+02
5.500000e-07	-2.967591e-06	-2.684178e-09	-2.156976e+01	-1.734589e+02
5.600000e-07	-2.931421e-06	-2.656653e-09	-2.130686e+01	-1.720442e+02
5.700000e-07	-2.894678e-06	-2.573141e-09	-2.103979e+01	-1.706022e+02
5.800000e-07	-2.857431e-06	-2.511663e-09	-2.076906e+01	-1.691327e+02
5.900000e-07	-2.819685e-06	-2.552041e-09	-2.049471e+01	-1.676361e+02
6.000000e-07	-2.781371e-06	-2.577604e-09	-2.021623e+01	-1.661127e+02
6.100000e-07	-2.742553e-06	-2.507565e-09	-1.993408e+01	-1.645632e+02
6.200000e-07	-2.703400e-06	-2.451566e-09	-1.964950e+01	-1.629886e+02
6.300000e-07	-2.663973e-06	-2.432399e-09	-1.936292e+01	-1.613896e+02
6.400000e-07	-2.624235e-06	-2.440377e-09	-1.907409e+01	-1.597671e+02
6.500000e-07	-2.584038e-06	-2.433551e-09	-1.878192e+01	-1.581221e+02
6.600000e-07	-2.543201e-06	-2.386493e-09	-1.848511e+01	-1.564551e+02
6.700000e-07	-2.501625e-06	-2.336522e-09	-1.818291e+01	-1.547666e+02
6.800000e-07	-2.459344e-06	-2.305592e-09	-1.787559e+01	-1.530568e+02
6.900000e-07	-2.416497e-06	-2.315770e-09	-1.756416e+01	-1.513257e+02
7.000000e-07	-2.373221e-06	-2.305233e-09	-1.724961e+01	-1.495730e+02
7.100000e-07	-2.329666e-06	-2.244636e-09	-1.693304e+01	-1.477980e+02
7.200000e-07	-2.285816e-06	-2.195011e-09	-1.661432e+01	-1.460001e+02
7.300000e-07	-2.241630e-06	-2.177763e-09	-1.629315e+01	-1.441784e+02
7.400000e-07	-2.197046e-06	-2.183284e-09	-1.596910e+01	-1.423319e+02
7.500000e-07	-2.152045e-06	-2.152221e-09	-1.564201e+01	-1.404595e+02
7.600000e-07	-2.106697e-06	-2.088929e-09	-1.531240e+01	-1.385602e+02
7.700000e-07	-2.060949e-06	-2.051261e-09	-1.497988e+01	-1.366332e+02
7.800000e-07	-2.014855e-06	-2.042525e-09	-1.464485e+01	-1.346778e+02
7.900000e-07	-1.968439e-06	-2.037178e-09	-1.430748e+01	-1.326933e+02
8.000000e-07	-1.921644e-06	-1.987103e-09	-1.396735e+01	-1.306795e+02
8.100000e-07	-1.874535e-06	-1.926225e-09	-1.362494e+01	-1.286360e+02
8.200000e-07	-1.827208e-06	-1.906021e-09	-1.328095e+01	-1.265631e+02
8.300000e-07	-1.779655e-06	-1.894619e-09	-1.293531e+01	-1.244610e+02
8.400000e-07	-1.731803e-06	-1.864422e-09	-1.258751e+01	-1.223300e+02
8.500000e-07	-1.683600e-06	-1.811677e-09	-1.223714e+01	-1.201708e+02
8.600000e-07	-1.634972e-06	-1.774007e-09	-1.188369e+01	-1.179839e+02
8.700000e-07	-1.585873e-06	-1.753237e-09	-1.152682e+01	-1.157700e+02
8.800000e-07	-1.536210e-06	-1.719383e-09	-1.116585e+01	-1.135298e+02
8.900000e-07	-1.486013e-06	-1.684672e-09	-1.080100e+01	-1.112640e+02
9.000000e-07	-1.435426e-06	-1.647833e-09	-1.043331e+01	-1.089731e+02
9.100000e-07	-1.384526e-06	-1.614040e-09	-1.006334e+01	-1.066577e+02
9.200000e-07	-1.333383e-06	-1.578643e-09	-9.691612e+00	-1.043183e+02
9.300000e-07	-1.281981e-06	-1.540759e-09	-9.317999e+00	-1.019552e+02
9.400000e-07	-1.230317e-06	-1.513367e-09	-8.942483e+00	-9.956874e+01
9.500000e-07	-1.178458e-06	-1.474363e-09	-8.565548e+00	-9.715919e+01
9.600000e-07	-1.126430e-06	-1.428973e-09	-8.187386e+00	-9.472674e+01
9.700000e-07	-1.074160e-06	-1.387977e-09	-7.807469e+00	-9.227155e+01
9.800000e-07	-1.021623e-06	-1.357778e-09	-7.425607e+00	-8.979380e+01
9.900000e-07	-9.688171e-07	-1.330211e-09	-7.041788e+00	-8.729362e+01
1.000000e-06	-9.158647e-07	-1.281623e-09	-6.656907e+00	-8.477116e+01
1.010000e-06	-8.628578e-07	-1.234168e-09	-6.271630e+00	-8.222658e+01
1.020000e-06	-8.097091e-07	-1.199543e-09	-5.885321e+00	-7.966002e+01
1.030000e-06	-7.564249e-07	-1.168612e-09	-5.498029e+00	-7.707162e+01
1.040000e-06	-7.029981e-07	-1.129960e-09	-5.109699e+00	-7.446149e+01
1.050000e-06	-6.494484e-07	-1.075866e-09	-4.720476e+00	-7.182973e+01
1.060000e-06	-5.958557e-07	-1.030669e-09	-4.330941e+00	-6.917638e+01
1.070000e-06	-5.422451e-07	-9.990579e-10	-3.941276e+00	-6.650143e+01
1.080000e-06	-4.885996e-07	-9.658620e-10	-3.551356e+00	-6.380481e+01
1.090000e-06	-4.348685e-07	-9.212639e-10	-3.160815e+00	-6.108641e+01
1.100000e-06	-3.809933e-07	-8.675142e-10	-2.769226e+00	-5.834605e+01
1.110000e-06	-3.270000e-07	-8.301156e-10	-2.376780e+00	-5.558354e+01
1.120000e-06	-2.729763e-07	-7.987294e-10	-1.984112e+00	-5.279864e+01
1.130000e-06	-2.189023e-07	-7.562692e-10	-1.591078e+00	-4.999116e+01
1.140000e-06	-1.647897e-07	-7.068919e-10	-1.197764e+00	-4.716092e+01
1.150000e-06	-1.106885e-07	-6.586391e-10	-8.045324e-01	-4.430783e+01
1.160000e-06	-5.661140e-08	-6.180069e-10	-4.114765e-01	-4.143188e+01
1.170000e-06	-2.522264e-09	-5.740921e-10	-1.833292e-02	-3.853321e+01
1.180000e-06	5.166188e-08	-5.265913e-10	3.755013e-01	-3.561206e+01
1.190000e-06	1.058309e-07	-4.799857e-10	7.692258e-01	-3.266887e+01
1.200000e-06	1.599002e-07	-4.328402e-10	1.162225e+00	-2.970420e+01
1.210000e-06	2.139630e-07	-3.886973e-10	1.555177e+00	-2.671877e+01
1.220000e-06	2.679807e-07	-3.436121e-10	1.947801e+00	-2.371341e+01
1.230000e-06	3.219282e-07	-2.989743e-10	2.339915e+00	-2.068907e+01
1.240000e-06	3.758657e-07	-2.502235e-10	2.731957e+00	-1.764674e+01
1.250000e-06	4.297352e-07	-1.977819e-10	3.123504e+00	-1.458744e+01
1.260000e-06	4.835074e-07	-1.520853e-10	3.514344e+00	-1.151217e+01
1.270000e-06	5.372012e-07	-1.054709e-10	3.904614e+00	-8.421867e+00
1.280000e-06	5.908169e-07	-5.971052e-11	4.294316e+00	-5.317361e+00
1.290000e-06	6.443839e-07	-9.461721e-12	4.683665e+00	-2.199369e+00
1.300000e-06	6.978051e-07	4.194803e-11	5.071954e+00	9.315411e-01
1.310000e-06	7.510655e-07	8.701542e-11	5.459074e+00	4.074949e+00
1.320000e-06	8.042111e-07	1.302967e-10	5.845360e+00	7.230578e+00
1.330000e-06	8.572458e-07	1.776323e-10	6.230839e+00	1.039827e+01
1.340000e-06	9.101379e-07	2.315123e-10	6.615282e+00	1.357798e+01
1.350000e-06	9.628145e-07	2.851164e-10	6.998159e+00	1.676967e+01
1.360000e-06	1.015326e-06	3.304923e-10	7.379835e+00	1.997335e+01
1.370000e-06	1.067610e-06	3.765907e-10	7.759859e+00	2.318896e+01
1.380000e-06	1.119631e-06	4.275659e-10	8.137968e+00	2.641634e+01
1.390000e-06	1.171457e-06	4.804336e-10	8.514662e+00	2.965519e+01
1.400000e-06	1.223084e-06	5.290108e-10	8.889910e+00	3.290503e+01
1.410000e-06	1.274506e-06	5.745692e-10	9.263671e+00	3.616516e+01
1.420000e-06	1.325745e-06	6.250993e-10	9.636098e+00	3.943463e+01
1.430000e-06	1.376724e-06	6.761280e-10	1.000663e+01	4.271228e+01
1.440000e-06	1.427361e-06	7.283472e-10	1.037468e+01	4.599672e+01
1.450000e-06	1.477639e-06	7.769320e-10	1.074013e+01	4.928632e+01
1.460000e-06	1.527421e-06	8.231328e-10	1.110197e+01	5.257933e+01
1.470000e-06	1.576683e-06	8.714015e-10	1.146002e+01	5.587381e+01
1.480000e-06	1.625413e-06	9.222610e-10	1.181422e+01	5.916778e+01
1.490000e-06	1.673760e-06	9.729686e-10	1.216562e+01	6.245918e+01
1.500000e-06	1.721841e-06	1.021699e-09	1.251510e+01	6.574597e+01
1.510000e-06	1.769651e-06	1.068702e-09	1.286260e+01	6.902613e+01
1.520000e-06	1.817257e-06	1.118005e-09	1.320863e+01	7.229773e+01
1.530000e-06	1.864577e-06	1.168533e-09	1.355256e+01	7.555887e+01
1.540000e-06	1.911602e-06	1.220184e-09	1.389437e+01	7.880779e+01
1.550000e-06	1.958334e-06	1.268053e-09	1.423403e+01	8.204275e+01
1.560000e-06	2.004710e-06	1.313148e-09	1.457111e+01	8.526211e+01
1.570000e-06	2.050659e-06	1.360552e-09	1.490509e+01	8.846423e+01
1.580000e-06	2.096210e-06	1.410964e-09	1.523617e+01	9.164749e+01
1.590000e-06	2.141471e-06	1.462241e-09	1.556515e+01	9.481023e+01
1.600000e-06	2.186438e-06	1.507289e-09	1.589199e+01	9.795071e+01
1.610000e-06	2.230983e-06	1.550429e-09	1.621576e+01	1.010671e+02
1.620000e-06	2.275157e-06	1.595475e-09	1.653684e+01	1.041575e+02
1.630000e-06	2.319042e-06	1.640640e-09	1.685582e+01	1.072198e+02
1.640000e-06	2.362664e-06	1.684215e-09	1.717288e+01	1.102519e+02
1.650000e-06	2.405997e-06	1.725421e-09	1.748784e+01	1.132514e+02
1.660000e-06	2.448977e-06	1.767743e-09	1.780024e+01	1.162162e+02
1.670000e-06	2.491496e-06	1.813042e-09	1.810929e+01	1.191439e+02
1.680000e-06	2.533292e-06	1.860257e-09	1.841308e+01	1.220322e+02
1.690000e-06	2.574219e-06	1.905191e-09	1.871055e+01	1.248789e+02
1.700000e-06	2.614514e-06	1.943635e-09	1.900343e+01	1.276821e+02
1.710000e-06	2.654386e-06	1.980935e-09	1.929324e+01	1.304399e+02
1.720000e-06	2.693899e-06	2.021112e-09	1.958044e+01	1.331508e+02
1.730000e-06	2.733083e-06	2.061557e-09	1.986525e+01	1.358134e+02
1.740000e-06	2.771845e-06	2.098929e-09	2.014699e+01	1.384270e+02
1.750000e-06	2.810103e-06	2.131471e-09	2.042506e+01	1.409908e+02
1.760000e-06	2.847906e-06	2.166388e-09	2.069983e+01	1.435044e+02
1.770000e-06	2.885216e-06	2.206019e-09	2.097102e+01	1.459678e+02
1.780000e-06	2.921944e-06	2.245089e-09	2.123797e+01	1.483810e+02
1.790000e-06	2.958186e-06	2.279194e-09	2.150140e+01	1.507443e+02
1.800000e-06	2.994029e-06	2.310672e-09	2.176192e+01	1.530578e+02
1.810000e-06	3.029588e-06	2.343713e-09	2.202038e+01	1.553220e+02
1.820000e-06	3.064842e-06	2.375636e-09	2.227662e+01	1.575369e+02
1.830000e-06	3.099477e-06	2.405305e-09	2.252836e+01	1.597027e+02
1.840000e-06	3.133288e-06	2.434164e-09	2.277411e+01	1.618193e+02
1.850000e-06	3.166288e-06	2.464187e-09	2.301397e+01	1.638864e+02
1.860000e-06	3.198561e-06	2.495678e-09	2.324854e+01	1.659035e+02
1.870000e-06	3.230295e-06	2.526343e-09	2.347920e+01	1.678700e+02
1.880000e-06	3.261614e-06	2.552934e-09	2.370684e+01	1.697852e+02
1.890000e-06	3.292452e-06	2.576292e-09	2.393099e+01	1.716481e+02
1.900000e-06	3.322719e-06	2.600267e-09	2.415098e+01	1.734580e+02
1.910000e-06	3.352408e-06	2.626564e-09	2.436677e+01	1.752140e+02
1.920000e-06	3.381496e-06	2.651883e-09	2.457820e+01	1.769157e+02
1.930000e-06	3.409999e-06	2.673620e-09	2.478537e+01	1.785625e+02
1.940000e-06	3.438009e-06	2.693283e-09	2.498896e+01	1.801544e+02
1.950000e-06	3.465657e-06	2.714115e-09	2.518992e+01	1.816918e+02
1.960000e-06	3.492926e-06	2.736046e-09	2.538812e+01	1.831753e+02
1.970000e-06	3.519528e-06	2.756300e-09	2.558147e+01	1.846060e+02
1.980000e-06	3.545137e-06	2.774533e-09	2.576761e+01	1.859853e+02
1.990000e-06	3.569751e-06	2.793173e-09	2.594651e+01	1.873149e+02
2.000000e-06	3.593664e-06	2.813291e-09	2.612033e+01	1.885970e+02
2.010000e-06	3.617024e-06	2.832856e-09	2.629012e+01	1.898335e+02
2.020000e-06	3.639762e-06	2.850090e-09	2.645539e+01	1.910268e+02
2.030000e-06	3.661876e-06	2.865322e-09	2.661612e+01	1.921789e+02
2.040000e-06	3.683398e-06	2.881127e-09	2.677256e+01	1.932918e+02
2.050000e-06	3.704201e-06	2.899306e-09	2.692376e+01	1.943672e+02
2.060000e-06	3.724380e-06	2.916791e-09	2.707043e+01	1.954064e+02
2.070000e-06	3.744160e-06	2.930315e-09	2.721420e+01	1.964103e+02
2.080000e-06	3.763539e-06	2.943194e-09	2.735506e+01	1.973793e+02
2.090000e-06	3.782353e-06	2.957072e-09	2.749180e+01	1.983136e+02
2.100000e-06	3.800381e-06	2.971105e-09	2.762284e+01	1.992126e+02
2.110000e-06	3.817653e-06	2.984680e-09	2.774838e+01	2.000756e+02
2.120000e-06	3.834306e-06	2.997271e-09	2.786942e+01	2.009016e+02
2.130000e-06	3.850283e-06	3.008766e-09	2.798555e+01	2.016895e+02
2.140000e-06	3.865499e-06	3.020679e-09	2.809615e+01	2.024380e+02
2.150000e-06	3.879894e-06	3.033584e-09	2.820078e+01	2.031460e+02
2.160000e-06	3.893566e-06	3.046444e-09	2.830015e+01	2.038126e+02
2.170000e-06	3.906540e-06	3.057144e-09	2.839445e+01	2.044373e+02
2.180000e-06	3.918775e-06	3.063256e-09	2.848338e+01	2.050198e+02
2.190000e-06	3.930383e-06	3.071533e-09	2.856775e+01	2.055604e+02
2.200000e-06	3.941192e-06	3.083352e-09	2.864632e+01	2.060599e+02
2.210000e-06	3.951012e-06	3.093077e-09	2.871769e+01	2.065195e+02
2.220000e-06	3.959849e-06	3.099997e-09	2.878192e+01	2.069407e+02
2.230000e-06	3.967885e-06	3.105361e-09	2.884033e+01	2.073255e+02
2.240000e-06	3.975328e-06	3.112846e-09	2.889443e+01	2.076760e+02
2.250000e-06	3.982139e-06	3.121367e-09	2.894393e+01	2.079944e+02
2.260000e-06	3.988287e-06	3.127223e-09	2.898862e+01	2.082829e+02
2.270000e-06	3.993724e-06	3.129439e-09	2.902814e+01	2.085434e+02
2.280000e-06	3.998467e-06	3.132269e-09	2.906261e+01	2.087776e+02
2.290000e-06	4.002641e-06	3.138875e-09	2.909296e+01	2.089866e+02
2.300000e-06	4.006298e-06	3.145241e-09	2.911954e+01	2.091713e+02
2.310000e-06	4.009377e-06	3.147712e-09	2.914192e+01	2.093318e+02
2.320000e-06	4.011595e-06	3.149373e-09	2.915804e+01	2.094676e+02
2.330000e-06	4.012790e-06	3.151573e-09	2.916672e+01	2.095780e+02
2.340000e-06	4.013138e-06	3.155118e-09	2.916925e+01	2.096617e+02
2.350000e-06	4.012948e-06	3.158180e-09	2.916787e+01	2.097171e+02
2.360000e-06	4.012224e-06	3.156264e-09	2.916261e+01	2.097425e+02
2.370000e-06	4.010790e-06	3.150504e-09	2.915218e+01	2.097362e+02
2.380000e-06	4.008697e-06	3.148254e-09	2.913697e+01	2.096967e+02
2.390000e-06	4.005999e-06	3.147050e-09	2.911736e+01	2.096228e+02
2.400000e-06	4.002580e-06	3.145457e-09	2.909251e+01	2.095138e+02
2.410000e-06	3.998583e-06	3.148838e-09	2.906346e+01	2.093697e+02
2.420000e-06	3.994235e-06	3.165594e-09	2.903185e+01	2.091911e+02
2.430000e-06	3.989280e-06	3.116189e-09	2.899584e+01	2.089794e+02
2.440000e-06	3.983210e-06	3.058432e-09	2.895172e+01	2.087365e+02
2.450000e-06	3.975882e-06	3.165540e-09	2.889846e+01	2.084653e+02
2.460000e-06	3.967769e-06	3.261827e-09	2.883949e+01	2.081690e+02
2.470000e-06	3.959399e-06	3.142698e-09	2.877865e+01	2.078512e+02
2.480000e-06	3.950646e-06	2.983502e-09	2.871503e+01	2.075157e+02
2.490000e-06	3.940903e-06	3.118530e-09	2.864421e+01	2.071664e+02
2.500000e-06	3.930262e-06	3.153572e-09	2.856687e+01	2.068068e+02
2.510000e-06	3.919390e-06	3.034394e-09	2.848785e+01	2.064401e+02
2.520000e-06	3.907932e-06	3.129937e-09	2.840456e+01	2.060688e+02
2.530000e-06	3.895233e-06	3.137877e-09	2.831226e+01	2.056946e+02
2.540000e-06	3.881612e-06	2.940084e-09	2.821326e+01	2.053183e+02
2.550000e-06	3.867394e-06	3.110506e-09	2.810992e+01	2.049396e+02
2.560000e-06	3.852262e-06	3.332971e-09	2.799993e+01	2.045573e+02
2.570000e-06	3.836222e-06	2.941832e-09	2.788335e+01	2.041692e+02
2.580000e-06	3.819620e-06	2.807220e-09	2.776268e+01	2.037720e+02
2.590000e-06	3.802418e-06	3.214830e-09	2.763764e+01	2.033621e+02
2.600000e-06	3.784528e-06	3.194506e-09	2.750761e+01	2.029349e+02
2.610000e-06	3.765943e-06	2.846799e-09	2.737253e+01	2.024856e+02
2.620000e-06	3.746601e-06	3.034833e-09	2.723194e+01	2.020093e+02
2.630000e-06	3.726671e-06	3.210049e-09	2.708708e+01	2.015011e+02
2.640000e-06	3.706338e-06	3.068863e-09	2.693930e+01	2.009567e+02
2.650000e-06	3.685417e-06	3.120292e-09	2.678723e+01	2.003720e+02
2.660000e-06	3.663852e-06	3.009530e-09	2.663049e+01	1.997438e+02
2.670000e-06	3.641503e-06	2.899939e-09	2.646804e+01	1.990697e+02
2.680000e-06	3.618160e-06	3.090357e-09	2.629838e+01	1.983482e+02
2.690000e-06	3.594157e-06	3.093415e-09	2.612391e+01	1.975788e+02
2.700000e-06	3.569692e-06	2.980383e-09	2.594609e+01	1.967617e+02
2.710000e-06	3.544546e-06	2.930787e-09	2.576332e+01	1.958982e+02
2.720000e-06	3.518718e-06	2.867947e-09	2.557559e+01	1.949901e+02
2.730000e-06	3.492310e-06	3.018698e-09	2.538364e+01	1.940400e+02
2.740000e-06	3.465337e-06	3.124755e-09	2.518759e+01	1.930506e+02
2.750000e-06	3.437826e-06	2.838468e-09	2.498763e+01	1.920250e+02
2.760000e-06	3.409836e-06	2.767064e-09	2.478418e+01	1.909664e+02
2.770000e-06	3.381431e-06	3.022068e-09	2.457773e+01	1.898777e+02
2.780000e-06	3.352469e-06	2.998530e-09	2.436722e+01	1.887616e+02
2.790000e-06	3.322642e-06	2.843642e-09	2.415042e+01	1.876203e+02
2.800000e-06	3.291808e-06	2.781798e-09	2.392630e+01	1.864556e+02
2.810000e-06	3.260220e-06	2.806016e-09	2.369671e+01	1.852688e+02
2.820000e-06	3.228153e-06	2.918083e-09	2.346364e+01	1.840606e+02
2.830000e-06	3.195657e-06	2.832417e-09	2.322744e+01	1.828312e+02
2.840000e-06	3.162660e-06	2.728134e-09	2.298760e+01	1.815804e+02
2.850000e-06	3.129130e-06	2.753158e-09	2.274389e+01	1.803075e+02
2.860000e-06	3.095092e-06	2.740187e-09	2.249649e+01	1.790117e+02
2.870000e-06	3.060517e-06	2.761648e-09	2.224518e+01	1.776921e+02
2.880000e-06	3.025373e-06	2.730936e-09	2.198974e+01	1.763476e+02
2.890000e-06	2.989723e-06	2.657341e-09	2.173062e+01	1.749772e+02
2.900000e-06	2.953705e-06	2.641482e-09	2.146882e+01	1.735803e+02
2.910000e-06	2.917360e-06	2.644752e-09	2.120465e+01	1.721562e+02
2.920000e-06	2.880602e-06	2.670029e-09	2.093748e+01	1.707047e+02
2.930000e-06	2.843228e-06	2.602836e-09	2.066583e+01	1.692259e+02
2.940000e-06	2.805047e-06	2.532428e-09	2.038832e+01	1.677200e+02
