# Temperatura_=_20.0
# Concentracion g/m^3_=_12600.0
# C_Vs_to_Am_M_A/Vsm_=_65563218390.804596
# pendiente_HvsI_1/m_=_3716.3
# ordenada_HvsI_A/m_=_1297.0
# frecuencia_Hz_=_213099.16716262154

Tiempo_(s)	Campo_(V.s)	Magnetizacion_(V.s)	Campo_(kA/m)	Magnetizacion_(A/m)
0.000000e+00	-3.989760e-06	-3.388669e-09	-2.907823e+01	-2.216658e+02
1.000000e-08	-3.990064e-06	-3.388086e-09	-2.908044e+01	-2.216696e+02
2.000000e-08	-3.989727e-06	-3.392057e-09	-2.907798e+01	-2.216340e+02
3.000000e-08	-3.988410e-06	-3.393996e-09	-2.906838e+01	-2.215596e+02
4.000000e-08	-3.986096e-06	-3.387499e-09	-2.905152e+01	-2.214473e+02
5.000000e-08	-3.982996e-06	-3.382761e-09	-2.902893e+01	-2.212989e+02
6.000000e-08	-3.979393e-06	-3.380477e-09	-2.900267e+01	-2.211170e+02
7.000000e-08	-3.975355e-06	-3.365978e-09	-2.897323e+01	-2.209046e+02
8.000000e-08	-3.970618e-06	-3.338750e-09	-2.893872e+01	-2.206656e+02
9.000000e-08	-3.965011e-06	-3.380839e-09	-2.889785e+01	-2.204038e+02
1.000000e-07	-3.958550e-06	-3.490645e-09	-2.885076e+01	-2.201236e+02
1.100000e-07	-3.951328e-06	-3.444180e-09	-2.879812e+01	-2.198293e+02
1.200000e-07	-3.943651e-06	-3.195483e-09	-2.874217e+01	-2.195246e+02
1.300000e-07	-3.935594e-06	-3.193652e-09	-2.868345e+01	-2.192132e+02
1.400000e-07	-3.926663e-06	-3.471102e-09	-2.861836e+01	-2.188978e+02
1.500000e-07	-3.916640e-06	-3.501785e-09	-2.854531e+01	-2.185803e+02
1.600000e-07	-3.905867e-06	-3.291803e-09	-2.846679e+01	-2.182615e+02
1.700000e-07	-3.894289e-06	-3.348029e-09	-2.838241e+01	-2.179413e+02
1.800000e-07	-3.881659e-06	-3.323145e-09	-2.829036e+01	-2.176183e+02
1.900000e-07	-3.868456e-06	-3.227067e-09	-2.819414e+01	-2.172900e+02
2.000000e-07	-3.854917e-06	-3.528028e-09	-2.809546e+01	-2.169531e+02
2.100000e-07	-3.840173e-06	-3.505370e-09	-2.798800e+01	-2.166031e+02
2.200000e-07	-3.824011e-06	-3.062091e-09	-2.787021e+01	-2.162352e+02
2.300000e-07	-3.807330e-06	-3.211686e-09	-2.774863e+01	-2.158440e+02
2.400000e-07	-3.790340e-06	-3.685104e-09	-2.762481e+01	-2.154239e+02
2.500000e-07	-3.772667e-06	-3.375439e-09	-2.749600e+01	-2.149697e+02
2.600000e-07	-3.754240e-06	-2.959523e-09	-2.736170e+01	-2.144761e+02
2.700000e-07	-3.735157e-06	-3.250921e-09	-2.722263e+01	-2.139389e+02
2.800000e-07	-3.715618e-06	-3.439961e-09	-2.708022e+01	-2.133543e+02
2.900000e-07	-3.695715e-06	-3.250256e-09	-2.693516e+01	-2.127196e+02
3.000000e-07	-3.675204e-06	-3.193732e-09	-2.678567e+01	-2.120331e+02
3.100000e-07	-3.653973e-06	-3.192225e-09	-2.663094e+01	-2.112941e+02
3.200000e-07	-3.632190e-06	-3.212215e-09	-2.647218e+01	-2.105032e+02
3.300000e-07	-3.609742e-06	-3.251194e-09	-2.630857e+01	-2.096617e+02
3.400000e-07	-3.586600e-06	-3.203836e-09	-2.613991e+01	-2.087718e+02
3.500000e-07	-3.563027e-06	-3.187711e-09	-2.596810e+01	-2.078364e+02
3.600000e-07	-3.538960e-06	-3.178298e-09	-2.579269e+01	-2.068587e+02
3.700000e-07	-3.514125e-06	-3.092496e-09	-2.561169e+01	-2.058424e+02
3.800000e-07	-3.488406e-06	-3.141805e-09	-2.542425e+01	-2.047910e+02
3.900000e-07	-3.461782e-06	-3.221743e-09	-2.523021e+01	-2.037080e+02
4.000000e-07	-3.434474e-06	-3.054021e-09	-2.503118e+01	-2.025964e+02
4.100000e-07	-3.406798e-06	-3.000335e-09	-2.482947e+01	-2.014588e+02
4.200000e-07	-3.378724e-06	-3.122941e-09	-2.462487e+01	-2.002973e+02
4.300000e-07	-3.350009e-06	-3.059683e-09	-2.441558e+01	-1.991133e+02
4.400000e-07	-3.320578e-06	-2.980320e-09	-2.420108e+01	-1.979074e+02
4.500000e-07	-3.290595e-06	-3.018461e-09	-2.398256e+01	-1.966800e+02
4.600000e-07	-3.260075e-06	-3.013325e-09	-2.376012e+01	-1.954306e+02
4.700000e-07	-3.228994e-06	-2.956183e-09	-2.353360e+01	-1.941585e+02
4.800000e-07	-3.197534e-06	-2.925961e-09	-2.330431e+01	-1.928627e+02
4.900000e-07	-3.165791e-06	-2.948783e-09	-2.307296e+01	-1.915419e+02
5.000000e-07	-3.133533e-06	-2.937190e-09	-2.283786e+01	-1.901951e+02
5.100000e-07	-3.100401e-06	-2.878996e-09	-2.259639e+01	-1.888211e+02
5.200000e-07	-3.066263e-06	-2.843772e-09	-2.234758e+01	-1.874191e+02
5.300000e-07	-3.031350e-06	-2.851892e-09	-2.209312e+01	-1.859887e+02
5.400000e-07	-2.995968e-06	-2.851177e-09	-2.183525e+01	-1.845297e+02
5.500000e-07	-2.960262e-06	-2.799694e-09	-2.157502e+01	-1.830422e+02
5.600000e-07	-2.924245e-06	-2.766500e-09	-2.131252e+01	-1.815268e+02
5.700000e-07	-2.887706e-06	-2.746564e-09	-2.104622e+01	-1.799842e+02
5.800000e-07	-2.850542e-06	-2.714285e-09	-2.077536e+01	-1.784156e+02
5.900000e-07	-2.812897e-06	-2.722489e-09	-2.050100e+01	-1.768220e+02
6.000000e-07	-2.774759e-06	-2.705258e-09	-2.022304e+01	-1.752045e+02
6.100000e-07	-2.736084e-06	-2.633886e-09	-1.994117e+01	-1.735643e+02
6.200000e-07	-2.696928e-06	-2.595788e-09	-1.965579e+01	-1.719021e+02
6.300000e-07	-2.657482e-06	-2.620095e-09	-1.936830e+01	-1.702186e+02
6.400000e-07	-2.617832e-06	-2.619505e-09	-1.907932e+01	-1.685140e+02
6.500000e-07	-2.577809e-06	-2.541524e-09	-1.878762e+01	-1.667881e+02
6.600000e-07	-2.537189e-06	-2.484501e-09	-1.849158e+01	-1.650406e+02
6.700000e-07	-2.495804e-06	-2.490627e-09	-1.818995e+01	-1.632707e+02
6.800000e-07	-2.453681e-06	-2.498459e-09	-1.788295e+01	-1.614773e+02
6.900000e-07	-2.410933e-06	-2.456566e-09	-1.757139e+01	-1.596592e+02
7.000000e-07	-2.367718e-06	-2.381696e-09	-1.725644e+01	-1.578150e+02
7.100000e-07	-2.324224e-06	-2.355377e-09	-1.693944e+01	-1.559433e+02
7.200000e-07	-2.280506e-06	-2.367976e-09	-1.662082e+01	-1.540428e+02
7.300000e-07	-2.236497e-06	-2.347787e-09	-1.630007e+01	-1.521124e+02
7.400000e-07	-2.192114e-06	-2.283773e-09	-1.597659e+01	-1.501510e+02
7.500000e-07	-2.147280e-06	-2.230464e-09	-1.564984e+01	-1.481582e+02
7.600000e-07	-2.102037e-06	-2.228107e-09	-1.532010e+01	-1.461336e+02
7.700000e-07	-2.056458e-06	-2.216276e-09	-1.498790e+01	-1.440772e+02
7.800000e-07	-2.010479e-06	-2.166564e-09	-1.465280e+01	-1.419895e+02
7.900000e-07	-1.964177e-06	-2.119304e-09	-1.431534e+01	-1.398710e+02
8.000000e-07	-1.917535e-06	-2.088700e-09	-1.397541e+01	-1.377226e+02
8.100000e-07	-1.870498e-06	-2.066279e-09	-1.363259e+01	-1.355453e+02
8.200000e-07	-1.823224e-06	-2.034332e-09	-1.328805e+01	-1.333403e+02
8.300000e-07	-1.775792e-06	-1.997922e-09	-1.294236e+01	-1.311085e+02
8.400000e-07	-1.728091e-06	-1.957639e-09	-1.259470e+01	-1.288509e+02
8.500000e-07	-1.680022e-06	-1.912406e-09	-1.224436e+01	-1.265685e+02
8.600000e-07	-1.631633e-06	-1.882745e-09	-1.189169e+01	-1.242617e+02
8.700000e-07	-1.582854e-06	-1.856356e-09	-1.153618e+01	-1.219311e+02
8.800000e-07	-1.533588e-06	-1.817744e-09	-1.117712e+01	-1.195767e+02
8.900000e-07	-1.483771e-06	-1.770359e-09	-1.081404e+01	-1.171986e+02
9.000000e-07	-1.433440e-06	-1.732381e-09	-1.044722e+01	-1.147964e+02
9.100000e-07	-1.382753e-06	-1.713001e-09	-1.007780e+01	-1.123697e+02
9.200000e-07	-1.331723e-06	-1.681949e-09	-9.705886e+00	-1.099179e+02
9.300000e-07	-1.280407e-06	-1.633715e-09	-9.331878e+00	-1.074406e+02
9.400000e-07	-1.228900e-06	-1.586202e-09	-8.956490e+00	-1.049371e+02
9.500000e-07	-1.177176e-06	-1.550711e-09	-8.579514e+00	-1.024070e+02
9.600000e-07	-1.125278e-06	-1.524598e-09	-8.201267e+00	-9.984988e+01
9.700000e-07	-1.073272e-06	-1.483531e-09	-7.822237e+00	-9.726562e+01
9.800000e-07	-1.021054e-06	-1.431836e-09	-7.441660e+00	-9.465420e+01
9.900000e-07	-9.685586e-07	-1.388131e-09	-7.059063e+00	-9.201579e+01
1.000000e-06	-9.158585e-07	-1.358503e-09	-6.674973e+00	-8.935075e+01
1.010000e-06	-8.629903e-07	-1.329186e-09	-6.289658e+00	-8.665958e+01
1.020000e-06	-8.099932e-07	-1.280043e-09	-5.903403e+00	-8.394286e+01
1.030000e-06	-7.568648e-07	-1.227653e-09	-5.516193e+00	-8.120126e+01
1.040000e-06	-7.036058e-07	-1.185571e-09	-5.128030e+00	-7.843541e+01
1.050000e-06	-6.502592e-07	-1.149466e-09	-4.739228e+00	-7.564595e+01
1.060000e-06	-5.968079e-07	-1.107004e-09	-4.349663e+00	-7.283338e+01
1.070000e-06	-5.432676e-07	-1.052740e-09	-3.959451e+00	-6.999813e+01
1.080000e-06	-4.896509e-07	-1.006726e-09	-3.568681e+00	-6.714046e+01
1.090000e-06	-4.359626e-07	-9.697362e-10	-3.177389e+00	-6.426051e+01
1.100000e-06	-3.822294e-07	-9.293916e-10	-2.785769e+00	-6.135829e+01
1.110000e-06	-3.284393e-07	-8.839001e-10	-2.393736e+00	-5.843371e+01
1.120000e-06	-2.745974e-07	-8.367683e-10	-2.001325e+00	-5.548661e+01
1.130000e-06	-2.207248e-07	-7.935421e-10	-1.608690e+00	-5.251682e+01
1.140000e-06	-1.667933e-07	-7.472113e-10	-1.215625e+00	-4.952421e+01
1.150000e-06	-1.128460e-07	-7.008584e-10	-8.224458e-01	-4.650872e+01
1.160000e-06	-5.887628e-08	-6.560472e-10	-4.291029e-01	-4.347041e+01
1.170000e-06	-4.861664e-09	-6.061167e-10	-3.543285e-02	-4.040952e+01
1.180000e-06	4.911223e-08	-5.553697e-10	3.579405e-01	-3.732646e+01
1.190000e-06	1.030705e-07	-5.086103e-10	7.511998e-01	-3.422182e+01
1.200000e-06	1.570202e-07	-4.661127e-10	1.144397e+00	-3.109638e+01
1.210000e-06	2.109272e-07	-4.175604e-10	1.537283e+00	-2.795107e+01
1.220000e-06	2.647970e-07	-3.609399e-10	1.929897e+00	-2.478691e+01
1.230000e-06	3.187026e-07	-3.095872e-10	2.322773e+00	-2.160499e+01
1.240000e-06	3.725879e-07	-2.647167e-10	2.715500e+00	-1.840639e+01
1.250000e-06	4.263113e-07	-2.193798e-10	3.107048e+00	-1.519212e+01
1.260000e-06	4.799100e-07	-1.656939e-10	3.497687e+00	-1.196308e+01
1.270000e-06	5.334949e-07	-1.067705e-10	3.888225e+00	-8.719962e+00
1.280000e-06	5.870151e-07	-5.742118e-11	4.278292e+00	-5.463274e+00
1.290000e-06	6.404086e-07	-1.265213e-11	4.667435e+00	-2.193273e+00
1.300000e-06	6.937137e-07	3.893720e-11	5.055934e+00	1.090020e+00
1.310000e-06	7.469309e-07	9.917341e-11	5.443792e+00	4.386804e+00
1.320000e-06	8.000360e-07	1.518894e-10	5.830834e+00	7.697461e+00
1.330000e-06	8.529698e-07	1.937336e-10	6.216627e+00	1.102250e+01
1.340000e-06	9.057538e-07	2.414800e-10	6.601327e+00	1.436250e+01
1.350000e-06	9.583196e-07	2.989364e-10	6.984438e+00	1.771799e+01
1.360000e-06	1.010573e-06	3.549495e-10	7.365274e+00	2.108943e+01
1.370000e-06	1.062635e-06	4.033616e-10	7.744711e+00	2.447709e+01
1.380000e-06	1.114602e-06	4.508772e-10	8.123455e+00	2.788095e+01
1.390000e-06	1.166387e-06	5.041934e-10	8.500881e+00	3.130071e+01
1.400000e-06	1.217918e-06	5.573341e-10	8.876447e+00	3.473568e+01
1.410000e-06	1.269233e-06	6.100682e-10	9.250442e+00	3.818480e+01
1.420000e-06	1.320333e-06	6.628157e-10	9.622871e+00	4.164659e+01
1.430000e-06	1.371191e-06	7.137287e-10	9.993532e+00	4.511923e+01
1.440000e-06	1.421712e-06	7.672614e-10	1.036174e+01	4.860056e+01
1.450000e-06	1.471701e-06	8.213642e-10	1.072607e+01	5.208813e+01
1.460000e-06	1.521170e-06	8.752751e-10	1.108661e+01	5.557930e+01
1.470000e-06	1.570242e-06	9.268289e-10	1.144426e+01	5.907130e+01
1.480000e-06	1.618818e-06	9.784287e-10	1.179829e+01	6.256133e+01
1.490000e-06	1.666979e-06	1.031229e-09	1.214930e+01	6.604661e+01
1.500000e-06	1.714914e-06	1.084412e-09	1.249866e+01	6.952445e+01
1.510000e-06	1.762621e-06	1.140207e-09	1.284636e+01	7.299235e+01
1.520000e-06	1.810133e-06	1.194202e-09	1.319264e+01	7.644799e+01
1.530000e-06	1.857459e-06	1.244042e-09	1.353756e+01	7.988926e+01
1.540000e-06	1.904474e-06	1.295727e-09	1.388021e+01	8.331430e+01
1.550000e-06	1.951090e-06	1.349317e-09	1.421997e+01	8.672141e+01
1.560000e-06	1.997291e-06	1.402740e-09	1.455668e+01	9.010910e+01
1.570000e-06	2.043099e-06	1.451037e-09	1.489054e+01	9.347598e+01
1.580000e-06	2.088627e-06	1.499004e-09	1.522236e+01	9.682076e+01
1.590000e-06	2.133858e-06	1.551513e-09	1.555202e+01	1.001421e+02
1.600000e-06	2.178715e-06	1.603477e-09	1.587894e+01	1.034388e+02
1.610000e-06	2.223135e-06	1.652235e-09	1.620268e+01	1.067094e+02
1.620000e-06	2.267184e-06	1.697159e-09	1.652372e+01	1.099524e+02
1.630000e-06	2.310959e-06	1.742197e-09	1.684276e+01	1.131661e+02
1.640000e-06	2.354496e-06	1.789112e-09	1.716007e+01	1.163488e+02
1.650000e-06	2.397848e-06	1.836707e-09	1.747603e+01	1.194986e+02
1.660000e-06	2.440837e-06	1.882865e-09	1.778934e+01	1.226135e+02
1.670000e-06	2.483214e-06	1.926276e-09	1.809820e+01	1.256914e+02
1.680000e-06	2.524784e-06	1.970768e-09	1.840117e+01	1.287303e+02
1.690000e-06	2.565562e-06	2.018425e-09	1.869837e+01	1.317282e+02
1.700000e-06	2.605727e-06	2.064607e-09	1.899109e+01	1.346831e+02
1.710000e-06	2.645451e-06	2.105933e-09	1.928061e+01	1.375934e+02
1.720000e-06	2.684939e-06	2.143925e-09	1.956841e+01	1.404573e+02
1.730000e-06	2.724124e-06	2.182802e-09	1.985400e+01	1.432735e+02
1.740000e-06	2.762857e-06	2.224291e-09	2.013629e+01	1.460408e+02
1.750000e-06	2.801092e-06	2.264817e-09	2.041496e+01	1.487583e+02
1.760000e-06	2.838807e-06	2.301729e-09	2.068983e+01	1.514253e+02
1.770000e-06	2.876036e-06	2.338117e-09	2.096117e+01	1.540410e+02
1.780000e-06	2.912799e-06	2.378098e-09	2.122910e+01	1.566052e+02
1.790000e-06	2.949048e-06	2.419496e-09	2.149329e+01	1.591173e+02
1.800000e-06	2.984904e-06	2.456647e-09	2.175462e+01	1.615771e+02
1.810000e-06	3.020475e-06	2.488443e-09	2.201387e+01	1.639842e+02
1.820000e-06	3.055632e-06	2.520139e-09	2.227010e+01	1.663382e+02
1.830000e-06	3.090244e-06	2.553850e-09	2.252236e+01	1.686386e+02
1.840000e-06	3.124074e-06	2.587113e-09	2.276892e+01	1.708849e+02
1.850000e-06	3.156991e-06	2.618151e-09	2.300882e+01	1.730764e+02
1.860000e-06	3.189117e-06	2.647212e-09	2.324296e+01	1.752125e+02
1.870000e-06	3.220725e-06	2.677677e-09	2.347334e+01	1.772924e+02
1.880000e-06	3.251984e-06	2.709529e-09	2.370116e+01	1.793156e+02
1.890000e-06	3.282767e-06	2.737683e-09	2.392551e+01	1.812815e+02
1.900000e-06	3.312955e-06	2.762945e-09	2.414553e+01	1.831898e+02
1.910000e-06	3.342579e-06	2.788276e-09	2.436143e+01	1.850403e+02
1.920000e-06	3.371635e-06	2.814845e-09	2.457320e+01	1.868331e+02
1.930000e-06	3.400024e-06	2.840783e-09	2.478010e+01	1.885688e+02
1.940000e-06	3.427910e-06	2.863350e-09	2.498334e+01	1.902481e+02
1.950000e-06	3.455513e-06	2.884107e-09	2.518452e+01	1.918722e+02
1.960000e-06	3.482690e-06	2.905193e-09	2.538259e+01	1.934425e+02
1.970000e-06	3.509101e-06	2.927276e-09	2.557508e+01	1.949609e+02
1.980000e-06	3.534487e-06	2.949200e-09	2.576009e+01	1.964292e+02
1.990000e-06	3.558929e-06	2.970833e-09	2.593824e+01	1.978495e+02
2.000000e-06	3.582750e-06	2.991965e-09	2.611185e+01	1.992239e+02
2.010000e-06	3.606120e-06	3.010694e-09	2.628217e+01	2.005544e+02
2.020000e-06	3.628893e-06	3.028555e-09	2.644815e+01	2.018428e+02
2.030000e-06	3.650976e-06	3.046768e-09	2.660909e+01	2.030907e+02
2.040000e-06	3.672451e-06	3.064842e-09	2.676561e+01	2.042994e+02
2.050000e-06	3.693254e-06	3.082907e-09	2.691723e+01	2.054698e+02
2.060000e-06	3.713435e-06	3.099102e-09	2.706431e+01	2.066022e+02
2.070000e-06	3.733172e-06	3.114505e-09	2.720816e+01	2.076969e+02
2.080000e-06	3.752528e-06	3.131506e-09	2.734923e+01	2.087535e+02
2.090000e-06	3.771312e-06	3.147466e-09	2.748613e+01	2.097713e+02
2.100000e-06	3.789306e-06	3.160672e-09	2.761727e+01	2.107495e+02
2.110000e-06	3.806536e-06	3.173743e-09	2.774285e+01	2.116873e+02
2.120000e-06	3.823090e-06	3.189492e-09	2.786350e+01	2.125835e+02
2.130000e-06	3.839048e-06	3.203916e-09	2.797981e+01	2.134373e+02
2.140000e-06	3.854319e-06	3.214431e-09	2.809110e+01	2.142479e+02
2.150000e-06	3.868719e-06	3.224738e-09	2.819605e+01	2.150149e+02
2.160000e-06	3.882329e-06	3.235472e-09	2.829524e+01	2.157381e+02
2.170000e-06	3.895307e-06	3.247997e-09	2.838983e+01	2.164179e+02
2.180000e-06	3.907576e-06	3.258976e-09	2.847925e+01	2.170547e+02
2.190000e-06	3.919167e-06	3.268188e-09	2.856373e+01	2.176497e+02
2.200000e-06	3.930110e-06	3.278781e-09	2.864348e+01	2.182039e+02
2.210000e-06	3.940018e-06	3.288200e-09	2.871569e+01	2.187190e+02
2.220000e-06	3.948746e-06	3.296652e-09	2.877930e+01	2.191964e+02
2.230000e-06	3.956655e-06	3.303057e-09	2.883695e+01	2.196378e+02
2.240000e-06	3.964059e-06	3.307791e-09	2.889091e+01	2.200445e+02
2.250000e-06	3.970938e-06	3.312863e-09	2.894105e+01	2.204177e+02
2.260000e-06	3.977172e-06	3.318138e-09	2.898648e+01	2.207585e+02
2.270000e-06	3.982699e-06	3.323333e-09	2.902676e+01	2.210672e+02
2.280000e-06	3.987464e-06	3.327599e-09	2.906149e+01	2.213440e+02
2.290000e-06	3.991597e-06	3.332216e-09	2.909161e+01	2.215885e+02
2.300000e-06	3.995304e-06	3.337298e-09	2.911863e+01	2.218000e+02
2.310000e-06	3.998465e-06	3.341173e-09	2.914167e+01	2.219775e+02
2.320000e-06	4.000774e-06	3.345168e-09	2.915850e+01	2.221197e+02
2.330000e-06	4.001984e-06	3.348928e-09	2.916731e+01	2.222254e+02
2.340000e-06	4.002249e-06	3.350439e-09	2.916925e+01	2.222933e+02
2.350000e-06	4.001935e-06	3.350871e-09	2.916696e+01	2.223226e+02
2.360000e-06	4.001123e-06	3.349813e-09	2.916104e+01	2.223127e+02
2.370000e-06	3.999674e-06	3.346320e-09	2.915048e+01	2.222636e+02
2.380000e-06	3.997543e-06	3.343730e-09	2.913495e+01	2.221758e+02
2.390000e-06	3.994776e-06	3.343307e-09	2.911478e+01	2.220507e+02
2.400000e-06	3.991332e-06	3.343015e-09	2.908968e+01	2.218903e+02
2.410000e-06	3.987335e-06	3.353378e-09	2.906055e+01	2.216975e+02
2.420000e-06	3.982985e-06	3.386521e-09	2.902885e+01	2.214754e+02
2.430000e-06	3.978182e-06	3.330952e-09	2.899384e+01	2.212280e+02
2.440000e-06	3.972347e-06	3.174477e-09	2.895132e+01	2.209594e+02
2.450000e-06	3.965059e-06	3.244462e-09	2.889820e+01	2.206739e+02
2.460000e-06	3.956810e-06	3.514571e-09	2.883808e+01	2.203756e+02
2.470000e-06	3.948379e-06	3.471664e-09	2.877663e+01	2.200683e+02
2.480000e-06	3.939722e-06	3.175989e-09	2.871354e+01	2.197553e+02
2.490000e-06	3.930128e-06	3.168058e-09	2.864362e+01	2.194391e+02
2.500000e-06	3.919423e-06	3.364840e-09	2.856560e+01	2.191212e+02
2.510000e-06	3.908431e-06	3.271631e-09	2.848548e+01	2.188021e+02
2.520000e-06	3.897134e-06	3.323303e-09	2.840315e+01	2.184812e+02
2.530000e-06	3.884517e-06	3.416137e-09	2.831119e+01	2.181568e+02
2.540000e-06	3.870823e-06	3.087353e-09	2.821139e+01	2.178260e+02
2.550000e-06	3.856790e-06	3.120967e-09	2.810911e+01	2.174851e+02
2.560000e-06	3.841966e-06	3.586894e-09	2.800107e+01	2.171295e+02
2.570000e-06	3.826039e-06	3.358047e-09	2.788499e+01	2.167541e+02
2.580000e-06	3.809454e-06	2.816709e-09	2.776412e+01	2.163535e+02
2.590000e-06	3.792325e-06	3.211175e-09	2.763927e+01	2.159222e+02
2.600000e-06	3.774536e-06	3.587350e-09	2.750962e+01	2.154549e+02
2.610000e-06	3.756010e-06	3.115338e-09	2.737460e+01	2.149466e+02
2.620000e-06	3.736737e-06	3.048514e-09	2.723414e+01	2.143932e+02
2.630000e-06	3.716901e-06	3.438321e-09	2.708957e+01	2.137914e+02
2.640000e-06	3.696704e-06	3.305543e-09	2.694237e+01	2.131388e+02
2.650000e-06	3.675944e-06	3.137183e-09	2.679107e+01	2.124340e+02
2.660000e-06	3.654539e-06	3.226716e-09	2.663506e+01	2.116769e+02
2.670000e-06	3.632475e-06	3.235952e-09	2.647426e+01	2.108682e+02
2.680000e-06	3.609304e-06	3.204266e-09	2.630538e+01	2.100095e+02
2.690000e-06	3.585213e-06	3.125687e-09	2.612980e+01	2.091034e+02
2.700000e-06	3.560722e-06	3.102036e-09	2.595130e+01	2.081529e+02
2.710000e-06	3.535676e-06	3.276920e-09	2.576876e+01	2.071614e+02
2.720000e-06	3.509901e-06	3.146996e-09	2.558091e+01	2.061325e+02
2.730000e-06	3.483538e-06	2.949128e-09	2.538877e+01	2.050697e+02
2.740000e-06	3.456622e-06	3.187766e-09	2.519260e+01	2.039764e+02
2.750000e-06	3.429085e-06	3.185922e-09	2.499191e+01	2.028556e+02
2.760000e-06	3.401009e-06	2.984642e-09	2.478728e+01	2.017095e+02
2.770000e-06	3.372532e-06	3.071286e-09	2.457973e+01	2.005401e+02
2.780000e-06	3.343691e-06	3.083036e-09	2.436954e+01	1.993485e+02
2.790000e-06	3.314159e-06	3.009758e-09	2.415430e+01	1.981352e+02
2.800000e-06	3.283513e-06	3.001274e-09	2.393094e+01	1.969002e+02
2.810000e-06	3.251987e-06	2.989419e-09	2.370117e+01	1.956431e+02
2.820000e-06	3.219943e-06	3.009692e-09	2.346763e+01	1.943629e+02
2.830000e-06	3.187496e-06	2.930289e-09	2.323115e+01	1.930585e+02
2.840000e-06	3.154593e-06	2.871599e-09	2.299135e+01	1.917288e+02
2.850000e-06	3.121111e-06	2.939446e-09	2.274733e+01	1.903727e+02
2.860000e-06	3.087125e-06	2.922373e-09	2.249963e+01	1.889891e+02
2.870000e-06	3.052618e-06	2.833087e-09	2.224813e+01	1.875773e+02
2.880000e-06	3.017540e-06	2.809142e-09	2.199248e+01	1.861370e+02
2.890000e-06	2.981944e-06	2.829312e-09	2.173304e+01	1.846680e+02
2.900000e-06	2.945930e-06	2.820360e-09	2.147057e+01	1.831708e+02
2.910000e-06	2.909639e-06	2.780820e-09	2.120607e+01	1.816458e+02
2.920000e-06	2.872991e-06	2.750698e-09	2.093897e+01	1.800941e+02
2.930000e-06	2.835748e-06	2.707315e-09	2.066754e+01	1.785167e+02
2.940000e-06	2.797709e-06	2.681928e-09	2.039030e+01	1.769147e+02
