# Temperatura_=_20.0
# Concentracion g/m^3_=_12600.0
# C_Vs_to_Am_M_A/Vsm_=_65563218390.804596
# pendiente_HvsI_1/m_=_3716.3
# ordenada_HvsI_A/m_=_1297.0
# frecuencia_Hz_=_213095.09892038844

Tiempo_(s)	Campo_(V.s)	Magnetizacion_(V.s)	Campo_(kA/m)	Magnetizacion_(A/m)
0.000000e+00	-3.991926e-06	-3.130224e-09	-2.908407e+01	-2.037435e+02
1.000000e-08	-3.992005e-06	-3.131405e-09	-2.908465e+01	-2.037375e+02
2.000000e-08	-3.991368e-06	-3.133878e-09	-2.908001e+01	-2.036975e+02
3.000000e-08	-3.989752e-06	-3.131795e-09	-2.906823e+01	-2.036225e+02
4.000000e-08	-3.987217e-06	-3.127847e-09	-2.904976e+01	-2.035123e+02
5.000000e-08	-3.983975e-06	-3.124828e-09	-2.902614e+01	-2.033670e+02
6.000000e-08	-3.980183e-06	-3.118829e-09	-2.899852e+01	-2.031875e+02
7.000000e-08	-3.975787e-06	-3.111236e-09	-2.896648e+01	-2.029753e+02
8.000000e-08	-3.970693e-06	-3.119604e-09	-2.892938e+01	-2.027325e+02
9.000000e-08	-3.964777e-06	-3.148150e-09	-2.888627e+01	-2.024617e+02
1.000000e-07	-3.957975e-06	-3.128818e-09	-2.883671e+01	-2.021662e+02
1.100000e-07	-3.950546e-06	-3.054644e-09	-2.878259e+01	-2.018492e+02
1.200000e-07	-3.942701e-06	-3.051893e-09	-2.872543e+01	-2.015144e+02
1.300000e-07	-3.934305e-06	-3.146212e-09	-2.866426e+01	-2.011653e+02
1.400000e-07	-3.925046e-06	-3.166763e-09	-2.859680e+01	-2.008050e+02
1.500000e-07	-3.914894e-06	-3.074714e-09	-2.852283e+01	-2.004366e+02
1.600000e-07	-3.903889e-06	-3.112929e-09	-2.844266e+01	-2.000621e+02
1.700000e-07	-3.891908e-06	-3.124205e-09	-2.835537e+01	-1.996832e+02
1.800000e-07	-3.879103e-06	-3.080346e-09	-2.826208e+01	-1.993006e+02
1.900000e-07	-3.865724e-06	-3.134607e-09	-2.816460e+01	-1.989141e+02
2.000000e-07	-3.851526e-06	-3.131721e-09	-2.806115e+01	-1.985227e+02
2.100000e-07	-3.836168e-06	-2.985575e-09	-2.794926e+01	-1.981245e+02
2.200000e-07	-3.819928e-06	-2.989248e-09	-2.783094e+01	-1.977169e+02
2.300000e-07	-3.803152e-06	-3.159726e-09	-2.770871e+01	-1.972967e+02
2.400000e-07	-3.785844e-06	-3.032231e-09	-2.758261e+01	-1.968602e+02
2.500000e-07	-3.767919e-06	-2.853575e-09	-2.745201e+01	-1.964034e+02
2.600000e-07	-3.749262e-06	-2.952090e-09	-2.731609e+01	-1.959221e+02
2.700000e-07	-3.729993e-06	-3.056709e-09	-2.717570e+01	-1.954124e+02
2.800000e-07	-3.710343e-06	-2.982727e-09	-2.703253e+01	-1.948704e+02
2.900000e-07	-3.690183e-06	-2.908165e-09	-2.688566e+01	-1.942929e+02
3.000000e-07	-3.669346e-06	-2.884913e-09	-2.673384e+01	-1.936769e+02
3.100000e-07	-3.647877e-06	-2.906857e-09	-2.657743e+01	-1.930204e+02
3.200000e-07	-3.625774e-06	-2.984367e-09	-2.641639e+01	-1.923219e+02
3.300000e-07	-3.603050e-06	-2.954982e-09	-2.625083e+01	-1.915806e+02
3.400000e-07	-3.579774e-06	-2.842391e-09	-2.608125e+01	-1.907966e+02
3.500000e-07	-3.556014e-06	-2.844789e-09	-2.590814e+01	-1.899705e+02
3.600000e-07	-3.531650e-06	-2.897250e-09	-2.573062e+01	-1.891034e+02
3.700000e-07	-3.506494e-06	-2.919764e-09	-2.554734e+01	-1.881971e+02
3.800000e-07	-3.480394e-06	-2.865573e-09	-2.535719e+01	-1.872535e+02
3.900000e-07	-3.453475e-06	-2.744585e-09	-2.516106e+01	-1.862749e+02
4.000000e-07	-3.426032e-06	-2.775298e-09	-2.496112e+01	-1.852636e+02
4.100000e-07	-3.398125e-06	-2.875114e-09	-2.475780e+01	-1.842220e+02
4.200000e-07	-3.369720e-06	-2.821654e-09	-2.455085e+01	-1.831522e+02
4.300000e-07	-3.340744e-06	-2.689330e-09	-2.433974e+01	-1.820562e+02
4.400000e-07	-3.311170e-06	-2.679023e-09	-2.412427e+01	-1.809357e+02
4.500000e-07	-3.280955e-06	-2.768325e-09	-2.390413e+01	-1.797922e+02
4.600000e-07	-3.250178e-06	-2.774942e-09	-2.367990e+01	-1.786267e+02
4.700000e-07	-3.218955e-06	-2.685882e-09	-2.345242e+01	-1.774401e+02
4.800000e-07	-3.187327e-06	-2.610795e-09	-2.322198e+01	-1.762330e+02
4.900000e-07	-3.155329e-06	-2.633439e-09	-2.298885e+01	-1.750055e+02
5.000000e-07	-3.122738e-06	-2.693266e-09	-2.275141e+01	-1.737577e+02
5.100000e-07	-3.089222e-06	-2.658378e-09	-2.250722e+01	-1.724896e+02
5.200000e-07	-3.054770e-06	-2.569405e-09	-2.225621e+01	-1.712011e+02
5.300000e-07	-3.019687e-06	-2.527374e-09	-2.200060e+01	-1.698917e+02
5.400000e-07	-2.984179e-06	-2.561427e-09	-2.174190e+01	-1.685614e+02
5.500000e-07	-2.948310e-06	-2.592488e-09	-2.148058e+01	-1.672099e+02
5.600000e-07	-2.912029e-06	-2.526649e-09	-2.121624e+01	-1.658368e+02
5.700000e-07	-2.875184e-06	-2.445758e-09	-2.094779e+01	-1.644421e+02
5.800000e-07	-2.837791e-06	-2.442217e-09	-2.067536e+01	-1.630256e+02
5.900000e-07	-2.799948e-06	-2.481205e-09	-2.039965e+01	-1.615872e+02
6.000000e-07	-2.761641e-06	-2.462386e-09	-2.012055e+01	-1.601266e+02
6.100000e-07	-2.722843e-06	-2.383793e-09	-1.983788e+01	-1.586438e+02
6.200000e-07	-2.683590e-06	-2.349370e-09	-1.955190e+01	-1.571387e+02
6.300000e-07	-2.644037e-06	-2.358531e-09	-1.926373e+01	-1.556109e+02
6.400000e-07	-2.604229e-06	-2.358030e-09	-1.897369e+01	-1.540604e+02
6.500000e-07	-2.564005e-06	-2.321790e-09	-1.868063e+01	-1.524869e+02
6.600000e-07	-2.523131e-06	-2.267068e-09	-1.838283e+01	-1.508901e+02
6.700000e-07	-2.481510e-06	-2.245124e-09	-1.807960e+01	-1.492696e+02
6.800000e-07	-2.439169e-06	-2.241662e-09	-1.777111e+01	-1.476251e+02
6.900000e-07	-2.396198e-06	-2.226606e-09	-1.745804e+01	-1.459564e+02
7.000000e-07	-2.352836e-06	-2.188633e-09	-1.714211e+01	-1.442632e+02
7.100000e-07	-2.309202e-06	-2.145761e-09	-1.682421e+01	-1.425452e+02
7.200000e-07	-2.265292e-06	-2.126661e-09	-1.650429e+01	-1.408022e+02
7.300000e-07	-2.221064e-06	-2.110145e-09	-1.618206e+01	-1.390341e+02
7.400000e-07	-2.176419e-06	-2.086587e-09	-1.585679e+01	-1.372408e+02
7.500000e-07	-2.131398e-06	-2.051287e-09	-1.552878e+01	-1.354223e+02
7.600000e-07	-2.086016e-06	-2.009207e-09	-1.519814e+01	-1.335786e+02
7.700000e-07	-2.040242e-06	-1.983000e-09	-1.486464e+01	-1.317098e+02
7.800000e-07	-1.994077e-06	-1.965252e-09	-1.452829e+01	-1.298159e+02
7.900000e-07	-1.947539e-06	-1.943095e-09	-1.418923e+01	-1.278970e+02
8.000000e-07	-1.900659e-06	-1.900176e-09	-1.384768e+01	-1.259530e+02
8.100000e-07	-1.853467e-06	-1.854705e-09	-1.350385e+01	-1.239838e+02
8.200000e-07	-1.806067e-06	-1.836324e-09	-1.315850e+01	-1.219894e+02
8.300000e-07	-1.758455e-06	-1.820654e-09	-1.281162e+01	-1.199695e+02
8.400000e-07	-1.710558e-06	-1.787268e-09	-1.246265e+01	-1.179238e+02
8.500000e-07	-1.662371e-06	-1.739056e-09	-1.211158e+01	-1.158520e+02
8.600000e-07	-1.613823e-06	-1.702745e-09	-1.175787e+01	-1.137537e+02
8.700000e-07	-1.564845e-06	-1.686172e-09	-1.140103e+01	-1.116285e+02
8.800000e-07	-1.515351e-06	-1.659059e-09	-1.104043e+01	-1.094760e+02
8.900000e-07	-1.465289e-06	-1.619120e-09	-1.067569e+01	-1.072960e+02
9.000000e-07	-1.414793e-06	-1.579333e-09	-1.030779e+01	-1.050882e+02
9.100000e-07	-1.363967e-06	-1.552721e-09	-9.937490e+00	-1.028526e+02
9.200000e-07	-1.312851e-06	-1.529425e-09	-9.565067e+00	-1.005893e+02
9.300000e-07	-1.261489e-06	-1.489705e-09	-9.190858e+00	-9.829863e+01
9.400000e-07	-1.209904e-06	-1.448003e-09	-8.815028e+00	-9.598093e+01
9.500000e-07	-1.158125e-06	-1.413127e-09	-8.437782e+00	-9.363686e+01
9.600000e-07	-1.106108e-06	-1.382078e-09	-8.058798e+00	-9.126717e+01
9.700000e-07	-1.053843e-06	-1.346181e-09	-7.678009e+00	-8.887274e+01
9.800000e-07	-1.001374e-06	-1.302329e-09	-7.295731e+00	-8.645451e+01
9.900000e-07	-9.486572e-07	-1.266677e-09	-6.911654e+00	-8.401342e+01
1.000000e-06	-8.957828e-07	-1.235902e-09	-6.526426e+00	-8.155039e+01
1.010000e-06	-8.427815e-07	-1.199212e-09	-6.140273e+00	-7.906623e+01
1.020000e-06	-7.896591e-07	-1.156050e-09	-5.753238e+00	-7.656160e+01
1.030000e-06	-7.364370e-07	-1.116393e-09	-5.365477e+00	-7.403697e+01
1.040000e-06	-6.830786e-07	-1.083937e-09	-4.976722e+00	-7.149261e+01
1.050000e-06	-6.296361e-07	-1.042059e-09	-4.587355e+00	-6.892856e+01
1.060000e-06	-5.761413e-07	-9.946838e-10	-4.197607e+00	-6.634461e+01
1.070000e-06	-5.225604e-07	-9.544122e-10	-3.807231e+00	-6.374037e+01
1.080000e-06	-4.689082e-07	-9.200733e-10	-3.416336e+00	-6.111527e+01
1.090000e-06	-4.151935e-07	-8.833271e-10	-3.024985e+00	-5.846864e+01
1.100000e-06	-3.613858e-07	-8.369137e-10	-2.632957e+00	-5.579974e+01
1.110000e-06	-3.075269e-07	-7.936549e-10	-2.240556e+00	-5.310786e+01
1.120000e-06	-2.536017e-07	-7.583116e-10	-1.847672e+00	-5.039236e+01
1.130000e-06	-1.996436e-07	-7.204607e-10	-1.454548e+00	-4.765278e+01
1.140000e-06	-1.457075e-07	-6.756202e-10	-1.061584e+00	-4.488884e+01
1.150000e-06	-9.174903e-08	-6.270691e-10	-6.684581e-01	-4.210054e+01
1.160000e-06	-3.780608e-08	-5.847152e-10	-2.754446e-01	-3.928815e+01
1.170000e-06	1.616284e-08	-5.443366e-10	1.177580e-01	-3.645224e+01
1.180000e-06	7.017753e-08	-4.984986e-10	5.112941e-01	-3.359365e+01
1.190000e-06	1.241796e-07	-4.525576e-10	9.047381e-01	-3.071347e+01
1.200000e-06	1.781586e-07	-4.076632e-10	1.298014e+00	-2.781299e+01
1.210000e-06	2.320593e-07	-3.642690e-10	1.690720e+00	-2.489364e+01
1.220000e-06	2.859300e-07	-3.179219e-10	2.083207e+00	-2.195689e+01
1.230000e-06	3.398269e-07	-2.693889e-10	2.475885e+00	-1.900420e+01
1.240000e-06	3.936389e-07	-2.227238e-10	2.867944e+00	-1.603693e+01
1.250000e-06	4.473774e-07	-1.775789e-10	3.259468e+00	-1.305627e+01
1.260000e-06	5.010903e-07	-1.320334e-10	3.650805e+00	-1.006319e+01
1.270000e-06	5.547225e-07	-8.317687e-11	4.041555e+00	-7.058364e+00
1.280000e-06	6.082404e-07	-3.561174e-11	4.431472e+00	-4.042206e+00
1.290000e-06	6.616492e-07	1.136708e-11	4.820593e+00	-1.014819e+00
1.300000e-06	7.149468e-07	6.160067e-11	5.208905e+00	2.023957e+00
1.310000e-06	7.681387e-07	1.092412e-10	5.596446e+00	5.074504e+00
1.320000e-06	8.212340e-07	1.536323e-10	5.983284e+00	8.137368e+00
1.330000e-06	8.741469e-07	1.994312e-10	6.368793e+00	1.121318e+01
1.340000e-06	9.267874e-07	2.501167e-10	6.752317e+00	1.430256e+01
1.350000e-06	9.791590e-07	3.021517e-10	7.133882e+00	1.740607e+01
1.360000e-06	1.031342e-06	3.478538e-10	7.514072e+00	2.052406e+01
1.370000e-06	1.083346e-06	3.918784e-10	7.892963e+00	2.365668e+01
1.380000e-06	1.135192e-06	4.395249e-10	8.270693e+00	2.680373e+01
1.390000e-06	1.186897e-06	4.904658e-10	8.647400e+00	2.996470e+01
1.400000e-06	1.238429e-06	5.398589e-10	9.022853e+00	3.313869e+01
1.410000e-06	1.289722e-06	5.852892e-10	9.396556e+00	3.632445e+01
1.420000e-06	1.340704e-06	6.337110e-10	9.767997e+00	3.952039e+01
1.430000e-06	1.391334e-06	6.874550e-10	1.013687e+01	4.272461e+01
1.440000e-06	1.441540e-06	7.406151e-10	1.050266e+01	4.593499e+01
1.450000e-06	1.491291e-06	7.878913e-10	1.086513e+01	4.914926e+01
1.460000e-06	1.540647e-06	8.312931e-10	1.122473e+01	5.236502e+01
1.470000e-06	1.589578e-06	8.807053e-10	1.158123e+01	5.557991e+01
1.480000e-06	1.638026e-06	9.330405e-10	1.193420e+01	5.879161e+01
1.490000e-06	1.686140e-06	9.799107e-10	1.228475e+01	6.199791e+01
1.500000e-06	1.733978e-06	1.023208e-09	1.263328e+01	6.519679e+01
1.510000e-06	1.781567e-06	1.068928e-09	1.298000e+01	6.838640e+01
1.520000e-06	1.828989e-06	1.119773e-09	1.332551e+01	7.156508e+01
1.530000e-06	1.876194e-06	1.170011e-09	1.366943e+01	7.473139e+01
1.540000e-06	1.923096e-06	1.217432e-09	1.401114e+01	7.788399e+01
1.550000e-06	1.969575e-06	1.263900e-09	1.434978e+01	8.102168e+01
1.560000e-06	2.015656e-06	1.310051e-09	1.468551e+01	8.414330e+01
1.570000e-06	2.061402e-06	1.358045e-09	1.501880e+01	8.724767e+01
1.580000e-06	2.106776e-06	1.406553e-09	1.534939e+01	9.033353e+01
1.590000e-06	2.151820e-06	1.453798e-09	1.567757e+01	9.339952e+01
1.600000e-06	2.196519e-06	1.498348e-09	1.600323e+01	9.644409e+01
1.610000e-06	2.240765e-06	1.540990e-09	1.632559e+01	9.946550e+01
1.620000e-06	2.284678e-06	1.583962e-09	1.664553e+01	1.024618e+02
1.630000e-06	2.328433e-06	1.625683e-09	1.696432e+01	1.054309e+02
1.640000e-06	2.371951e-06	1.666754e-09	1.728138e+01	1.083705e+02
1.650000e-06	2.415183e-06	1.708261e-09	1.759636e+01	1.112782e+02
1.660000e-06	2.457986e-06	1.750344e-09	1.790821e+01	1.141516e+02
1.670000e-06	2.500004e-06	1.793705e-09	1.821434e+01	1.169882e+02
1.680000e-06	2.541217e-06	1.835855e-09	1.851461e+01	1.197858e+02
1.690000e-06	2.581724e-06	1.875831e-09	1.880973e+01	1.225422e+02
1.700000e-06	2.621679e-06	1.914063e-09	1.910083e+01	1.252554e+02
1.710000e-06	2.661351e-06	1.951988e-09	1.938987e+01	1.279240e+02
1.720000e-06	2.700768e-06	1.990652e-09	1.967705e+01	1.305465e+02
1.730000e-06	2.739877e-06	2.027875e-09	1.996199e+01	1.331220e+02
1.740000e-06	2.778516e-06	2.062327e-09	2.024350e+01	1.356498e+02
1.750000e-06	2.816623e-06	2.095182e-09	2.052114e+01	1.381295e+02
1.760000e-06	2.854276e-06	2.129476e-09	2.079547e+01	1.405611e+02
1.770000e-06	2.891393e-06	2.166156e-09	2.106589e+01	1.429445e+02
1.780000e-06	2.927893e-06	2.201298e-09	2.133182e+01	1.452799e+02
1.790000e-06	2.963924e-06	2.233215e-09	2.159433e+01	1.475675e+02
1.800000e-06	2.999684e-06	2.263521e-09	2.185487e+01	1.498074e+02
1.810000e-06	3.035139e-06	2.293990e-09	2.211319e+01	1.519996e+02
1.820000e-06	3.070094e-06	2.325230e-09	2.236786e+01	1.541439e+02
1.830000e-06	3.104368e-06	2.355163e-09	2.261757e+01	1.562400e+02
1.840000e-06	3.137773e-06	2.384661e-09	2.286095e+01	1.582874e+02
1.850000e-06	3.170297e-06	2.414697e-09	2.309791e+01	1.602851e+02
1.860000e-06	3.202241e-06	2.444803e-09	2.333064e+01	1.622325e+02
1.870000e-06	3.233801e-06	2.474600e-09	2.356058e+01	1.641285e+02
1.880000e-06	3.264944e-06	2.501482e-09	2.378748e+01	1.659721e+02
1.890000e-06	3.295556e-06	2.524980e-09	2.401051e+01	1.677624e+02
1.900000e-06	3.325576e-06	2.546874e-09	2.422923e+01	1.694988e+02
1.910000e-06	3.355038e-06	2.569798e-09	2.444388e+01	1.711806e+02
1.920000e-06	3.383912e-06	2.592399e-09	2.465425e+01	1.728079e+02
1.930000e-06	3.412180e-06	2.612952e-09	2.486020e+01	1.743808e+02
1.940000e-06	3.439983e-06	2.632630e-09	2.506276e+01	1.759000e+02
1.950000e-06	3.467407e-06	2.652885e-09	2.526257e+01	1.773668e+02
1.960000e-06	3.494269e-06	2.674265e-09	2.545828e+01	1.787825e+02
1.970000e-06	3.520231e-06	2.694532e-09	2.564743e+01	1.801492e+02
1.980000e-06	3.545224e-06	2.713768e-09	2.582952e+01	1.814690e+02
1.990000e-06	3.569459e-06	2.732959e-09	2.600609e+01	1.827444e+02
2.000000e-06	3.593113e-06	2.750202e-09	2.617843e+01	1.839777e+02
2.010000e-06	3.616227e-06	2.766776e-09	2.634683e+01	1.851714e+02
2.020000e-06	3.638745e-06	2.784261e-09	2.651089e+01	1.863277e+02
2.030000e-06	3.660677e-06	2.800602e-09	2.667068e+01	1.874485e+02
2.040000e-06	3.682041e-06	2.817525e-09	2.682633e+01	1.885353e+02
2.050000e-06	3.702720e-06	2.836198e-09	2.697700e+01	1.895892e+02
2.060000e-06	3.722748e-06	2.853401e-09	2.712292e+01	1.906107e+02
2.070000e-06	3.742334e-06	2.867753e-09	2.726562e+01	1.916000e+02
2.080000e-06	3.761479e-06	2.881191e-09	2.740510e+01	1.925564e+02
2.090000e-06	3.779986e-06	2.895108e-09	2.753993e+01	1.934791e+02
2.100000e-06	3.797730e-06	2.908335e-09	2.766921e+01	1.943669e+02
2.110000e-06	3.814774e-06	2.919646e-09	2.779339e+01	1.952183e+02
2.120000e-06	3.831223e-06	2.931183e-09	2.791324e+01	1.960316e+02
2.130000e-06	3.846974e-06	2.943900e-09	2.802799e+01	1.968053e+02
2.140000e-06	3.861824e-06	2.957286e-09	2.813618e+01	1.975380e+02
2.150000e-06	3.875830e-06	2.968686e-09	2.823822e+01	1.982287e+02
2.160000e-06	3.889190e-06	2.977908e-09	2.833557e+01	1.988764e+02
2.170000e-06	3.901905e-06	2.987242e-09	2.842820e+01	1.994811e+02
2.180000e-06	3.913904e-06	2.996610e-09	2.851562e+01	2.000428e+02
2.190000e-06	3.925156e-06	3.007215e-09	2.859760e+01	2.005624e+02
2.200000e-06	3.935513e-06	3.017076e-09	2.867306e+01	2.010409e+02
2.210000e-06	3.944858e-06	3.025595e-09	2.874115e+01	2.014801e+02
2.220000e-06	3.953301e-06	3.032375e-09	2.880266e+01	2.018816e+02
2.230000e-06	3.961123e-06	3.036850e-09	2.885965e+01	2.022476e+02
2.240000e-06	3.968389e-06	3.042910e-09	2.891259e+01	2.025802e+02
2.250000e-06	3.975002e-06	3.048834e-09	2.896077e+01	2.028814e+02
2.260000e-06	3.981004e-06	3.052442e-09	2.900450e+01	2.031528e+02
2.270000e-06	3.986299e-06	3.054242e-09	2.904307e+01	2.033960e+02
2.280000e-06	3.990789e-06	3.056345e-09	2.907579e+01	2.036119e+02
2.290000e-06	3.994687e-06	3.059938e-09	2.910418e+01	2.038011e+02
2.300000e-06	3.998093e-06	3.060759e-09	2.912900e+01	2.039636e+02
2.310000e-06	4.000837e-06	3.061045e-09	2.914900e+01	2.040990e+02
2.320000e-06	4.002680e-06	3.062100e-09	2.916242e+01	2.042063e+02
2.330000e-06	4.003537e-06	3.063382e-09	2.916866e+01	2.042844e+02
2.340000e-06	4.003617e-06	3.065542e-09	2.916925e+01	2.043320e+02
2.350000e-06	4.003133e-06	3.064991e-09	2.916572e+01	2.043475e+02
2.360000e-06	4.002113e-06	3.062536e-09	2.915829e+01	2.043298e+02
2.370000e-06	4.000472e-06	3.060803e-09	2.914633e+01	2.042776e+02
2.380000e-06	3.998211e-06	3.060123e-09	2.912986e+01	2.041904e+02
2.390000e-06	3.995266e-06	3.057783e-09	2.910841e+01	2.040679e+02
2.400000e-06	3.991651e-06	3.059196e-09	2.908207e+01	2.039105e+02
2.410000e-06	3.987568e-06	3.066143e-09	2.905232e+01	2.037195e+02
2.420000e-06	3.983024e-06	3.049900e-09	2.901922e+01	2.034963e+02
2.430000e-06	3.977715e-06	3.000019e-09	2.898054e+01	2.032434e+02
2.440000e-06	3.971214e-06	3.018574e-09	2.893317e+01	2.029637e+02
2.450000e-06	3.963571e-06	3.103545e-09	2.887748e+01	2.026603e+02
2.460000e-06	3.955359e-06	3.085761e-09	2.881765e+01	2.023367e+02
2.470000e-06	3.946856e-06	2.981753e-09	2.875570e+01	2.019965e+02
2.480000e-06	3.937760e-06	2.952591e-09	2.868943e+01	2.016432e+02
2.490000e-06	3.927804e-06	3.040247e-09	2.861690e+01	2.012798e+02
2.500000e-06	3.917188e-06	2.991549e-09	2.853955e+01	2.009091e+02
2.510000e-06	3.906108e-06	2.978792e-09	2.845883e+01	2.005330e+02
2.520000e-06	3.894145e-06	3.028782e-09	2.837166e+01	2.001528e+02
2.530000e-06	3.881017e-06	2.947527e-09	2.827602e+01	1.997689e+02
2.540000e-06	3.867158e-06	2.938199e-09	2.817505e+01	1.993809e+02
2.550000e-06	3.852707e-06	3.083698e-09	2.806976e+01	1.989874e+02
2.560000e-06	3.837406e-06	3.041598e-09	2.795828e+01	1.985863e+02
2.570000e-06	3.821263e-06	2.833547e-09	2.784067e+01	1.981748e+02
2.580000e-06	3.804483e-06	2.950490e-09	2.771841e+01	1.977494e+02
2.590000e-06	3.787094e-06	3.100356e-09	2.759172e+01	1.973063e+02
2.600000e-06	3.769016e-06	2.963235e-09	2.746001e+01	1.968414e+02
2.610000e-06	3.750173e-06	2.893507e-09	2.732273e+01	1.963507e+02
2.620000e-06	3.730675e-06	3.035583e-09	2.718067e+01	1.958301e+02
2.630000e-06	3.710708e-06	3.063482e-09	2.703520e+01	1.952761e+02
2.640000e-06	3.690250e-06	3.016742e-09	2.688614e+01	1.946854e+02
2.650000e-06	3.669184e-06	2.992502e-09	2.673266e+01	1.940555e+02
2.660000e-06	3.647416e-06	2.887072e-09	2.657406e+01	1.933845e+02
2.670000e-06	3.624777e-06	2.912141e-09	2.640912e+01	1.926711e+02
2.680000e-06	3.601253e-06	3.012741e-09	2.623773e+01	1.919149e+02
2.690000e-06	3.577094e-06	2.943920e-09	2.606172e+01	1.911161e+02
2.700000e-06	3.552383e-06	2.884573e-09	2.588168e+01	1.902755e+02
2.710000e-06	3.527022e-06	2.847196e-09	2.569691e+01	1.893946e+02
2.720000e-06	3.501053e-06	2.868102e-09	2.550771e+01	1.884750e+02
2.730000e-06	3.474560e-06	2.985328e-09	2.531468e+01	1.875190e+02
2.740000e-06	3.447484e-06	2.906459e-09	2.511741e+01	1.865287e+02
2.750000e-06	3.419811e-06	2.746277e-09	2.491580e+01	1.855066e+02
2.760000e-06	3.391683e-06	2.807469e-09	2.471086e+01	1.844549e+02
2.770000e-06	3.363158e-06	2.910190e-09	2.450304e+01	1.833757e+02
2.780000e-06	3.334022e-06	2.852258e-09	2.429076e+01	1.822710e+02
2.790000e-06	3.303955e-06	2.740981e-09	2.407170e+01	1.811424e+02
2.800000e-06	3.272922e-06	2.712106e-09	2.384560e+01	1.799911e+02
2.810000e-06	3.241174e-06	2.773500e-09	2.361430e+01	1.788182e+02
2.820000e-06	3.208965e-06	2.801089e-09	2.337964e+01	1.776245e+02
2.830000e-06	3.176344e-06	2.712512e-09	2.314197e+01	1.764102e+02
2.840000e-06	3.143168e-06	2.647841e-09	2.290025e+01	1.751757e+02
2.850000e-06	3.109484e-06	2.663059e-09	2.265484e+01	1.739209e+02
2.860000e-06	3.075326e-06	2.678572e-09	2.240598e+01	1.726457e+02
2.870000e-06	3.040660e-06	2.672865e-09	2.215341e+01	1.713499e+02
2.880000e-06	3.005484e-06	2.607814e-09	2.189713e+01	1.700333e+02
2.890000e-06	2.969803e-06	2.559793e-09	2.163717e+01	1.686956e+02
2.900000e-06	2.933732e-06	2.583192e-09	2.137436e+01	1.673366e+02
2.910000e-06	2.897287e-06	2.592239e-09	2.110884e+01	1.659561e+02
2.920000e-06	2.860351e-06	2.550438e-09	2.083973e+01	1.645538e+02
2.930000e-06	2.822761e-06	2.482852e-09	2.056586e+01	1.631297e+02
2.940000e-06	2.784328e-06	2.477458e-09	2.028585e+01	1.616836e+02
