# Temperatura_=_20.0
# Concentracion g/m^3_=_12600.0
# C_Vs_to_Am_M_A/Vsm_=_65563218390.804596
# pendiente_HvsI_1/m_=_3716.3
# ordenada_HvsI_A/m_=_1297.0
# frecuencia_Hz_=_213092.18676313886

Tiempo_(s)	Campo_(V.s)	Magnetizacion_(V.s)	Campo_(kA/m)	Magnetizacion_(A/m)
0.000000e+00	-3.992599e-06	-2.909500e-09	-2.908423e+01	-1.899857e+02
1.000000e-08	-3.992787e-06	-2.908161e-09	-2.908559e+01	-1.900166e+02
2.000000e-08	-3.992333e-06	-2.906726e-09	-2.908229e+01	-1.900131e+02
3.000000e-08	-3.991097e-06	-2.904822e-09	-2.907329e+01	-1.899731e+02
4.000000e-08	-3.988897e-06	-2.903436e-09	-2.905726e+01	-1.898950e+02
5.000000e-08	-3.985859e-06	-2.903345e-09	-2.903513e+01	-1.897781e+02
6.000000e-08	-3.982264e-06	-2.902289e-09	-2.900894e+01	-1.896225e+02
7.000000e-08	-3.978144e-06	-2.898169e-09	-2.897893e+01	-1.894292e+02
8.000000e-08	-3.973358e-06	-2.883597e-09	-2.894406e+01	-1.892005e+02
9.000000e-08	-3.967722e-06	-2.882021e-09	-2.890301e+01	-1.889394e+02
1.000000e-07	-3.961272e-06	-2.912301e-09	-2.885603e+01	-1.886500e+02
1.100000e-07	-3.954148e-06	-2.917574e-09	-2.880413e+01	-1.883370e+02
1.200000e-07	-3.946502e-06	-2.859968e-09	-2.874843e+01	-1.880058e+02
1.300000e-07	-3.938361e-06	-2.810930e-09	-2.868913e+01	-1.876617e+02
1.400000e-07	-3.929417e-06	-2.890980e-09	-2.862398e+01	-1.873103e+02
1.500000e-07	-3.919541e-06	-2.913502e-09	-2.855203e+01	-1.869567e+02
1.600000e-07	-3.908818e-06	-2.879939e-09	-2.847392e+01	-1.866052e+02
1.700000e-07	-3.897264e-06	-2.868373e-09	-2.838975e+01	-1.862594e+02
1.800000e-07	-3.884862e-06	-2.856080e-09	-2.829941e+01	-1.859215e+02
1.900000e-07	-3.871742e-06	-2.844208e-09	-2.820384e+01	-1.855926e+02
2.000000e-07	-3.857978e-06	-2.877093e-09	-2.810358e+01	-1.852723e+02
2.100000e-07	-3.843146e-06	-2.924591e-09	-2.799553e+01	-1.849587e+02
2.200000e-07	-3.827125e-06	-2.803592e-09	-2.787883e+01	-1.846486e+02
2.300000e-07	-3.810419e-06	-2.787614e-09	-2.775713e+01	-1.843374e+02
2.400000e-07	-3.793320e-06	-2.916416e-09	-2.763257e+01	-1.840196e+02
2.500000e-07	-3.775672e-06	-2.891042e-09	-2.750401e+01	-1.836889e+02
2.600000e-07	-3.757332e-06	-2.751753e-09	-2.737042e+01	-1.833385e+02
2.700000e-07	-3.738345e-06	-2.745378e-09	-2.723210e+01	-1.829616e+02
2.800000e-07	-3.718847e-06	-2.813765e-09	-2.709007e+01	-1.825513e+02
2.900000e-07	-3.698892e-06	-2.800644e-09	-2.694471e+01	-1.821016e+02
3.000000e-07	-3.678399e-06	-2.790504e-09	-2.679543e+01	-1.816071e+02
3.100000e-07	-3.657208e-06	-2.767930e-09	-2.664106e+01	-1.810634e+02
3.200000e-07	-3.635313e-06	-2.692426e-09	-2.648156e+01	-1.804677e+02
3.300000e-07	-3.612821e-06	-2.719323e-09	-2.631772e+01	-1.798180e+02
3.400000e-07	-3.589750e-06	-2.790760e-09	-2.614966e+01	-1.791143e+02
3.500000e-07	-3.566178e-06	-2.769150e-09	-2.597795e+01	-1.783574e+02
3.600000e-07	-3.542029e-06	-2.672334e-09	-2.580204e+01	-1.775496e+02
3.700000e-07	-3.517099e-06	-2.622295e-09	-2.562043e+01	-1.766941e+02
3.800000e-07	-3.491383e-06	-2.711237e-09	-2.543310e+01	-1.757952e+02
3.900000e-07	-3.464842e-06	-2.751252e-09	-2.523976e+01	-1.748572e+02
4.000000e-07	-3.437530e-06	-2.644573e-09	-2.504081e+01	-1.738852e+02
4.100000e-07	-3.409736e-06	-2.546412e-09	-2.483834e+01	-1.728839e+02
4.200000e-07	-3.381504e-06	-2.599336e-09	-2.463268e+01	-1.718580e+02
4.300000e-07	-3.352785e-06	-2.681289e-09	-2.442348e+01	-1.708114e+02
4.400000e-07	-3.323462e-06	-2.610640e-09	-2.420987e+01	-1.697476e+02
4.500000e-07	-3.293477e-06	-2.512744e-09	-2.399145e+01	-1.686690e+02
4.600000e-07	-3.262931e-06	-2.515665e-09	-2.376893e+01	-1.675774e+02
4.700000e-07	-3.231935e-06	-2.568857e-09	-2.354314e+01	-1.664734e+02
4.800000e-07	-3.200525e-06	-2.568719e-09	-2.331433e+01	-1.653569e+02
4.900000e-07	-3.168661e-06	-2.488552e-09	-2.308222e+01	-1.642271e+02
5.000000e-07	-3.136283e-06	-2.449247e-09	-2.284636e+01	-1.630825e+02
5.100000e-07	-3.103137e-06	-2.470729e-09	-2.260491e+01	-1.619212e+02
5.200000e-07	-3.068995e-06	-2.484764e-09	-2.235620e+01	-1.607411e+02
5.300000e-07	-3.034124e-06	-2.454291e-09	-2.210218e+01	-1.595400e+02
5.400000e-07	-2.998783e-06	-2.397018e-09	-2.184474e+01	-1.583158e+02
5.500000e-07	-2.963004e-06	-2.383104e-09	-2.158411e+01	-1.570669e+02
5.600000e-07	-2.926863e-06	-2.382604e-09	-2.132083e+01	-1.557918e+02
5.700000e-07	-2.890244e-06	-2.362435e-09	-2.105408e+01	-1.544898e+02
5.800000e-07	-2.853063e-06	-2.332556e-09	-2.078324e+01	-1.531604e+02
5.900000e-07	-2.815342e-06	-2.305025e-09	-2.050846e+01	-1.518041e+02
6.000000e-07	-2.777161e-06	-2.296209e-09	-2.023032e+01	-1.504216e+02
6.100000e-07	-2.738494e-06	-2.269361e-09	-1.994865e+01	-1.490140e+02
6.200000e-07	-2.699341e-06	-2.247079e-09	-1.966345e+01	-1.475830e+02
6.300000e-07	-2.659893e-06	-2.245589e-09	-1.937608e+01	-1.461303e+02
6.400000e-07	-2.620168e-06	-2.218941e-09	-1.908670e+01	-1.446577e+02
6.500000e-07	-2.580016e-06	-2.172643e-09	-1.879422e+01	-1.431670e+02
6.600000e-07	-2.539334e-06	-2.143898e-09	-1.849786e+01	-1.416597e+02
6.700000e-07	-2.497977e-06	-2.157175e-09	-1.819660e+01	-1.401371e+02
6.800000e-07	-2.455849e-06	-2.148372e-09	-1.788972e+01	-1.386001e+02
6.900000e-07	-2.413096e-06	-2.081869e-09	-1.757828e+01	-1.370492e+02
7.000000e-07	-2.369944e-06	-2.038108e-09	-1.726394e+01	-1.354844e+02
7.100000e-07	-2.326480e-06	-2.046562e-09	-1.694732e+01	-1.339053e+02
7.200000e-07	-2.282676e-06	-2.055069e-09	-1.662823e+01	-1.323110e+02
7.300000e-07	-2.238531e-06	-2.003567e-09	-1.630665e+01	-1.307003e+02
7.400000e-07	-2.193991e-06	-1.934452e-09	-1.598221e+01	-1.290719e+02
7.500000e-07	-2.149091e-06	-1.927389e-09	-1.565513e+01	-1.274240e+02
7.600000e-07	-2.103817e-06	-1.938729e-09	-1.532533e+01	-1.257548e+02
7.700000e-07	-2.058147e-06	-1.907601e-09	-1.499264e+01	-1.240628e+02
7.800000e-07	-2.012141e-06	-1.844128e-09	-1.465751e+01	-1.223462e+02
7.900000e-07	-1.965767e-06	-1.810520e-09	-1.431969e+01	-1.206036e+02
8.000000e-07	-1.919093e-06	-1.814191e-09	-1.397970e+01	-1.188337e+02
8.100000e-07	-1.872098e-06	-1.792613e-09	-1.363736e+01	-1.170355e+02
8.200000e-07	-1.824797e-06	-1.746552e-09	-1.329279e+01	-1.152082e+02
8.300000e-07	-1.777280e-06	-1.708551e-09	-1.294666e+01	-1.133516e+02
8.400000e-07	-1.729452e-06	-1.689337e-09	-1.259825e+01	-1.114653e+02
8.500000e-07	-1.681267e-06	-1.666769e-09	-1.224725e+01	-1.095496e+02
8.600000e-07	-1.632741e-06	-1.626717e-09	-1.189376e+01	-1.076047e+02
8.700000e-07	-1.583802e-06	-1.597338e-09	-1.153726e+01	-1.056311e+02
8.800000e-07	-1.534414e-06	-1.571598e-09	-1.117749e+01	-1.036294e+02
8.900000e-07	-1.484555e-06	-1.535040e-09	-1.081430e+01	-1.016005e+02
9.000000e-07	-1.434134e-06	-1.500184e-09	-1.044700e+01	-9.954516e+01
9.100000e-07	-1.383342e-06	-1.477937e-09	-1.007700e+01	-9.746425e+01
9.200000e-07	-1.332361e-06	-1.460210e-09	-9.705632e+00	-9.535868e+01
9.300000e-07	-1.281068e-06	-1.417297e-09	-9.331985e+00	-9.322935e+01
9.400000e-07	-1.229514e-06	-1.367796e-09	-8.956440e+00	-9.107718e+01
9.500000e-07	-1.177790e-06	-1.342494e-09	-8.579651e+00	-8.890304e+01
9.600000e-07	-1.125823e-06	-1.326317e-09	-8.201094e+00	-8.670779e+01
9.700000e-07	-1.073657e-06	-1.289365e-09	-7.821093e+00	-8.449223e+01
9.800000e-07	-1.021338e-06	-1.228792e-09	-7.439972e+00	-8.225713e+01
9.900000e-07	-9.688164e-07	-1.189959e-09	-7.057377e+00	-8.000315e+01
1.000000e-06	-9.160920e-07	-1.181602e-09	-6.673304e+00	-7.773087e+01
1.010000e-06	-8.632194e-07	-1.158620e-09	-6.288152e+00	-7.544078e+01
1.020000e-06	-8.102114e-07	-1.104270e-09	-5.902013e+00	-7.313319e+01
1.030000e-06	-7.570319e-07	-1.050198e-09	-5.514625e+00	-7.080825e+01
1.040000e-06	-7.037071e-07	-1.030822e-09	-5.126178e+00	-6.846596e+01
1.050000e-06	-6.502707e-07	-1.016485e-09	-4.736919e+00	-6.610607e+01
1.060000e-06	-5.967625e-07	-9.698370e-10	-4.347137e+00	-6.372817e+01
1.070000e-06	-5.432394e-07	-9.113095e-10	-3.957246e+00	-6.133164e+01
1.080000e-06	-4.896407e-07	-8.735882e-10	-3.566805e+00	-5.891567e+01
1.090000e-06	-4.359072e-07	-8.573345e-10	-3.175381e+00	-5.647933e+01
1.100000e-06	-3.821039e-07	-8.267856e-10	-2.783449e+00	-5.402158e+01
1.110000e-06	-3.282860e-07	-7.753167e-10	-2.391410e+00	-5.154135e+01
1.120000e-06	-2.743711e-07	-7.302417e-10	-1.998666e+00	-4.903758e+01
1.130000e-06	-2.203929e-07	-6.989854e-10	-1.605460e+00	-4.650934e+01
1.140000e-06	-1.664109e-07	-6.696684e-10	-1.212226e+00	-4.395584e+01
1.150000e-06	-1.124193e-07	-6.282514e-10	-8.189226e-01	-4.137656e+01
1.160000e-06	-5.843287e-08	-5.810075e-10	-4.256562e-01	-3.877126e+01
1.170000e-06	-4.379922e-09	-5.384319e-10	-3.190570e-02	-3.614003e+01
1.180000e-06	4.969100e-08	-4.983390e-10	3.619758e-01	-3.348336e+01
1.190000e-06	1.037326e-07	-4.637249e-10	7.556434e-01	-3.080206e+01
1.200000e-06	1.577450e-07	-4.263916e-10	1.149099e+00	-2.809733e+01
1.210000e-06	2.116973e-07	-3.784581e-10	1.542117e+00	-2.537065e+01
1.220000e-06	2.656000e-07	-3.270276e-10	1.934773e+00	-2.262374e+01
1.230000e-06	3.194854e-07	-2.835181e-10	2.327303e+00	-1.985849e+01
1.240000e-06	3.733304e-07	-2.524598e-10	2.719538e+00	-1.707684e+01
1.250000e-06	4.270840e-07	-2.121487e-10	3.111108e+00	-1.428069e+01
1.260000e-06	4.807734e-07	-1.568970e-10	3.502211e+00	-1.147181e+01
1.270000e-06	5.343978e-07	-1.034231e-10	3.892839e+00	-8.651707e+00
1.280000e-06	5.879030e-07	-6.388789e-11	4.282600e+00	-5.821597e+00
1.290000e-06	6.413212e-07	-3.159096e-11	4.671726e+00	-2.982307e+00
1.300000e-06	6.946889e-07	1.559503e-11	5.060486e+00	-1.342572e-01
1.310000e-06	7.479501e-07	7.190577e-11	5.448468e+00	2.722548e+00
1.320000e-06	8.010737e-07	1.154883e-10	5.835449e+00	5.588496e+00
1.330000e-06	8.540335e-07	1.469469e-10	6.221236e+00	8.464308e+00
1.340000e-06	9.067621e-07	1.853754e-10	6.605340e+00	1.135096e+01
1.350000e-06	9.592445e-07	2.418253e-10	6.987650e+00	1.424959e+01
1.360000e-06	1.011536e-06	2.968829e-10	7.368569e+00	1.716136e+01
1.370000e-06	1.063646e-06	3.361287e-10	7.748166e+00	2.008734e+01
1.380000e-06	1.115610e-06	3.729180e-10	8.126701e+00	2.302841e+01
1.390000e-06	1.167420e-06	4.190852e-10	8.504111e+00	2.598509e+01
1.400000e-06	1.219031e-06	4.708694e-10	8.880075e+00	2.895750e+01
1.410000e-06	1.270426e-06	5.172530e-10	9.254459e+00	3.194526e+01
1.420000e-06	1.321568e-06	5.588689e-10	9.627008e+00	3.494744e+01
1.430000e-06	1.372444e-06	6.017274e-10	9.997616e+00	3.796255e+01
1.440000e-06	1.422964e-06	6.475936e-10	1.036563e+01	4.098860e+01
1.450000e-06	1.473058e-06	6.954175e-10	1.073054e+01	4.402310e+01
1.460000e-06	1.522618e-06	7.427731e-10	1.109156e+01	4.706318e+01
1.470000e-06	1.571653e-06	7.883051e-10	1.144876e+01	5.010569e+01
1.480000e-06	1.620215e-06	8.293600e-10	1.180251e+01	5.314730e+01
1.490000e-06	1.668310e-06	8.713724e-10	1.215286e+01	5.618467e+01
1.500000e-06	1.716167e-06	9.217045e-10	1.250148e+01	5.921452e+01
1.510000e-06	1.763881e-06	9.728264e-10	1.284905e+01	6.223381e+01
1.520000e-06	1.811407e-06	1.017190e-09	1.319526e+01	6.523979e+01
1.530000e-06	1.858699e-06	1.056350e-09	1.353975e+01	6.823009e+01
1.540000e-06	1.905643e-06	1.099784e-09	1.388172e+01	7.120277e+01
1.550000e-06	1.952227e-06	1.148869e-09	1.422106e+01	7.415633e+01
1.560000e-06	1.998436e-06	1.194289e-09	1.455768e+01	7.708967e+01
1.570000e-06	2.044265e-06	1.233158e-09	1.489152e+01	8.000209e+01
1.580000e-06	2.089787e-06	1.271777e-09	1.522313e+01	8.289315e+01
1.590000e-06	2.134969e-06	1.318043e-09	1.555225e+01	8.576263e+01
1.600000e-06	2.179788e-06	1.367635e-09	1.587874e+01	8.861041e+01
1.610000e-06	2.224198e-06	1.410005e-09	1.620225e+01	9.143632e+01
1.620000e-06	2.268195e-06	1.445704e-09	1.652275e+01	9.424012e+01
1.630000e-06	2.311965e-06	1.482809e-09	1.684159e+01	9.702132e+01
1.640000e-06	2.355545e-06	1.524783e-09	1.715905e+01	9.977916e+01
1.650000e-06	2.398877e-06	1.567834e-09	1.747470e+01	1.025126e+02
1.660000e-06	2.441795e-06	1.606701e-09	1.778734e+01	1.052201e+02
1.670000e-06	2.484075e-06	1.642976e-09	1.809533e+01	1.078999e+02
1.680000e-06	2.525657e-06	1.680298e-09	1.839824e+01	1.105499e+02
1.690000e-06	2.566550e-06	1.720342e-09	1.869612e+01	1.131679e+02
1.700000e-06	2.606832e-06	1.759263e-09	1.898956e+01	1.157512e+02
1.710000e-06	2.646668e-06	1.793856e-09	1.927975e+01	1.182974e+02
1.720000e-06	2.686203e-06	1.826934e-09	1.956774e+01	1.208038e+02
1.730000e-06	2.725409e-06	1.859893e-09	1.985334e+01	1.232680e+02
1.740000e-06	2.764142e-06	1.894800e-09	2.013549e+01	1.256878e+02
1.750000e-06	2.802389e-06	1.930253e-09	2.041410e+01	1.280613e+02
1.760000e-06	2.840123e-06	1.963381e-09	2.068897e+01	1.303869e+02
1.770000e-06	2.877313e-06	1.995496e-09	2.095989e+01	1.326632e+02
1.780000e-06	2.914034e-06	2.028632e-09	2.122738e+01	1.348895e+02
1.790000e-06	2.950226e-06	2.062859e-09	2.149102e+01	1.370652e+02
1.800000e-06	2.986009e-06	2.095457e-09	2.175169e+01	1.391900e+02
1.810000e-06	3.021554e-06	2.122441e-09	2.201061e+01	1.412641e+02
1.820000e-06	3.056708e-06	2.147387e-09	2.226669e+01	1.432876e+02
1.830000e-06	3.091294e-06	2.175781e-09	2.251863e+01	1.452609e+02
1.840000e-06	3.125095e-06	2.207802e-09	2.276487e+01	1.471842e+02
1.850000e-06	3.158010e-06	2.236967e-09	2.300463e+01	1.490581e+02
1.860000e-06	3.190221e-06	2.259568e-09	2.323928e+01	1.508829e+02
1.870000e-06	3.221940e-06	2.282112e-09	2.347033e+01	1.526586e+02
1.880000e-06	3.253224e-06	2.308484e-09	2.369822e+01	1.543855e+02
1.890000e-06	3.284039e-06	2.335560e-09	2.392270e+01	1.560636e+02
1.900000e-06	3.314296e-06	2.357548e-09	2.414310e+01	1.576929e+02
1.910000e-06	3.343972e-06	2.375599e-09	2.435928e+01	1.592733e+02
1.920000e-06	3.373058e-06	2.396626e-09	2.457116e+01	1.608049e+02
1.930000e-06	3.401515e-06	2.420963e-09	2.477846e+01	1.622878e+02
1.940000e-06	3.429432e-06	2.443843e-09	2.498181e+01	1.637223e+02
1.950000e-06	3.456994e-06	2.462819e-09	2.518259e+01	1.651088e+02
1.960000e-06	3.484095e-06	2.478814e-09	2.538001e+01	1.664482e+02
1.970000e-06	3.510446e-06	2.496128e-09	2.557196e+01	1.677414e+02
1.980000e-06	3.535896e-06	2.514331e-09	2.575736e+01	1.689896e+02
1.990000e-06	3.560435e-06	2.532767e-09	2.593611e+01	1.701943e+02
2.000000e-06	3.584246e-06	2.550366e-09	2.610956e+01	1.713572e+02
2.010000e-06	3.607535e-06	2.565962e-09	2.627921e+01	1.724801e+02
2.020000e-06	3.630269e-06	2.582693e-09	2.644482e+01	1.735645e+02
2.030000e-06	3.652295e-06	2.601161e-09	2.660527e+01	1.746124e+02
2.040000e-06	3.673687e-06	2.620197e-09	2.676110e+01	1.756250e+02
2.050000e-06	3.694541e-06	2.636168e-09	2.691301e+01	1.766037e+02
2.060000e-06	3.714807e-06	2.648531e-09	2.706064e+01	1.775495e+02
2.070000e-06	3.734567e-06	2.660910e-09	2.720459e+01	1.784627e+02
2.080000e-06	3.753934e-06	2.675264e-09	2.734567e+01	1.793437e+02
2.090000e-06	3.772729e-06	2.688598e-09	2.748258e+01	1.801922e+02
2.100000e-06	3.790789e-06	2.698587e-09	2.761413e+01	1.810077e+02
2.110000e-06	3.808125e-06	2.708075e-09	2.774042e+01	1.817891e+02
2.120000e-06	3.824819e-06	2.720157e-09	2.786203e+01	1.825356e+02
2.130000e-06	3.840942e-06	2.733948e-09	2.797947e+01	1.832461e+02
2.140000e-06	3.856369e-06	2.745906e-09	2.809186e+01	1.839194e+02
2.150000e-06	3.870866e-06	2.756105e-09	2.819746e+01	1.845548e+02
2.160000e-06	3.884491e-06	2.765303e-09	2.829671e+01	1.851515e+02
2.170000e-06	3.897484e-06	2.774460e-09	2.839136e+01	1.857095e+02
2.180000e-06	3.909795e-06	2.783314e-09	2.848104e+01	1.862289e+02
2.190000e-06	3.921363e-06	2.792703e-09	2.856531e+01	1.867104e+02
2.200000e-06	3.932110e-06	2.801526e-09	2.864359e+01	1.871553e+02
2.210000e-06	3.941899e-06	2.809288e-09	2.871490e+01	1.875651e+02
2.220000e-06	3.950693e-06	2.816017e-09	2.877896e+01	1.879418e+02
2.230000e-06	3.958676e-06	2.820922e-09	2.883712e+01	1.882877e+02
2.240000e-06	3.966100e-06	2.825121e-09	2.889119e+01	1.886050e+02
2.250000e-06	3.972949e-06	2.828039e-09	2.894108e+01	1.888959e+02
2.260000e-06	3.979138e-06	2.831721e-09	2.898617e+01	1.891626e+02
2.270000e-06	3.984631e-06	2.836013e-09	2.902618e+01	1.894065e+02
2.280000e-06	3.989408e-06	2.840237e-09	2.906098e+01	1.896290e+02
2.290000e-06	3.993562e-06	2.844214e-09	2.909124e+01	1.898305e+02
2.300000e-06	3.997203e-06	2.846557e-09	2.911776e+01	1.900108e+02
2.310000e-06	4.000326e-06	2.847150e-09	2.914051e+01	1.901693e+02
2.320000e-06	4.002599e-06	2.848605e-09	2.915707e+01	1.903045e+02
2.330000e-06	4.003825e-06	2.850365e-09	2.916600e+01	1.904144e+02
2.340000e-06	4.004271e-06	2.853634e-09	2.916925e+01	1.904967e+02
2.350000e-06	4.004112e-06	2.856482e-09	2.916810e+01	1.905487e+02
2.360000e-06	4.003328e-06	2.857629e-09	2.916238e+01	1.905680e+02
2.370000e-06	4.001875e-06	2.857351e-09	2.915180e+01	1.905521e+02
2.380000e-06	3.999738e-06	2.855395e-09	2.913623e+01	1.904991e+02
2.390000e-06	3.996947e-06	2.853420e-09	2.911590e+01	1.904076e+02
2.400000e-06	3.993558e-06	2.851448e-09	2.909121e+01	1.902772e+02
2.410000e-06	3.989640e-06	2.850874e-09	2.906267e+01	1.901084e+02
2.420000e-06	3.985265e-06	2.861815e-09	2.903080e+01	1.899026e+02
2.430000e-06	3.980288e-06	2.853042e-09	2.899454e+01	1.896623e+02
2.440000e-06	3.974302e-06	2.805505e-09	2.895094e+01	1.893910e+02
2.450000e-06	3.967084e-06	2.804140e-09	2.889836e+01	1.890929e+02
2.460000e-06	3.958985e-06	2.862592e-09	2.883937e+01	1.887731e+02
2.470000e-06	3.950519e-06	2.899366e-09	2.877769e+01	1.884369e+02
2.480000e-06	3.941695e-06	2.802935e-09	2.871342e+01	1.880898e+02
2.490000e-06	3.932034e-06	2.771682e-09	2.864304e+01	1.877372e+02
2.500000e-06	3.921459e-06	2.802982e-09	2.856601e+01	1.873840e+02
2.510000e-06	3.910504e-06	2.798111e-09	2.848620e+01	1.870343e+02
2.520000e-06	3.899033e-06	2.805260e-09	2.840264e+01	1.866912e+02
2.530000e-06	3.886497e-06	2.811763e-09	2.831132e+01	1.863566e+02
2.540000e-06	3.872976e-06	2.760088e-09	2.821283e+01	1.860310e+02
2.550000e-06	3.858770e-06	2.732891e-09	2.810934e+01	1.857135e+02
2.560000e-06	3.843848e-06	2.869165e-09	2.800064e+01	1.854017e+02
2.570000e-06	3.828027e-06	2.858475e-09	2.788539e+01	1.850919e+02
2.580000e-06	3.811411e-06	2.683623e-09	2.776435e+01	1.847793e+02
2.590000e-06	3.794229e-06	2.703854e-09	2.763919e+01	1.844579e+02
2.600000e-06	3.776438e-06	2.858557e-09	2.750960e+01	1.841212e+02
2.610000e-06	3.757927e-06	2.834263e-09	2.737475e+01	1.837625e+02
2.620000e-06	3.738728e-06	2.779531e-09	2.723490e+01	1.833748e+02
2.630000e-06	3.718924e-06	2.828893e-09	2.709063e+01	1.829515e+02
2.640000e-06	3.698606e-06	2.782112e-09	2.694262e+01	1.824868e+02
2.650000e-06	3.677733e-06	2.765660e-09	2.679058e+01	1.819757e+02
2.660000e-06	3.656197e-06	2.864767e-09	2.663369e+01	1.814143e+02
2.670000e-06	3.633935e-06	2.815249e-09	2.647153e+01	1.807999e+02
2.680000e-06	3.610787e-06	2.684959e-09	2.630291e+01	1.801315e+02
2.690000e-06	3.586801e-06	2.671466e-09	2.612818e+01	1.794091e+02
2.700000e-06	3.562309e-06	2.792908e-09	2.594976e+01	1.786342e+02
2.710000e-06	3.537296e-06	2.832404e-09	2.576755e+01	1.778095e+02
2.720000e-06	3.511539e-06	2.677105e-09	2.557993e+01	1.769385e+02
2.730000e-06	3.485145e-06	2.598947e-09	2.538766e+01	1.760255e+02
2.740000e-06	3.458248e-06	2.720198e-09	2.519173e+01	1.750752e+02
2.750000e-06	3.430812e-06	2.801549e-09	2.499187e+01	1.740925e+02
2.760000e-06	3.402893e-06	2.673738e-09	2.478849e+01	1.730823e+02
2.770000e-06	3.374527e-06	2.560593e-09	2.458186e+01	1.720489e+02
2.780000e-06	3.345591e-06	2.629501e-09	2.437107e+01	1.709961e+02
2.790000e-06	3.315970e-06	2.691504e-09	2.415530e+01	1.699270e+02
2.800000e-06	3.285436e-06	2.643274e-09	2.393287e+01	1.688439e+02
2.810000e-06	3.254006e-06	2.554631e-09	2.370392e+01	1.677480e+02
2.820000e-06	3.221966e-06	2.537800e-09	2.347052e+01	1.666398e+02
2.830000e-06	3.189466e-06	2.577208e-09	2.323378e+01	1.655190e+02
2.840000e-06	3.156528e-06	2.558675e-09	2.299384e+01	1.643843e+02
2.850000e-06	3.123071e-06	2.525669e-09	2.275012e+01	1.632343e+02
2.860000e-06	3.089098e-06	2.495453e-09	2.250264e+01	1.620668e+02
2.870000e-06	3.054604e-06	2.473745e-09	2.225137e+01	1.608798e+02
2.880000e-06	3.019542e-06	2.470321e-09	2.199596e+01	1.596710e+02
2.890000e-06	2.983987e-06	2.452171e-09	2.173695e+01	1.584385e+02
2.900000e-06	2.948011e-06	2.442763e-09	2.147489e+01	1.571807e+02
2.910000e-06	2.911655e-06	2.415410e-09	2.121005e+01	1.558964e+02
2.920000e-06	2.874888e-06	2.372840e-09	2.094222e+01	1.545849e+02
2.930000e-06	2.837539e-06	2.355330e-09	2.067015e+01	1.532463e+02
2.940000e-06	2.799437e-06	2.353819e-09	2.039259e+01	1.518808e+02
