# Temperatura_=_20.0
# Concentracion g/m^3_=_9000.0
# C_Vs_to_Am_M_A/Vsm_=_65563218390.804596
# pendiente_HvsI_1/m_=_3716.3
# ordenada_HvsI_A/m_=_1297.0
# frecuencia_Hz_=_300777.8188954022

Tiempo_(s)	Campo_(V.s)	Magnetizacion_(V.s)	Campo_(kA/m)	Magnetizacion_(A/m)
0.000000e+00	-4.059496e-06	-3.537752e-09	-5.684226e+01	-2.328064e+02
1.000000e-08	-4.057575e-06	-3.541098e-09	-5.681536e+01	-2.328593e+02
2.000000e-08	-4.054207e-06	-3.540828e-09	-5.676820e+01	-2.328806e+02
3.000000e-08	-4.049758e-06	-3.539050e-09	-5.670590e+01	-2.328663e+02
4.000000e-08	-4.044088e-06	-3.535951e-09	-5.662651e+01	-2.328129e+02
5.000000e-08	-4.037115e-06	-3.531689e-09	-5.652887e+01	-2.327188e+02
6.000000e-08	-4.028919e-06	-3.526179e-09	-5.641411e+01	-2.325849e+02
7.000000e-08	-4.019154e-06	-3.510966e-09	-5.627738e+01	-2.324142e+02
8.000000e-08	-4.007601e-06	-3.523982e-09	-5.611561e+01	-2.322125e+02
9.000000e-08	-3.994149e-06	-3.579280e-09	-5.592725e+01	-2.319876e+02
1.000000e-07	-3.978639e-06	-3.601448e-09	-5.571007e+01	-2.317485e+02
1.100000e-07	-3.961466e-06	-3.560631e-09	-5.546961e+01	-2.315047e+02
1.200000e-07	-3.943104e-06	-3.418711e-09	-5.521250e+01	-2.312648e+02
1.300000e-07	-3.923823e-06	-3.408349e-09	-5.494253e+01	-2.310356e+02
1.400000e-07	-3.903628e-06	-3.587637e-09	-5.465975e+01	-2.308208e+02
1.500000e-07	-3.882433e-06	-3.547280e-09	-5.436298e+01	-2.306207e+02
1.600000e-07	-3.860104e-06	-3.446064e-09	-5.405031e+01	-2.304316e+02
1.700000e-07	-3.836037e-06	-3.447522e-09	-5.371332e+01	-2.302456e+02
1.800000e-07	-3.810094e-06	-3.379106e-09	-5.335005e+01	-2.300517e+02
1.900000e-07	-3.783040e-06	-3.475741e-09	-5.297124e+01	-2.298359e+02
2.000000e-07	-3.754961e-06	-3.626165e-09	-5.257807e+01	-2.295830e+02
2.100000e-07	-3.725392e-06	-3.438457e-09	-5.216403e+01	-2.292777e+02
2.200000e-07	-3.694607e-06	-3.354644e-09	-5.173297e+01	-2.289060e+02
2.300000e-07	-3.662881e-06	-3.548997e-09	-5.128873e+01	-2.284560e+02
2.400000e-07	-3.629798e-06	-3.571390e-09	-5.082550e+01	-2.279197e+02
2.500000e-07	-3.595122e-06	-3.477210e-09	-5.033996e+01	-2.272928e+02
2.600000e-07	-3.559071e-06	-3.392455e-09	-4.983516e+01	-2.265751e+02
2.700000e-07	-3.521830e-06	-3.371887e-09	-4.931370e+01	-2.257706e+02
2.800000e-07	-3.483448e-06	-3.487356e-09	-4.877627e+01	-2.248861e+02
2.900000e-07	-3.443957e-06	-3.485824e-09	-4.822330e+01	-2.239311e+02
3.000000e-07	-3.403289e-06	-3.364419e-09	-4.765386e+01	-2.229158e+02
3.100000e-07	-3.361094e-06	-3.347621e-09	-4.706303e+01	-2.218505e+02
3.200000e-07	-3.317464e-06	-3.353233e-09	-4.645211e+01	-2.207444e+02
3.300000e-07	-3.272784e-06	-3.383155e-09	-4.582648e+01	-2.196043e+02
3.400000e-07	-3.226985e-06	-3.402606e-09	-4.518520e+01	-2.184347e+02
3.500000e-07	-3.179980e-06	-3.287809e-09	-4.452702e+01	-2.172371e+02
3.600000e-07	-3.131859e-06	-3.210650e-09	-4.385321e+01	-2.160102e+02
3.700000e-07	-3.082442e-06	-3.312689e-09	-4.316126e+01	-2.147505e+02
3.800000e-07	-3.031391e-06	-3.354206e-09	-4.244643e+01	-2.134527e+02
3.900000e-07	-2.978841e-06	-3.211076e-09	-4.171061e+01	-2.121107e+02
4.000000e-07	-2.925319e-06	-3.159895e-09	-4.096118e+01	-2.107184e+02
4.100000e-07	-2.870942e-06	-3.235040e-09	-4.019978e+01	-2.092703e+02
4.200000e-07	-2.815676e-06	-3.223603e-09	-3.942593e+01	-2.077621e+02
4.300000e-07	-2.759560e-06	-3.146101e-09	-3.864017e+01	-2.061911e+02
4.400000e-07	-2.702192e-06	-3.110152e-09	-3.783688e+01	-2.045562e+02
4.500000e-07	-2.643513e-06	-3.093899e-09	-3.701525e+01	-2.028575e+02
4.600000e-07	-2.583970e-06	-3.074601e-09	-3.618151e+01	-2.010964e+02
4.700000e-07	-2.523678e-06	-3.059095e-09	-3.533729e+01	-1.992746e+02
4.800000e-07	-2.462510e-06	-3.027315e-09	-3.448080e+01	-1.973939e+02
4.900000e-07	-2.400458e-06	-2.970160e-09	-3.361192e+01	-1.954554e+02
5.000000e-07	-2.337587e-06	-2.946732e-09	-3.273158e+01	-1.934594e+02
5.100000e-07	-2.274083e-06	-2.957731e-09	-3.184238e+01	-1.914045e+02
5.200000e-07	-2.209787e-06	-2.913803e-09	-3.094209e+01	-1.892885e+02
5.300000e-07	-2.144220e-06	-2.840543e-09	-3.002400e+01	-1.871074e+02
5.400000e-07	-2.077511e-06	-2.813771e-09	-2.908993e+01	-1.848564e+02
5.500000e-07	-2.010226e-06	-2.817159e-09	-2.814778e+01	-1.825300e+02
5.600000e-07	-1.942566e-06	-2.772088e-09	-2.720038e+01	-1.801221e+02
5.700000e-07	-1.874316e-06	-2.696151e-09	-2.624473e+01	-1.776267e+02
5.800000e-07	-1.805380e-06	-2.664177e-09	-2.527946e+01	-1.750380e+02
5.900000e-07	-1.735873e-06	-2.649353e-09	-2.430621e+01	-1.723508e+02
6.000000e-07	-1.665755e-06	-2.603716e-09	-2.332440e+01	-1.695603e+02
6.100000e-07	-1.594968e-06	-2.542394e-09	-2.233321e+01	-1.666618e+02
6.200000e-07	-1.523695e-06	-2.499773e-09	-2.133523e+01	-1.636512e+02
6.300000e-07	-1.452139e-06	-2.461346e-09	-2.033327e+01	-1.605240e+02
6.400000e-07	-1.380182e-06	-2.411491e-09	-1.932572e+01	-1.572755e+02
6.500000e-07	-1.307579e-06	-2.357371e-09	-1.830911e+01	-1.539001e+02
6.600000e-07	-1.234143e-06	-2.298781e-09	-1.728083e+01	-1.503914e+02
6.700000e-07	-1.159952e-06	-2.238877e-09	-1.624199e+01	-1.467417e+02
6.800000e-07	-1.085266e-06	-2.189119e-09	-1.519622e+01	-1.429421e+02
6.900000e-07	-1.010128e-06	-2.138073e-09	-1.414411e+01	-1.389828e+02
7.000000e-07	-9.345878e-07	-2.064721e-09	-1.308637e+01	-1.348525e+02
7.100000e-07	-8.588471e-07	-1.987725e-09	-1.202583e+01	-1.305395e+02
7.200000e-07	-7.829661e-07	-1.929773e-09	-1.096332e+01	-1.260311e+02
7.300000e-07	-7.068254e-07	-1.869028e-09	-9.897178e+00	-1.213144e+02
7.400000e-07	-6.303120e-07	-1.779321e-09	-8.825814e+00	-1.163765e+02
7.500000e-07	-5.533934e-07	-1.688383e-09	-7.748778e+00	-1.112047e+02
7.600000e-07	-4.762581e-07	-1.615419e-09	-6.668706e+00	-1.057865e+02
7.700000e-07	-3.990685e-07	-1.536556e-09	-5.587875e+00	-1.001105e+02
7.800000e-07	-3.217925e-07	-1.437073e-09	-4.505833e+00	-9.416628e+01
7.900000e-07	-2.443836e-07	-1.335036e-09	-3.421932e+00	-8.794484e+01
8.000000e-07	-1.669033e-07	-1.242399e-09	-2.337029e+00	-8.143904e+01
8.100000e-07	-8.938131e-08	-1.143520e-09	-1.251543e+00	-7.464410e+01
8.200000e-07	-1.181783e-08	-1.033686e-09	-1.654767e-01	-6.755813e+01
8.300000e-07	6.572992e-08	-9.182585e-10	9.203697e-01	-6.018277e+01
8.400000e-07	1.432319e-07	-8.012964e-10	2.005575e+00	-5.252370e+01
8.500000e-07	2.206356e-07	-6.832844e-10	3.089405e+00	-4.459135e+01
8.600000e-07	2.979551e-07	-5.627634e-10	4.172055e+00	-3.640127e+01
8.700000e-07	3.752176e-07	-4.310889e-10	5.253907e+00	-2.797454e+01
8.800000e-07	4.523668e-07	-2.896248e-10	6.334173e+00	-1.933791e+01
8.900000e-07	5.293529e-07	-1.556397e-10	7.412156e+00	-1.052369e+01
9.000000e-07	6.060867e-07	-2.822133e-11	8.486605e+00	-1.569358e+00
9.100000e-07	6.825660e-07	1.096840e-10	9.557491e+00	7.483033e+00
9.200000e-07	7.587884e-07	2.582035e-10	1.062478e+01	1.658782e+01
9.300000e-07	8.347332e-07	3.967120e-10	1.168818e+01	2.569688e+01
9.400000e-07	9.104464e-07	5.244613e-10	1.274834e+01	3.476091e+01
9.500000e-07	9.859100e-07	6.602922e-10	1.380500e+01	4.373094e+01
9.600000e-07	1.061065e-06	8.054532e-10	1.485734e+01	5.255974e+01
9.700000e-07	1.135780e-06	9.427157e-10	1.590352e+01	6.120325e+01
9.800000e-07	1.209919e-06	1.066244e-09	1.694164e+01	6.962189e+01
9.900000e-07	1.283272e-06	1.188904e-09	1.796875e+01	7.778157e+01
1.000000e-06	1.355796e-06	1.314664e-09	1.898425e+01	8.565456e+01
1.010000e-06	1.427742e-06	1.434356e-09	1.999167e+01	9.322001e+01
1.020000e-06	1.499300e-06	1.542580e-09	2.099364e+01	1.004641e+02
1.030000e-06	1.570532e-06	1.643121e-09	2.199105e+01	1.073799e+02
1.040000e-06	1.641283e-06	1.741703e-09	2.298173e+01	1.139671e+02
1.050000e-06	1.711411e-06	1.839617e-09	2.396368e+01	1.202310e+02
1.060000e-06	1.780968e-06	1.933007e-09	2.493764e+01	1.261820e+02
1.070000e-06	1.849879e-06	2.015723e-09	2.590256e+01	1.318343e+02
1.080000e-06	1.918121e-06	2.091905e-09	2.685809e+01	1.372046e+02
1.090000e-06	1.985849e-06	2.169737e-09	2.780644e+01	1.423112e+02
1.100000e-06	2.053114e-06	2.246600e-09	2.874831e+01	1.471729e+02
1.110000e-06	2.119683e-06	2.315669e-09	2.968042e+01	1.518074e+02
1.120000e-06	2.185135e-06	2.376057e-09	3.059691e+01	1.562313e+02
1.130000e-06	2.249461e-06	2.438542e-09	3.149762e+01	1.604589e+02
1.140000e-06	2.313090e-06	2.504677e-09	3.238857e+01	1.645017e+02
1.150000e-06	2.376129e-06	2.565109e-09	3.327126e+01	1.683689e+02
1.160000e-06	2.438383e-06	2.616400e-09	3.414296e+01	1.720667e+02
1.170000e-06	2.499813e-06	2.666129e-09	3.500311e+01	1.755991e+02
1.180000e-06	2.560430e-06	2.718081e-09	3.585189e+01	1.789684e+02
1.190000e-06	2.620320e-06	2.767522e-09	3.669050e+01	1.821756e+02
1.200000e-06	2.679476e-06	2.811327e-09	3.751882e+01	1.852215e+02
1.210000e-06	2.737555e-06	2.851207e-09	3.833205e+01	1.881067e+02
1.220000e-06	2.794298e-06	2.890090e-09	3.912658e+01	1.908330e+02
1.230000e-06	2.849979e-06	2.929286e-09	3.990625e+01	1.934033e+02
1.240000e-06	2.904837e-06	2.968077e-09	4.067439e+01	1.958222e+02
1.250000e-06	2.958731e-06	3.001982e-09	4.142902e+01	1.980960e+02
1.260000e-06	3.011551e-06	3.031193e-09	4.216863e+01	2.002324e+02
1.270000e-06	3.063226e-06	3.060636e-09	4.289219e+01	2.022407e+02
1.280000e-06	3.113502e-06	3.091661e-09	4.359618e+01	2.041308e+02
1.290000e-06	3.162217e-06	3.118903e-09	4.427830e+01	2.059133e+02
1.300000e-06	3.209675e-06	3.143208e-09	4.494281e+01	2.075982e+02
1.310000e-06	3.256070e-06	3.167069e-09	4.559245e+01	2.091952e+02
1.320000e-06	3.301384e-06	3.190635e-09	4.622695e+01	2.107127e+02
1.330000e-06	3.345676e-06	3.214323e-09	4.684714e+01	2.121578e+02
1.340000e-06	3.388931e-06	3.236087e-09	4.745282e+01	2.135363e+02
1.350000e-06	3.430883e-06	3.254433e-09	4.804023e+01	2.148525e+02
1.360000e-06	3.471365e-06	3.272529e-09	4.860707e+01	2.161096e+02
1.370000e-06	3.510629e-06	3.291992e-09	4.915687e+01	2.173101e+02
1.380000e-06	3.548778e-06	3.310689e-09	4.969104e+01	2.184558e+02
1.390000e-06	3.585704e-06	3.327211e-09	5.020808e+01	2.195486e+02
1.400000e-06	3.621535e-06	3.341942e-09	5.070980e+01	2.205902e+02
1.410000e-06	3.656201e-06	3.357460e-09	5.119520e+01	2.215831e+02
1.420000e-06	3.689364e-06	3.374063e-09	5.165956e+01	2.225296e+02
1.430000e-06	3.721138e-06	3.389018e-09	5.210448e+01	2.234325e+02
1.440000e-06	3.751684e-06	3.401731e-09	5.253219e+01	2.242948e+02
1.450000e-06	3.780921e-06	3.414852e-09	5.294157e+01	2.251189e+02
1.460000e-06	3.808990e-06	3.428957e-09	5.333460e+01	2.259068e+02
1.470000e-06	3.835811e-06	3.442568e-09	5.371015e+01	2.266596e+02
1.480000e-06	3.861040e-06	3.455880e-09	5.406342e+01	2.273774e+02
1.490000e-06	3.884741e-06	3.467263e-09	5.439529e+01	2.280595e+02
1.500000e-06	3.907133e-06	3.477163e-09	5.470884e+01	2.287040e+02
1.510000e-06	3.928215e-06	3.487708e-09	5.500403e+01	2.293084e+02
1.520000e-06	3.948063e-06	3.499356e-09	5.528194e+01	2.298701e+02
1.530000e-06	3.966697e-06	3.509191e-09	5.554286e+01	2.303867e+02
1.540000e-06	3.983881e-06	3.515806e-09	5.578348e+01	2.308564e+02
1.550000e-06	3.999551e-06	3.522105e-09	5.600289e+01	2.312784e+02
1.560000e-06	4.013754e-06	3.529262e-09	5.620176e+01	2.316534e+02
1.570000e-06	4.026465e-06	3.536076e-09	5.637975e+01	2.319835e+02
1.580000e-06	4.037650e-06	3.540965e-09	5.653636e+01	2.322721e+02
1.590000e-06	4.047135e-06	3.545398e-09	5.666918e+01	2.325236e+02
1.600000e-06	4.055017e-06	3.550439e-09	5.677955e+01	2.327427e+02
1.610000e-06	4.061504e-06	3.555859e-09	5.687038e+01	2.329343e+02
1.620000e-06	4.066583e-06	3.559932e-09	5.694150e+01	2.331024e+02
1.630000e-06	4.070435e-06	3.561709e-09	5.699543e+01	2.332498e+02
1.640000e-06	4.072915e-06	3.564986e-09	5.703016e+01	2.333777e+02
1.650000e-06	4.073725e-06	3.569302e-09	5.704150e+01	2.334855e+02
1.660000e-06	4.073097e-06	3.572503e-09	5.703271e+01	2.335708e+02
1.670000e-06	4.071204e-06	3.571381e-09	5.700620e+01	2.336300e+02
1.680000e-06	4.068039e-06	3.568930e-09	5.696188e+01	2.336588e+02
1.690000e-06	4.063792e-06	3.568777e-09	5.690241e+01	2.336526e+02
1.700000e-06	4.058275e-06	3.570552e-09	5.682517e+01	2.336080e+02
1.710000e-06	4.051137e-06	3.570512e-09	5.672521e+01	2.335230e+02
1.720000e-06	4.042652e-06	3.574179e-09	5.660640e+01	2.333977e+02
1.730000e-06	4.033079e-06	3.589202e-09	5.647236e+01	2.332347e+02
1.740000e-06	4.022257e-06	3.545759e-09	5.632082e+01	2.330393e+02
1.750000e-06	4.009552e-06	3.481832e-09	5.614293e+01	2.328189e+02
1.760000e-06	3.994384e-06	3.472113e-09	5.593055e+01	2.325823e+02
1.770000e-06	3.977197e-06	3.554672e-09	5.568989e+01	2.323390e+02
1.780000e-06	3.959090e-06	3.684615e-09	5.543635e+01	2.320979e+02
1.790000e-06	3.940655e-06	3.560128e-09	5.517822e+01	2.318661e+02
1.800000e-06	3.921046e-06	3.430802e-09	5.490364e+01	2.316484e+02
1.810000e-06	3.899322e-06	3.576461e-09	5.459946e+01	2.314456e+02
1.820000e-06	3.876298e-06	3.555397e-09	5.427707e+01	2.312549e+02
1.830000e-06	3.852480e-06	3.565068e-09	5.394357e+01	2.310693e+02
1.840000e-06	3.826937e-06	3.659823e-09	5.358591e+01	2.308784e+02
1.850000e-06	3.799858e-06	3.439191e-09	5.320673e+01	2.306688e+02
1.860000e-06	3.771922e-06	3.421519e-09	5.281557e+01	2.304255e+02
1.870000e-06	3.742679e-06	3.669412e-09	5.240610e+01	2.301329e+02
1.880000e-06	3.711742e-06	3.526121e-09	5.197290e+01	2.297767e+02
1.890000e-06	3.679339e-06	3.368526e-09	5.151919e+01	2.293446e+02
1.900000e-06	3.645760e-06	3.513326e-09	5.104901e+01	2.288276e+02
1.910000e-06	3.611165e-06	3.515292e-09	5.056460e+01	2.282204e+02
1.920000e-06	3.575344e-06	3.523209e-09	5.006303e+01	2.275223e+02
1.930000e-06	3.538242e-06	3.487947e-09	4.954350e+01	2.267361e+02
1.940000e-06	3.499931e-06	3.360589e-09	4.900707e+01	2.258683e+02
1.950000e-06	3.460064e-06	3.442635e-09	4.844884e+01	2.249278e+02
1.960000e-06	3.418756e-06	3.447580e-09	4.787044e+01	2.239248e+02
1.970000e-06	3.376458e-06	3.428520e-09	4.727816e+01	2.228697e+02
1.980000e-06	3.333139e-06	3.445540e-09	4.667160e+01	2.217718e+02
1.990000e-06	3.288722e-06	3.273062e-09	4.604965e+01	2.206388e+02
2.000000e-06	3.243165e-06	3.318294e-09	4.541175e+01	2.194756e+02
2.010000e-06	3.196455e-06	3.458432e-09	4.475771e+01	2.182843e+02
2.020000e-06	3.148484e-06	3.335140e-09	4.408600e+01	2.170641e+02
2.030000e-06	3.099163e-06	3.219090e-09	4.339539e+01	2.158121e+02
2.040000e-06	3.048892e-06	3.244508e-09	4.269149e+01	2.145232e+02
2.050000e-06	2.997678e-06	3.333771e-09	4.197437e+01	2.131914e+02
2.060000e-06	2.945241e-06	3.256947e-09	4.124013e+01	2.118107e+02
2.070000e-06	2.891406e-06	3.152704e-09	4.048632e+01	2.103752e+02
2.080000e-06	2.836140e-06	3.192912e-09	3.971247e+01	2.088804e+02
2.090000e-06	2.779800e-06	3.168748e-09	3.892359e+01	2.073233e+02
2.100000e-06	2.722509e-06	3.142941e-09	3.812138e+01	2.057023e+02
2.110000e-06	2.664369e-06	3.129312e-09	3.730728e+01	2.040175e+02
2.120000e-06	2.605432e-06	3.091515e-09	3.648203e+01	2.022699e+02
2.130000e-06	2.545620e-06	3.056328e-09	3.564452e+01	2.004612e+02
2.140000e-06	2.485119e-06	3.011788e-09	3.479737e+01	1.985932e+02
2.150000e-06	2.423701e-06	3.032106e-09	3.393738e+01	1.966673e+02
2.160000e-06	2.360976e-06	2.987458e-09	3.305908e+01	1.946839e+02
2.170000e-06	2.297169e-06	2.901866e-09	3.216564e+01	1.926421e+02
2.180000e-06	2.232696e-06	2.908820e-09	3.126287e+01	1.905397e+02
2.190000e-06	2.167585e-06	2.898174e-09	3.035116e+01	1.883731e+02
2.200000e-06	2.101649e-06	2.843081e-09	2.942791e+01	1.861379e+02
2.210000e-06	2.034924e-06	2.780919e-09	2.849360e+01	1.838283e+02
2.220000e-06	1.967515e-06	2.775275e-09	2.754972e+01	1.814386e+02
2.230000e-06	1.899547e-06	2.760004e-09	2.659801e+01	1.789627e+02
2.240000e-06	1.831109e-06	2.675876e-09	2.563973e+01	1.763948e+02
2.250000e-06	1.762044e-06	2.639644e-09	2.467266e+01	1.737294e+02
2.260000e-06	1.692184e-06	2.620313e-09	2.369446e+01	1.709616e+02
2.270000e-06	1.621324e-06	2.570838e-09	2.270226e+01	1.680869e+02
2.280000e-06	1.549593e-06	2.508549e-09	2.169786e+01	1.651009e+02
2.290000e-06	1.477471e-06	2.465576e-09	2.068798e+01	1.619994e+02
2.300000e-06	1.405075e-06	2.430748e-09	1.967427e+01	1.587776e+02
2.310000e-06	1.332291e-06	2.369665e-09	1.865513e+01	1.554301e+02
2.320000e-06	1.259029e-06	2.322110e-09	1.762930e+01	1.519508e+02
2.330000e-06	1.185244e-06	2.270529e-09	1.659613e+01	1.483322e+02
2.340000e-06	1.111028e-06	2.200219e-09	1.555694e+01	1.445658e+02
2.350000e-06	1.036441e-06	2.139008e-09	1.451255e+01	1.406419e+02
2.360000e-06	9.614749e-07	2.094039e-09	1.346285e+01	1.365495e+02
2.370000e-06	8.861436e-07	2.031836e-09	1.240804e+01	1.322769e+02
2.380000e-06	8.105292e-07	1.940863e-09	1.134927e+01	1.278117e+02
2.390000e-06	7.346750e-07	1.872788e-09	1.028714e+01	1.231410e+02
2.400000e-06	6.585911e-07	1.819163e-09	9.221786e+00	1.182519e+02
2.410000e-06	5.822755e-07	1.738316e-09	8.153193e+00	1.131314e+02
2.420000e-06	5.057437e-07	1.642569e-09	7.081572e+00	1.077673e+02
2.430000e-06	4.290403e-07	1.560670e-09	6.007549e+00	1.021477e+02
2.440000e-06	3.521776e-07	1.481962e-09	4.931294e+00	9.626206e+01
2.450000e-06	2.751699e-07	1.383341e-09	3.853010e+00	9.010094e+01
2.460000e-06	1.979688e-07	1.276725e-09	2.772017e+00	8.365682e+01
2.470000e-06	1.205674e-07	1.177210e-09	1.688220e+00	7.692435e+01
2.480000e-06	4.309561e-08	1.073911e-09	6.034374e-01	6.990100e+01
2.490000e-06	-3.427550e-08	9.638542e-10	-4.799357e-01	6.258756e+01
2.500000e-06	-1.115738e-07	8.517855e-10	-1.562289e+00	5.498884e+01
2.510000e-06	-1.888539e-07	7.311617e-10	-2.644388e+00	4.711417e+01
2.520000e-06	-2.659892e-07	6.031170e-10	-3.724460e+00	3.897798e+01
2.530000e-06	-3.428443e-07	4.767104e-10	-4.800607e+00	3.060016e+01
2.540000e-06	-4.194774e-07	3.489223e-10	-5.873646e+00	2.200623e+01
2.550000e-06	-4.959678e-07	2.085109e-10	-6.944688e+00	1.322732e+01
2.560000e-06	-5.723069e-07	6.567940e-11	-8.013610e+00	4.299873e+00
2.570000e-06	-6.484059e-07	-6.778126e-11	-9.079171e+00	-4.734990e+00
2.580000e-06	-7.242924e-07	-2.003129e-10	-1.014176e+01	-1.383229e+01
2.590000e-06	-8.000015e-07	-3.421736e-10	-1.120186e+01	-2.294431e+01
2.600000e-06	-8.753721e-07	-4.840663e-10	-1.225722e+01	-3.202189e+01
2.610000e-06	-9.503342e-07	-6.139266e-10	-1.330686e+01	-4.101587e+01
2.620000e-06	-1.024894e-06	-7.422460e-10	-1.435087e+01	-4.987852e+01
2.630000e-06	-1.099111e-06	-8.773840e-10	-1.539008e+01	-5.856499e+01
2.640000e-06	-1.173030e-06	-1.010470e-09	-1.642511e+01	-6.703463e+01
2.650000e-06	-1.246588e-06	-1.133565e-09	-1.745509e+01	-7.525211e+01
2.660000e-06	-1.319648e-06	-1.251342e-09	-1.847810e+01	-8.318828e+01
2.670000e-06	-1.392245e-06	-1.368146e-09	-1.949462e+01	-9.082078e+01
2.680000e-06	-1.464493e-06	-1.482502e-09	-2.050627e+01	-9.813428e+01
2.690000e-06	-1.536404e-06	-1.592191e-09	-2.151319e+01	-1.051204e+02
2.700000e-06	-1.607864e-06	-1.693617e-09	-2.251379e+01	-1.117775e+02
2.710000e-06	-1.678565e-06	-1.785777e-09	-2.350376e+01	-1.181097e+02
2.720000e-06	-1.748249e-06	-1.875382e-09	-2.447949e+01	-1.241265e+02
2.730000e-06	-1.817063e-06	-1.965511e-09	-2.544305e+01	-1.298412e+02
2.740000e-06	-1.885345e-06	-2.049957e-09	-2.639915e+01	-1.352702e+02
2.750000e-06	-1.953143e-06	-2.126165e-09	-2.734848e+01	-1.404315e+02
2.760000e-06	-2.020298e-06	-2.200129e-09	-2.828881e+01	-1.453438e+02
2.770000e-06	-2.086755e-06	-2.275953e-09	-2.921935e+01	-1.500253e+02
2.780000e-06	-2.152553e-06	-2.348783e-09	-3.014068e+01	-1.544928e+02
2.790000e-06	-2.217610e-06	-2.413867e-09	-3.105163e+01	-1.587611e+02
2.800000e-06	-2.281986e-06	-2.474597e-09	-3.195304e+01	-1.628424e+02
2.810000e-06	-2.345704e-06	-2.536036e-09	-3.284524e+01	-1.667464e+02
2.820000e-06	-2.408362e-06	-2.597279e-09	-3.372260e+01	-1.704798e+02
2.830000e-06	-2.469819e-06	-2.654714e-09	-3.458313e+01	-1.740471e+02
2.840000e-06	-2.530373e-06	-2.707479e-09	-3.543103e+01	-1.774510e+02
2.850000e-06	-2.590207e-06	-2.755262e-09	-3.626884e+01	-1.806927e+02
2.860000e-06	-2.649196e-06	-2.803086e-09	-3.709483e+01	-1.837728e+02
2.870000e-06	-2.707221e-06	-2.853888e-09	-3.790730e+01	-1.866921e+02
2.880000e-06	-2.764270e-06	-2.899794e-09	-3.870613e+01	-1.894520e+02
2.890000e-06	-2.820484e-06	-2.937979e-09	-3.949324e+01	-1.920552e+02
2.900000e-06	-2.875779e-06	-2.975692e-09	-4.026750e+01	-1.945058e+02
2.910000e-06	-2.929620e-06	-3.015585e-09	-4.102141e+01	-1.968098e+02
2.920000e-06	-2.982094e-06	-3.050381e-09	-4.175616e+01	-1.989747e+02
2.930000e-06	-3.033493e-06	-3.078047e-09	-4.247586e+01	-2.010093e+02
2.940000e-06	-3.083717e-06	-3.103340e-09	-4.317912e+01	-2.029237e+02
