# Temperatura_=_20.0
# Concentracion g/m^3_=_9000.0
# C_Vs_to_Am_M_A/Vsm_=_65563218390.804596
# pendiente_HvsI_1/m_=_3716.3
# ordenada_HvsI_A/m_=_1297.0
# frecuencia_Hz_=_300781.6143026248

Tiempo_(s)	Campo_(V.s)	Magnetizacion_(V.s)	Campo_(kA/m)	Magnetizacion_(A/m)
0.000000e+00	-4.053146e-06	-3.534085e-09	-5.684990e+01	-2.323525e+02
1.000000e-08	-4.051599e-06	-3.536053e-09	-5.682821e+01	-2.323075e+02
2.000000e-08	-4.048533e-06	-3.536665e-09	-5.678521e+01	-2.322377e+02
3.000000e-08	-4.044258e-06	-3.535823e-09	-5.672525e+01	-2.321452e+02
4.000000e-08	-4.038757e-06	-3.531841e-09	-5.664809e+01	-2.320323e+02
5.000000e-08	-4.031980e-06	-3.526757e-09	-5.655303e+01	-2.319014e+02
6.000000e-08	-4.024048e-06	-3.521090e-09	-5.644178e+01	-2.317545e+02
7.000000e-08	-4.014688e-06	-3.502709e-09	-5.631049e+01	-2.315941e+02
8.000000e-08	-4.003558e-06	-3.512965e-09	-5.615438e+01	-2.314223e+02
9.000000e-08	-3.990602e-06	-3.575385e-09	-5.597265e+01	-2.312407e+02
1.000000e-07	-3.975545e-06	-3.596887e-09	-5.576147e+01	-2.310509e+02
1.100000e-07	-3.958667e-06	-3.558812e-09	-5.552473e+01	-2.308534e+02
1.200000e-07	-3.940591e-06	-3.399990e-09	-5.527119e+01	-2.306481e+02
1.300000e-07	-3.921603e-06	-3.383916e-09	-5.500486e+01	-2.304339e+02
1.400000e-07	-3.901681e-06	-3.606642e-09	-5.472545e+01	-2.302085e+02
1.500000e-07	-3.880733e-06	-3.545980e-09	-5.443162e+01	-2.299689e+02
1.600000e-07	-3.858728e-06	-3.422504e-09	-5.412298e+01	-2.297108e+02
1.700000e-07	-3.835123e-06	-3.469994e-09	-5.379189e+01	-2.294294e+02
1.800000e-07	-3.809624e-06	-3.382793e-09	-5.343424e+01	-2.291189e+02
1.900000e-07	-3.782916e-06	-3.446251e-09	-5.305963e+01	-2.287738e+02
2.000000e-07	-3.755174e-06	-3.631180e-09	-5.267052e+01	-2.283881e+02
2.100000e-07	-3.725975e-06	-3.414468e-09	-5.226097e+01	-2.279565e+02
2.200000e-07	-3.695512e-06	-3.304626e-09	-5.183369e+01	-2.274744e+02
2.300000e-07	-3.664058e-06	-3.550604e-09	-5.139252e+01	-2.269378e+02
2.400000e-07	-3.631346e-06	-3.573315e-09	-5.093368e+01	-2.263442e+02
2.500000e-07	-3.597085e-06	-3.445603e-09	-5.045314e+01	-2.256921e+02
2.600000e-07	-3.561356e-06	-3.370595e-09	-4.995201e+01	-2.249813e+02
2.700000e-07	-3.524427e-06	-3.371301e-09	-4.943403e+01	-2.242128e+02
2.800000e-07	-3.486342e-06	-3.477026e-09	-4.889984e+01	-2.233884e+02
2.900000e-07	-3.447053e-06	-3.449920e-09	-4.834877e+01	-2.225107e+02
3.000000e-07	-3.406613e-06	-3.342511e-09	-4.778156e+01	-2.215827e+02
3.100000e-07	-3.364785e-06	-3.350368e-09	-4.719487e+01	-2.206075e+02
3.200000e-07	-3.321526e-06	-3.324884e-09	-4.658812e+01	-2.195881e+02
3.300000e-07	-3.277130e-06	-3.350088e-09	-4.596542e+01	-2.185269e+02
3.400000e-07	-3.231647e-06	-3.398602e-09	-4.532746e+01	-2.174256e+02
3.500000e-07	-3.184956e-06	-3.276170e-09	-4.467258e+01	-2.162850e+02
3.600000e-07	-3.137057e-06	-3.191261e-09	-4.400073e+01	-2.151050e+02
3.700000e-07	-3.087891e-06	-3.308566e-09	-4.331112e+01	-2.138845e+02
3.800000e-07	-3.037196e-06	-3.344822e-09	-4.260008e+01	-2.126214e+02
3.900000e-07	-2.985000e-06	-3.185613e-09	-4.186797e+01	-2.113131e+02
4.000000e-07	-2.931737e-06	-3.148345e-09	-4.112089e+01	-2.099563e+02
4.100000e-07	-2.877671e-06	-3.231621e-09	-4.036255e+01	-2.085473e+02
4.200000e-07	-2.822746e-06	-3.203489e-09	-3.959217e+01	-2.070824e+02
4.300000e-07	-2.766803e-06	-3.123209e-09	-3.880751e+01	-2.055581e+02
4.400000e-07	-2.709615e-06	-3.104927e-09	-3.800538e+01	-2.039713e+02
4.500000e-07	-2.651214e-06	-3.091110e-09	-3.718625e+01	-2.023193e+02
4.600000e-07	-2.591941e-06	-3.062979e-09	-3.635487e+01	-2.006000e+02
4.700000e-07	-2.531923e-06	-3.045518e-09	-3.551305e+01	-1.988121e+02
4.800000e-07	-2.471024e-06	-3.018492e-09	-3.465887e+01	-1.969550e+02
4.900000e-07	-2.409233e-06	-2.960471e-09	-3.379218e+01	-1.950282e+02
5.000000e-07	-2.346661e-06	-2.933145e-09	-3.291454e+01	-1.930320e+02
5.100000e-07	-2.283396e-06	-2.944593e-09	-3.202719e+01	-1.909664e+02
5.200000e-07	-2.219328e-06	-2.897547e-09	-3.112856e+01	-1.888316e+02
5.300000e-07	-2.154159e-06	-2.826625e-09	-3.021450e+01	-1.866271e+02
5.400000e-07	-2.087896e-06	-2.803005e-09	-2.928508e+01	-1.843521e+02
5.500000e-07	-2.020890e-06	-2.804698e-09	-2.834525e+01	-1.820047e+02
5.600000e-07	-1.953394e-06	-2.758864e-09	-2.739853e+01	-1.795824e+02
5.700000e-07	-1.885360e-06	-2.685470e-09	-2.644428e+01	-1.770812e+02
5.800000e-07	-1.816712e-06	-2.653543e-09	-2.548141e+01	-1.744965e+02
5.900000e-07	-1.747491e-06	-2.636009e-09	-2.451051e+01	-1.718224e+02
6.000000e-07	-1.677643e-06	-2.589445e-09	-2.353082e+01	-1.690523e+02
6.100000e-07	-1.607077e-06	-2.526609e-09	-2.254105e+01	-1.661790e+02
6.200000e-07	-1.535967e-06	-2.482323e-09	-2.154365e+01	-1.631944e+02
6.300000e-07	-1.464567e-06	-2.441544e-09	-2.054220e+01	-1.600904e+02
6.400000e-07	-1.392811e-06	-2.393242e-09	-1.953573e+01	-1.568587e+02
6.500000e-07	-1.320474e-06	-2.344361e-09	-1.852113e+01	-1.534908e+02
6.600000e-07	-1.247415e-06	-2.289854e-09	-1.749639e+01	-1.499785e+02
6.700000e-07	-1.173648e-06	-2.227260e-09	-1.646172e+01	-1.463135e+02
6.800000e-07	-1.099303e-06	-2.172979e-09	-1.541895e+01	-1.424877e+02
6.900000e-07	-1.024441e-06	-2.122315e-09	-1.436893e+01	-1.384930e+02
7.000000e-07	-9.490888e-07	-2.049294e-09	-1.331203e+01	-1.343211e+02
7.100000e-07	-8.734842e-07	-1.969331e-09	-1.225159e+01	-1.299636e+02
7.200000e-07	-7.977351e-07	-1.907118e-09	-1.118913e+01	-1.254116e+02
7.300000e-07	-7.217430e-07	-1.846352e-09	-1.012325e+01	-1.206560e+02
7.400000e-07	-6.454742e-07	-1.759794e-09	-9.053498e+00	-1.156872e+02
7.500000e-07	-5.688200e-07	-1.670885e-09	-7.978337e+00	-1.104952e+02
7.600000e-07	-4.918862e-07	-1.596234e-09	-6.899254e+00	-1.050700e+02
7.700000e-07	-4.148818e-07	-1.515065e-09	-5.819181e+00	-9.940161e+01
7.800000e-07	-3.377352e-07	-1.416092e-09	-4.737114e+00	-9.348063e+01
7.900000e-07	-2.604417e-07	-1.315793e-09	-3.652986e+00	-8.729863e+01
8.000000e-07	-1.831048e-07	-1.224314e-09	-2.568250e+00	-8.084874e+01
8.100000e-07	-1.057089e-07	-1.123925e-09	-1.482686e+00	-7.412624e+01
8.200000e-07	-2.827155e-08	-1.011738e-09	-3.965402e-01	-6.712917e+01
8.300000e-07	4.912925e-08	-8.975881e-10	6.890927e-01	-5.985895e+01
8.400000e-07	1.264664e-07	-7.842026e-10	1.773833e+00	-5.232093e+01
8.500000e-07	2.037479e-07	-6.677212e-10	2.857792e+00	-4.452485e+01
8.600000e-07	2.809829e-07	-5.484462e-10	3.941100e+00	-3.648521e+01
8.700000e-07	3.581530e-07	-4.205798e-10	5.023496e+00	-2.822143e+01
8.800000e-07	4.352132e-07	-2.845356e-10	6.104352e+00	-1.975795e+01
8.900000e-07	5.121122e-07	-1.534037e-10	7.182946e+00	-1.112404e+01
9.000000e-07	5.888505e-07	-2.565903e-11	8.259286e+00	-2.353484e+00
9.100000e-07	6.653337e-07	1.128835e-10	9.332049e+00	6.515926e+00
9.200000e-07	7.415073e-07	2.607958e-10	1.040047e+01	1.544312e+01
9.300000e-07	8.173897e-07	3.964559e-10	1.146481e+01	2.438462e+01
9.400000e-07	8.930003e-07	5.218850e-10	1.252533e+01	3.329551e+01
9.500000e-07	9.683991e-07	6.552039e-10	1.358288e+01	4.213062e+01
9.600000e-07	1.043533e-06	7.970557e-10	1.463672e+01	5.084562e+01
9.700000e-07	1.118179e-06	9.315154e-10	1.568371e+01	5.939828e+01
9.800000e-07	1.192272e-06	1.052666e-09	1.672294e+01	6.774958e+01
9.900000e-07	1.265749e-06	1.173314e-09	1.775355e+01	7.586476e+01
1.000000e-06	1.338422e-06	1.299095e-09	1.877287e+01	8.371424e+01
1.010000e-06	1.410430e-06	1.422272e-09	1.978286e+01	9.127430e+01
1.020000e-06	1.482026e-06	1.532450e-09	2.078708e+01	9.852752e+01
1.030000e-06	1.553294e-06	1.631622e-09	2.178669e+01	1.054630e+02
1.040000e-06	1.624080e-06	1.729442e-09	2.277954e+01	1.120762e+02
1.050000e-06	1.694269e-06	1.828776e-09	2.376402e+01	1.183686e+02
1.060000e-06	1.763847e-06	1.922058e-09	2.473993e+01	1.243470e+02
1.070000e-06	1.832784e-06	2.002922e-09	2.570684e+01	1.300228e+02
1.080000e-06	1.901084e-06	2.078643e-09	2.666483e+01	1.354107e+02
1.090000e-06	1.968818e-06	2.155998e-09	2.761488e+01	1.405280e+02
1.100000e-06	2.036074e-06	2.232898e-09	2.855822e+01	1.453928e+02
1.110000e-06	2.102653e-06	2.303478e-09	2.949205e+01	1.500239e+02
1.120000e-06	2.168204e-06	2.365812e-09	3.041149e+01	1.544389e+02
1.130000e-06	2.232653e-06	2.427611e-09	3.131546e+01	1.586539e+02
1.140000e-06	2.296325e-06	2.491622e-09	3.220853e+01	1.626832e+02
1.150000e-06	2.359418e-06	2.551519e-09	3.309348e+01	1.665384e+02
1.160000e-06	2.421765e-06	2.602519e-09	3.396796e+01	1.702287e+02
1.170000e-06	2.483287e-06	2.651059e-09	3.483088e+01	1.737612e+02
1.180000e-06	2.543980e-06	2.701426e-09	3.568217e+01	1.771408e+02
1.190000e-06	2.603919e-06	2.752254e-09	3.652288e+01	1.803713e+02
1.200000e-06	2.663199e-06	2.799145e-09	3.735434e+01	1.834552e+02
1.210000e-06	2.721500e-06	2.840406e-09	3.817208e+01	1.863948e+02
1.220000e-06	2.778417e-06	2.879781e-09	3.897040e+01	1.891927e+02
1.230000e-06	2.834155e-06	2.919075e-09	3.975219e+01	1.918515e+02
1.240000e-06	2.889007e-06	2.957851e-09	4.052156e+01	1.943749e+02
1.250000e-06	2.942948e-06	2.992718e-09	4.127814e+01	1.967674e+02
1.260000e-06	2.995897e-06	3.024982e-09	4.202080e+01	1.990341e+02
1.270000e-06	3.047755e-06	3.056383e-09	4.274817e+01	2.011810e+02
1.280000e-06	3.098282e-06	3.087545e-09	4.345687e+01	2.032145e+02
1.290000e-06	3.147246e-06	3.115883e-09	4.414365e+01	2.051410e+02
1.300000e-06	3.194850e-06	3.142365e-09	4.481135e+01	2.069670e+02
1.310000e-06	3.241341e-06	3.167903e-09	4.546343e+01	2.086985e+02
1.320000e-06	3.286744e-06	3.191190e-09	4.610027e+01	2.103411e+02
1.330000e-06	3.331082e-06	3.214836e-09	4.672216e+01	2.118996e+02
1.340000e-06	3.374429e-06	3.238352e-09	4.733014e+01	2.133784e+02
1.350000e-06	3.416568e-06	3.259789e-09	4.792119e+01	2.147812e+02
1.360000e-06	3.457209e-06	3.280124e-09	4.849122e+01	2.161113e+02
1.370000e-06	3.496591e-06	3.299552e-09	4.904360e+01	2.173716e+02
1.380000e-06	3.534878e-06	3.317517e-09	4.958062e+01	2.185653e+02
1.390000e-06	3.571981e-06	3.334540e-09	5.010102e+01	2.196952e+02
1.400000e-06	3.607994e-06	3.350677e-09	5.060615e+01	2.207645e+02
1.410000e-06	3.642907e-06	3.365317e-09	5.109584e+01	2.217764e+02
1.420000e-06	3.676330e-06	3.380031e-09	5.156464e+01	2.227345e+02
1.430000e-06	3.708272e-06	3.395485e-09	5.201266e+01	2.236422e+02
1.440000e-06	3.738967e-06	3.410134e-09	5.244319e+01	2.245029e+02
1.450000e-06	3.768434e-06	3.422764e-09	5.285650e+01	2.253196e+02
1.460000e-06	3.796759e-06	3.435267e-09	5.325379e+01	2.260949e+02
1.470000e-06	3.823845e-06	3.449196e-09	5.363371e+01	2.268307e+02
1.480000e-06	3.849345e-06	3.462962e-09	5.399137e+01	2.275285e+02
1.490000e-06	3.873243e-06	3.474964e-09	5.432657e+01	2.281886e+02
1.500000e-06	3.895837e-06	3.485287e-09	5.464348e+01	2.288111e+02
1.510000e-06	3.917148e-06	3.495029e-09	5.494238e+01	2.293951e+02
1.520000e-06	3.937232e-06	3.504752e-09	5.522409e+01	2.299395e+02
1.530000e-06	3.956146e-06	3.514214e-09	5.548938e+01	2.304430e+02
1.540000e-06	3.973669e-06	3.522156e-09	5.573515e+01	2.309042e+02
1.550000e-06	3.989713e-06	3.527875e-09	5.596019e+01	2.313220e+02
1.560000e-06	4.004238e-06	3.533630e-09	5.616392e+01	2.316954e+02
1.570000e-06	4.017217e-06	3.540510e-09	5.634596e+01	2.320244e+02
1.580000e-06	4.028696e-06	3.545728e-09	5.650697e+01	2.323090e+02
1.590000e-06	4.038470e-06	3.549814e-09	5.664405e+01	2.325500e+02
1.600000e-06	4.046622e-06	3.553949e-09	5.675841e+01	2.327489e+02
1.610000e-06	4.053392e-06	3.557332e-09	5.685336e+01	2.329072e+02
1.620000e-06	4.058742e-06	3.560151e-09	5.692840e+01	2.330270e+02
1.630000e-06	4.062815e-06	3.562181e-09	5.698553e+01	2.331104e+02
1.640000e-06	4.065616e-06	3.565231e-09	5.702481e+01	2.331597e+02
1.650000e-06	4.066806e-06	3.568325e-09	5.704150e+01	2.331772e+02
1.660000e-06	4.066458e-06	3.569520e-09	5.703662e+01	2.331651e+02
1.670000e-06	4.064852e-06	3.566977e-09	5.701409e+01	2.331256e+02
1.680000e-06	4.062023e-06	3.564339e-09	5.697442e+01	2.330608e+02
1.690000e-06	4.058064e-06	3.562783e-09	5.691888e+01	2.329729e+02
1.700000e-06	4.052844e-06	3.562900e-09	5.684567e+01	2.328642e+02
1.710000e-06	4.046029e-06	3.562550e-09	5.675008e+01	2.327368e+02
1.720000e-06	4.037804e-06	3.565574e-09	5.663472e+01	2.325930e+02
1.730000e-06	4.028476e-06	3.586147e-09	5.650388e+01	2.324353e+02
1.740000e-06	4.017959e-06	3.540970e-09	5.635637e+01	2.322656e+02
1.750000e-06	4.005713e-06	3.465202e-09	5.618460e+01	2.320859e+02
1.760000e-06	3.991054e-06	3.455475e-09	5.597899e+01	2.318977e+02
1.770000e-06	3.974182e-06	3.539470e-09	5.574235e+01	2.317017e+02
1.780000e-06	3.956170e-06	3.691184e-09	5.548971e+01	2.314981e+02
1.790000e-06	3.937810e-06	3.550291e-09	5.523219e+01	2.312858e+02
1.800000e-06	3.918527e-06	3.393100e-09	5.496172e+01	2.310630e+02
1.810000e-06	3.897238e-06	3.592857e-09	5.466313e+01	2.308267e+02
1.820000e-06	3.874525e-06	3.547443e-09	5.434455e+01	2.305729e+02
1.830000e-06	3.851035e-06	3.518635e-09	5.401507e+01	2.302968e+02
1.840000e-06	3.825892e-06	3.677850e-09	5.366241e+01	2.299929e+02
1.850000e-06	3.799119e-06	3.433027e-09	5.328690e+01	2.296556e+02
1.860000e-06	3.771435e-06	3.359242e-09	5.289860e+01	2.292790e+02
1.870000e-06	3.742580e-06	3.647381e-09	5.249386e+01	2.288576e+02
1.880000e-06	3.712149e-06	3.483836e-09	5.206704e+01	2.283865e+02
1.890000e-06	3.680172e-06	3.281744e-09	5.161853e+01	2.278618e+02
1.900000e-06	3.646851e-06	3.482737e-09	5.115117e+01	2.272805e+02
1.910000e-06	3.612473e-06	3.499210e-09	5.066898e+01	2.266409e+02
1.920000e-06	3.576936e-06	3.468523e-09	5.017053e+01	2.259426e+02
1.930000e-06	3.540174e-06	3.432922e-09	4.965491e+01	2.251862e+02
1.940000e-06	3.502351e-06	3.330555e-09	4.912439e+01	2.243735e+02
1.950000e-06	3.463018e-06	3.428515e-09	4.857271e+01	2.235068e+02
1.960000e-06	3.422067e-06	3.385758e-09	4.799832e+01	2.225893e+02
1.970000e-06	3.380064e-06	3.365678e-09	4.740918e+01	2.216239e+02
1.980000e-06	3.337033e-06	3.441900e-09	4.680562e+01	2.206137e+02
1.990000e-06	3.292894e-06	3.230454e-09	4.618652e+01	2.195611e+02
2.000000e-06	3.247692e-06	3.261149e-09	4.555251e+01	2.184682e+02
2.010000e-06	3.201381e-06	3.438845e-09	4.490295e+01	2.173359e+02
2.020000e-06	3.153778e-06	3.294684e-09	4.423526e+01	2.161643e+02
2.030000e-06	3.104755e-06	3.173021e-09	4.354766e+01	2.149525e+02
2.040000e-06	3.054717e-06	3.216668e-09	4.284582e+01	2.136987e+02
2.050000e-06	3.003723e-06	3.313128e-09	4.213057e+01	2.124003e+02
2.060000e-06	2.951586e-06	3.220766e-09	4.139929e+01	2.110541e+02
2.070000e-06	2.898124e-06	3.109505e-09	4.064944e+01	2.096564e+02
2.080000e-06	2.843191e-06	3.178293e-09	3.987893e+01	2.082038e+02
2.090000e-06	2.787120e-06	3.152884e-09	3.909247e+01	2.066924e+02
2.100000e-06	2.730081e-06	3.108866e-09	3.829244e+01	2.051191e+02
2.110000e-06	2.672142e-06	3.099709e-09	3.747978e+01	2.034812e+02
2.120000e-06	2.613449e-06	3.070436e-09	3.665654e+01	2.017764e+02
2.130000e-06	2.553930e-06	3.037862e-09	3.582173e+01	2.000032e+02
2.140000e-06	2.493623e-06	2.986103e-09	3.497585e+01	1.981608e+02
2.150000e-06	2.432485e-06	3.012994e-09	3.411832e+01	1.962489e+02
2.160000e-06	2.370225e-06	2.972582e-09	3.324505e+01	1.942674e+02
2.170000e-06	2.306832e-06	2.877317e-09	3.235590e+01	1.922166e+02
2.180000e-06	2.242615e-06	2.888508e-09	3.145519e+01	1.900965e+02
2.190000e-06	2.177737e-06	2.880575e-09	3.054520e+01	1.879070e+02
2.200000e-06	2.112081e-06	2.825777e-09	2.962429e+01	1.856471e+02
2.210000e-06	2.045650e-06	2.760314e-09	2.869254e+01	1.833154e+02
2.220000e-06	1.978536e-06	2.752288e-09	2.775118e+01	1.809092e+02
2.230000e-06	1.910796e-06	2.744202e-09	2.680105e+01	1.784252e+02
2.240000e-06	1.842508e-06	2.660453e-09	2.584323e+01	1.758588e+02
2.250000e-06	1.773590e-06	2.624528e-09	2.487658e+01	1.732043e+02
2.260000e-06	1.703973e-06	2.605044e-09	2.390013e+01	1.704553e+02
2.270000e-06	1.633523e-06	2.554822e-09	2.291199e+01	1.676046e+02
2.280000e-06	1.562169e-06	2.495176e-09	2.191117e+01	1.646445e+02
2.290000e-06	1.490198e-06	2.456878e-09	2.090170e+01	1.615667e+02
2.300000e-06	1.417865e-06	2.421697e-09	1.988714e+01	1.583630e+02
2.310000e-06	1.345193e-06	2.352300e-09	1.886783e+01	1.550249e+02
2.320000e-06	1.272107e-06	2.304761e-09	1.784272e+01	1.515441e+02
2.330000e-06	1.198558e-06	2.259725e-09	1.681112e+01	1.479124e+02
2.340000e-06	1.124525e-06	2.191221e-09	1.577272e+01	1.441217e+02
2.350000e-06	1.050119e-06	2.125450e-09	1.472909e+01	1.401638e+02
2.360000e-06	9.754504e-07	2.077032e-09	1.368178e+01	1.360305e+02
2.370000e-06	9.004018e-07	2.017841e-09	1.262914e+01	1.317134e+02
2.380000e-06	8.250323e-07	1.929617e-09	1.157200e+01	1.272037e+02
2.390000e-06	7.494007e-07	1.859652e-09	1.051118e+01	1.224925e+02
2.400000e-06	6.734407e-07	1.801272e-09	9.445760e+00	1.175701e+02
2.410000e-06	5.972176e-07	1.717901e-09	8.376645e+00	1.124267e+02
2.420000e-06	5.207632e-07	1.625300e-09	7.304287e+00	1.070522e+02
2.430000e-06	4.441529e-07	1.546977e-09	6.229742e+00	1.014366e+02
2.440000e-06	3.674409e-07	1.467484e-09	5.153770e+00	9.557043e+01
2.450000e-06	2.906398e-07	1.365687e-09	4.076549e+00	8.944492e+01
2.460000e-06	2.137063e-07	1.259336e-09	2.997470e+00	8.305283e+01
2.470000e-06	1.365953e-07	1.165223e-09	1.915901e+00	7.638892e+01
2.480000e-06	5.928507e-08	1.064941e-09	8.315394e-01	6.945060e+01
2.490000e-06	-1.798113e-08	9.519208e-10	-2.522054e-01	6.223851e+01
2.500000e-06	-9.511759e-08	8.385579e-10	-1.334131e+00	5.475712e+01
2.510000e-06	-1.722481e-07	7.234092e-10	-2.415973e+00	4.701520e+01
2.520000e-06	-2.492261e-07	6.021802e-10	-3.495675e+00	3.902619e+01
2.530000e-06	-3.260141e-07	4.776545e-10	-4.572712e+00	3.080846e+01
2.540000e-06	-4.026336e-07	3.498299e-10	-5.647387e+00	2.238538e+01
2.550000e-06	-4.791054e-07	2.123062e-10	-6.719989e+00	1.378520e+01
2.560000e-06	-5.553959e-07	7.449223e-11	-7.790048e+00	5.040785e+00
2.570000e-06	-6.314464e-07	-5.348543e-11	-8.856742e+00	-3.810890e+00
2.580000e-06	-7.072514e-07	-1.831548e-10	-9.919993e+00	-1.272939e+01
2.590000e-06	-7.828150e-07	-3.249463e-10	-1.097986e+01	-2.167166e+01
2.600000e-06	-8.580990e-07	-4.654773e-10	-1.203580e+01	-3.059301e+01
2.610000e-06	-9.330309e-07	-5.911216e-10	-1.308680e+01	-3.944823e+01
2.620000e-06	-1.007589e-06	-7.158881e-10	-1.413256e+01	-4.819270e+01
2.630000e-06	-1.081841e-06	-8.496307e-10	-1.517402e+01	-5.678365e+01
2.640000e-06	-1.155757e-06	-9.818849e-10	-1.621078e+01	-6.518127e+01
2.650000e-06	-1.229235e-06	-1.103154e-09	-1.724140e+01	-7.334982e+01
2.660000e-06	-1.302250e-06	-1.219626e-09	-1.826551e+01	-8.125853e+01
2.670000e-06	-1.374844e-06	-1.335812e-09	-1.928373e+01	-8.888238e+01
2.680000e-06	-1.447132e-06	-1.449374e-09	-2.029765e+01	-9.620259e+01
2.690000e-06	-1.519102e-06	-1.559359e-09	-2.130711e+01	-1.032068e+02
2.700000e-06	-1.590591e-06	-1.662077e-09	-2.230981e+01	-1.098893e+02
2.710000e-06	-1.661276e-06	-1.755371e-09	-2.330126e+01	-1.162501e+02
2.720000e-06	-1.730961e-06	-1.844740e-09	-2.427867e+01	-1.222951e+02
2.730000e-06	-1.799846e-06	-1.936718e-09	-2.524486e+01	-1.280347e+02
2.740000e-06	-1.868169e-06	-2.023474e-09	-2.620316e+01	-1.334830e+02
2.750000e-06	-1.935997e-06	-2.099726e-09	-2.715452e+01	-1.386568e+02
2.760000e-06	-2.003210e-06	-2.173080e-09	-2.809726e+01	-1.435742e+02
2.770000e-06	-2.069712e-06	-2.249425e-09	-2.903002e+01	-1.482540e+02
2.780000e-06	-2.135506e-06	-2.323469e-09	-2.995286e+01	-1.527139e+02
2.790000e-06	-2.200527e-06	-2.388371e-09	-3.086486e+01	-1.569706e+02
2.800000e-06	-2.264898e-06	-2.447319e-09	-3.176772e+01	-1.610388e+02
2.810000e-06	-2.328684e-06	-2.507023e-09	-3.266240e+01	-1.649305e+02
2.820000e-06	-2.391480e-06	-2.568232e-09	-3.354318e+01	-1.686555e+02
2.830000e-06	-2.453035e-06	-2.625617e-09	-3.440656e+01	-1.722214e+02
2.840000e-06	-2.513666e-06	-2.677587e-09	-3.525698e+01	-1.756336e+02
2.850000e-06	-2.573573e-06	-2.725787e-09	-3.609723e+01	-1.788958e+02
2.860000e-06	-2.632605e-06	-2.775173e-09	-3.692522e+01	-1.820110e+02
2.870000e-06	-2.690705e-06	-2.825776e-09	-3.774015e+01	-1.849815e+02
2.880000e-06	-2.747855e-06	-2.871507e-09	-3.854174e+01	-1.878096e+02
2.890000e-06	-2.804172e-06	-2.910996e-09	-3.933165e+01	-1.904980e+02
2.900000e-06	-2.859545e-06	-2.950023e-09	-4.010832e+01	-1.930502e+02
2.910000e-06	-2.913492e-06	-2.992019e-09	-4.086498e+01	-1.954704e+02
2.920000e-06	-2.966084e-06	-3.030174e-09	-4.160265e+01	-1.977637e+02
2.930000e-06	-3.017586e-06	-3.061613e-09	-4.232501e+01	-1.999358e+02
2.940000e-06	-3.067967e-06	-3.090086e-09	-4.303168e+01	-2.019932e+02
