# Temperatura_=_20.0
# Concentracion g/m^3_=_9000.0
# C_Vs_to_Am_M_A/Vsm_=_65563218390.804596
# pendiente_HvsI_1/m_=_3716.3
# ordenada_HvsI_A/m_=_1297.0
# frecuencia_Hz_=_300783.3104689102

Tiempo_(s)	Campo_(V.s)	Magnetizacion_(V.s)	Campo_(kA/m)	Magnetizacion_(A/m)
0.000000e+00	-4.048598e-06	-3.539364e-09	-5.683830e+01	-2.342207e+02
1.000000e-08	-4.046706e-06	-3.542678e-09	-5.681173e+01	-2.341662e+02
2.000000e-08	-4.043334e-06	-3.541936e-09	-5.676439e+01	-2.340786e+02
3.000000e-08	-4.038812e-06	-3.539757e-09	-5.670091e+01	-2.339640e+02
4.000000e-08	-4.033078e-06	-3.537894e-09	-5.662041e+01	-2.338286e+02
5.000000e-08	-4.026129e-06	-3.535608e-09	-5.652284e+01	-2.336783e+02
6.000000e-08	-4.017918e-06	-3.529164e-09	-5.640757e+01	-2.335182e+02
7.000000e-08	-4.008142e-06	-3.516545e-09	-5.627033e+01	-2.333512e+02
8.000000e-08	-3.996673e-06	-3.536332e-09	-5.610931e+01	-2.331783e+02
9.000000e-08	-3.983351e-06	-3.568204e-09	-5.592229e+01	-2.329977e+02
1.000000e-07	-3.967833e-06	-3.573895e-09	-5.570444e+01	-2.328052e+02
1.100000e-07	-3.950573e-06	-3.529505e-09	-5.546211e+01	-2.325945e+02
1.200000e-07	-3.932264e-06	-3.434505e-09	-5.520508e+01	-2.323576e+02
1.300000e-07	-3.913093e-06	-3.470876e-09	-5.493594e+01	-2.320856e+02
1.400000e-07	-3.892961e-06	-3.557449e-09	-5.465331e+01	-2.317699e+02
1.500000e-07	-3.871774e-06	-3.489761e-09	-5.435585e+01	-2.314026e+02
1.600000e-07	-3.849491e-06	-3.475660e-09	-5.404302e+01	-2.309779e+02
1.700000e-07	-3.825551e-06	-3.463944e-09	-5.370694e+01	-2.304919e+02
1.800000e-07	-3.799831e-06	-3.380987e-09	-5.334585e+01	-2.299438e+02
1.900000e-07	-3.772955e-06	-3.472209e-09	-5.296854e+01	-2.293351e+02
2.000000e-07	-3.744963e-06	-3.542860e-09	-5.257556e+01	-2.286697e+02
2.100000e-07	-3.715556e-06	-3.423744e-09	-5.216271e+01	-2.279533e+02
2.200000e-07	-3.684922e-06	-3.410579e-09	-5.173264e+01	-2.271926e+02
2.300000e-07	-3.653241e-06	-3.492555e-09	-5.128788e+01	-2.263946e+02
2.400000e-07	-3.620203e-06	-3.501961e-09	-5.082405e+01	-2.255654e+02
2.500000e-07	-3.585584e-06	-3.500361e-09	-5.033803e+01	-2.247102e+02
2.600000e-07	-3.549605e-06	-3.421060e-09	-4.983292e+01	-2.238321e+02
2.700000e-07	-3.512482e-06	-3.371041e-09	-4.931175e+01	-2.229325e+02
2.800000e-07	-3.474211e-06	-3.442464e-09	-4.877446e+01	-2.220107e+02
2.900000e-07	-3.434830e-06	-3.451996e-09	-4.822159e+01	-2.210646e+02
3.000000e-07	-3.394232e-06	-3.394883e-09	-4.765164e+01	-2.200907e+02
3.100000e-07	-3.352088e-06	-3.345719e-09	-4.705998e+01	-2.190849e+02
3.200000e-07	-3.308578e-06	-3.314449e-09	-4.644915e+01	-2.180433e+02
3.300000e-07	-3.264017e-06	-3.360416e-09	-4.582355e+01	-2.169624e+02
3.400000e-07	-3.218303e-06	-3.394319e-09	-4.518177e+01	-2.158393e+02
3.500000e-07	-3.171384e-06	-3.291032e-09	-4.452307e+01	-2.146724e+02
3.600000e-07	-3.123351e-06	-3.218305e-09	-4.384874e+01	-2.134611e+02
3.700000e-07	-3.074053e-06	-3.283757e-09	-4.315665e+01	-2.122056e+02
3.800000e-07	-3.023163e-06	-3.310368e-09	-4.244220e+01	-2.109065e+02
3.900000e-07	-2.970797e-06	-3.221349e-09	-4.170704e+01	-2.095645e+02
4.000000e-07	-2.917425e-06	-3.176353e-09	-4.095774e+01	-2.081801e+02
4.100000e-07	-2.863167e-06	-3.187606e-09	-4.019601e+01	-2.067529e+02
4.200000e-07	-2.808033e-06	-3.180088e-09	-3.942200e+01	-2.052816e+02
4.300000e-07	-2.751989e-06	-3.161724e-09	-3.863518e+01	-2.037639e+02
4.400000e-07	-2.694674e-06	-3.119460e-09	-3.783055e+01	-2.021967e+02
4.500000e-07	-2.636093e-06	-3.073673e-09	-3.700812e+01	-2.005760e+02
4.600000e-07	-2.576667e-06	-3.056584e-09	-3.617384e+01	-1.988977e+02
4.700000e-07	-2.516480e-06	-3.063032e-09	-3.532887e+01	-1.971575e+02
4.800000e-07	-2.455421e-06	-3.029920e-09	-3.447167e+01	-1.953515e+02
4.900000e-07	-2.393494e-06	-2.963889e-09	-3.360228e+01	-1.934767e+02
5.000000e-07	-2.330723e-06	-2.937605e-09	-3.272104e+01	-1.915305e+02
5.100000e-07	-2.267274e-06	-2.944177e-09	-3.183028e+01	-1.895115e+02
5.200000e-07	-2.203074e-06	-2.910746e-09	-3.092897e+01	-1.874185e+02
5.300000e-07	-2.137740e-06	-2.841431e-09	-3.001175e+01	-1.852510e+02
5.400000e-07	-2.071304e-06	-2.810905e-09	-2.907905e+01	-1.830081e+02
5.500000e-07	-2.004214e-06	-2.809367e-09	-2.813717e+01	-1.806886e+02
5.600000e-07	-1.936683e-06	-2.772762e-09	-2.718911e+01	-1.782905e+02
5.700000e-07	-1.868587e-06	-2.706843e-09	-2.623310e+01	-1.758103e+02
5.800000e-07	-1.799839e-06	-2.667356e-09	-2.526795e+01	-1.732437e+02
5.900000e-07	-1.730534e-06	-2.643455e-09	-2.429497e+01	-1.705846e+02
6.000000e-07	-1.660641e-06	-2.605832e-09	-2.331375e+01	-1.678260e+02
6.100000e-07	-1.590039e-06	-2.552417e-09	-2.232257e+01	-1.649599e+02
6.200000e-07	-1.518909e-06	-2.497882e-09	-2.132397e+01	-1.619779e+02
6.300000e-07	-1.447457e-06	-2.454391e-09	-2.032086e+01	-1.588713e+02
6.400000e-07	-1.375677e-06	-2.416254e-09	-1.931313e+01	-1.556315e+02
6.500000e-07	-1.303389e-06	-2.369035e-09	-1.829829e+01	-1.522504e+02
6.600000e-07	-1.230285e-06	-2.300895e-09	-1.727197e+01	-1.487203e+02
6.700000e-07	-1.156415e-06	-2.236635e-09	-1.623491e+01	-1.450338e+02
6.800000e-07	-1.082036e-06	-2.192537e-09	-1.519071e+01	-1.411840e+02
6.900000e-07	-1.007159e-06	-2.144197e-09	-1.413952e+01	-1.371636e+02
7.000000e-07	-9.318225e-07	-2.065562e-09	-1.308186e+01	-1.329652e+02
7.100000e-07	-8.561914e-07	-1.982718e-09	-1.202008e+01	-1.285804e+02
7.200000e-07	-7.803919e-07	-1.925667e-09	-1.095593e+01	-1.239999e+02
7.300000e-07	-7.043729e-07	-1.867963e-09	-9.888696e+00	-1.192133e+02
7.400000e-07	-6.280448e-07	-1.782830e-09	-8.817124e+00	-1.142091e+02
7.500000e-07	-5.513871e-07	-1.687092e-09	-7.740927e+00	-1.089749e+02
7.600000e-07	-4.745628e-07	-1.606279e-09	-6.662389e+00	-1.034981e+02
7.700000e-07	-3.976680e-07	-1.528484e-09	-5.582864e+00	-9.776628e+01
7.800000e-07	-3.206061e-07	-1.434183e-09	-4.500991e+00	-9.176807e+01
7.900000e-07	-2.433831e-07	-1.327489e-09	-3.416856e+00	-8.549390e+01
8.000000e-07	-1.660677e-07	-1.224474e-09	-2.331426e+00	-7.893685e+01
8.100000e-07	-8.869320e-08	-1.125022e-09	-1.245164e+00	-7.209337e+01
8.200000e-07	-1.129236e-08	-1.020286e-09	-1.585334e-01	-6.496392e+01
8.300000e-07	6.608269e-08	-9.060950e-10	9.277352e-01	-5.755341e+01
8.400000e-07	1.434138e-07	-7.823702e-10	2.013388e+00	-4.987152e+01
8.500000e-07	2.206897e-07	-6.627270e-10	3.098264e+00	-4.193280e+01
8.600000e-07	2.978804e-07	-5.474806e-10	4.181944e+00	-3.375662e+01
8.700000e-07	3.749722e-07	-4.190068e-10	5.264237e+00	-2.536699e+01
8.800000e-07	4.519091e-07	-2.762614e-10	6.344355e+00	-1.679224e+01
8.900000e-07	5.286681e-07	-1.397306e-10	7.421974e+00	-8.064620e+00
9.000000e-07	6.052684e-07	-1.226217e-11	8.497366e+00	7.801713e-01
9.100000e-07	6.816183e-07	1.231572e-10	9.569243e+00	9.703532e+00
9.200000e-07	7.576900e-07	2.685205e-10	1.063721e+01	1.866458e+01
9.300000e-07	8.334895e-07	4.089862e-10	1.170136e+01	2.762083e+01
9.400000e-07	9.090160e-07	5.374202e-10	1.276168e+01	3.652900e+01
9.500000e-07	9.842560e-07	6.674742e-10	1.381797e+01	4.534584e+01
9.600000e-07	1.059188e-06	8.051026e-10	1.486995e+01	5.402909e+01
9.700000e-07	1.133644e-06	9.415402e-10	1.591524e+01	6.253853e+01
9.800000e-07	1.207473e-06	1.068258e-09	1.695171e+01	7.083695e+01
9.900000e-07	1.280610e-06	1.189351e-09	1.797849e+01	7.889120e+01
1.000000e-06	1.353036e-06	1.311195e-09	1.899529e+01	8.667309e+01
1.010000e-06	1.424920e-06	1.430261e-09	2.000447e+01	9.416016e+01
1.020000e-06	1.496374e-06	1.540460e-09	2.100760e+01	1.013362e+02
1.030000e-06	1.567407e-06	1.639896e-09	2.200484e+01	1.081915e+02
1.040000e-06	1.638002e-06	1.737051e-09	2.299591e+01	1.147227e+02
1.050000e-06	1.708069e-06	1.834128e-09	2.397959e+01	1.209325e+02
1.060000e-06	1.777477e-06	1.926691e-09	2.495401e+01	1.268290e+02
1.070000e-06	1.846234e-06	2.009644e-09	2.591928e+01	1.324245e+02
1.080000e-06	1.914387e-06	2.086432e-09	2.687609e+01	1.377345e+02
1.090000e-06	1.981987e-06	2.163787e-09	2.782513e+01	1.427766e+02
1.100000e-06	2.049062e-06	2.238257e-09	2.876679e+01	1.475690e+02
1.110000e-06	2.115310e-06	2.307062e-09	2.969685e+01	1.521296e+02
1.120000e-06	2.180502e-06	2.368233e-09	3.061208e+01	1.564751e+02
1.130000e-06	2.244731e-06	2.430068e-09	3.151379e+01	1.606204e+02
1.140000e-06	2.308224e-06	2.493987e-09	3.240518e+01	1.645780e+02
1.150000e-06	2.371074e-06	2.552412e-09	3.328752e+01	1.683584e+02
1.160000e-06	2.433161e-06	2.602702e-09	3.415916e+01	1.719696e+02
1.170000e-06	2.494461e-06	2.650910e-09	3.501976e+01	1.754181e+02
1.180000e-06	2.554954e-06	2.700739e-09	3.586901e+01	1.787092e+02
1.190000e-06	2.614683e-06	2.747537e-09	3.670754e+01	1.818473e+02
1.200000e-06	2.673625e-06	2.791242e-09	3.753503e+01	1.848365e+02
1.210000e-06	2.731469e-06	2.832294e-09	3.834712e+01	1.876812e+02
1.220000e-06	2.788048e-06	2.871354e-09	3.914142e+01	1.903859e+02
1.230000e-06	2.843535e-06	2.908711e-09	3.992040e+01	1.929558e+02
1.240000e-06	2.898090e-06	2.945233e-09	4.068630e+01	1.953964e+02
1.250000e-06	2.951730e-06	2.978891e-09	4.143936e+01	1.977136e+02
1.260000e-06	3.004359e-06	3.009398e-09	4.217822e+01	1.999133e+02
1.270000e-06	3.055838e-06	3.039710e-09	4.290093e+01	2.020015e+02
1.280000e-06	3.105926e-06	3.070646e-09	4.360411e+01	2.039837e+02
1.290000e-06	3.154522e-06	3.099817e-09	4.428636e+01	2.058653e+02
1.300000e-06	3.201888e-06	3.126216e-09	4.495132e+01	2.076515e+02
1.310000e-06	3.248204e-06	3.151163e-09	4.560156e+01	2.093469e+02
1.320000e-06	3.293450e-06	3.174991e-09	4.623677e+01	2.109563e+02
1.330000e-06	3.337634e-06	3.198429e-09	4.685706e+01	2.124843e+02
1.340000e-06	3.380830e-06	3.220331e-09	4.746349e+01	2.139360e+02
1.350000e-06	3.422744e-06	3.240538e-09	4.805192e+01	2.153164e+02
1.360000e-06	3.463150e-06	3.261089e-09	4.861918e+01	2.166311e+02
1.370000e-06	3.502321e-06	3.281302e-09	4.916911e+01	2.178854e+02
1.380000e-06	3.540348e-06	3.299061e-09	4.970296e+01	2.190849e+02
1.390000e-06	3.577191e-06	3.316670e-09	5.022021e+01	2.202346e+02
1.400000e-06	3.612974e-06	3.334988e-09	5.072256e+01	2.213392e+02
1.410000e-06	3.647530e-06	3.351842e-09	5.120769e+01	2.224020e+02
1.420000e-06	3.680541e-06	3.367653e-09	5.167114e+01	2.234256e+02
1.430000e-06	3.712133e-06	3.382488e-09	5.211466e+01	2.244109e+02
1.440000e-06	3.742548e-06	3.396157e-09	5.254166e+01	2.253580e+02
1.450000e-06	3.771760e-06	3.409798e-09	5.295176e+01	2.262655e+02
1.460000e-06	3.799780e-06	3.424296e-09	5.334514e+01	2.271316e+02
1.470000e-06	3.826503e-06	3.438902e-09	5.372029e+01	2.279538e+02
1.480000e-06	3.851610e-06	3.452911e-09	5.407278e+01	2.287298e+02
1.490000e-06	3.875188e-06	3.465858e-09	5.440379e+01	2.294575e+02
1.500000e-06	3.897464e-06	3.477714e-09	5.471652e+01	2.301359e+02
1.510000e-06	3.918454e-06	3.488077e-09	5.501120e+01	2.307646e+02
1.520000e-06	3.938279e-06	3.497446e-09	5.528952e+01	2.313442e+02
1.530000e-06	3.956889e-06	3.507184e-09	5.555078e+01	2.318763e+02
1.540000e-06	3.974027e-06	3.516118e-09	5.579139e+01	2.323632e+02
1.550000e-06	3.989638e-06	3.522929e-09	5.601055e+01	2.328071e+02
1.560000e-06	4.003777e-06	3.529583e-09	5.620904e+01	2.332102e+02
1.570000e-06	4.016447e-06	3.537195e-09	5.638692e+01	2.335744e+02
1.580000e-06	4.027551e-06	3.543473e-09	5.654281e+01	2.339004e+02
1.590000e-06	4.036948e-06	3.548338e-09	5.667474e+01	2.341884e+02
1.600000e-06	4.044719e-06	3.553936e-09	5.678383e+01	2.344375e+02
1.610000e-06	4.051099e-06	3.558597e-09	5.687341e+01	2.346462e+02
1.620000e-06	4.056151e-06	3.561663e-09	5.694433e+01	2.348128e+02
1.630000e-06	4.059959e-06	3.564492e-09	5.699778e+01	2.349357e+02
1.640000e-06	4.062341e-06	3.567724e-09	5.703123e+01	2.350143e+02
1.650000e-06	4.063073e-06	3.570032e-09	5.704150e+01	2.350488e+02
1.660000e-06	4.062391e-06	3.570701e-09	5.703193e+01	2.350409e+02
1.670000e-06	4.060452e-06	3.570562e-09	5.700471e+01	2.349941e+02
1.680000e-06	4.057263e-06	3.569257e-09	5.695994e+01	2.349131e+02
1.690000e-06	4.052918e-06	3.567354e-09	5.689895e+01	2.348036e+02
1.700000e-06	4.047295e-06	3.565437e-09	5.682000e+01	2.346720e+02
1.710000e-06	4.040148e-06	3.564338e-09	5.671966e+01	2.345244e+02
1.720000e-06	4.031674e-06	3.568134e-09	5.660069e+01	2.343660e+02
1.730000e-06	4.022080e-06	3.573112e-09	5.646600e+01	2.342002e+02
1.740000e-06	4.011231e-06	3.524915e-09	5.631370e+01	2.340285e+02
1.750000e-06	3.998515e-06	3.490978e-09	5.613517e+01	2.338497e+02
1.760000e-06	3.983325e-06	3.485337e-09	5.592193e+01	2.336602e+02
1.770000e-06	3.966103e-06	3.566608e-09	5.568015e+01	2.334539e+02
1.780000e-06	3.948015e-06	3.621788e-09	5.542621e+01	2.332233e+02
1.790000e-06	3.929639e-06	3.512986e-09	5.516822e+01	2.329594e+02
1.800000e-06	3.910079e-06	3.515814e-09	5.489361e+01	2.326537e+02
1.810000e-06	3.888462e-06	3.573153e-09	5.459013e+01	2.322979e+02
1.820000e-06	3.865602e-06	3.513716e-09	5.426921e+01	2.318858e+02
1.830000e-06	3.841822e-06	3.573665e-09	5.393536e+01	2.314130e+02
1.840000e-06	3.816317e-06	3.621495e-09	5.357730e+01	2.308781e+02
1.850000e-06	3.789356e-06	3.469326e-09	5.319880e+01	2.302820e+02
1.860000e-06	3.761437e-06	3.491876e-09	5.280683e+01	2.296282e+02
1.870000e-06	3.732235e-06	3.583787e-09	5.239686e+01	2.289221e+02
1.880000e-06	3.701441e-06	3.466107e-09	5.196456e+01	2.281703e+02
1.890000e-06	3.669093e-06	3.432776e-09	5.151041e+01	2.273796e+02
1.900000e-06	3.635489e-06	3.467749e-09	5.103864e+01	2.265565e+02
1.910000e-06	3.600869e-06	3.425985e-09	5.055262e+01	2.257064e+02
1.920000e-06	3.565069e-06	3.494814e-09	5.005002e+01	2.248329e+02
1.930000e-06	3.528122e-06	3.468143e-09	4.953132e+01	2.239378e+02
1.940000e-06	3.490026e-06	3.371130e-09	4.899650e+01	2.230208e+02
1.950000e-06	3.450279e-06	3.386893e-09	4.843849e+01	2.220801e+02
1.960000e-06	3.409049e-06	3.379588e-09	4.785965e+01	2.211123e+02
1.970000e-06	3.366903e-06	3.430658e-09	4.726796e+01	2.201137e+02
1.980000e-06	3.323693e-06	3.398729e-09	4.666134e+01	2.190800e+02
1.990000e-06	3.279358e-06	3.259090e-09	4.603893e+01	2.180076e+02
2.000000e-06	3.234021e-06	3.307633e-09	4.540243e+01	2.168936e+02
2.010000e-06	3.187476e-06	3.378298e-09	4.474899e+01	2.157362e+02
2.020000e-06	3.139588e-06	3.308942e-09	4.407669e+01	2.145343e+02
2.030000e-06	3.090407e-06	3.228789e-09	4.338624e+01	2.132881e+02
2.040000e-06	3.040221e-06	3.223813e-09	4.268168e+01	2.119982e+02
2.050000e-06	2.989039e-06	3.270147e-09	4.196313e+01	2.106653e+02
2.060000e-06	2.936692e-06	3.227711e-09	4.122824e+01	2.092898e+02
2.070000e-06	2.882998e-06	3.179153e-09	4.047443e+01	2.078718e+02
2.080000e-06	2.827827e-06	3.164666e-09	3.969988e+01	2.064099e+02
2.090000e-06	2.771563e-06	3.126716e-09	3.890999e+01	2.049024e+02
2.100000e-06	2.714350e-06	3.136487e-09	3.810677e+01	2.033460e+02
2.110000e-06	2.656300e-06	3.118168e-09	3.729181e+01	2.017370e+02
2.120000e-06	2.597495e-06	3.073677e-09	3.646624e+01	2.000713e+02
2.130000e-06	2.537806e-06	3.028627e-09	3.562828e+01	1.983446e+02
2.140000e-06	2.477385e-06	3.009105e-09	3.478003e+01	1.965529e+02
2.150000e-06	2.416084e-06	3.024526e-09	3.391941e+01	1.946930e+02
2.160000e-06	2.353541e-06	2.962418e-09	3.304137e+01	1.927622e+02
2.170000e-06	2.289890e-06	2.900871e-09	3.214778e+01	1.907588e+02
2.180000e-06	2.225581e-06	2.896957e-09	3.124494e+01	1.886816e+02
2.190000e-06	2.160686e-06	2.885449e-09	3.033388e+01	1.865300e+02
2.200000e-06	2.094969e-06	2.834217e-09	2.941128e+01	1.843032e+02
2.210000e-06	2.028462e-06	2.776744e-09	2.847758e+01	1.820002e+02
2.220000e-06	1.961293e-06	2.768056e-09	2.753460e+01	1.796191e+02
2.230000e-06	1.893507e-06	2.743124e-09	2.658296e+01	1.771567e+02
2.240000e-06	1.825219e-06	2.682552e-09	2.562426e+01	1.746090e+02
2.250000e-06	1.756363e-06	2.639273e-09	2.465760e+01	1.719701e+02
2.260000e-06	1.686745e-06	2.603524e-09	2.368022e+01	1.692334e+02
2.270000e-06	1.616163e-06	2.564403e-09	2.268932e+01	1.663910e+02
2.280000e-06	1.544655e-06	2.518443e-09	2.168542e+01	1.634344e+02
2.290000e-06	1.472613e-06	2.468784e-09	2.067403e+01	1.603551e+02
2.300000e-06	1.400305e-06	2.415009e-09	1.965889e+01	1.571445e+02
2.310000e-06	1.327685e-06	2.364400e-09	1.863938e+01	1.537942e+02
2.320000e-06	1.254615e-06	2.325864e-09	1.761354e+01	1.502966e+02
2.330000e-06	1.181072e-06	2.266953e-09	1.658108e+01	1.466441e+02
2.340000e-06	1.107050e-06	2.191345e-09	1.554188e+01	1.428298e+02
2.350000e-06	1.032621e-06	2.131617e-09	1.449697e+01	1.388465e+02
2.360000e-06	9.578553e-07	2.088108e-09	1.344734e+01	1.346868e+02
2.370000e-06	8.827165e-07	2.024857e-09	1.239246e+01	1.303426e+02
2.380000e-06	8.073106e-07	1.935841e-09	1.133384e+01	1.258048e+02
2.390000e-06	7.316272e-07	1.863941e-09	1.027132e+01	1.210632e+02
2.400000e-06	6.556406e-07	1.803967e-09	9.204542e+00	1.161065e+02
2.410000e-06	5.794245e-07	1.728450e-09	8.134544e+00	1.109226e+02
2.420000e-06	5.030085e-07	1.637287e-09	7.061740e+00	1.054987e+02
2.430000e-06	4.264928e-07	1.547213e-09	5.987535e+00	9.982246e+01
2.440000e-06	3.498629e-07	1.462610e-09	4.911727e+00	9.388212e+01
2.450000e-06	2.731281e-07	1.370657e-09	3.834447e+00	8.766767e+01
2.460000e-06	1.962717e-07	1.270309e-09	2.755459e+00	8.117157e+01
2.470000e-06	1.192170e-07	1.162814e-09	1.673687e+00	7.438947e+01
2.480000e-06	4.200883e-08	1.053172e-09	5.897623e-01	6.732095e+01
2.490000e-06	-3.512794e-08	9.469389e-10	-4.931614e-01	5.996992e+01
2.500000e-06	-1.121541e-07	8.374578e-10	-1.574532e+00	5.234502e+01
2.510000e-06	-1.891853e-07	7.149094e-10	-2.655974e+00	4.445977e+01
2.520000e-06	-2.660680e-07	5.861473e-10	-3.735330e+00	3.633252e+01
2.530000e-06	-3.427062e-07	4.624638e-10	-4.811255e+00	2.798629e+01
2.540000e-06	-4.191656e-07	3.368856e-10	-5.884669e+00	1.944852e+01
2.550000e-06	-4.954873e-07	1.989175e-10	-6.956149e+00	1.075066e+01
2.560000e-06	-5.716326e-07	5.631009e-11	-8.025153e+00	1.927721e+00
2.570000e-06	-6.475623e-07	-7.814153e-11	-9.091131e+00	-6.982275e+00
2.580000e-06	-7.232137e-07	-2.097139e-10	-1.015320e+01	-1.593888e+01
2.590000e-06	-7.986129e-07	-3.478362e-10	-1.121173e+01	-2.489988e+01
2.600000e-06	-8.737686e-07	-4.873613e-10	-1.226684e+01	-3.382211e+01
2.610000e-06	-9.485681e-07	-6.185901e-10	-1.331695e+01	-4.266222e+01
2.620000e-06	-1.023054e-06	-7.450769e-10	-1.436266e+01	-5.137767e+01
2.630000e-06	-1.097208e-06	-8.736233e-10	-1.540371e+01	-5.992771e+01
2.640000e-06	-1.170916e-06	-1.002076e-09	-1.643849e+01	-6.827438e+01
2.650000e-06	-1.244203e-06	-1.126149e-09	-1.746738e+01	-7.638361e+01
2.660000e-06	-1.317069e-06	-1.244217e-09	-1.849034e+01	-8.422605e+01
2.670000e-06	-1.389529e-06	-1.357545e-09	-1.950761e+01	-9.177798e+01
2.680000e-06	-1.461693e-06	-1.468270e-09	-2.052072e+01	-9.902180e+01
2.690000e-06	-1.533450e-06	-1.576923e-09	-2.152811e+01	-1.059464e+02
2.700000e-06	-1.604537e-06	-1.678081e-09	-2.252611e+01	-1.125471e+02
2.710000e-06	-1.674844e-06	-1.770281e-09	-2.351314e+01	-1.188254e+02
2.720000e-06	-1.744322e-06	-1.859102e-09	-2.448854e+01	-1.247883e+02
2.730000e-06	-1.813075e-06	-1.947755e-09	-2.545377e+01	-1.304471e+02
2.740000e-06	-1.881295e-06	-2.032665e-09	-2.641151e+01	-1.358170e+02
2.750000e-06	-1.948963e-06	-2.108869e-09	-2.736150e+01	-1.409151e+02
2.760000e-06	-2.015952e-06	-2.181246e-09	-2.830196e+01	-1.457595e+02
2.770000e-06	-2.082192e-06	-2.254584e-09	-2.923190e+01	-1.503684e+02
2.780000e-06	-2.147725e-06	-2.325907e-09	-3.015193e+01	-1.547588e+02
2.790000e-06	-2.212572e-06	-2.389874e-09	-3.106232e+01	-1.589459e+02
2.800000e-06	-2.276763e-06	-2.448218e-09	-3.196349e+01	-1.629430e+02
2.810000e-06	-2.340220e-06	-2.506173e-09	-3.285436e+01	-1.667606e+02
2.820000e-06	-2.402614e-06	-2.564674e-09	-3.373030e+01	-1.704076e+02
2.830000e-06	-2.463871e-06	-2.620678e-09	-3.459029e+01	-1.738906e+02
2.840000e-06	-2.524258e-06	-2.671707e-09	-3.543808e+01	-1.772151e+02
2.850000e-06	-2.583930e-06	-2.718651e-09	-3.627581e+01	-1.803857e+02
2.860000e-06	-2.642744e-06	-2.766232e-09	-3.710150e+01	-1.834066e+02
2.870000e-06	-2.700591e-06	-2.816033e-09	-3.791361e+01	-1.862819e+02
2.880000e-06	-2.757518e-06	-2.860736e-09	-3.871281e+01	-1.890163e+02
2.890000e-06	-2.813569e-06	-2.899794e-09	-3.949971e+01	-1.916148e+02
2.900000e-06	-2.868560e-06	-2.938745e-09	-4.027172e+01	-1.940827e+02
2.910000e-06	-2.922192e-06	-2.977265e-09	-4.102467e+01	-1.964260e+02
2.920000e-06	-2.974533e-06	-3.012172e-09	-4.175949e+01	-1.986505e+02
2.930000e-06	-3.025727e-06	-3.042961e-09	-4.247820e+01	-2.007621e+02
2.940000e-06	-3.075751e-06	-3.071028e-09	-4.318049e+01	-2.027667e+02
