# Temperatura_=_20.0
# Concentracion g/m^3_=_9000.0
# C_Vs_to_Am_M_A/Vsm_=_65563218390.804596
# pendiente_HvsI_1/m_=_3716.3
# ordenada_HvsI_A/m_=_1297.0
# frecuencia_Hz_=_300776.8063872932

Tiempo_(s)	Campo_(V.s)	Magnetizacion_(V.s)	Campo_(kA/m)	Magnetizacion_(A/m)
0.000000e+00	-4.059176e-06	-2.493569e-09	-5.684560e+01	-1.643949e+02
1.000000e-08	-4.057075e-06	-2.495640e-09	-5.681617e+01	-1.645202e+02
2.000000e-08	-4.053549e-06	-2.493868e-09	-5.676680e+01	-1.646436e+02
3.000000e-08	-4.048917e-06	-2.493240e-09	-5.670192e+01	-1.647685e+02
4.000000e-08	-4.042990e-06	-2.492898e-09	-5.661892e+01	-1.648947e+02
5.000000e-08	-4.035784e-06	-2.489999e-09	-5.651802e+01	-1.650164e+02
6.000000e-08	-4.027447e-06	-2.479209e-09	-5.640125e+01	-1.651232e+02
7.000000e-08	-4.017572e-06	-2.450915e-09	-5.626296e+01	-1.651997e+02
8.000000e-08	-4.005861e-06	-2.458895e-09	-5.609896e+01	-1.652272e+02
9.000000e-08	-3.992287e-06	-2.498467e-09	-5.590887e+01	-1.651855e+02
1.000000e-07	-3.976549e-06	-2.515786e-09	-5.568847e+01	-1.650554e+02
1.100000e-07	-3.959150e-06	-2.505754e-09	-5.544481e+01	-1.648208e+02
1.200000e-07	-3.940754e-06	-2.388428e-09	-5.518718e+01	-1.644713e+02
1.300000e-07	-3.921449e-06	-2.435759e-09	-5.491683e+01	-1.640041e+02
1.400000e-07	-3.901121e-06	-2.597447e-09	-5.463216e+01	-1.634249e+02
1.500000e-07	-3.879731e-06	-2.453397e-09	-5.433261e+01	-1.627485e+02
1.600000e-07	-3.857218e-06	-2.404239e-09	-5.401733e+01	-1.619975e+02
1.700000e-07	-3.832984e-06	-2.468427e-09	-5.367795e+01	-1.612006e+02
1.800000e-07	-3.806924e-06	-2.377074e-09	-5.331301e+01	-1.603905e+02
1.900000e-07	-3.779802e-06	-2.465491e-09	-5.293319e+01	-1.596002e+02
2.000000e-07	-3.751607e-06	-2.566686e-09	-5.253834e+01	-1.588600e+02
2.100000e-07	-3.721928e-06	-2.319049e-09	-5.212271e+01	-1.581948e+02
2.200000e-07	-3.691068e-06	-2.275237e-09	-5.169053e+01	-1.576214e+02
2.300000e-07	-3.659191e-06	-2.533271e-09	-5.124412e+01	-1.571467e+02
2.400000e-07	-3.625967e-06	-2.585023e-09	-5.077885e+01	-1.567677e+02
2.500000e-07	-3.591158e-06	-2.457958e-09	-5.029137e+01	-1.564719e+02
2.600000e-07	-3.554898e-06	-2.328886e-09	-4.978358e+01	-1.562387e+02
2.700000e-07	-3.517483e-06	-2.443234e-09	-4.925961e+01	-1.560422e+02
2.800000e-07	-3.478976e-06	-2.560095e-09	-4.872034e+01	-1.558537e+02
2.900000e-07	-3.439298e-06	-2.416165e-09	-4.816468e+01	-1.556451e+02
3.000000e-07	-3.398405e-06	-2.381967e-09	-4.759201e+01	-1.553915e+02
3.100000e-07	-3.356056e-06	-2.457032e-09	-4.699895e+01	-1.550735e+02
3.200000e-07	-3.312310e-06	-2.372247e-09	-4.638633e+01	-1.546790e+02
3.300000e-07	-3.267546e-06	-2.404027e-09	-4.575943e+01	-1.542033e+02
3.400000e-07	-3.221691e-06	-2.493582e-09	-4.511728e+01	-1.536490e+02
3.500000e-07	-3.174548e-06	-2.333728e-09	-4.445707e+01	-1.530243e+02
3.600000e-07	-3.126279e-06	-2.250408e-09	-4.378110e+01	-1.523419e+02
3.700000e-07	-3.076750e-06	-2.426608e-09	-4.308749e+01	-1.516159e+02
3.800000e-07	-3.025577e-06	-2.453968e-09	-4.237085e+01	-1.508603e+02
3.900000e-07	-2.972922e-06	-2.252204e-09	-4.163345e+01	-1.500864e+02
4.000000e-07	-2.919318e-06	-2.256616e-09	-4.088277e+01	-1.493018e+02
4.100000e-07	-2.864883e-06	-2.381201e-09	-4.012045e+01	-1.485094e+02
4.200000e-07	-2.809531e-06	-2.339694e-09	-3.934529e+01	-1.477071e+02
4.300000e-07	-2.753221e-06	-2.243431e-09	-3.855672e+01	-1.468889e+02
4.400000e-07	-2.695665e-06	-2.239391e-09	-3.775069e+01	-1.460457e+02
4.500000e-07	-2.636865e-06	-2.267397e-09	-3.692724e+01	-1.451667e+02
4.600000e-07	-2.577224e-06	-2.239534e-09	-3.609202e+01	-1.442414e+02
4.700000e-07	-2.516837e-06	-2.211525e-09	-3.524634e+01	-1.432604e+02
4.800000e-07	-2.455545e-06	-2.201301e-09	-3.438799e+01	-1.422168e+02
4.900000e-07	-2.393367e-06	-2.173542e-09	-3.351724e+01	-1.411068e+02
5.000000e-07	-2.330428e-06	-2.151847e-09	-3.263582e+01	-1.399296e+02
5.100000e-07	-2.266871e-06	-2.162674e-09	-3.174577e+01	-1.386868e+02
5.200000e-07	-2.202502e-06	-2.132940e-09	-3.084432e+01	-1.373819e+02
5.300000e-07	-2.136897e-06	-2.073721e-09	-2.992558e+01	-1.360189e+02
5.400000e-07	-2.070233e-06	-2.061027e-09	-2.899200e+01	-1.346010e+02
5.500000e-07	-2.002981e-06	-2.078058e-09	-2.805019e+01	-1.331304e+02
5.600000e-07	-1.935254e-06	-2.041029e-09	-2.710172e+01	-1.316065e+02
5.700000e-07	-1.866885e-06	-1.968953e-09	-2.614427e+01	-1.300265e+02
5.800000e-07	-1.797862e-06	-1.959935e-09	-2.517766e+01	-1.283852e+02
5.900000e-07	-1.728310e-06	-1.968056e-09	-2.420363e+01	-1.266753e+02
6.000000e-07	-1.658163e-06	-1.926928e-09	-2.322128e+01	-1.248885e+02
6.100000e-07	-1.587323e-06	-1.863056e-09	-2.222923e+01	-1.230162e+02
6.200000e-07	-1.515955e-06	-1.843447e-09	-2.122978e+01	-1.210507e+02
6.300000e-07	-1.444297e-06	-1.832966e-09	-2.022626e+01	-1.189852e+02
6.400000e-07	-1.372258e-06	-1.787076e-09	-1.921741e+01	-1.168148e+02
6.500000e-07	-1.299678e-06	-1.740067e-09	-1.820098e+01	-1.145365e+02
6.600000e-07	-1.226418e-06	-1.704839e-09	-1.717503e+01	-1.121482e+02
6.700000e-07	-1.152441e-06	-1.669078e-09	-1.613903e+01	-1.096488e+02
6.800000e-07	-1.077887e-06	-1.628802e-09	-1.509497e+01	-1.070370e+02
6.900000e-07	-1.002831e-06	-1.592416e-09	-1.404387e+01	-1.043104e+02
7.000000e-07	-9.273508e-07	-1.538943e-09	-1.298682e+01	-1.014649e+02
7.100000e-07	-8.515891e-07	-1.481746e-09	-1.192584e+01	-9.849380e+01
7.200000e-07	-7.756362e-07	-1.447022e-09	-1.086218e+01	-9.538824e+01
7.300000e-07	-6.994332e-07	-1.408351e-09	-9.795017e+00	-9.213690e+01
7.400000e-07	-6.228993e-07	-1.337875e-09	-8.723219e+00	-8.872682e+01
7.500000e-07	-5.460046e-07	-1.266259e-09	-7.646369e+00	-8.514426e+01
7.600000e-07	-4.688925e-07	-1.220972e-09	-6.566473e+00	-8.137581e+01
7.700000e-07	-3.917416e-07	-1.167977e-09	-5.486035e+00	-7.740947e+01
7.800000e-07	-3.144378e-07	-1.088901e-09	-4.403456e+00	-7.323574e+01
7.900000e-07	-2.369411e-07	-1.010620e-09	-3.318175e+00	-6.884841e+01
8.000000e-07	-1.594326e-07	-9.526851e-10	-2.232730e+00	-6.424502e+01
8.100000e-07	-8.192398e-08	-8.867979e-10	-1.147281e+00	-5.942702e+01
8.200000e-07	-4.321069e-09	-8.006172e-10	-6.051321e-02	-5.439960e+01
8.300000e-07	7.331442e-08	-7.144609e-10	1.026711e+00	-4.917122e+01
8.400000e-07	1.508813e-07	-6.344501e-10	2.112976e+00	-4.375301e+01
8.500000e-07	2.283430e-07	-5.510965e-10	3.197766e+00	-3.815817e+01
8.600000e-07	3.056600e-07	-4.614332e-10	4.280530e+00	-3.240140e+01
8.700000e-07	3.828737e-07	-3.686139e-10	5.361847e+00	-2.649855e+01
8.800000e-07	4.600346e-07	-2.710810e-10	6.442426e+00	-2.046653e+01
8.900000e-07	5.370578e-07	-1.756280e-10	7.521076e+00	-1.432339e+01
9.000000e-07	6.137855e-07	-8.495408e-11	8.595587e+00	-8.088637e+00
9.100000e-07	6.902134e-07	1.084395e-11	9.665901e+00	-1.783640e+00
9.200000e-07	7.663686e-07	1.163824e-10	1.073239e+01	4.568000e+00
9.300000e-07	8.422800e-07	2.149993e-10	1.179548e+01	1.094023e+01
9.400000e-07	9.179881e-07	3.026599e-10	1.285571e+01	1.730457e+01
9.500000e-07	9.933975e-07	3.980676e-10	1.391176e+01	2.363050e+01
9.600000e-07	1.068486e-06	5.032896e-10	1.496331e+01	2.988619e+01
9.700000e-07	1.143185e-06	6.027928e-10	1.600941e+01	3.603955e+01
9.800000e-07	1.217266e-06	6.889084e-10	1.704687e+01	4.205952e+01
9.900000e-07	1.290555e-06	7.767415e-10	1.807322e+01	4.791750e+01
1.000000e-06	1.363110e-06	8.705253e-10	1.908929e+01	5.358869e+01
1.010000e-06	1.435099e-06	9.577087e-10	2.009745e+01	5.905322e+01
1.020000e-06	1.506689e-06	1.033797e-09	2.110001e+01	6.429696e+01
1.030000e-06	1.577921e-06	1.105895e-09	2.209755e+01	6.931185e+01
1.040000e-06	1.648613e-06	1.179374e-09	2.308754e+01	7.409577e+01
1.050000e-06	1.718658e-06	1.251364e-09	2.406847e+01	7.865189e+01
1.060000e-06	1.788104e-06	1.319697e-09	2.504100e+01	8.298767e+01
1.070000e-06	1.856952e-06	1.379966e-09	2.600517e+01	8.711360e+01
1.080000e-06	1.925163e-06	1.434928e-09	2.696041e+01	9.104180e+01
1.090000e-06	1.992856e-06	1.491111e-09	2.790840e+01	9.478468e+01
1.100000e-06	2.060072e-06	1.547716e-09	2.884971e+01	9.835393e+01
1.110000e-06	2.126510e-06	1.600166e-09	2.978011e+01	1.017596e+02
1.120000e-06	2.191801e-06	1.642997e-09	3.069446e+01	1.050100e+02
1.130000e-06	2.256038e-06	1.687519e-09	3.159406e+01	1.081113e+02
1.140000e-06	2.319627e-06	1.737619e-09	3.248456e+01	1.110680e+02
1.150000e-06	2.382622e-06	1.782826e-09	3.336677e+01	1.138840e+02
1.160000e-06	2.444830e-06	1.817935e-09	3.423793e+01	1.165625e+02
1.170000e-06	2.506156e-06	1.852772e-09	3.509677e+01	1.191072e+02
1.180000e-06	2.566653e-06	1.891547e-09	3.594398e+01	1.215225e+02
1.190000e-06	2.626494e-06	1.927501e-09	3.678200e+01	1.238141e+02
1.200000e-06	2.685646e-06	1.959436e-09	3.761038e+01	1.259887e+02
1.210000e-06	2.743612e-06	1.989746e-09	3.842215e+01	1.280540e+02
1.220000e-06	2.800179e-06	2.018898e-09	3.921433e+01	1.300180e+02
1.230000e-06	2.855712e-06	2.046488e-09	3.999203e+01	1.318885e+02
1.240000e-06	2.910411e-06	2.075315e-09	4.075804e+01	1.336726e+02
1.250000e-06	2.964196e-06	2.102036e-09	4.151126e+01	1.353763e+02
1.260000e-06	3.016943e-06	2.125493e-09	4.224994e+01	1.370037e+02
1.270000e-06	3.068486e-06	2.148468e-09	4.297176e+01	1.385579e+02
1.280000e-06	3.118595e-06	2.172980e-09	4.367349e+01	1.400400e+02
1.290000e-06	3.167189e-06	2.194988e-09	4.435401e+01	1.414509e+02
1.300000e-06	3.214547e-06	2.215774e-09	4.501723e+01	1.427908e+02
1.310000e-06	3.260853e-06	2.237144e-09	4.566571e+01	1.440603e+02
1.320000e-06	3.306048e-06	2.256225e-09	4.629863e+01	1.452611e+02
1.330000e-06	3.350211e-06	2.272972e-09	4.691710e+01	1.463960e+02
1.340000e-06	3.393404e-06	2.289465e-09	4.752197e+01	1.474694e+02
1.350000e-06	3.435226e-06	2.306395e-09	4.810766e+01	1.484869e+02
1.360000e-06	3.475551e-06	2.321697e-09	4.867238e+01	1.494551e+02
1.370000e-06	3.514678e-06	2.335077e-09	4.922033e+01	1.503809e+02
1.380000e-06	3.552674e-06	2.348635e-09	4.975243e+01	1.512708e+02
1.390000e-06	3.589516e-06	2.364272e-09	5.026837e+01	1.521304e+02
1.400000e-06	3.625227e-06	2.378811e-09	5.076849e+01	1.529635e+02
1.410000e-06	3.659651e-06	2.391235e-09	5.125056e+01	1.537721e+02
1.420000e-06	3.692557e-06	2.404049e-09	5.171138e+01	1.545562e+02
1.430000e-06	3.724121e-06	2.416599e-09	5.215342e+01	1.553140e+02
1.440000e-06	3.754492e-06	2.427681e-09	5.257873e+01	1.560427e+02
1.450000e-06	3.783645e-06	2.437344e-09	5.298700e+01	1.567390e+02
1.460000e-06	3.811644e-06	2.446814e-09	5.337910e+01	1.573999e+02
1.470000e-06	3.838241e-06	2.457207e-09	5.375157e+01	1.580234e+02
1.480000e-06	3.863171e-06	2.469314e-09	5.410071e+01	1.586089e+02
1.490000e-06	3.886675e-06	2.479172e-09	5.442986e+01	1.591579e+02
1.500000e-06	3.908921e-06	2.486381e-09	5.474139e+01	1.596732e+02
1.510000e-06	3.929833e-06	2.494155e-09	5.503425e+01	1.601591e+02
1.520000e-06	3.949629e-06	2.503794e-09	5.531147e+01	1.606205e+02
1.530000e-06	3.968180e-06	2.513250e-09	5.557126e+01	1.610620e+02
1.540000e-06	3.985188e-06	2.518452e-09	5.580946e+01	1.614875e+02
1.550000e-06	4.000694e-06	2.522097e-09	5.602660e+01	1.618991e+02
1.560000e-06	4.014699e-06	2.528449e-09	5.622274e+01	1.622969e+02
1.570000e-06	4.027256e-06	2.536123e-09	5.639858e+01	1.626790e+02
1.580000e-06	4.038281e-06	2.541328e-09	5.655298e+01	1.630419e+02
1.590000e-06	4.047504e-06	2.545504e-09	5.668214e+01	1.633810e+02
1.600000e-06	4.055150e-06	2.551327e-09	5.678922e+01	1.636915e+02
1.610000e-06	4.061509e-06	2.557228e-09	5.687826e+01	1.639698e+02
1.620000e-06	4.066514e-06	2.561752e-09	5.694836e+01	1.642138e+02
1.630000e-06	4.070275e-06	2.564448e-09	5.700103e+01	1.644240e+02
1.640000e-06	4.072545e-06	2.569239e-09	5.703281e+01	1.646037e+02
1.650000e-06	4.073165e-06	2.574464e-09	5.704150e+01	1.647583e+02
1.660000e-06	4.072402e-06	2.577772e-09	5.703081e+01	1.648952e+02
1.670000e-06	4.070380e-06	2.579270e-09	5.700250e+01	1.650221e+02
1.680000e-06	4.067112e-06	2.581273e-09	5.695674e+01	1.651459e+02
1.690000e-06	4.062681e-06	2.585505e-09	5.689469e+01	1.652709e+02
1.700000e-06	4.056867e-06	2.590626e-09	5.681326e+01	1.653975e+02
1.710000e-06	4.049483e-06	2.595496e-09	5.670985e+01	1.655214e+02
1.720000e-06	4.040925e-06	2.609862e-09	5.659000e+01	1.656329e+02
1.730000e-06	4.031314e-06	2.649399e-09	5.645541e+01	1.657178e+02
1.740000e-06	4.020408e-06	2.618433e-09	5.630267e+01	1.657580e+02
1.750000e-06	4.007532e-06	2.587956e-09	5.612236e+01	1.657333e+02
1.760000e-06	3.992105e-06	2.568515e-09	5.590632e+01	1.656241e+02
1.770000e-06	3.974692e-06	2.629378e-09	5.566246e+01	1.654134e+02
1.780000e-06	3.956514e-06	2.684622e-09	5.540790e+01	1.650894e+02
1.790000e-06	3.938128e-06	2.501254e-09	5.515041e+01	1.646477e+02
1.800000e-06	3.918440e-06	2.472444e-09	5.487470e+01	1.640921e+02
1.810000e-06	3.896458e-06	2.648712e-09	5.456686e+01	1.634353e+02
1.820000e-06	3.873313e-06	2.539872e-09	5.424273e+01	1.626984e+02
1.830000e-06	3.849374e-06	2.544351e-09	5.390748e+01	1.619092e+02
1.840000e-06	3.823658e-06	2.643981e-09	5.354735e+01	1.610996e+02
1.850000e-06	3.796526e-06	2.353287e-09	5.316739e+01	1.603027e+02
1.860000e-06	3.768502e-06	2.371543e-09	5.277493e+01	1.595499e+02
1.870000e-06	3.739054e-06	2.622460e-09	5.236254e+01	1.588674e+02
1.880000e-06	3.707937e-06	2.343099e-09	5.192677e+01	1.582738e+02
1.890000e-06	3.675412e-06	2.087633e-09	5.147129e+01	1.577783e+02
1.900000e-06	3.641718e-06	2.268194e-09	5.099942e+01	1.573800e+02
1.910000e-06	3.607042e-06	2.384679e-09	5.051381e+01	1.570683e+02
1.920000e-06	3.571069e-06	2.346643e-09	5.001003e+01	1.568242e+02
1.930000e-06	3.533795e-06	2.192971e-09	4.948804e+01	1.566227e+02
1.940000e-06	3.495341e-06	2.247822e-09	4.894952e+01	1.564353e+02
1.950000e-06	3.455302e-06	2.377354e-09	4.838882e+01	1.562337e+02
1.960000e-06	3.413865e-06	2.197912e-09	4.780851e+01	1.559920e+02
1.970000e-06	3.371492e-06	2.276105e-09	4.721512e+01	1.556896e+02
1.980000e-06	3.328087e-06	2.370992e-09	4.660727e+01	1.553126e+02
1.990000e-06	3.283537e-06	2.114664e-09	4.598337e+01	1.548548e+02
2.000000e-06	3.237852e-06	2.199448e-09	4.534360e+01	1.543172e+02
2.010000e-06	3.191081e-06	2.395821e-09	4.468860e+01	1.537071e+02
2.020000e-06	3.143001e-06	2.243841e-09	4.401528e+01	1.530363e+02
2.030000e-06	3.093576e-06	2.107455e-09	4.332313e+01	1.523189e+02
2.040000e-06	3.043266e-06	2.200049e-09	4.261857e+01	1.515690e+02
2.050000e-06	2.991929e-06	2.333168e-09	4.189963e+01	1.507987e+02
2.060000e-06	2.939264e-06	2.185698e-09	4.116210e+01	1.500164e+02
2.070000e-06	2.885125e-06	2.091709e-09	4.040393e+01	1.492261e+02
2.080000e-06	2.829683e-06	2.201409e-09	3.962751e+01	1.484267e+02
2.090000e-06	2.773360e-06	2.200710e-09	3.883874e+01	1.476131e+02
2.100000e-06	2.716027e-06	2.150017e-09	3.803583e+01	1.467765e+02
2.110000e-06	2.657758e-06	2.111009e-09	3.721984e+01	1.459066e+02
2.120000e-06	2.598756e-06	2.150087e-09	3.639355e+01	1.449925e+02
2.130000e-06	2.538923e-06	2.136787e-09	3.555564e+01	1.440246e+02
2.140000e-06	2.478280e-06	2.064816e-09	3.470638e+01	1.429953e+02
2.150000e-06	2.416620e-06	2.109219e-09	3.384288e+01	1.419001e+02
2.160000e-06	2.353762e-06	2.089685e-09	3.296261e+01	1.407377e+02
2.170000e-06	2.289994e-06	2.021044e-09	3.206957e+01	1.395092e+02
2.180000e-06	2.225603e-06	2.026388e-09	3.116784e+01	1.382177e+02
2.190000e-06	2.160526e-06	2.044521e-09	3.025648e+01	1.368672e+02
2.200000e-06	2.094575e-06	2.006200e-09	2.933289e+01	1.354614e+02
2.210000e-06	2.027877e-06	1.940737e-09	2.839884e+01	1.340024e+02
2.220000e-06	1.960562e-06	1.967452e-09	2.745615e+01	1.324905e+02
2.230000e-06	1.892623e-06	1.978469e-09	2.650470e+01	1.309234e+02
2.240000e-06	1.824084e-06	1.898423e-09	2.554487e+01	1.292962e+02
2.250000e-06	1.754901e-06	1.868794e-09	2.457602e+01	1.276021e+02
2.260000e-06	1.684907e-06	1.882814e-09	2.359581e+01	1.258329e+02
2.270000e-06	1.613933e-06	1.857932e-09	2.260187e+01	1.239802e+02
2.280000e-06	1.542224e-06	1.791053e-09	2.159764e+01	1.220356e+02
2.290000e-06	1.470112e-06	1.766262e-09	2.058778e+01	1.199925e+02
2.300000e-06	1.397602e-06	1.763345e-09	1.957233e+01	1.178454e+02
2.310000e-06	1.324679e-06	1.714737e-09	1.855110e+01	1.155908e+02
2.320000e-06	1.251391e-06	1.679107e-09	1.752475e+01	1.132266e+02
2.330000e-06	1.177721e-06	1.651230e-09	1.649306e+01	1.107516e+02
2.340000e-06	1.103585e-06	1.606049e-09	1.545485e+01	1.081645e+02
2.350000e-06	1.029002e-06	1.558354e-09	1.441038e+01	1.054632e+02
2.360000e-06	9.540730e-07	1.533012e-09	1.336105e+01	1.026441e+02
2.370000e-06	8.787826e-07	1.497612e-09	1.230667e+01	9.970101e+01
2.380000e-06	8.032246e-07	1.427334e-09	1.124853e+01	9.662559e+01
2.390000e-06	7.274291e-07	1.382056e-09	1.018708e+01	9.340698e+01
2.400000e-06	6.513483e-07	1.354508e-09	9.121625e+00	9.003250e+01
2.410000e-06	5.750289e-07	1.301187e-09	8.052832e+00	8.648851e+01
2.420000e-06	4.985381e-07	1.225530e-09	6.981637e+00	8.276141e+01
2.430000e-06	4.218724e-07	1.169046e-09	5.907994e+00	7.883881e+01
2.440000e-06	3.449460e-07	1.125528e-09	4.830699e+00	7.471062e+01
2.450000e-06	2.678256e-07	1.054114e-09	3.750689e+00	7.036984e+01
2.460000e-06	1.905650e-07	9.695756e-10	2.668714e+00	6.581320e+01
2.470000e-06	1.131363e-07	9.014762e-10	1.584386e+00	6.104132e+01
2.480000e-06	3.560230e-08	8.381011e-10	4.985825e-01	5.605861e+01
2.490000e-06	-4.187802e-08	7.576316e-10	-5.864690e-01	5.087288e+01
2.500000e-06	-1.192729e-07	6.744757e-10	-1.670324e+00	4.549475e+01
2.510000e-06	-1.966467e-07	5.965688e-10	-2.753884e+00	3.993701e+01
2.520000e-06	-2.739431e-07	5.133160e-10	-3.836359e+00	3.421408e+01
2.530000e-06	-3.510050e-07	4.220971e-10	-4.915552e+00	2.834160e+01
2.540000e-06	-4.278259e-07	3.306799e-10	-5.991368e+00	2.233623e+01
2.550000e-06	-5.044850e-07	2.352387e-10	-7.064919e+00	1.621575e+01
2.560000e-06	-5.809121e-07	1.347458e-10	-8.135221e+00	9.999346e+00
2.570000e-06	-6.569870e-07	4.159482e-11	-9.200591e+00	3.707940e+00
2.580000e-06	-7.327843e-07	-4.929976e-11	-1.026207e+01	-2.635369e+00
2.590000e-06	-8.083575e-07	-1.492566e-10	-1.132042e+01	-9.005058e+00
2.600000e-06	-8.835969e-07	-2.505465e-10	-1.237409e+01	-1.537315e+01
2.610000e-06	-9.585006e-07	-3.374534e-10	-1.342305e+01	-2.170952e+01
2.620000e-06	-1.033098e-06	-4.241944e-10	-1.446773e+01	-2.798253e+01
2.630000e-06	-1.107349e-06	-5.232880e-10	-1.550755e+01	-3.416004e+01
2.640000e-06	-1.181254e-06	-6.195300e-10	-1.654254e+01	-4.021066e+01
2.650000e-06	-1.254740e-06	-7.029191e-10	-1.757165e+01	-4.610515e+01
2.660000e-06	-1.327716e-06	-7.834598e-10	-1.859362e+01	-5.181778e+01
2.670000e-06	-1.400265e-06	-8.696196e-10	-1.960962e+01	-5.732754e+01
2.680000e-06	-1.472446e-06	-9.534979e-10	-2.062046e+01	-6.261903e+01
2.690000e-06	-1.544283e-06	-1.030667e-09	-2.162648e+01	-6.768289e+01
2.700000e-06	-1.615616e-06	-1.102305e-09	-2.262544e+01	-7.251576e+01
2.710000e-06	-1.686146e-06	-1.171318e-09	-2.361316e+01	-7.711975e+01
2.720000e-06	-1.755798e-06	-1.238638e-09	-2.458859e+01	-8.150150e+01
2.730000e-06	-1.824638e-06	-1.304734e-09	-2.555264e+01	-8.567097e+01
2.740000e-06	-1.892841e-06	-1.366402e-09	-2.650776e+01	-8.964004e+01
2.750000e-06	-1.960516e-06	-1.420550e-09	-2.745549e+01	-9.342117e+01
2.760000e-06	-2.027556e-06	-1.474933e-09	-2.839434e+01	-9.702627e+01
2.770000e-06	-2.093890e-06	-1.532665e-09	-2.932330e+01	-1.004658e+02
2.780000e-06	-2.159506e-06	-1.586895e-09	-3.024220e+01	-1.037484e+02
2.790000e-06	-2.224377e-06	-1.631304e-09	-3.115067e+01	-1.068808e+02
2.800000e-06	-2.288598e-06	-1.674477e-09	-3.205003e+01	-1.098677e+02
2.810000e-06	-2.352109e-06	-1.721311e-09	-3.293945e+01	-1.127132e+02
2.820000e-06	-2.414572e-06	-1.764690e-09	-3.381420e+01	-1.154204e+02
2.830000e-06	-2.475887e-06	-1.802173e-09	-3.467286e+01	-1.179929e+02
2.840000e-06	-2.536333e-06	-1.838738e-09	-3.551937e+01	-1.204351e+02
2.850000e-06	-2.596013e-06	-1.875446e-09	-3.635515e+01	-1.227522e+02
2.860000e-06	-2.654760e-06	-1.909869e-09	-3.717784e+01	-1.249508e+02
2.870000e-06	-2.712573e-06	-1.943763e-09	-3.798748e+01	-1.270384e+02
2.880000e-06	-2.769476e-06	-1.976686e-09	-3.878435e+01	-1.290230e+02
2.890000e-06	-2.825537e-06	-2.006446e-09	-3.956944e+01	-1.309125e+02
2.900000e-06	-2.880663e-06	-2.033800e-09	-4.034144e+01	-1.327141e+02
2.910000e-06	-2.934448e-06	-2.061560e-09	-4.109466e+01	-1.344342e+02
2.920000e-06	-2.986845e-06	-2.086910e-09	-4.182844e+01	-1.360772e+02
2.930000e-06	-3.038093e-06	-2.107279e-09	-4.254612e+01	-1.376464e+02
2.940000e-06	-3.088183e-06	-2.125767e-09	-4.324760e+01	-1.391435e+02
