# Temperatura_=_20.0
# Concentracion g/m^3_=_9000.0
# C_Vs_to_Am_M_A/Vsm_=_65563218390.804596
# pendiente_HvsI_1/m_=_3716.3
# ordenada_HvsI_A/m_=_1297.0
# frecuencia_Hz_=_300779.79864293325

Tiempo_(s)	Campo_(V.s)	Magnetizacion_(V.s)	Campo_(kA/m)	Magnetizacion_(A/m)
0.000000e+00	-4.059839e-06	-3.553554e-09	-5.684452e+01	-2.329479e+02
1.000000e-08	-4.057963e-06	-3.555547e-09	-5.681825e+01	-2.329142e+02
2.000000e-08	-4.054628e-06	-3.555563e-09	-5.677156e+01	-2.328477e+02
3.000000e-08	-4.050112e-06	-3.554237e-09	-5.670833e+01	-2.327490e+02
4.000000e-08	-4.044344e-06	-3.550024e-09	-5.662757e+01	-2.326191e+02
5.000000e-08	-4.037340e-06	-3.544757e-09	-5.652950e+01	-2.324601e+02
6.000000e-08	-4.029134e-06	-3.538193e-09	-5.641459e+01	-2.322748e+02
7.000000e-08	-4.019399e-06	-3.523777e-09	-5.627829e+01	-2.320671e+02
8.000000e-08	-4.007884e-06	-3.540440e-09	-5.611706e+01	-2.318416e+02
9.000000e-08	-3.994500e-06	-3.582925e-09	-5.592966e+01	-2.316036e+02
1.000000e-07	-3.979027e-06	-3.593001e-09	-5.571302e+01	-2.313582e+02
1.100000e-07	-3.961835e-06	-3.551784e-09	-5.547230e+01	-2.311105e+02
1.200000e-07	-3.943505e-06	-3.429324e-09	-5.521565e+01	-2.308643e+02
1.300000e-07	-3.924279e-06	-3.452148e-09	-5.494645e+01	-2.306224e+02
1.400000e-07	-3.904100e-06	-3.595672e-09	-5.466392e+01	-2.303855e+02
1.500000e-07	-3.882912e-06	-3.520046e-09	-5.436724e+01	-2.301522e+02
1.600000e-07	-3.860667e-06	-3.467171e-09	-5.405578e+01	-2.299189e+02
1.700000e-07	-3.836711e-06	-3.475899e-09	-5.372036e+01	-2.296797e+02
1.800000e-07	-3.810868e-06	-3.395765e-09	-5.335851e+01	-2.294267e+02
1.900000e-07	-3.783916e-06	-3.494257e-09	-5.298113e+01	-2.291505e+02
2.000000e-07	-3.755931e-06	-3.595689e-09	-5.258930e+01	-2.288408e+02
2.100000e-07	-3.726497e-06	-3.421315e-09	-5.217717e+01	-2.284871e+02
2.200000e-07	-3.695813e-06	-3.386929e-09	-5.174756e+01	-2.280793e+02
2.300000e-07	-3.664086e-06	-3.531980e-09	-5.130331e+01	-2.276087e+02
2.400000e-07	-3.630967e-06	-3.525954e-09	-5.083960e+01	-2.270684e+02
2.500000e-07	-3.596259e-06	-3.475035e-09	-5.035363e+01	-2.264538e+02
2.600000e-07	-3.560175e-06	-3.398022e-09	-4.984840e+01	-2.257628e+02
2.700000e-07	-3.522944e-06	-3.380767e-09	-4.932710e+01	-2.249958e+02
2.800000e-07	-3.484611e-06	-3.472082e-09	-4.879037e+01	-2.241557e+02
2.900000e-07	-3.445128e-06	-3.443707e-09	-4.823754e+01	-2.232472e+02
3.000000e-07	-3.404387e-06	-3.359731e-09	-4.766710e+01	-2.222764e+02
3.100000e-07	-3.362132e-06	-3.355367e-09	-4.707546e+01	-2.212500e+02
3.200000e-07	-3.318531e-06	-3.330691e-09	-4.646497e+01	-2.201749e+02
3.300000e-07	-3.273892e-06	-3.353629e-09	-4.583996e+01	-2.190571e+02
3.400000e-07	-3.228184e-06	-3.385715e-09	-4.519997e+01	-2.179016e+02
3.500000e-07	-3.181205e-06	-3.280093e-09	-4.454218e+01	-2.167119e+02
3.600000e-07	-3.132993e-06	-3.213189e-09	-4.386712e+01	-2.154894e+02
3.700000e-07	-3.083548e-06	-3.300678e-09	-4.317481e+01	-2.142339e+02
3.800000e-07	-3.032552e-06	-3.320438e-09	-4.246079e+01	-2.129434e+02
3.900000e-07	-2.980113e-06	-3.197083e-09	-4.172656e+01	-2.116146e+02
4.000000e-07	-2.926672e-06	-3.170546e-09	-4.097830e+01	-2.102431e+02
4.100000e-07	-2.872318e-06	-3.216459e-09	-4.021724e+01	-2.088241e+02
4.200000e-07	-2.817047e-06	-3.186622e-09	-3.944335e+01	-2.073524e+02
4.300000e-07	-2.760818e-06	-3.133753e-09	-3.865606e+01	-2.058234e+02
4.400000e-07	-2.703296e-06	-3.106975e-09	-3.785066e+01	-2.042330e+02
4.500000e-07	-2.644573e-06	-3.083867e-09	-3.702843e+01	-2.025778e+02
4.600000e-07	-2.585054e-06	-3.058979e-09	-3.619506e+01	-2.008555e+02
4.700000e-07	-2.524757e-06	-3.046576e-09	-3.535081e+01	-1.990644e+02
4.800000e-07	-2.463585e-06	-3.015617e-09	-3.449431e+01	-1.972036e+02
4.900000e-07	-2.401528e-06	-2.962186e-09	-3.362540e+01	-1.952727e+02
5.000000e-07	-2.338673e-06	-2.939290e-09	-3.274532e+01	-1.932717e+02
5.100000e-07	-2.275238e-06	-2.940851e-09	-3.185712e+01	-1.912004e+02
5.200000e-07	-2.210931e-06	-2.893393e-09	-3.095672e+01	-1.890583e+02
5.300000e-07	-2.145332e-06	-2.826376e-09	-3.003822e+01	-1.868447e+02
5.400000e-07	-2.078725e-06	-2.804354e-09	-2.910562e+01	-1.845581e+02
5.500000e-07	-2.011583e-06	-2.799833e-09	-2.816551e+01	-1.821963e+02
5.600000e-07	-1.943968e-06	-2.750520e-09	-2.721879e+01	-1.797564e+02
5.700000e-07	-1.875716e-06	-2.680718e-09	-2.626316e+01	-1.772350e+02
5.800000e-07	-1.806818e-06	-2.652236e-09	-2.529846e+01	-1.746275e+02
5.900000e-07	-1.737375e-06	-2.631220e-09	-2.432614e+01	-1.719292e+02
6.000000e-07	-1.667292e-06	-2.583339e-09	-2.334488e+01	-1.691345e+02
6.100000e-07	-1.596519e-06	-2.522179e-09	-2.235392e+01	-1.662372e+02
6.200000e-07	-1.525276e-06	-2.475894e-09	-2.135641e+01	-1.632309e+02
6.300000e-07	-1.453746e-06	-2.437740e-09	-2.035488e+01	-1.601083e+02
6.400000e-07	-1.381820e-06	-2.392641e-09	-1.934779e+01	-1.568620e+02
6.500000e-07	-1.309226e-06	-2.340534e-09	-1.833135e+01	-1.534838e+02
6.600000e-07	-1.235747e-06	-2.278279e-09	-1.730251e+01	-1.499652e+02
6.700000e-07	-1.161503e-06	-2.218932e-09	-1.626298e+01	-1.462972e+02
6.800000e-07	-1.086806e-06	-2.170701e-09	-1.521710e+01	-1.424704e+02
6.900000e-07	-1.011709e-06	-2.117807e-09	-1.416561e+01	-1.384749e+02
7.000000e-07	-9.362209e-07	-2.039624e-09	-1.310866e+01	-1.343005e+02
7.100000e-07	-8.604949e-07	-1.961140e-09	-1.204836e+01	-1.299368e+02
7.200000e-07	-7.845993e-07	-1.904633e-09	-1.098570e+01	-1.253730e+02
7.300000e-07	-7.084322e-07	-1.843266e-09	-9.919233e+00	-1.205983e+02
7.400000e-07	-6.319324e-07	-1.754409e-09	-8.848108e+00	-1.156019e+02
7.500000e-07	-5.550795e-07	-1.660753e-09	-7.772039e+00	-1.103731e+02
7.600000e-07	-4.780065e-07	-1.583547e-09	-6.692889e+00	-1.049015e+02
7.700000e-07	-4.008607e-07	-1.503698e-09	-5.612718e+00	-9.917701e+01
7.800000e-07	-3.236164e-07	-1.407025e-09	-4.531170e+00	-9.319054e+01
7.900000e-07	-2.462130e-07	-1.304134e-09	-3.447392e+00	-8.693403e+01
8.000000e-07	-1.687275e-07	-1.206471e-09	-2.362467e+00	-8.040101e+01
8.100000e-07	-9.125712e-08	-1.105611e-09	-1.277752e+00	-7.358708e+01
8.200000e-07	-1.377317e-08	-9.971840e-10	-1.928474e-01	-6.649052e+01
8.300000e-07	6.367277e-08	-8.822578e-10	8.915250e-01	-5.911291e+01
8.400000e-07	1.411289e-07	-7.612225e-10	1.976040e+00	-5.145977e+01
8.500000e-07	2.186146e-07	-6.412493e-10	3.060970e+00	-4.354119e+01
8.600000e-07	2.960097e-07	-5.216829e-10	4.144630e+00	-3.537228e+01
8.700000e-07	3.732799e-07	-3.911495e-10	5.226541e+00	-2.697360e+01
8.800000e-07	4.504193e-07	-2.510781e-10	6.306621e+00	-1.837129e+01
8.900000e-07	5.274502e-07	-1.172577e-10	7.385183e+00	-9.596977e+00
9.000000e-07	6.043392e-07	1.138451e-11	8.461757e+00	-6.874718e-01
9.100000e-07	6.809319e-07	1.494195e-10	9.534183e+00	8.315917e+00
9.200000e-07	7.571905e-07	2.965755e-10	1.060193e+01	1.736827e+01
9.300000e-07	8.331687e-07	4.358407e-10	1.166575e+01	2.642220e+01
9.400000e-07	9.088867e-07	5.649892e-10	1.272593e+01	3.542920e+01
9.500000e-07	9.843594e-07	7.002531e-10	1.378267e+01	4.434110e+01
9.600000e-07	1.059529e-06	8.419725e-10	1.483518e+01	5.311152e+01
9.700000e-07	1.134302e-06	9.782129e-10	1.588212e+01	6.169732e+01
9.800000e-07	1.208536e-06	1.103616e-09	1.692152e+01	7.005985e+01
9.900000e-07	1.282012e-06	1.226096e-09	1.795031e+01	7.816602e+01
1.000000e-06	1.354725e-06	1.349592e-09	1.896840e+01	8.598906e+01
1.010000e-06	1.426800e-06	1.468334e-09	1.997758e+01	9.350898e+01
1.020000e-06	1.498400e-06	1.577950e-09	2.098010e+01	1.007126e+02
1.030000e-06	1.569648e-06	1.677852e-09	2.197769e+01	1.075936e+02
1.040000e-06	1.640427e-06	1.775135e-09	2.296872e+01	1.141514e+02
1.050000e-06	1.710613e-06	1.872479e-09	2.395143e+01	1.203911e+02
1.060000e-06	1.780185e-06	1.964401e-09	2.492556e+01	1.263222e+02
1.070000e-06	1.849133e-06	2.046455e-09	2.589095e+01	1.319574e+02
1.080000e-06	1.917410e-06	2.124008e-09	2.684694e+01	1.373116e+02
1.090000e-06	1.985111e-06	2.201913e-09	2.779486e+01	1.424012e+02
1.100000e-06	2.052343e-06	2.275738e-09	2.873622e+01	1.472428e+02
1.110000e-06	2.118945e-06	2.345252e-09	2.966877e+01	1.518523e+02
1.120000e-06	2.184550e-06	2.408727e-09	3.058735e+01	1.562447e+02
1.130000e-06	2.249014e-06	2.471297e-09	3.148995e+01	1.604337e+02
1.140000e-06	2.312643e-06	2.534443e-09	3.238086e+01	1.644310e+02
1.150000e-06	2.375635e-06	2.593167e-09	3.326286e+01	1.682468e+02
1.160000e-06	2.437902e-06	2.644818e-09	3.413469e+01	1.718895e+02
1.170000e-06	2.499382e-06	2.695187e-09	3.499552e+01	1.753664e+02
1.180000e-06	2.560011e-06	2.746115e-09	3.584442e+01	1.786833e+02
1.190000e-06	2.619882e-06	2.793748e-09	3.668272e+01	1.818455e+02
1.200000e-06	2.679087e-06	2.838624e-09	3.751170e+01	1.848579e+02
1.210000e-06	2.737183e-06	2.881468e-09	3.832513e+01	1.877248e+02
1.220000e-06	2.793945e-06	2.922605e-09	3.911989e+01	1.904508e+02
1.230000e-06	2.849682e-06	2.960092e-09	3.990030e+01	1.930405e+02
1.240000e-06	2.904491e-06	2.997585e-09	4.066772e+01	1.954988e+02
1.250000e-06	2.958334e-06	3.033083e-09	4.142162e+01	1.978309e+02
1.260000e-06	3.011190e-06	3.064723e-09	4.216168e+01	2.000420e+02
1.270000e-06	3.062928e-06	3.095403e-09	4.288611e+01	2.021377e+02
1.280000e-06	3.113241e-06	3.127438e-09	4.359056e+01	2.041236e+02
1.290000e-06	3.161974e-06	3.157489e-09	4.427291e+01	2.060050e+02
1.300000e-06	3.209462e-06	3.184783e-09	4.493782e+01	2.077876e+02
1.310000e-06	3.255897e-06	3.210578e-09	4.558799e+01	2.094765e+02
1.320000e-06	3.301225e-06	3.234616e-09	4.622266e+01	2.110767e+02
1.330000e-06	3.345507e-06	3.256751e-09	4.684267e+01	2.125932e+02
1.340000e-06	3.388779e-06	3.277491e-09	4.744856e+01	2.140304e+02
1.350000e-06	3.430786e-06	3.298432e-09	4.803673e+01	2.153930e+02
1.360000e-06	3.471359e-06	3.319648e-09	4.860481e+01	2.166851e+02
1.370000e-06	3.510694e-06	3.339538e-09	4.915558e+01	2.179108e+02
1.380000e-06	3.548866e-06	3.357812e-09	4.969004e+01	2.190743e+02
1.390000e-06	3.585838e-06	3.375930e-09	5.020772e+01	2.201793e+02
1.400000e-06	3.621694e-06	3.393525e-09	5.070976e+01	2.212296e+02
1.410000e-06	3.656325e-06	3.410241e-09	5.119465e+01	2.222288e+02
1.420000e-06	3.689437e-06	3.426080e-09	5.165828e+01	2.231799e+02
1.430000e-06	3.721171e-06	3.440002e-09	5.210261e+01	2.240858e+02
1.440000e-06	3.751707e-06	3.452606e-09	5.253015e+01	2.249490e+02
1.450000e-06	3.780953e-06	3.465268e-09	5.293965e+01	2.257711e+02
1.460000e-06	3.809034e-06	3.478519e-09	5.333283e+01	2.265535e+02
1.470000e-06	3.835873e-06	3.492380e-09	5.370863e+01	2.272967e+02
1.480000e-06	3.861100e-06	3.506567e-09	5.406184e+01	2.280010e+02
1.490000e-06	3.884780e-06	3.518523e-09	5.439340e+01	2.286659e+02
1.500000e-06	3.907161e-06	3.528624e-09	5.470677e+01	2.292906e+02
1.510000e-06	3.928244e-06	3.538514e-09	5.500197e+01	2.298744e+02
1.520000e-06	3.948124e-06	3.548075e-09	5.528033e+01	2.304161e+02
1.530000e-06	3.966837e-06	3.556708e-09	5.554233e+01	2.309152e+02
1.540000e-06	3.984097e-06	3.562711e-09	5.578400e+01	2.313709e+02
1.550000e-06	3.999789e-06	3.568586e-09	5.600372e+01	2.317834e+02
1.560000e-06	4.013951e-06	3.576260e-09	5.620201e+01	2.321528e+02
1.570000e-06	4.026635e-06	3.584245e-09	5.637961e+01	2.324801e+02
1.580000e-06	4.037834e-06	3.590102e-09	5.653642e+01	2.327665e+02
1.590000e-06	4.047287e-06	3.594851e-09	5.666877e+01	2.330135e+02
1.600000e-06	4.055151e-06	3.601283e-09	5.677888e+01	2.332226e+02
1.610000e-06	4.061659e-06	3.605939e-09	5.687000e+01	2.333956e+02
1.620000e-06	4.066773e-06	3.606364e-09	5.694160e+01	2.335339e+02
1.630000e-06	4.070649e-06	3.605714e-09	5.699588e+01	2.336384e+02
1.640000e-06	4.073122e-06	3.608588e-09	5.703050e+01	2.337099e+02
1.650000e-06	4.073907e-06	3.611667e-09	5.704150e+01	2.337486e+02
1.660000e-06	4.073277e-06	3.611622e-09	5.703268e+01	2.337547e+02
1.670000e-06	4.071415e-06	3.609619e-09	5.700660e+01	2.337280e+02
1.680000e-06	4.068248e-06	3.608402e-09	5.696226e+01	2.336685e+02
1.690000e-06	4.063983e-06	3.609176e-09	5.690254e+01	2.335765e+02
1.700000e-06	4.058472e-06	3.608771e-09	5.682539e+01	2.334532e+02
1.710000e-06	4.051325e-06	3.605592e-09	5.672531e+01	2.333001e+02
1.720000e-06	4.042866e-06	3.607848e-09	5.660687e+01	2.331201e+02
1.730000e-06	4.033365e-06	3.620242e-09	5.647384e+01	2.329168e+02
1.740000e-06	4.022608e-06	3.569269e-09	5.632322e+01	2.326947e+02
1.750000e-06	4.009938e-06	3.518503e-09	5.614582e+01	2.324589e+02
1.760000e-06	3.994714e-06	3.513970e-09	5.593266e+01	2.322146e+02
1.770000e-06	3.977450e-06	3.602933e-09	5.569093e+01	2.319670e+02
1.780000e-06	3.959321e-06	3.693549e-09	5.543711e+01	2.317202e+02
1.790000e-06	3.940904e-06	3.558063e-09	5.517923e+01	2.314772e+02
1.800000e-06	3.921369e-06	3.495722e-09	5.490571e+01	2.312392e+02
1.810000e-06	3.899725e-06	3.613101e-09	5.460265e+01	2.310053e+02
1.820000e-06	3.876774e-06	3.555659e-09	5.428131e+01	2.307724e+02
1.830000e-06	3.852972e-06	3.590431e-09	5.394804e+01	2.305350e+02
1.840000e-06	3.827432e-06	3.671895e-09	5.359044e+01	2.302857e+02
1.850000e-06	3.800375e-06	3.460096e-09	5.321159e+01	2.300153e+02
1.860000e-06	3.772445e-06	3.461879e-09	5.282052e+01	2.297136e+02
1.870000e-06	3.743184e-06	3.622580e-09	5.241082e+01	2.293702e+02
1.880000e-06	3.712247e-06	3.455144e-09	5.197766e+01	2.289747e+02
1.890000e-06	3.679847e-06	3.369159e-09	5.152400e+01	2.285182e+02
1.900000e-06	3.646240e-06	3.478023e-09	5.105345e+01	2.279933e+02
1.910000e-06	3.611643e-06	3.436777e-09	5.056903e+01	2.273948e+02
1.920000e-06	3.575837e-06	3.465924e-09	5.006768e+01	2.267202e+02
1.930000e-06	3.538812e-06	3.426284e-09	4.954927e+01	2.259693e+02
1.940000e-06	3.500606e-06	3.334352e-09	4.901433e+01	2.251445e+02
1.950000e-06	3.460771e-06	3.407208e-09	4.845657e+01	2.242501e+02
1.960000e-06	3.419498e-06	3.368122e-09	4.787868e+01	2.232921e+02
1.970000e-06	3.377252e-06	3.373865e-09	4.728716e+01	2.222770e+02
1.980000e-06	3.333890e-06	3.389333e-09	4.668003e+01	2.212117e+02
1.990000e-06	3.289456e-06	3.235240e-09	4.605787e+01	2.201026e+02
2.000000e-06	3.244020e-06	3.285251e-09	4.542170e+01	2.189548e+02
2.010000e-06	3.197401e-06	3.374578e-09	4.476894e+01	2.177722e+02
2.020000e-06	3.149399e-06	3.268859e-09	4.409685e+01	2.165566e+02
2.030000e-06	3.100085e-06	3.190495e-09	4.340636e+01	2.153083e+02
2.040000e-06	3.049821e-06	3.207458e-09	4.270258e+01	2.140255e+02
2.050000e-06	2.998568e-06	3.266835e-09	4.198495e+01	2.127052e+02
2.060000e-06	2.946094e-06	3.187092e-09	4.125023e+01	2.113432e+02
2.070000e-06	2.892168e-06	3.118843e-09	4.049518e+01	2.099348e+02
2.080000e-06	2.836856e-06	3.150663e-09	3.972072e+01	2.084748e+02
2.090000e-06	2.780512e-06	3.115166e-09	3.893181e+01	2.069584e+02
2.100000e-06	2.723160e-06	3.097926e-09	3.812879e+01	2.053814e+02
2.110000e-06	2.664943e-06	3.071223e-09	3.731365e+01	2.037403e+02
2.120000e-06	2.605964e-06	3.044030e-09	3.648785e+01	2.020325e+02
2.130000e-06	2.546153e-06	3.014079e-09	3.565039e+01	2.002562e+02
2.140000e-06	2.485624e-06	2.970561e-09	3.480288e+01	1.984103e+02
2.150000e-06	2.424176e-06	2.984275e-09	3.394251e+01	1.964945e+02
2.160000e-06	2.361498e-06	2.933175e-09	3.306491e+01	1.945084e+02
2.170000e-06	2.297764e-06	2.867374e-09	3.217253e+01	1.924522e+02
2.180000e-06	2.233363e-06	2.868407e-09	3.127081e+01	1.903253e+02
2.190000e-06	2.168307e-06	2.852325e-09	3.035992e+01	1.881271e+02
2.200000e-06	2.102430e-06	2.798910e-09	2.943753e+01	1.858562e+02
2.210000e-06	2.035804e-06	2.737388e-09	2.850465e+01	1.835107e+02
2.220000e-06	1.968475e-06	2.732290e-09	2.756193e+01	1.810878e+02
2.230000e-06	1.900528e-06	2.711630e-09	2.661056e+01	1.785842e+02
2.240000e-06	1.832056e-06	2.636470e-09	2.565185e+01	1.759955e+02
2.250000e-06	1.762960e-06	2.598091e-09	2.468438e+01	1.733171e+02
2.260000e-06	1.693073e-06	2.572182e-09	2.370585e+01	1.705435e+02
2.270000e-06	1.622220e-06	2.529485e-09	2.271379e+01	1.676687e+02
2.280000e-06	1.550541e-06	2.472504e-09	2.171017e+01	1.646863e+02
2.290000e-06	1.478430e-06	2.426037e-09	2.070049e+01	1.615892e+02
2.300000e-06	1.406016e-06	2.383789e-09	1.968658e+01	1.583700e+02
2.310000e-06	1.333224e-06	2.325430e-09	1.866736e+01	1.550207e+02
2.320000e-06	1.259969e-06	2.281611e-09	1.764166e+01	1.515329e+02
2.330000e-06	1.186221e-06	2.227508e-09	1.660908e+01	1.478977e+02
2.340000e-06	1.112034e-06	2.157076e-09	1.557033e+01	1.441057e+02
2.350000e-06	1.037481e-06	2.096250e-09	1.452647e+01	1.401471e+02
2.360000e-06	9.625771e-07	2.049623e-09	1.347769e+01	1.360119e+02
2.370000e-06	8.872736e-07	1.985641e-09	1.242331e+01	1.316896e+02
2.380000e-06	8.116553e-07	1.896279e-09	1.136453e+01	1.271696e+02
2.390000e-06	7.358107e-07	1.827521e-09	1.030258e+01	1.224410e+02
2.400000e-06	6.596916e-07	1.767750e-09	9.236783e+00	1.174930e+02
2.410000e-06	5.833372e-07	1.687813e-09	8.167694e+00	1.123149e+02
2.420000e-06	5.068328e-07	1.594851e-09	7.096505e+00	1.068961e+02
2.430000e-06	4.302441e-07	1.509456e-09	6.024136e+00	1.012265e+02
2.440000e-06	3.534664e-07	1.427989e-09	4.949119e+00	9.529689e+01
2.450000e-06	2.764513e-07	1.331769e-09	3.870780e+00	8.909882e+01
2.460000e-06	1.992918e-07	1.228242e-09	2.790418e+00	8.262547e+01
2.470000e-06	1.219536e-07	1.126808e-09	1.707554e+00	7.587194e+01
2.480000e-06	4.445426e-08	1.022029e-09	6.224339e-01	6.883590e+01
2.490000e-06	-3.295690e-08	9.123422e-10	-4.614517e-01	6.151815e+01
2.500000e-06	-1.102279e-07	8.006546e-10	-1.543375e+00	5.392334e+01
2.510000e-06	-1.875330e-07	6.807056e-10	-2.625774e+00	4.606051e+01
2.520000e-06	-2.647449e-07	5.539288e-10	-3.706871e+00	3.794366e+01
2.530000e-06	-3.416526e-07	4.276666e-10	-4.783707e+00	2.959218e+01
2.540000e-06	-4.183250e-07	2.992693e-10	-5.857248e+00	2.103098e+01
2.550000e-06	-4.948740e-07	1.614923e-10	-6.929062e+00	1.229056e+01
2.560000e-06	-5.712042e-07	2.157402e-11	-7.997811e+00	3.406657e+00
2.570000e-06	-6.472649e-07	-1.106837e-10	-9.062789e+00	-5.580324e+00
2.580000e-06	-7.231079e-07	-2.429742e-10	-1.012472e+01	-1.462614e+01
2.590000e-06	-7.987306e-07	-3.829256e-10	-1.118356e+01	-2.368383e+01
2.600000e-06	-8.740598e-07	-5.219370e-10	-1.223830e+01	-3.270502e+01
2.610000e-06	-9.490159e-07	-6.510335e-10	-1.328781e+01	-4.164132e+01
2.620000e-06	-1.023617e-06	-7.799422e-10	-1.433234e+01	-5.044586e+01
2.630000e-06	-1.097902e-06	-9.127988e-10	-1.537246e+01	-5.907468e+01
2.640000e-06	-1.171806e-06	-1.041426e-09	-1.640723e+01	-6.748808e+01
2.650000e-06	-1.245275e-06	-1.163527e-09	-1.743592e+01	-7.565170e+01
2.660000e-06	-1.318293e-06	-1.283134e-09	-1.845830e+01	-8.353736e+01
2.670000e-06	-1.390851e-06	-1.399875e-09	-1.947424e+01	-9.112360e+01
2.680000e-06	-1.463075e-06	-1.511301e-09	-2.048549e+01	-9.839583e+01
2.690000e-06	-1.534967e-06	-1.618101e-09	-2.149210e+01	-1.053462e+02
2.700000e-06	-1.606335e-06	-1.717867e-09	-2.249136e+01	-1.119730e+02
2.710000e-06	-1.676944e-06	-1.811275e-09	-2.348001e+01	-1.182803e+02
2.720000e-06	-1.746653e-06	-1.900973e-09	-2.445606e+01	-1.242766e+02
2.730000e-06	-1.815556e-06	-1.988266e-09	-2.542081e+01	-1.299740e+02
2.740000e-06	-1.883865e-06	-2.071689e-09	-2.637726e+01	-1.353871e+02
2.750000e-06	-1.951650e-06	-2.149794e-09	-2.732636e+01	-1.405321e+02
2.760000e-06	-2.018828e-06	-2.225177e-09	-2.826696e+01	-1.454254e+02
2.770000e-06	-2.085369e-06	-2.299347e-09	-2.919864e+01	-1.500834e+02
2.780000e-06	-2.151206e-06	-2.370373e-09	-3.012047e+01	-1.545212e+02
2.790000e-06	-2.216241e-06	-2.434849e-09	-3.103107e+01	-1.587528e+02
2.800000e-06	-2.280610e-06	-2.495861e-09	-3.193234e+01	-1.627903e+02
2.810000e-06	-2.344341e-06	-2.555975e-09	-3.282468e+01	-1.666442e+02
2.820000e-06	-2.407095e-06	-2.613394e-09	-3.370335e+01	-1.703234e+02
2.830000e-06	-2.468643e-06	-2.668303e-09	-3.456512e+01	-1.738353e+02
2.840000e-06	-2.529227e-06	-2.720605e-09	-3.541340e+01	-1.771861e+02
2.850000e-06	-2.589099e-06	-2.769621e-09	-3.625171e+01	-1.803811e+02
2.860000e-06	-2.648095e-06	-2.817192e-09	-3.707774e+01	-1.834252e+02
2.870000e-06	-2.706101e-06	-2.863793e-09	-3.788993e+01	-1.863229e+02
2.880000e-06	-2.763152e-06	-2.905278e-09	-3.868873e+01	-1.890787e+02
2.890000e-06	-2.819344e-06	-2.943509e-09	-3.947552e+01	-1.916973e+02
2.900000e-06	-2.874560e-06	-2.983058e-09	-4.024863e+01	-1.941834e+02
2.910000e-06	-2.928391e-06	-3.022494e-09	-4.100236e+01	-1.965421e+02
2.920000e-06	-2.980870e-06	-3.056411e-09	-4.173715e+01	-1.987788e+02
2.930000e-06	-3.032270e-06	-3.086652e-09	-4.245684e+01	-2.008988e+02
2.940000e-06	-3.082504e-06	-3.117800e-09	-4.316019e+01	-2.029077e+02
