# Temperatura_=_20.0
# Concentracion g/m^3_=_9000.0
# C_Vs_to_Am_M_A/Vsm_=_65563218390.804596
# pendiente_HvsI_1/m_=_3716.3
# ordenada_HvsI_A/m_=_1297.0
# frecuencia_Hz_=_300775.3856052405

Tiempo_(s)	Campo_(V.s)	Magnetizacion_(V.s)	Campo_(kA/m)	Magnetizacion_(A/m)
0.000000e+00	-4.055254e-06	-3.568295e-09	-5.685240e+01	-2.344815e+02
1.000000e-08	-4.053586e-06	-3.571892e-09	-5.682901e+01	-2.345059e+02
2.000000e-08	-4.050428e-06	-3.571784e-09	-5.678475e+01	-2.345081e+02
3.000000e-08	-4.046065e-06	-3.571310e-09	-5.672357e+01	-2.344863e+02
4.000000e-08	-4.040460e-06	-3.569673e-09	-5.664500e+01	-2.344381e+02
5.000000e-08	-4.033604e-06	-3.565842e-09	-5.654889e+01	-2.343603e+02
6.000000e-08	-4.025553e-06	-3.561044e-09	-5.643600e+01	-2.342498e+02
7.000000e-08	-4.015962e-06	-3.547899e-09	-5.630155e+01	-2.341043e+02
8.000000e-08	-4.004660e-06	-3.553366e-09	-5.614310e+01	-2.339227e+02
9.000000e-08	-3.991522e-06	-3.603155e-09	-5.595891e+01	-2.337057e+02
1.000000e-07	-3.976286e-06	-3.635248e-09	-5.574531e+01	-2.334556e+02
1.100000e-07	-3.959273e-06	-3.606025e-09	-5.550680e+01	-2.331768e+02
1.200000e-07	-3.941074e-06	-3.481130e-09	-5.525166e+01	-2.328748e+02
1.300000e-07	-3.921963e-06	-3.431611e-09	-5.498373e+01	-2.325562e+02
1.400000e-07	-3.901900e-06	-3.584492e-09	-5.470246e+01	-2.322274e+02
1.500000e-07	-3.880825e-06	-3.604022e-09	-5.440700e+01	-2.318940e+02
1.600000e-07	-3.858722e-06	-3.498775e-09	-5.409713e+01	-2.315599e+02
1.700000e-07	-3.835010e-06	-3.489245e-09	-5.376470e+01	-2.312264e+02
1.800000e-07	-3.809378e-06	-3.432991e-09	-5.340536e+01	-2.308919e+02
1.900000e-07	-3.782528e-06	-3.474315e-09	-5.302893e+01	-2.305515e+02
2.000000e-07	-3.754632e-06	-3.631155e-09	-5.263785e+01	-2.301975e+02
2.100000e-07	-3.725312e-06	-3.504393e-09	-5.222680e+01	-2.298196e+02
2.200000e-07	-3.694782e-06	-3.370911e-09	-5.179878e+01	-2.294058e+02
2.300000e-07	-3.663280e-06	-3.533528e-09	-5.135714e+01	-2.289434e+02
2.400000e-07	-3.630418e-06	-3.608784e-09	-5.089644e+01	-2.284204e+02
2.500000e-07	-3.595971e-06	-3.518003e-09	-5.041350e+01	-2.278262e+02
2.600000e-07	-3.560121e-06	-3.430623e-09	-4.991091e+01	-2.271528e+02
2.700000e-07	-3.523050e-06	-3.398260e-09	-4.939120e+01	-2.263955e+02
2.800000e-07	-3.484860e-06	-3.483062e-09	-4.885580e+01	-2.255531e+02
2.900000e-07	-3.445532e-06	-3.506806e-09	-4.830444e+01	-2.246279e+02
3.000000e-07	-3.404983e-06	-3.408710e-09	-4.773597e+01	-2.236255e+02
3.100000e-07	-3.362988e-06	-3.366608e-09	-4.714722e+01	-2.225538e+02
3.200000e-07	-3.319586e-06	-3.360026e-09	-4.653874e+01	-2.214223e+02
3.300000e-07	-3.275082e-06	-3.385891e-09	-4.591482e+01	-2.202405e+02
3.400000e-07	-3.229491e-06	-3.413974e-09	-4.527566e+01	-2.190177e+02
3.500000e-07	-3.182746e-06	-3.322822e-09	-4.462032e+01	-2.177611e+02
3.600000e-07	-3.134876e-06	-3.232675e-09	-4.394922e+01	-2.164758e+02
3.700000e-07	-3.085702e-06	-3.303076e-09	-4.325983e+01	-2.151640e+02
3.800000e-07	-3.034948e-06	-3.356492e-09	-4.254828e+01	-2.138251e+02
3.900000e-07	-2.982721e-06	-3.242889e-09	-4.181609e+01	-2.124560e+02
4.000000e-07	-2.929433e-06	-3.169309e-09	-4.106901e+01	-2.110512e+02
4.100000e-07	-2.875200e-06	-3.223012e-09	-4.030870e+01	-2.096040e+02
4.200000e-07	-2.820062e-06	-3.224958e-09	-3.953570e+01	-2.081072e+02
4.300000e-07	-2.764093e-06	-3.157058e-09	-3.875104e+01	-2.065535e+02
4.400000e-07	-2.706901e-06	-3.116970e-09	-3.794924e+01	-2.049370e+02
4.500000e-07	-2.648394e-06	-3.099459e-09	-3.712901e+01	-2.032528e+02
4.600000e-07	-2.589002e-06	-3.085361e-09	-3.629637e+01	-2.014980e+02
4.700000e-07	-2.528832e-06	-3.068702e-09	-3.545281e+01	-1.996715e+02
4.800000e-07	-2.467776e-06	-3.033791e-09	-3.459685e+01	-1.977737e+02
4.900000e-07	-2.405824e-06	-2.975569e-09	-3.372832e+01	-1.958061e+02
5.000000e-07	-2.343054e-06	-2.949543e-09	-3.284831e+01	-1.937710e+02
5.100000e-07	-2.279634e-06	-2.953948e-09	-3.195920e+01	-1.916709e+02
5.200000e-07	-2.215464e-06	-2.908383e-09	-3.105957e+01	-1.895076e+02
5.300000e-07	-2.150117e-06	-2.836847e-09	-3.014344e+01	-1.872820e+02
5.400000e-07	-2.083684e-06	-2.812009e-09	-2.921209e+01	-1.849936e+02
5.500000e-07	-2.016627e-06	-2.815778e-09	-2.827198e+01	-1.826405e+02
5.600000e-07	-1.949084e-06	-2.775090e-09	-2.732507e+01	-1.802191e+02
5.700000e-07	-1.880933e-06	-2.702321e-09	-2.636963e+01	-1.777243e+02
5.800000e-07	-1.812193e-06	-2.664068e-09	-2.540594e+01	-1.751500e+02
5.900000e-07	-1.742909e-06	-2.650714e-09	-2.443462e+01	-1.724888e+02
6.000000e-07	-1.672953e-06	-2.610897e-09	-2.345387e+01	-1.697329e+02
6.100000e-07	-1.602323e-06	-2.545416e-09	-2.246367e+01	-1.668739e+02
6.200000e-07	-1.531177e-06	-2.490366e-09	-2.146625e+01	-1.639036e+02
6.300000e-07	-1.459722e-06	-2.453284e-09	-2.046449e+01	-1.608136e+02
6.400000e-07	-1.387943e-06	-2.414612e-09	-1.945818e+01	-1.575957e+02
6.500000e-07	-1.315596e-06	-2.360779e-09	-1.844392e+01	-1.542420e+02
6.600000e-07	-1.242392e-06	-2.296825e-09	-1.741765e+01	-1.507444e+02
6.700000e-07	-1.168380e-06	-2.236892e-09	-1.638004e+01	-1.470949e+02
6.800000e-07	-1.093853e-06	-2.191260e-09	-1.533521e+01	-1.432853e+02
6.900000e-07	-1.018917e-06	-2.141092e-09	-1.428465e+01	-1.393072e+02
7.000000e-07	-9.435682e-07	-2.065299e-09	-1.322830e+01	-1.351518e+02
7.100000e-07	-8.679369e-07	-1.982633e-09	-1.216799e+01	-1.308099e+02
7.200000e-07	-7.921242e-07	-1.921434e-09	-1.110514e+01	-1.262716e+02
7.300000e-07	-7.160670e-07	-1.864695e-09	-1.003886e+01	-1.215269e+02
7.400000e-07	-6.396945e-07	-1.780221e-09	-8.968160e+00	-1.165654e+02
7.500000e-07	-5.629384e-07	-1.685676e-09	-7.892082e+00	-1.113763e+02
7.600000e-07	-4.859451e-07	-1.606197e-09	-6.812680e+00	-1.059489e+02
7.700000e-07	-4.089055e-07	-1.529353e-09	-5.732627e+00	-1.002727e+02
7.800000e-07	-3.317279e-07	-1.435281e-09	-4.650640e+00	-9.433771e+01
7.900000e-07	-2.543911e-07	-1.331642e-09	-3.566421e+00	-8.813474e+01
8.000000e-07	-1.770202e-07	-1.233120e-09	-2.481725e+00	-8.165601e+01
8.100000e-07	-9.962415e-08	-1.134893e-09	-1.396675e+00	-7.489559e+01
8.200000e-07	-2.220013e-08	-1.027712e-09	-3.112335e-01	-6.785005e+01
8.300000e-07	5.523907e-08	-9.118259e-10	7.744209e-01	-6.051909e+01
8.400000e-07	1.326603e-07	-7.919039e-10	1.859824e+00	-5.290631e+01
8.500000e-07	2.100150e-07	-6.725766e-10	2.944293e+00	-4.501979e+01
8.600000e-07	2.873093e-07	-5.555816e-10	4.027916e+00	-3.687274e+01
8.700000e-07	3.645058e-07	-4.276166e-10	5.110167e+00	-2.848393e+01
8.800000e-07	4.415793e-07	-2.876736e-10	6.190695e+00	-1.987791e+01
8.900000e-07	5.185420e-07	-1.530629e-10	7.269670e+00	-1.108510e+01
9.000000e-07	5.952735e-07	-2.517699e-11	8.345403e+00	-2.141406e+00
9.100000e-07	6.716987e-07	1.124254e-10	9.416842e+00	6.912289e+00
9.200000e-07	7.478668e-07	2.618940e-10	1.048468e+01	1.603104e+01
9.300000e-07	8.237790e-07	4.044204e-10	1.154892e+01	2.516698e+01
9.400000e-07	8.994431e-07	5.371537e-10	1.260969e+01	3.427067e+01
9.500000e-07	9.748638e-07	6.718299e-10	1.366705e+01	4.329256e+01
9.600000e-07	1.050015e-06	8.130362e-10	1.472063e+01	5.218454e+01
9.700000e-07	1.124763e-06	9.511421e-10	1.576855e+01	6.090140e+01
9.800000e-07	1.198901e-06	1.076779e-09	1.680793e+01	6.940217e+01
9.900000e-07	1.272222e-06	1.197425e-09	1.783584e+01	7.765121e+01
1.000000e-06	1.344797e-06	1.321703e-09	1.885330e+01	8.561904e+01
1.010000e-06	1.416828e-06	1.445304e-09	1.986314e+01	9.328287e+01
1.020000e-06	1.488402e-06	1.559358e-09	2.086657e+01	1.006268e+02
1.030000e-06	1.559631e-06	1.662715e-09	2.186516e+01	1.076415e+02
1.040000e-06	1.630445e-06	1.761418e-09	2.285793e+01	1.143241e+02
1.050000e-06	1.700682e-06	1.858875e-09	2.384261e+01	1.206774e+02
1.060000e-06	1.770282e-06	1.952148e-09	2.481836e+01	1.267089e+02
1.070000e-06	1.839268e-06	2.036684e-09	2.578551e+01	1.324299e+02
1.080000e-06	1.907637e-06	2.113409e-09	2.674401e+01	1.378550e+02
1.090000e-06	1.975411e-06	2.190268e-09	2.769417e+01	1.430004e+02
1.100000e-06	2.042684e-06	2.267818e-09	2.863729e+01	1.478834e+02
1.110000e-06	2.109246e-06	2.339210e-09	2.957046e+01	1.525219e+02
1.120000e-06	2.174695e-06	2.401996e-09	3.048802e+01	1.569330e+02
1.130000e-06	2.239064e-06	2.462363e-09	3.139043e+01	1.611329e+02
1.140000e-06	2.302706e-06	2.525308e-09	3.228265e+01	1.651367e+02
1.150000e-06	2.365753e-06	2.584956e-09	3.316654e+01	1.689574e+02
1.160000e-06	2.428068e-06	2.637152e-09	3.404016e+01	1.726064e+02
1.170000e-06	2.489550e-06	2.686860e-09	3.490210e+01	1.760932e+02
1.180000e-06	2.550212e-06	2.736569e-09	3.575255e+01	1.794254e+02
1.190000e-06	2.610133e-06	2.785128e-09	3.659260e+01	1.826089e+02
1.200000e-06	2.669318e-06	2.830719e-09	3.742235e+01	1.856483e+02
1.210000e-06	2.727429e-06	2.873318e-09	3.823703e+01	1.885472e+02
1.220000e-06	2.784203e-06	2.913949e-09	3.903298e+01	1.913084e+02
1.230000e-06	2.839903e-06	2.952681e-09	3.981386e+01	1.939342e+02
1.240000e-06	2.894783e-06	2.989607e-09	4.058324e+01	1.964273e+02
1.250000e-06	2.948754e-06	3.024685e-09	4.133988e+01	1.987906e+02
1.260000e-06	3.001695e-06	3.057043e-09	4.208209e+01	2.010275e+02
1.270000e-06	3.053526e-06	3.087341e-09	4.280874e+01	2.031423e+02
1.280000e-06	3.103896e-06	3.116751e-09	4.351489e+01	2.051403e+02
1.290000e-06	3.152687e-06	3.144723e-09	4.419892e+01	2.070274e+02
1.300000e-06	3.200251e-06	3.171982e-09	4.486574e+01	2.088100e+02
1.310000e-06	3.246740e-06	3.198573e-09	4.551748e+01	2.104953e+02
1.320000e-06	3.292127e-06	3.222859e-09	4.615379e+01	2.120902e+02
1.330000e-06	3.336455e-06	3.244830e-09	4.677524e+01	2.136015e+02
1.340000e-06	3.379787e-06	3.266906e-09	4.738273e+01	2.150355e+02
1.350000e-06	3.421889e-06	3.288540e-09	4.797297e+01	2.163977e+02
1.360000e-06	3.462512e-06	3.308875e-09	4.854248e+01	2.176928e+02
1.370000e-06	3.501862e-06	3.326301e-09	4.909416e+01	2.189246e+02
1.380000e-06	3.540088e-06	3.342085e-09	4.963006e+01	2.200960e+02
1.390000e-06	3.577111e-06	3.360779e-09	5.014911e+01	2.212095e+02
1.400000e-06	3.613034e-06	3.380121e-09	5.065273e+01	2.222668e+02
1.410000e-06	3.647830e-06	3.395939e-09	5.114055e+01	2.232700e+02
1.420000e-06	3.681137e-06	3.409835e-09	5.160749e+01	2.242209e+02
1.430000e-06	3.712984e-06	3.423859e-09	5.205396e+01	2.251217e+02
1.440000e-06	3.743655e-06	3.437569e-09	5.248395e+01	2.259749e+02
1.450000e-06	3.773143e-06	3.450972e-09	5.289736e+01	2.267835e+02
1.460000e-06	3.801413e-06	3.463659e-09	5.329369e+01	2.275507e+02
1.470000e-06	3.828370e-06	3.475736e-09	5.367162e+01	2.282794e+02
1.480000e-06	3.853694e-06	3.488178e-09	5.402664e+01	2.289726e+02
1.490000e-06	3.877442e-06	3.500093e-09	5.435957e+01	2.296325e+02
1.500000e-06	3.899912e-06	3.510594e-09	5.467459e+01	2.302604e+02
1.510000e-06	3.921100e-06	3.519802e-09	5.497163e+01	2.308568e+02
1.520000e-06	3.941089e-06	3.528727e-09	5.525188e+01	2.314211e+02
1.530000e-06	3.959885e-06	3.537165e-09	5.551538e+01	2.319518e+02
1.540000e-06	3.977207e-06	3.545534e-09	5.575823e+01	2.324467e+02
1.550000e-06	3.992998e-06	3.553634e-09	5.597961e+01	2.329032e+02
1.560000e-06	4.007324e-06	3.559825e-09	5.618044e+01	2.333189e+02
1.570000e-06	4.020191e-06	3.564996e-09	5.636084e+01	2.336916e+02
1.580000e-06	4.031523e-06	3.571789e-09	5.651970e+01	2.340202e+02
1.590000e-06	4.041135e-06	3.579168e-09	5.665447e+01	2.343047e+02
1.600000e-06	4.049138e-06	3.584383e-09	5.676666e+01	2.345463e+02
1.610000e-06	4.055780e-06	3.587635e-09	5.685977e+01	2.347473e+02
1.620000e-06	4.061089e-06	3.591564e-09	5.693421e+01	2.349110e+02
1.630000e-06	4.065094e-06	3.595501e-09	5.699035e+01	2.350413e+02
1.640000e-06	4.067708e-06	3.598678e-09	5.702700e+01	2.351421e+02
1.650000e-06	4.068742e-06	3.601584e-09	5.704150e+01	2.352168e+02
1.660000e-06	4.068338e-06	3.603634e-09	5.703583e+01	2.352681e+02
1.670000e-06	4.066665e-06	3.603186e-09	5.701237e+01	2.352973e+02
1.680000e-06	4.063713e-06	3.601877e-09	5.697099e+01	2.353045e+02
1.690000e-06	4.059601e-06	3.600677e-09	5.691335e+01	2.352882e+02
1.700000e-06	4.054164e-06	3.599915e-09	5.683712e+01	2.352460e+02
1.710000e-06	4.047157e-06	3.598844e-09	5.673889e+01	2.351749e+02
1.720000e-06	4.038822e-06	3.602494e-09	5.662203e+01	2.350718e+02
1.730000e-06	4.029374e-06	3.616823e-09	5.648958e+01	2.349341e+02
1.740000e-06	4.018754e-06	3.586668e-09	5.634069e+01	2.347604e+02
1.750000e-06	4.006376e-06	3.519145e-09	5.616715e+01	2.345510e+02
1.760000e-06	3.991565e-06	3.499004e-09	5.595952e+01	2.343078e+02
1.770000e-06	3.974630e-06	3.565760e-09	5.572210e+01	2.340348e+02
1.780000e-06	3.956636e-06	3.696936e-09	5.546983e+01	2.337374e+02
1.790000e-06	3.938269e-06	3.620367e-09	5.521233e+01	2.334220e+02
1.800000e-06	3.918883e-06	3.469454e-09	5.494055e+01	2.330950e+02
1.810000e-06	3.897474e-06	3.558541e-09	5.464041e+01	2.327623e+02
1.820000e-06	3.874629e-06	3.563016e-09	5.432014e+01	2.324283e+02
1.830000e-06	3.850957e-06	3.556494e-09	5.398828e+01	2.320948e+02
1.840000e-06	3.825715e-06	3.660254e-09	5.363439e+01	2.317609e+02
1.850000e-06	3.798871e-06	3.505609e-09	5.325806e+01	2.314225e+02
1.860000e-06	3.771100e-06	3.415273e-09	5.286872e+01	2.310724e+02
1.870000e-06	3.742089e-06	3.621454e-09	5.246201e+01	2.307007e+02
1.880000e-06	3.711356e-06	3.559921e-09	5.203114e+01	2.302958e+02
1.890000e-06	3.679160e-06	3.380482e-09	5.157977e+01	2.298450e+02
1.900000e-06	3.645741e-06	3.482805e-09	5.111126e+01	2.293361e+02
1.910000e-06	3.611221e-06	3.533639e-09	5.062730e+01	2.287581e+02
1.920000e-06	3.575559e-06	3.513072e-09	5.012735e+01	2.281023e+02
1.930000e-06	3.538691e-06	3.484738e-09	4.961047e+01	2.273633e+02
1.940000e-06	3.500613e-06	3.396193e-09	4.907664e+01	2.265392e+02
1.950000e-06	3.460994e-06	3.432467e-09	4.852121e+01	2.256315e+02
1.960000e-06	3.419885e-06	3.429453e-09	4.794488e+01	2.246452e+02
1.970000e-06	3.377754e-06	3.416472e-09	4.735423e+01	2.235878e+02
1.980000e-06	3.334624e-06	3.450246e-09	4.674957e+01	2.224683e+02
1.990000e-06	3.290421e-06	3.301349e-09	4.612986e+01	2.212967e+02
2.000000e-06	3.245170e-06	3.297549e-09	4.549548e+01	2.200821e+02
2.010000e-06	3.198780e-06	3.426901e-09	4.484511e+01	2.188323e+02
2.020000e-06	3.151061e-06	3.334738e-09	4.417612e+01	2.175530e+02
2.030000e-06	3.101926e-06	3.220207e-09	4.348727e+01	2.162470e+02
2.040000e-06	3.051735e-06	3.237432e-09	4.278363e+01	2.149143e+02
2.050000e-06	3.000592e-06	3.307661e-09	4.206663e+01	2.135522e+02
2.060000e-06	2.948258e-06	3.252006e-09	4.133293e+01	2.121557e+02
2.070000e-06	2.894589e-06	3.150988e-09	4.058053e+01	2.107183e+02
2.080000e-06	2.839552e-06	3.180186e-09	3.980893e+01	2.092329e+02
2.090000e-06	2.783426e-06	3.171141e-09	3.902208e+01	2.076921e+02
2.100000e-06	2.726358e-06	3.133328e-09	3.822202e+01	2.060896e+02
2.110000e-06	2.668381e-06	3.115327e-09	3.740922e+01	2.044204e+02
2.120000e-06	2.609598e-06	3.073567e-09	3.658511e+01	2.026810e+02
2.130000e-06	2.549995e-06	3.048611e-09	3.574951e+01	2.008701e+02
2.140000e-06	2.489656e-06	3.019652e-09	3.490360e+01	1.989875e+02
2.150000e-06	2.428432e-06	3.018516e-09	3.404527e+01	1.970348e+02
2.160000e-06	2.365961e-06	2.975070e-09	3.316946e+01	1.950142e+02
2.170000e-06	2.302374e-06	2.902225e-09	3.227801e+01	1.929280e+02
2.180000e-06	2.238094e-06	2.905277e-09	3.137683e+01	1.907782e+02
2.190000e-06	2.173164e-06	2.889270e-09	3.046655e+01	1.885661e+02
2.200000e-06	2.107431e-06	2.831935e-09	2.954501e+01	1.862914e+02
2.210000e-06	2.040968e-06	2.773331e-09	2.861323e+01	1.839525e+02
2.220000e-06	1.973825e-06	2.758493e-09	2.767193e+01	1.815463e+02
2.230000e-06	1.906033e-06	2.748136e-09	2.672152e+01	1.790679e+02
2.240000e-06	1.837754e-06	2.678048e-09	2.576428e+01	1.765113e+02
2.250000e-06	1.768887e-06	2.628543e-09	2.479881e+01	1.738695e+02
2.260000e-06	1.699140e-06	2.604221e-09	2.382100e+01	1.711347e+02
2.270000e-06	1.628357e-06	2.568367e-09	2.282866e+01	1.682987e+02
2.280000e-06	1.556771e-06	2.516041e-09	2.182505e+01	1.653530e+02
2.290000e-06	1.484767e-06	2.463890e-09	2.081561e+01	1.622895e+02
2.300000e-06	1.412449e-06	2.419993e-09	1.980175e+01	1.590999e+02
2.310000e-06	1.339818e-06	2.366103e-09	1.878351e+01	1.557761e+02
2.320000e-06	1.266732e-06	2.321192e-09	1.775887e+01	1.523101e+02
2.330000e-06	1.193089e-06	2.270626e-09	1.672645e+01	1.486939e+02
2.340000e-06	1.119005e-06	2.200113e-09	1.568782e+01	1.449195e+02
2.350000e-06	1.044616e-06	2.138413e-09	1.464494e+01	1.409784e+02
2.360000e-06	9.699022e-07	2.093500e-09	1.359749e+01	1.368619e+02
2.370000e-06	8.947274e-07	2.034671e-09	1.254358e+01	1.325609e+02
2.380000e-06	8.191673e-07	1.946524e-09	1.148427e+01	1.280657e+02
2.390000e-06	7.433471e-07	1.870895e-09	1.042131e+01	1.233662e+02
2.400000e-06	6.672878e-07	1.813613e-09	9.355003e+00	1.184522e+02
2.410000e-06	5.910239e-07	1.738138e-09	8.285826e+00	1.133129e+02
2.420000e-06	5.146440e-07	1.645787e-09	7.215022e+00	1.079376e+02
2.430000e-06	4.381907e-07	1.558126e-09	6.143190e+00	1.023157e+02
2.440000e-06	3.616121e-07	1.476262e-09	5.069600e+00	9.643712e+01
2.450000e-06	2.848392e-07	1.383787e-09	3.993287e+00	9.029242e+01
2.460000e-06	2.078566e-07	1.281201e-09	2.914034e+00	8.387349e+01
2.470000e-06	1.307081e-07	1.179208e-09	1.832455e+00	7.717396e+01
2.480000e-06	5.340375e-08	1.075525e-09	7.486908e-01	7.018979e+01
2.490000e-06	-2.390925e-08	9.680008e-10	-3.351944e-01	6.291997e+01
2.500000e-06	-1.010370e-07	8.563181e-10	-1.416482e+00	5.536720e+01
2.510000e-06	-1.781036e-07	7.358043e-10	-2.496913e+00	4.753855e+01
2.520000e-06	-2.551433e-07	6.080685e-10	-3.576967e+00	3.944608e+01
2.530000e-06	-3.319918e-07	4.816698e-10	-4.654340e+00	3.110734e+01
2.540000e-06	-4.086074e-07	3.555515e-10	-5.728449e+00	2.254564e+01
2.550000e-06	-4.849989e-07	2.189178e-10	-6.799414e+00	1.379015e+01
2.560000e-06	-5.612212e-07	7.663156e-11	-7.868009e+00	4.875640e+00
2.570000e-06	-6.372687e-07	-5.842717e-11	-8.934152e+00	-4.158007e+00
2.580000e-06	-7.130808e-07	-1.912727e-10	-9.996995e+00	-1.326663e+01
2.590000e-06	-7.886896e-07	-3.331661e-10	-1.105699e+01	-2.240288e+01
2.600000e-06	-8.640008e-07	-4.766964e-10	-1.211281e+01	-3.151753e+01
2.610000e-06	-9.389144e-07	-6.105367e-10	-1.316306e+01	-4.056093e+01
2.620000e-06	-1.013459e-06	-7.389787e-10	-1.420813e+01	-4.948454e+01
2.630000e-06	-1.087655e-06	-8.704591e-10	-1.524832e+01	-5.824241e+01
2.640000e-06	-1.161526e-06	-1.002340e-09	-1.628394e+01	-6.679254e+01
2.650000e-06	-1.235004e-06	-1.128511e-09	-1.731406e+01	-7.509809e+01
2.660000e-06	-1.308020e-06	-1.249559e-09	-1.833771e+01	-8.312819e+01
2.670000e-06	-1.380604e-06	-1.366701e-09	-1.935529e+01	-9.085860e+01
2.680000e-06	-1.452846e-06	-1.481198e-09	-2.036809e+01	-9.827192e+01
2.690000e-06	-1.524803e-06	-1.592666e-09	-2.137688e+01	-1.053575e+02
2.700000e-06	-1.596267e-06	-1.697978e-09	-2.237878e+01	-1.121111e+02
2.710000e-06	-1.666976e-06	-1.795157e-09	-2.337007e+01	-1.185343e+02
2.720000e-06	-1.736785e-06	-1.887128e-09	-2.434876e+01	-1.246338e+02
2.730000e-06	-1.805682e-06	-1.976502e-09	-2.531465e+01	-1.304201e+02
2.740000e-06	-1.873935e-06	-2.060928e-09	-2.627153e+01	-1.359071e+02
2.750000e-06	-1.941716e-06	-2.138663e-09	-2.722177e+01	-1.411108e+02
2.760000e-06	-2.008845e-06	-2.212898e-09	-2.816289e+01	-1.460485e+02
2.770000e-06	-2.075275e-06	-2.287164e-09	-2.909420e+01	-1.507378e+02
2.780000e-06	-2.141092e-06	-2.359415e-09	-3.001692e+01	-1.551960e+02
2.790000e-06	-2.206217e-06	-2.426464e-09	-3.092993e+01	-1.594398e+02
2.800000e-06	-2.270644e-06	-2.489024e-09	-3.183317e+01	-1.634843e+02
2.810000e-06	-2.334383e-06	-2.549793e-09	-3.272675e+01	-1.673431e+02
2.820000e-06	-2.397130e-06	-2.608001e-09	-3.360643e+01	-1.710279e+02
2.830000e-06	-2.458663e-06	-2.662791e-09	-3.446909e+01	-1.745486e+02
2.840000e-06	-2.519221e-06	-2.715105e-09	-3.531808e+01	-1.779132e+02
2.850000e-06	-2.579038e-06	-2.764303e-09	-3.615668e+01	-1.811280e+02
2.860000e-06	-2.638045e-06	-2.811630e-09	-3.698392e+01	-1.841978e+02
2.870000e-06	-2.696101e-06	-2.859484e-09	-3.779784e+01	-1.871264e+02
2.880000e-06	-2.753243e-06	-2.905610e-09	-3.859893e+01	-1.899168e+02
2.890000e-06	-2.809579e-06	-2.946919e-09	-3.938873e+01	-1.925713e+02
2.900000e-06	-2.864960e-06	-2.985784e-09	-4.016514e+01	-1.950925e+02
2.910000e-06	-2.918960e-06	-3.024661e-09	-4.092219e+01	-1.974831e+02
2.920000e-06	-2.971563e-06	-3.059691e-09	-4.165965e+01	-1.997466e+02
2.930000e-06	-3.023049e-06	-3.090231e-09	-4.238147e+01	-2.018871e+02
2.940000e-06	-3.073374e-06	-3.120373e-09	-4.308699e+01	-2.039095e+02
