# Temperatura_=_20.0
# Concentracion g/m^3_=_9000.0
# C_Vs_to_Am_M_A/Vsm_=_65563218390.804596
# pendiente_HvsI_1/m_=_3716.3
# ordenada_HvsI_A/m_=_1297.0
# frecuencia_Hz_=_212910.862306047

Tiempo_(s)	Campo_(V.s)	Magnetizacion_(V.s)	Campo_(kA/m)	Magnetizacion_(A/m)
0.000000e+00	-6.711145e-06	-4.573366e-09	-5.695885e+01	-3.004052e+02
1.000000e-08	-6.710006e-06	-4.574406e-09	-5.694919e+01	-3.003483e+02
2.000000e-08	-6.707404e-06	-4.577219e-09	-5.692710e+01	-3.002733e+02
3.000000e-08	-6.703771e-06	-4.578457e-09	-5.689627e+01	-3.001809e+02
4.000000e-08	-6.699152e-06	-4.577245e-09	-5.685706e+01	-3.000721e+02
5.000000e-08	-6.693348e-06	-4.574494e-09	-5.680781e+01	-2.999483e+02
6.000000e-08	-6.686506e-06	-4.569711e-09	-5.674974e+01	-2.998116e+02
7.000000e-08	-6.678843e-06	-4.557376e-09	-5.668470e+01	-2.996645e+02
8.000000e-08	-6.670022e-06	-4.541499e-09	-5.660984e+01	-2.995098e+02
9.000000e-08	-6.659546e-06	-4.590869e-09	-5.652092e+01	-2.993508e+02
1.000000e-07	-6.647442e-06	-4.639412e-09	-5.641820e+01	-2.991905e+02
1.100000e-07	-6.633860e-06	-4.629763e-09	-5.630292e+01	-2.990319e+02
1.200000e-07	-6.618679e-06	-4.563264e-09	-5.617407e+01	-2.988777e+02
1.300000e-07	-6.602174e-06	-4.413154e-09	-5.603400e+01	-2.987297e+02
1.400000e-07	-6.584842e-06	-4.523512e-09	-5.588689e+01	-2.985892e+02
1.500000e-07	-6.566565e-06	-4.697396e-09	-5.573177e+01	-2.984560e+02
1.600000e-07	-6.547387e-06	-4.520180e-09	-5.556901e+01	-2.983292e+02
1.700000e-07	-6.527475e-06	-4.501434e-09	-5.540001e+01	-2.982063e+02
1.800000e-07	-6.506352e-06	-4.507462e-09	-5.522073e+01	-2.980839e+02
1.900000e-07	-6.484062e-06	-4.421634e-09	-5.503156e+01	-2.979574e+02
2.000000e-07	-6.461092e-06	-4.638219e-09	-5.483660e+01	-2.978210e+02
2.100000e-07	-6.436940e-06	-4.618611e-09	-5.463162e+01	-2.976687e+02
2.200000e-07	-6.411117e-06	-4.346765e-09	-5.441246e+01	-2.974938e+02
2.300000e-07	-6.384077e-06	-4.490182e-09	-5.418296e+01	-2.972897e+02
2.400000e-07	-6.356178e-06	-4.666796e-09	-5.394617e+01	-2.970500e+02
2.500000e-07	-6.327317e-06	-4.563664e-09	-5.370123e+01	-2.967694e+02
2.600000e-07	-6.297335e-06	-4.486841e-09	-5.344676e+01	-2.964431e+02
2.700000e-07	-6.266221e-06	-4.415942e-09	-5.318269e+01	-2.960680e+02
2.800000e-07	-6.234147e-06	-4.498188e-09	-5.291047e+01	-2.956422e+02
2.900000e-07	-6.200927e-06	-4.593524e-09	-5.262853e+01	-2.951658e+02
3.000000e-07	-6.166303e-06	-4.473698e-09	-5.233466e+01	-2.946400e+02
3.100000e-07	-6.130499e-06	-4.415029e-09	-5.203079e+01	-2.940678e+02
3.200000e-07	-6.093584e-06	-4.443464e-09	-5.171749e+01	-2.934534e+02
3.300000e-07	-6.055528e-06	-4.469241e-09	-5.139450e+01	-2.928020e+02
3.400000e-07	-6.016546e-06	-4.493237e-09	-5.106365e+01	-2.921194e+02
3.500000e-07	-5.976673e-06	-4.445105e-09	-5.072524e+01	-2.914118e+02
3.600000e-07	-5.935463e-06	-4.343511e-09	-5.037548e+01	-2.906850e+02
3.700000e-07	-5.892830e-06	-4.369816e-09	-5.001365e+01	-2.899443e+02
3.800000e-07	-5.849227e-06	-4.493019e-09	-4.964358e+01	-2.891943e+02
3.900000e-07	-5.804588e-06	-4.413421e-09	-4.926472e+01	-2.884381e+02
4.000000e-07	-5.758776e-06	-4.280494e-09	-4.887590e+01	-2.876775e+02
4.100000e-07	-5.712059e-06	-4.353626e-09	-4.847940e+01	-2.869127e+02
4.200000e-07	-5.664460e-06	-4.415321e-09	-4.807543e+01	-2.861426e+02
4.300000e-07	-5.615630e-06	-4.355112e-09	-4.766100e+01	-2.853644e+02
4.400000e-07	-5.565278e-06	-4.295565e-09	-4.723365e+01	-2.845744e+02
4.500000e-07	-5.513717e-06	-4.292709e-09	-4.679604e+01	-2.837678e+02
4.600000e-07	-5.461276e-06	-4.315344e-09	-4.635096e+01	-2.829395e+02
4.700000e-07	-5.407888e-06	-4.312286e-09	-4.589784e+01	-2.820840e+02
4.800000e-07	-5.353563e-06	-4.282131e-09	-4.543677e+01	-2.811965e+02
4.900000e-07	-5.298381e-06	-4.230458e-09	-4.496844e+01	-2.802723e+02
5.000000e-07	-5.242407e-06	-4.223902e-09	-4.449337e+01	-2.793080e+02
5.100000e-07	-5.185515e-06	-4.253559e-09	-4.401052e+01	-2.783014e+02
5.200000e-07	-5.127483e-06	-4.235516e-09	-4.351799e+01	-2.772513e+02
5.300000e-07	-5.068334e-06	-4.185747e-09	-4.301598e+01	-2.761581e+02
5.400000e-07	-5.008337e-06	-4.151762e-09	-4.250677e+01	-2.750234e+02
5.500000e-07	-4.947652e-06	-4.169651e-09	-4.199172e+01	-2.738498e+02
5.600000e-07	-4.886263e-06	-4.183777e-09	-4.147071e+01	-2.726408e+02
5.700000e-07	-4.824030e-06	-4.131741e-09	-4.094252e+01	-2.714003e+02
5.800000e-07	-4.760917e-06	-4.079032e-09	-4.040687e+01	-2.701323e+02
5.900000e-07	-4.697010e-06	-4.086959e-09	-3.986448e+01	-2.688406e+02
6.000000e-07	-4.632234e-06	-4.099545e-09	-3.931472e+01	-2.675283e+02
6.100000e-07	-4.566418e-06	-4.060547e-09	-3.875612e+01	-2.661974e+02
6.200000e-07	-4.499546e-06	-4.017230e-09	-3.818857e+01	-2.648489e+02
6.300000e-07	-4.431935e-06	-4.003939e-09	-3.761473e+01	-2.634824e+02
6.400000e-07	-4.363790e-06	-3.995716e-09	-3.703638e+01	-2.620961e+02
6.500000e-07	-4.294913e-06	-3.977607e-09	-3.645180e+01	-2.606872e+02
6.600000e-07	-4.225196e-06	-3.948596e-09	-3.586010e+01	-2.592513e+02
6.700000e-07	-4.154725e-06	-3.913895e-09	-3.526199e+01	-2.577836e+02
6.800000e-07	-4.083575e-06	-3.893190e-09	-3.465813e+01	-2.562785e+02
6.900000e-07	-4.011753e-06	-3.886331e-09	-3.404857e+01	-2.547305e+02
7.000000e-07	-3.939084e-06	-3.862803e-09	-3.343180e+01	-2.531343e+02
7.100000e-07	-3.865440e-06	-3.820790e-09	-3.280677e+01	-2.514849e+02
7.200000e-07	-3.790919e-06	-3.792593e-09	-3.217430e+01	-2.497787e+02
7.300000e-07	-3.715662e-06	-3.783423e-09	-3.153558e+01	-2.480129e+02
7.400000e-07	-3.639726e-06	-3.758146e-09	-3.089109e+01	-2.461859e+02
7.500000e-07	-3.563008e-06	-3.716111e-09	-3.023997e+01	-2.442974e+02
7.600000e-07	-3.485467e-06	-3.686248e-09	-2.958186e+01	-2.423485e+02
7.700000e-07	-3.407320e-06	-3.666363e-09	-2.891861e+01	-2.403408e+02
7.800000e-07	-3.328575e-06	-3.637474e-09	-2.825030e+01	-2.382768e+02
7.900000e-07	-3.249044e-06	-3.595098e-09	-2.757529e+01	-2.361593e+02
8.000000e-07	-3.168720e-06	-3.561217e-09	-2.689357e+01	-2.339907e+02
8.100000e-07	-3.087871e-06	-3.538508e-09	-2.620739e+01	-2.317732e+02
8.200000e-07	-3.006707e-06	-3.505738e-09	-2.551854e+01	-2.295078e+02
8.300000e-07	-2.925062e-06	-3.464102e-09	-2.482560e+01	-2.271945e+02
8.400000e-07	-2.842831e-06	-3.423694e-09	-2.412768e+01	-2.248317e+02
8.500000e-07	-2.760243e-06	-3.391170e-09	-2.342674e+01	-2.224163e+02
8.600000e-07	-2.677371e-06	-3.360736e-09	-2.272339e+01	-2.199437e+02
8.700000e-07	-2.594106e-06	-3.320065e-09	-2.201670e+01	-2.174080e+02
8.800000e-07	-2.510470e-06	-3.271137e-09	-2.130687e+01	-2.148019e+02
8.900000e-07	-2.426453e-06	-3.226620e-09	-2.059380e+01	-2.121176e+02
9.000000e-07	-2.342124e-06	-3.192383e-09	-1.987809e+01	-2.093468e+02
9.100000e-07	-2.257575e-06	-3.153284e-09	-1.916050e+01	-2.064812e+02
9.200000e-07	-2.172704e-06	-3.098317e-09	-1.844018e+01	-2.035129e+02
9.300000e-07	-2.087428e-06	-3.043003e-09	-1.771642e+01	-2.004347e+02
9.400000e-07	-2.001774e-06	-3.001009e-09	-1.698946e+01	-1.972406e+02
9.500000e-07	-1.915808e-06	-2.960054e-09	-1.625985e+01	-1.939256e+02
9.600000e-07	-1.829579e-06	-2.901584e-09	-1.552801e+01	-1.904857e+02
9.700000e-07	-1.743040e-06	-2.834741e-09	-1.479354e+01	-1.869179e+02
9.800000e-07	-1.656167e-06	-2.777676e-09	-1.405622e+01	-1.832196e+02
9.900000e-07	-1.569017e-06	-2.727194e-09	-1.331657e+01	-1.793881e+02
1.000000e-06	-1.481622e-06	-2.669190e-09	-1.257483e+01	-1.754199e+02
1.010000e-06	-1.393968e-06	-2.600240e-09	-1.183089e+01	-1.713105e+02
1.020000e-06	-1.305996e-06	-2.532353e-09	-1.108425e+01	-1.670527e+02
1.030000e-06	-1.217754e-06	-2.470731e-09	-1.033532e+01	-1.626369e+02
1.040000e-06	-1.129273e-06	-2.406504e-09	-9.584371e+00	-1.580498e+02
1.050000e-06	-1.040519e-06	-2.330367e-09	-8.831095e+00	-1.532744e+02
1.060000e-06	-9.515625e-07	-2.246306e-09	-8.076104e+00	-1.482896e+02
1.070000e-06	-8.623786e-07	-2.164998e-09	-7.319183e+00	-1.430702e+02
1.080000e-06	-7.729815e-07	-2.085859e-09	-6.560451e+00	-1.375878e+02
1.090000e-06	-6.834643e-07	-1.999140e-09	-5.800701e+00	-1.318106e+02
1.100000e-06	-5.938484e-07	-1.901778e-09	-5.040112e+00	-1.257051e+02
1.110000e-06	-5.041054e-07	-1.802070e-09	-4.278445e+00	-1.192372e+02
1.120000e-06	-4.142717e-07	-1.704399e-09	-3.516008e+00	-1.123736e+02
1.130000e-06	-3.243175e-07	-1.600116e-09	-2.752548e+00	-1.050833e+02
1.140000e-06	-2.342267e-07	-1.479323e-09	-1.987930e+00	-9.733968e+01
1.150000e-06	-1.440849e-07	-1.348671e-09	-1.222878e+00	-8.912221e+01
1.160000e-06	-5.394671e-08	-1.219388e-09	-4.578567e-01	-8.041783e+01
1.170000e-06	3.611678e-08	-1.084964e-09	3.065304e-01	-7.122263e+01
1.180000e-06	1.261539e-07	-9.362319e-10	1.070694e+00	-6.154294e+01
1.190000e-06	2.161757e-07	-7.783883e-10	1.834727e+00	-5.139615e+01
1.200000e-06	3.060971e-07	-6.172593e-10	2.597908e+00	-4.081116e+01
1.210000e-06	3.959111e-07	-4.521476e-10	3.360178e+00	-2.982822e+01
1.220000e-06	4.856350e-07	-2.827106e-10	4.121683e+00	-1.849851e+01
1.230000e-06	5.752120e-07	-1.073295e-10	4.881941e+00	-6.883047e+00
1.240000e-06	6.646436e-07	7.356526e-11	5.640965e+00	4.948707e+00
1.250000e-06	7.539088e-07	2.557543e-10	6.398578e+00	1.692064e+01
1.260000e-06	8.429977e-07	4.369698e-10	7.154693e+00	2.895213e+01
1.270000e-06	9.319197e-07	6.176571e-10	7.909392e+00	4.096029e+01
1.280000e-06	1.020682e-06	7.998182e-10	8.662737e+00	5.286243e+01
1.290000e-06	1.109298e-06	9.789430e-10	9.414841e+00	6.457844e+01
1.300000e-06	1.197663e-06	1.153375e-09	1.016481e+01	7.603303e+01
1.310000e-06	1.285737e-06	1.321072e-09	1.091231e+01	8.715782e+01
1.320000e-06	1.373569e-06	1.483523e-09	1.165776e+01	9.789306e+01
1.330000e-06	1.461115e-06	1.637286e-09	1.240078e+01	1.081890e+02
1.340000e-06	1.548403e-06	1.783148e-09	1.314161e+01	1.180068e+02
1.350000e-06	1.635390e-06	1.923439e-09	1.387988e+01	1.273191e+02
1.360000e-06	1.722117e-06	2.054698e-09	1.461595e+01	1.361097e+02
1.370000e-06	1.808672e-06	2.176720e-09	1.535057e+01	1.443738e+02
1.380000e-06	1.894996e-06	2.290010e-09	1.608322e+01	1.521164e+02
1.390000e-06	1.981097e-06	2.396487e-09	1.681398e+01	1.593515e+02
1.400000e-06	2.066944e-06	2.494667e-09	1.754257e+01	1.661008e+02
1.410000e-06	2.152410e-06	2.588433e-09	1.826794e+01	1.723919e+02
1.420000e-06	2.237403e-06	2.677305e-09	1.898930e+01	1.782566e+02
1.430000e-06	2.322056e-06	2.758386e-09	1.970776e+01	1.837294e+02
1.440000e-06	2.406437e-06	2.833994e-09	2.042392e+01	1.888457e+02
1.450000e-06	2.490463e-06	2.908993e-09	2.113706e+01	1.936406e+02
1.460000e-06	2.574067e-06	2.980710e-09	2.184663e+01	1.981474e+02
1.470000e-06	2.657294e-06	3.044978e-09	2.255300e+01	2.023971e+02
1.480000e-06	2.740146e-06	3.105643e-09	2.325618e+01	2.064170e+02
1.490000e-06	2.822533e-06	3.165716e-09	2.395541e+01	2.102312e+02
1.500000e-06	2.904413e-06	3.221507e-09	2.465034e+01	2.138595e+02
1.510000e-06	2.985781e-06	3.271525e-09	2.534093e+01	2.173186e+02
1.520000e-06	3.066623e-06	3.319429e-09	2.602705e+01	2.206214e+02
1.530000e-06	3.146893e-06	3.367952e-09	2.670832e+01	2.237782e+02
1.540000e-06	3.226574e-06	3.412253e-09	2.738459e+01	2.267968e+02
1.550000e-06	3.305650e-06	3.452975e-09	2.805572e+01	2.296835e+02
1.560000e-06	3.384017e-06	3.492361e-09	2.872084e+01	2.324435e+02
1.570000e-06	3.461653e-06	3.529765e-09	2.937975e+01	2.350813e+02
1.580000e-06	3.538673e-06	3.566691e-09	3.003343e+01	2.376017e+02
1.590000e-06	3.615090e-06	3.602063e-09	3.068201e+01	2.400095e+02
1.600000e-06	3.690878e-06	3.636061e-09	3.132523e+01	2.423102e+02
1.610000e-06	3.765952e-06	3.667672e-09	3.196240e+01	2.445099e+02
1.620000e-06	3.840062e-06	3.697492e-09	3.259139e+01	2.466152e+02
1.630000e-06	3.913208e-06	3.728280e-09	3.321219e+01	2.486334e+02
1.640000e-06	3.985585e-06	3.758523e-09	3.382647e+01	2.505717e+02
1.650000e-06	4.057235e-06	3.785740e-09	3.443458e+01	2.524377e+02
1.660000e-06	4.128153e-06	3.811108e-09	3.503647e+01	2.542384e+02
1.670000e-06	4.198370e-06	3.836489e-09	3.563242e+01	2.559803e+02
1.680000e-06	4.267864e-06	3.862023e-09	3.622223e+01	2.576692e+02
1.690000e-06	4.336632e-06	3.887393e-09	3.680587e+01	2.593097e+02
1.700000e-06	4.404726e-06	3.911426e-09	3.738381e+01	2.609056e+02
1.710000e-06	4.472203e-06	3.933986e-09	3.795650e+01	2.624594e+02
1.720000e-06	4.538995e-06	3.956299e-09	3.852338e+01	2.639725e+02
1.730000e-06	4.604835e-06	3.979408e-09	3.908217e+01	2.654454e+02
1.740000e-06	4.669657e-06	4.002711e-09	3.963233e+01	2.668779e+02
1.750000e-06	4.733597e-06	4.024152e-09	4.017500e+01	2.682693e+02
1.760000e-06	4.796805e-06	4.043179e-09	4.071146e+01	2.696186e+02
1.770000e-06	4.859283e-06	4.060917e-09	4.124173e+01	2.709249e+02
1.780000e-06	4.920972e-06	4.078975e-09	4.176529e+01	2.721873e+02
1.790000e-06	4.981896e-06	4.096762e-09	4.228236e+01	2.734055e+02
1.800000e-06	5.042106e-06	4.113080e-09	4.279338e+01	2.745798e+02
1.810000e-06	5.101614e-06	4.128867e-09	4.329843e+01	2.757108e+02
1.820000e-06	5.160224e-06	4.145056e-09	4.379587e+01	2.768001e+02
1.830000e-06	5.217654e-06	4.161610e-09	4.428329e+01	2.778497e+02
1.840000e-06	5.273912e-06	4.178212e-09	4.476076e+01	2.788620e+02
1.850000e-06	5.329301e-06	4.194835e-09	4.523086e+01	2.798399e+02
1.860000e-06	5.383916e-06	4.210870e-09	4.569439e+01	2.807864e+02
1.870000e-06	5.437616e-06	4.226250e-09	4.615015e+01	2.817043e+02
1.880000e-06	5.490364e-06	4.238492e-09	4.659784e+01	2.825964e+02
1.890000e-06	5.542065e-06	4.248783e-09	4.703664e+01	2.834649e+02
1.900000e-06	5.592524e-06	4.260239e-09	4.746489e+01	2.843117e+02
1.910000e-06	5.641586e-06	4.273805e-09	4.788129e+01	2.851379e+02
1.920000e-06	5.689463e-06	4.287340e-09	4.828763e+01	2.859442e+02
1.930000e-06	5.736340e-06	4.300655e-09	4.868548e+01	2.867306e+02
1.940000e-06	5.782170e-06	4.315078e-09	4.907445e+01	2.874966e+02
1.950000e-06	5.827045e-06	4.327617e-09	4.945531e+01	2.882414e+02
1.960000e-06	5.871033e-06	4.338410e-09	4.982866e+01	2.889638e+02
1.970000e-06	5.914099e-06	4.347333e-09	5.019416e+01	2.896626e+02
1.980000e-06	5.955943e-06	4.356020e-09	5.054930e+01	2.903366e+02
1.990000e-06	5.996457e-06	4.365142e-09	5.089315e+01	2.909847e+02
2.000000e-06	6.035927e-06	4.373780e-09	5.122814e+01	2.916063e+02
2.010000e-06	6.074450e-06	4.382973e-09	5.155509e+01	2.922010e+02
2.020000e-06	6.111914e-06	4.392697e-09	5.187306e+01	2.927690e+02
2.030000e-06	6.148334e-06	4.401031e-09	5.218216e+01	2.933107e+02
2.040000e-06	6.183913e-06	4.409959e-09	5.248413e+01	2.938272e+02
2.050000e-06	6.218493e-06	4.420581e-09	5.277761e+01	2.943196e+02
2.060000e-06	6.251678e-06	4.430371e-09	5.305926e+01	2.947895e+02
2.070000e-06	6.283614e-06	4.437419e-09	5.333031e+01	2.952385e+02
2.080000e-06	6.314557e-06	4.443486e-09	5.359293e+01	2.956680e+02
2.090000e-06	6.344458e-06	4.450663e-09	5.384670e+01	2.960796e+02
2.100000e-06	6.373320e-06	4.457020e-09	5.409167e+01	2.964745e+02
2.110000e-06	6.401289e-06	4.462041e-09	5.432904e+01	2.968535e+02
2.120000e-06	6.428340e-06	4.467492e-09	5.455863e+01	2.972173e+02
2.130000e-06	6.454082e-06	4.474170e-09	5.477711e+01	2.975661e+02
2.140000e-06	6.478372e-06	4.479031e-09	5.498326e+01	2.978997e+02
2.150000e-06	6.501444e-06	4.485605e-09	5.517908e+01	2.982178e+02
2.160000e-06	6.523459e-06	4.492904e-09	5.536592e+01	2.985198e+02
2.170000e-06	6.544452e-06	4.498587e-09	5.554409e+01	2.988048e+02
2.180000e-06	6.564481e-06	4.502620e-09	5.571408e+01	2.990722e+02
2.190000e-06	6.583556e-06	4.506012e-09	5.587598e+01	2.993213e+02
2.200000e-06	6.601470e-06	4.511206e-09	5.602802e+01	2.995514e+02
2.210000e-06	6.618112e-06	4.515422e-09	5.616926e+01	2.997623e+02
2.220000e-06	6.633530e-06	4.518955e-09	5.630012e+01	2.999538e+02
2.230000e-06	6.647708e-06	4.521551e-09	5.642045e+01	3.001258e+02
2.240000e-06	6.660657e-06	4.525256e-09	5.653035e+01	3.002787e+02
2.250000e-06	6.672402e-06	4.529568e-09	5.663003e+01	3.004128e+02
2.260000e-06	6.682785e-06	4.533449e-09	5.671815e+01	3.005286e+02
2.270000e-06	6.691648e-06	4.536891e-09	5.679338e+01	3.006266e+02
2.280000e-06	6.699261e-06	4.539858e-09	5.685799e+01	3.007071e+02
2.290000e-06	6.705791e-06	4.542865e-09	5.691341e+01	3.007705e+02
2.300000e-06	6.711102e-06	4.544542e-09	5.695849e+01	3.008168e+02
2.310000e-06	6.715283e-06	4.545143e-09	5.699397e+01	3.008461e+02
2.320000e-06	6.718544e-06	4.545143e-09	5.702165e+01	3.008581e+02
2.330000e-06	6.720494e-06	4.546975e-09	5.703820e+01	3.008526e+02
2.340000e-06	6.720883e-06	4.551639e-09	5.704150e+01	3.008292e+02
2.350000e-06	6.720136e-06	4.553141e-09	5.703516e+01	3.007878e+02
2.360000e-06	6.718360e-06	4.547520e-09	5.702009e+01	3.007281e+02
2.370000e-06	6.715469e-06	4.543819e-09	5.699555e+01	3.006504e+02
2.380000e-06	6.711556e-06	4.542985e-09	5.696234e+01	3.005554e+02
2.390000e-06	6.706848e-06	4.542529e-09	5.692238e+01	3.004442e+02
2.400000e-06	6.701059e-06	4.540845e-09	5.687325e+01	3.003182e+02
2.410000e-06	6.693807e-06	4.543778e-09	5.681170e+01	3.001798e+02
2.420000e-06	6.685405e-06	4.566017e-09	5.674039e+01	3.000313e+02
2.430000e-06	6.676109e-06	4.526954e-09	5.666149e+01	2.998757e+02
2.440000e-06	6.665639e-06	4.447382e-09	5.657263e+01	2.997162e+02
2.450000e-06	6.653395e-06	4.446522e-09	5.646872e+01	2.995559e+02
2.460000e-06	6.638996e-06	4.498977e-09	5.634651e+01	2.993978e+02
2.470000e-06	6.623081e-06	4.681628e-09	5.621144e+01	2.992444e+02
2.480000e-06	6.606702e-06	4.597958e-09	5.607242e+01	2.990974e+02
2.490000e-06	6.589813e-06	4.377489e-09	5.592908e+01	2.989579e+02
2.500000e-06	6.571531e-06	4.570903e-09	5.577392e+01	2.988258e+02
2.510000e-06	6.552079e-06	4.537918e-09	5.560883e+01	2.986997e+02
2.520000e-06	6.532176e-06	4.504111e-09	5.543991e+01	2.985771e+02
2.530000e-06	6.510997e-06	4.699037e-09	5.526016e+01	2.984543e+02
2.540000e-06	6.487942e-06	4.476046e-09	5.506448e+01	2.983266e+02
2.550000e-06	6.463823e-06	4.431152e-09	5.485978e+01	2.981883e+02
2.560000e-06	6.438964e-06	4.754478e-09	5.464880e+01	2.980329e+02
2.570000e-06	6.413108e-06	4.608143e-09	5.442935e+01	2.978540e+02
2.580000e-06	6.386080e-06	4.436273e-09	5.419996e+01	2.976449e+02
2.590000e-06	6.357944e-06	4.621476e-09	5.396116e+01	2.973994e+02
2.600000e-06	6.329011e-06	4.609083e-09	5.371560e+01	2.971121e+02
2.610000e-06	6.298823e-06	4.643107e-09	5.345939e+01	2.967786e+02
2.620000e-06	6.267014e-06	4.575683e-09	5.318943e+01	2.963959e+02
2.630000e-06	6.234152e-06	4.443554e-09	5.291051e+01	2.959625e+02
2.640000e-06	6.200305e-06	4.611619e-09	5.262325e+01	2.954784e+02
2.650000e-06	6.165172e-06	4.564733e-09	5.232507e+01	2.949454e+02
2.660000e-06	6.129069e-06	4.539483e-09	5.201866e+01	2.943665e+02
2.670000e-06	6.092048e-06	4.569187e-09	5.170445e+01	2.937461e+02
2.680000e-06	6.053563e-06	4.418631e-09	5.137782e+01	2.930896e+02
2.690000e-06	6.013637e-06	4.505650e-09	5.103896e+01	2.924029e+02
2.700000e-06	5.972888e-06	4.591620e-09	5.069311e+01	2.916919e+02
2.710000e-06	5.931220e-06	4.506248e-09	5.033947e+01	2.909627e+02
2.720000e-06	5.888268e-06	4.386814e-09	4.997493e+01	2.902203e+02
2.730000e-06	5.844353e-06	4.409606e-09	4.960221e+01	2.894692e+02
2.740000e-06	5.799714e-06	4.576327e-09	4.922336e+01	2.887122e+02
2.750000e-06	5.754113e-06	4.457559e-09	4.883632e+01	2.879509e+02
2.760000e-06	5.707385e-06	4.356618e-09	4.843974e+01	2.871854e+02
2.770000e-06	5.659630e-06	4.412739e-09	4.803443e+01	2.864142e+02
2.780000e-06	5.610908e-06	4.421457e-09	4.762092e+01	2.856344e+02
2.790000e-06	5.561014e-06	4.436088e-09	4.719745e+01	2.848422e+02
2.800000e-06	5.510061e-06	4.358830e-09	4.676501e+01	2.840326e+02
2.810000e-06	5.458301e-06	4.349173e-09	4.632571e+01	2.832005e+02
2.820000e-06	5.405489e-06	4.347308e-09	4.587748e+01	2.823405e+02
2.830000e-06	5.351334e-06	4.331354e-09	4.541786e+01	2.814477e+02
2.840000e-06	5.295926e-06	4.363134e-09	4.494760e+01	2.805176e+02
2.850000e-06	5.239594e-06	4.299078e-09	4.446950e+01	2.795471e+02
2.860000e-06	5.182428e-06	4.267550e-09	4.398432e+01	2.785339e+02
2.870000e-06	5.124392e-06	4.269951e-09	4.349176e+01	2.774772e+02
2.880000e-06	5.065557e-06	4.292749e-09	4.299241e+01	2.763776e+02
2.890000e-06	5.005970e-06	4.258403e-09	4.248668e+01	2.752368e+02
2.900000e-06	4.945644e-06	4.180287e-09	4.197469e+01	2.740576e+02
2.910000e-06	4.884517e-06	4.203742e-09	4.145589e+01	2.728436e+02
2.920000e-06	4.822396e-06	4.209260e-09	4.092866e+01	2.715987e+02
2.930000e-06	4.759117e-06	4.173501e-09	4.039159e+01	2.703269e+02
2.940000e-06	4.694839e-06	4.134771e-09	3.984605e+01	2.690319e+02
2.950000e-06	4.629839e-06	4.130743e-09	3.929438e+01	2.677166e+02
