# Temperatura_=_20.0
# Concentracion g/m^3_=_9000.0
# C_Vs_to_Am_M_A/Vsm_=_65563218390.804596
# pendiente_HvsI_1/m_=_3716.3
# ordenada_HvsI_A/m_=_1297.0
# frecuencia_Hz_=_212912.08074858307

Tiempo_(s)	Campo_(V.s)	Magnetizacion_(V.s)	Campo_(kA/m)	Magnetizacion_(A/m)
0.000000e+00	-6.720948e-06	-4.617878e-09	-5.696626e+01	-3.057232e+02
1.000000e-08	-6.719511e-06	-4.621810e-09	-5.695409e+01	-3.056491e+02
2.000000e-08	-6.716670e-06	-4.621205e-09	-5.693001e+01	-3.055712e+02
3.000000e-08	-6.712858e-06	-4.619234e-09	-5.689770e+01	-3.054903e+02
4.000000e-08	-6.708050e-06	-4.618128e-09	-5.685695e+01	-3.054066e+02
5.000000e-08	-6.702046e-06	-4.616680e-09	-5.680606e+01	-3.053191e+02
6.000000e-08	-6.694990e-06	-4.609914e-09	-5.674625e+01	-3.052259e+02
7.000000e-08	-6.687047e-06	-4.587877e-09	-5.667892e+01	-3.051243e+02
8.000000e-08	-6.677784e-06	-4.577903e-09	-5.660042e+01	-3.050110e+02
9.000000e-08	-6.666827e-06	-4.663744e-09	-5.650754e+01	-3.048823e+02
1.000000e-07	-6.654333e-06	-4.711035e-09	-5.640165e+01	-3.047340e+02
1.100000e-07	-6.640371e-06	-4.679572e-09	-5.628330e+01	-3.045621e+02
1.200000e-07	-6.624793e-06	-4.568275e-09	-5.615126e+01	-3.043629e+02
1.300000e-07	-6.608013e-06	-4.390938e-09	-5.600904e+01	-3.041327e+02
1.400000e-07	-6.590473e-06	-4.618681e-09	-5.586037e+01	-3.038688e+02
1.500000e-07	-6.571965e-06	-4.786244e-09	-5.570350e+01	-3.035689e+02
1.600000e-07	-6.552628e-06	-4.515774e-09	-5.553960e+01	-3.032314e+02
1.700000e-07	-6.532449e-06	-4.563998e-09	-5.536856e+01	-3.028558e+02
1.800000e-07	-6.510941e-06	-4.542156e-09	-5.518626e+01	-3.024421e+02
1.900000e-07	-6.488386e-06	-4.416591e-09	-5.499509e+01	-3.019913e+02
2.000000e-07	-6.465154e-06	-4.741257e-09	-5.479818e+01	-3.015050e+02
2.100000e-07	-6.440592e-06	-4.661147e-09	-5.458999e+01	-3.009855e+02
2.200000e-07	-6.414395e-06	-4.319999e-09	-5.436794e+01	-3.004356e+02
2.300000e-07	-6.387081e-06	-4.547326e-09	-5.413643e+01	-2.998584e+02
2.400000e-07	-6.358866e-06	-4.721075e-09	-5.389729e+01	-2.992574e+02
2.500000e-07	-6.329663e-06	-4.633186e-09	-5.364977e+01	-2.986362e+02
2.600000e-07	-6.299385e-06	-4.557673e-09	-5.339313e+01	-2.979983e+02
2.700000e-07	-6.268080e-06	-4.431617e-09	-5.312779e+01	-2.973473e+02
2.800000e-07	-6.235716e-06	-4.548908e-09	-5.285348e+01	-2.966863e+02
2.900000e-07	-6.202001e-06	-4.664438e-09	-5.256771e+01	-2.960183e+02
3.000000e-07	-6.166956e-06	-4.522423e-09	-5.227067e+01	-2.953456e+02
3.100000e-07	-6.130792e-06	-4.479732e-09	-5.196415e+01	-2.946703e+02
3.200000e-07	-6.093510e-06	-4.475374e-09	-5.164815e+01	-2.939938e+02
3.300000e-07	-6.055116e-06	-4.473269e-09	-5.132273e+01	-2.933167e+02
3.400000e-07	-6.015839e-06	-4.570225e-09	-5.098982e+01	-2.926392e+02
3.500000e-07	-5.975593e-06	-4.548380e-09	-5.064869e+01	-2.919607e+02
3.600000e-07	-5.933914e-06	-4.357749e-09	-5.029543e+01	-2.912799e+02
3.700000e-07	-5.890919e-06	-4.378391e-09	-4.993100e+01	-2.905949e+02
3.800000e-07	-5.846971e-06	-4.580297e-09	-4.955850e+01	-2.899033e+02
3.900000e-07	-5.801912e-06	-4.480413e-09	-4.917659e+01	-2.892020e+02
4.000000e-07	-5.755746e-06	-4.323534e-09	-4.878528e+01	-2.884876e+02
4.100000e-07	-5.708769e-06	-4.403792e-09	-4.838711e+01	-2.877562e+02
4.200000e-07	-5.660873e-06	-4.454568e-09	-4.798115e+01	-2.870042e+02
4.300000e-07	-5.611651e-06	-4.406700e-09	-4.756395e+01	-2.862275e+02
4.400000e-07	-5.561000e-06	-4.367370e-09	-4.713463e+01	-2.854223e+02
4.500000e-07	-5.509128e-06	-4.352381e-09	-4.669497e+01	-2.845854e+02
4.600000e-07	-5.456297e-06	-4.340118e-09	-4.624718e+01	-2.837136e+02
4.700000e-07	-5.402608e-06	-4.347690e-09	-4.579211e+01	-2.828047e+02
4.800000e-07	-5.348068e-06	-4.344685e-09	-4.532983e+01	-2.818571e+02
4.900000e-07	-5.292705e-06	-4.281639e-09	-4.486058e+01	-2.808697e+02
5.000000e-07	-5.236375e-06	-4.253645e-09	-4.438313e+01	-2.798427e+02
5.100000e-07	-5.178963e-06	-4.281796e-09	-4.389651e+01	-2.787767e+02
5.200000e-07	-5.120505e-06	-4.285826e-09	-4.340103e+01	-2.776732e+02
5.300000e-07	-5.061090e-06	-4.235697e-09	-4.289743e+01	-2.765340e+02
5.400000e-07	-5.000834e-06	-4.184956e-09	-4.238670e+01	-2.753618e+02
5.500000e-07	-4.939888e-06	-4.206174e-09	-4.187013e+01	-2.741592e+02
5.600000e-07	-4.878183e-06	-4.229485e-09	-4.134712e+01	-2.729289e+02
5.700000e-07	-4.815614e-06	-4.175392e-09	-4.081680e+01	-2.716735e+02
5.800000e-07	-4.752291e-06	-4.115224e-09	-4.028007e+01	-2.703952e+02
5.900000e-07	-4.688197e-06	-4.130642e-09	-3.973682e+01	-2.690954e+02
6.000000e-07	-4.623140e-06	-4.146428e-09	-3.918540e+01	-2.677750e+02
6.100000e-07	-4.557002e-06	-4.099826e-09	-3.862481e+01	-2.664341e+02
6.200000e-07	-4.489962e-06	-4.053021e-09	-3.805659e+01	-2.650715e+02
6.300000e-07	-4.422243e-06	-4.037095e-09	-3.748261e+01	-2.636857e+02
6.400000e-07	-4.353888e-06	-4.031459e-09	-3.690324e+01	-2.622738e+02
6.500000e-07	-4.284787e-06	-4.017202e-09	-3.631754e+01	-2.608328e+02
6.600000e-07	-4.214846e-06	-3.986058e-09	-3.572473e+01	-2.593587e+02
6.700000e-07	-4.144190e-06	-3.944679e-09	-3.512585e+01	-2.578475e+02
6.800000e-07	-4.072972e-06	-3.926863e-09	-3.452221e+01	-2.562953e+02
6.900000e-07	-4.000965e-06	-3.932275e-09	-3.391189e+01	-2.546980e+02
7.000000e-07	-3.927917e-06	-3.904979e-09	-3.329274e+01	-2.530523e+02
7.100000e-07	-3.853860e-06	-3.847459e-09	-3.266504e+01	-2.513554e+02
7.200000e-07	-3.778930e-06	-3.819898e-09	-3.202993e+01	-2.496053e+02
7.300000e-07	-3.703333e-06	-3.825341e-09	-3.138918e+01	-2.478006e+02
7.400000e-07	-3.627138e-06	-3.802430e-09	-3.074336e+01	-2.459411e+02
7.500000e-07	-3.550189e-06	-3.745599e-09	-3.009115e+01	-2.440269e+02
7.600000e-07	-3.472398e-06	-3.708195e-09	-2.943180e+01	-2.420592e+02
7.700000e-07	-3.393907e-06	-3.697622e-09	-2.876651e+01	-2.400390e+02
7.800000e-07	-3.314822e-06	-3.676882e-09	-2.809619e+01	-2.379680e+02
7.900000e-07	-3.235013e-06	-3.628957e-09	-2.741973e+01	-2.358473e+02
8.000000e-07	-3.154424e-06	-3.584394e-09	-2.673667e+01	-2.336777e+02
8.100000e-07	-3.073312e-06	-3.561367e-09	-2.604917e+01	-2.314593e+02
8.200000e-07	-2.991822e-06	-3.537358e-09	-2.535847e+01	-2.291914e+02
8.300000e-07	-2.909855e-06	-3.498270e-09	-2.466372e+01	-2.268718e+02
8.400000e-07	-2.827390e-06	-3.449913e-09	-2.396475e+01	-2.244975e+02
8.500000e-07	-2.744582e-06	-3.409241e-09	-2.326288e+01	-2.220641e+02
8.600000e-07	-2.661488e-06	-3.383063e-09	-2.255858e+01	-2.195663e+02
8.700000e-07	-2.578033e-06	-3.350695e-09	-2.185122e+01	-2.169976e+02
8.800000e-07	-2.494207e-06	-3.297767e-09	-2.114072e+01	-2.143511e+02
8.900000e-07	-2.410013e-06	-3.241896e-09	-2.042709e+01	-2.116196e+02
9.000000e-07	-2.325525e-06	-3.204617e-09	-1.971098e+01	-2.087956e+02
9.100000e-07	-2.240801e-06	-3.174736e-09	-1.899287e+01	-2.058721e+02
9.200000e-07	-2.155719e-06	-3.123074e-09	-1.827172e+01	-2.028427e+02
9.300000e-07	-2.070206e-06	-3.060933e-09	-1.754692e+01	-1.997018e+02
9.400000e-07	-1.984324e-06	-3.013704e-09	-1.681899e+01	-1.964445e+02
9.500000e-07	-1.898162e-06	-2.974108e-09	-1.608868e+01	-1.930671e+02
9.600000e-07	-1.811713e-06	-2.919928e-09	-1.535595e+01	-1.895664e+02
9.700000e-07	-1.724960e-06	-2.850715e-09	-1.462064e+01	-1.859398e+02
9.800000e-07	-1.637962e-06	-2.787604e-09	-1.388324e+01	-1.821846e+02
9.900000e-07	-1.550667e-06	-2.736021e-09	-1.314334e+01	-1.782978e+02
1.000000e-06	-1.463078e-06	-2.682282e-09	-1.240094e+01	-1.742749e+02
1.010000e-06	-1.375254e-06	-2.615338e-09	-1.165655e+01	-1.701101e+02
1.020000e-06	-1.287143e-06	-2.542301e-09	-1.090973e+01	-1.657949e+02
1.030000e-06	-1.198751e-06	-2.475714e-09	-1.016053e+01	-1.613176e+02
1.040000e-06	-1.110073e-06	-2.412261e-09	-9.408901e+00	-1.566635e+02
1.050000e-06	-1.021143e-06	-2.337397e-09	-8.655136e+00	-1.518138e+02
1.060000e-06	-9.320097e-07	-2.249204e-09	-7.899646e+00	-1.467459e+02
1.070000e-06	-8.426295e-07	-2.160812e-09	-7.142067e+00	-1.414336e+02
1.080000e-06	-7.529984e-07	-2.078734e-09	-6.382360e+00	-1.358475e+02
1.090000e-06	-6.632259e-07	-1.993652e-09	-5.621455e+00	-1.299557e+02
1.100000e-06	-5.733549e-07	-1.895311e-09	-4.859714e+00	-1.237248e+02
1.110000e-06	-4.833835e-07	-1.789687e-09	-4.097124e+00	-1.171213e+02
1.120000e-06	-3.932462e-07	-1.686947e-09	-3.333126e+00	-1.101131e+02
1.130000e-06	-3.029940e-07	-1.581190e-09	-2.568155e+00	-1.026708e+02
1.140000e-06	-2.127551e-07	-1.459381e-09	-1.803297e+00	-9.476986e+01
1.150000e-06	-1.225013e-07	-1.325640e-09	-1.038312e+00	-8.639171e+01
1.160000e-06	-3.218773e-08	-1.190321e-09	-2.728209e-01	-7.752574e+01
1.170000e-06	5.817003e-08	-1.050378e-09	4.930449e-01	-6.817044e+01
1.180000e-06	1.485224e-07	-9.016645e-10	1.258865e+00	-5.833455e+01
1.190000e-06	2.388655e-07	-7.435952e-10	2.024606e+00	-4.803776e+01
1.200000e-06	3.290977e-07	-5.781141e-10	2.789408e+00	-3.731105e+01
1.210000e-06	4.192016e-07	-4.096852e-10	3.553122e+00	-2.619656e+01
1.220000e-06	5.091635e-07	-2.395038e-10	4.315633e+00	-1.474702e+01
1.230000e-06	5.989403e-07	-6.411503e-11	5.076575e+00	-3.024739e+00
1.240000e-06	6.886001e-07	1.202424e-10	5.836524e+00	8.899867e+00
1.250000e-06	7.780951e-07	3.069297e-10	6.595078e+00	2.095005e+01
1.260000e-06	8.673565e-07	4.899500e-10	7.351651e+00	3.304482e+01
1.270000e-06	9.563344e-07	6.726528e-10	8.105821e+00	4.510125e+01
1.280000e-06	1.045110e-06	8.570703e-10	8.858279e+00	5.703685e+01
1.290000e-06	1.133697e-06	1.037083e-09	9.609131e+00	6.877194e+01
1.300000e-06	1.221943e-06	1.209519e-09	1.035710e+01	8.023191e+01
1.310000e-06	1.309848e-06	1.376414e-09	1.110218e+01	9.134924e+01
1.320000e-06	1.397547e-06	1.538248e-09	1.184550e+01	1.020653e+02
1.330000e-06	1.485115e-06	1.693056e-09	1.258773e+01	1.123315e+02
1.340000e-06	1.572484e-06	1.839811e-09	1.332826e+01	1.221106e+02
1.350000e-06	1.659611e-06	1.980018e-09	1.406674e+01	1.313766e+02
1.360000e-06	1.746486e-06	2.110788e-09	1.480308e+01	1.401154e+02
1.370000e-06	1.833123e-06	2.231946e-09	1.553741e+01	1.483236e+02
1.380000e-06	1.919530e-06	2.343290e-09	1.626980e+01	1.560085e+02
1.390000e-06	2.005668e-06	2.446527e-09	1.699990e+01	1.631859e+02
1.400000e-06	2.091467e-06	2.543360e-09	1.772712e+01	1.698796e+02
1.410000e-06	2.176924e-06	2.635809e-09	1.845145e+01	1.761189e+02
1.420000e-06	2.262050e-06	2.724036e-09	1.917297e+01	1.819375e+02
1.430000e-06	2.346796e-06	2.804497e-09	1.989128e+01	1.873712e+02
1.440000e-06	2.431135e-06	2.881494e-09	2.060613e+01	1.924569e+02
1.450000e-06	2.515104e-06	2.957773e-09	2.131784e+01	1.972305e+02
1.460000e-06	2.598732e-06	3.028965e-09	2.202666e+01	2.017257e+02
1.470000e-06	2.682047e-06	3.093702e-09	2.273283e+01	2.059735e+02
1.480000e-06	2.764944e-06	3.154393e-09	2.343546e+01	2.100009e+02
1.490000e-06	2.847302e-06	3.213492e-09	2.413353e+01	2.138312e+02
1.500000e-06	2.929094e-06	3.268208e-09	2.482679e+01	2.174832e+02
1.510000e-06	3.010335e-06	3.318226e-09	2.551538e+01	2.209717e+02
1.520000e-06	3.091109e-06	3.368429e-09	2.620001e+01	2.243082e+02
1.530000e-06	3.171343e-06	3.417376e-09	2.688007e+01	2.275010e+02
1.540000e-06	3.250982e-06	3.461740e-09	2.755509e+01	2.305562e+02
1.550000e-06	3.329961e-06	3.504109e-09	2.822451e+01	2.334782e+02
1.560000e-06	3.408202e-06	3.546488e-09	2.888767e+01	2.362706e+02
1.570000e-06	3.485807e-06	3.586846e-09	2.954545e+01	2.389369e+02
1.580000e-06	3.562803e-06	3.623631e-09	3.019806e+01	2.414809e+02
1.590000e-06	3.639168e-06	3.657476e-09	3.084532e+01	2.439071e+02
1.600000e-06	3.714931e-06	3.690134e-09	3.148749e+01	2.462211e+02
1.610000e-06	3.790009e-06	3.721152e-09	3.212384e+01	2.484295e+02
1.620000e-06	3.864147e-06	3.750885e-09	3.275223e+01	2.505400e+02
1.630000e-06	3.937201e-06	3.780840e-09	3.337143e+01	2.525611e+02
1.640000e-06	4.009356e-06	3.809997e-09	3.398301e+01	2.545018e+02
1.650000e-06	4.080848e-06	3.838093e-09	3.458897e+01	2.563712e+02
1.660000e-06	4.151701e-06	3.865652e-09	3.518951e+01	2.581781e+02
1.670000e-06	4.221842e-06	3.892786e-09	3.578403e+01	2.599306e+02
1.680000e-06	4.291254e-06	3.919503e-09	3.637235e+01	2.616357e+02
1.690000e-06	4.359946e-06	3.945574e-09	3.695458e+01	2.632990e+02
1.700000e-06	4.427973e-06	3.969130e-09	3.753118e+01	2.649247e+02
1.710000e-06	4.495431e-06	3.990617e-09	3.810295e+01	2.665153e+02
1.720000e-06	4.562193e-06	4.012929e-09	3.866881e+01	2.680717e+02
1.730000e-06	4.627930e-06	4.036318e-09	3.922600e+01	2.695935e+02
1.740000e-06	4.692584e-06	4.059695e-09	3.977400e+01	2.710792e+02
1.750000e-06	4.756428e-06	4.081454e-09	4.031514e+01	2.725263e+02
1.760000e-06	4.819596e-06	4.102045e-09	4.085055e+01	2.739321e+02
1.770000e-06	4.882014e-06	4.123047e-09	4.137959e+01	2.752936e+02
1.780000e-06	4.943659e-06	4.142877e-09	4.190209e+01	2.766083e+02
1.790000e-06	5.004486e-06	4.160235e-09	4.241766e+01	2.778743e+02
1.800000e-06	5.064521e-06	4.176147e-09	4.292651e+01	2.790908e+02
1.810000e-06	5.123920e-06	4.192878e-09	4.342998e+01	2.802577e+02
1.820000e-06	5.182464e-06	4.210293e-09	4.392619e+01	2.813764e+02
1.830000e-06	5.239727e-06	4.228476e-09	4.441154e+01	2.824492e+02
1.840000e-06	5.295805e-06	4.245723e-09	4.488686e+01	2.834795e+02
1.850000e-06	5.351062e-06	4.261011e-09	4.535522e+01	2.844713e+02
1.860000e-06	5.405468e-06	4.277616e-09	4.581635e+01	2.854293e+02
1.870000e-06	5.458910e-06	4.294042e-09	4.626932e+01	2.863581e+02
1.880000e-06	5.511379e-06	4.309163e-09	4.671405e+01	2.872622e+02
1.890000e-06	5.562808e-06	4.321299e-09	4.714995e+01	2.881458e+02
1.900000e-06	5.612979e-06	4.332517e-09	4.757520e+01	2.890121e+02
1.910000e-06	5.661697e-06	4.345121e-09	4.798813e+01	2.898633e+02
1.920000e-06	5.709248e-06	4.357065e-09	4.839117e+01	2.907008e+02
1.930000e-06	5.755873e-06	4.370656e-09	4.878636e+01	2.915244e+02
1.940000e-06	5.801520e-06	4.385005e-09	4.917326e+01	2.923332e+02
1.950000e-06	5.846147e-06	4.398630e-09	4.955152e+01	2.931251e+02
1.960000e-06	5.889879e-06	4.411338e-09	4.992218e+01	2.938973e+02
1.970000e-06	5.932748e-06	4.424990e-09	5.028554e+01	2.946467e+02
1.980000e-06	5.974365e-06	4.437911e-09	5.063829e+01	2.953697e+02
1.990000e-06	6.014651e-06	4.446390e-09	5.097975e+01	2.960631e+02
2.000000e-06	6.053930e-06	4.454483e-09	5.131267e+01	2.967240e+02
2.010000e-06	6.092250e-06	4.464349e-09	5.163747e+01	2.973505e+02
2.020000e-06	6.129523e-06	4.474294e-09	5.195339e+01	2.979413e+02
2.030000e-06	6.165780e-06	4.482770e-09	5.226071e+01	2.984962e+02
2.040000e-06	6.201152e-06	4.491190e-09	5.256051e+01	2.990163e+02
2.050000e-06	6.235503e-06	4.501619e-09	5.285167e+01	2.995036e+02
2.060000e-06	6.268461e-06	4.511619e-09	5.313102e+01	2.999610e+02
2.070000e-06	6.300171e-06	4.519404e-09	5.339980e+01	3.003922e+02
2.080000e-06	6.330934e-06	4.526345e-09	5.366054e+01	3.008015e+02
2.090000e-06	6.360671e-06	4.533345e-09	5.391259e+01	3.011932e+02
2.100000e-06	6.389323e-06	4.540503e-09	5.415544e+01	3.015716e+02
2.110000e-06	6.417070e-06	4.547748e-09	5.439062e+01	3.019405e+02
2.120000e-06	6.443867e-06	4.553881e-09	5.461775e+01	3.023031e+02
2.130000e-06	6.469293e-06	4.560470e-09	5.483326e+01	3.026615e+02
2.140000e-06	6.493323e-06	4.569182e-09	5.503693e+01	3.030169e+02
2.150000e-06	6.516219e-06	4.577891e-09	5.523100e+01	3.033694e+02
2.160000e-06	6.538012e-06	4.585615e-09	5.541571e+01	3.037177e+02
2.170000e-06	6.558683e-06	4.590223e-09	5.559092e+01	3.040599e+02
2.180000e-06	6.578436e-06	4.592269e-09	5.575835e+01	3.043928e+02
2.190000e-06	6.597218e-06	4.594856e-09	5.591754e+01	3.047128e+02
2.200000e-06	6.614769e-06	4.599361e-09	5.606630e+01	3.050158e+02
2.210000e-06	6.631104e-06	4.606419e-09	5.620475e+01	3.052977e+02
2.220000e-06	6.646214e-06	4.613213e-09	5.633283e+01	3.055544e+02
2.230000e-06	6.660059e-06	4.618562e-09	5.645018e+01	3.057826e+02
2.240000e-06	6.672682e-06	4.622895e-09	5.655717e+01	3.059795e+02
2.250000e-06	6.684105e-06	4.626253e-09	5.665399e+01	3.061433e+02
2.260000e-06	6.694090e-06	4.628919e-09	5.673862e+01	3.062733e+02
2.270000e-06	6.702593e-06	4.630474e-09	5.681069e+01	3.063697e+02
2.280000e-06	6.709931e-06	4.632601e-09	5.687288e+01	3.064338e+02
2.290000e-06	6.716193e-06	4.634796e-09	5.692597e+01	3.064681e+02
2.300000e-06	6.721243e-06	4.637237e-09	5.696876e+01	3.064755e+02
2.310000e-06	6.725221e-06	4.640181e-09	5.700249e+01	3.064598e+02
2.320000e-06	6.728173e-06	4.642885e-09	5.702750e+01	3.064249e+02
2.330000e-06	6.729692e-06	4.646088e-09	5.704038e+01	3.063747e+02
2.340000e-06	6.729824e-06	4.649180e-09	5.704150e+01	3.063132e+02
2.350000e-06	6.728870e-06	4.649279e-09	5.703341e+01	3.062436e+02
2.360000e-06	6.726881e-06	4.643791e-09	5.701656e+01	3.061685e+02
2.370000e-06	6.723835e-06	4.640877e-09	5.699073e+01	3.060898e+02
2.380000e-06	6.719806e-06	4.636574e-09	5.695659e+01	3.060083e+02
2.390000e-06	6.714841e-06	4.635192e-09	5.691451e+01	3.059238e+02
2.400000e-06	6.708548e-06	4.637438e-09	5.686116e+01	3.058352e+02
2.410000e-06	6.700864e-06	4.650534e-09	5.679604e+01	3.057405e+02
2.420000e-06	6.692189e-06	4.684393e-09	5.672251e+01	3.056367e+02
2.430000e-06	6.682639e-06	4.596542e-09	5.664156e+01	3.055205e+02
2.440000e-06	6.671818e-06	4.506852e-09	5.654984e+01	3.053880e+02
2.450000e-06	6.658958e-06	4.526325e-09	5.644084e+01	3.052352e+02
2.460000e-06	6.644021e-06	4.632043e-09	5.631424e+01	3.050581e+02
2.470000e-06	6.627967e-06	4.859747e-09	5.617817e+01	3.048528e+02
2.480000e-06	6.611569e-06	4.631024e-09	5.603918e+01	3.046160e+02
2.490000e-06	6.594447e-06	4.409361e-09	5.589405e+01	3.043449e+02
2.500000e-06	6.575844e-06	4.726771e-09	5.573637e+01	3.040374e+02
2.510000e-06	6.556262e-06	4.585077e-09	5.557040e+01	3.036922e+02
2.520000e-06	6.536177e-06	4.599036e-09	5.540016e+01	3.033088e+02
2.530000e-06	6.514556e-06	4.901377e-09	5.521691e+01	3.028875e+02
2.540000e-06	6.491166e-06	4.524953e-09	5.501865e+01	3.024293e+02
2.550000e-06	6.466885e-06	4.525503e-09	5.481285e+01	3.019361e+02
2.560000e-06	6.441756e-06	4.935516e-09	5.459986e+01	3.014101e+02
2.570000e-06	6.415520e-06	4.642556e-09	5.437748e+01	3.008544e+02
2.580000e-06	6.388157e-06	4.471977e-09	5.414555e+01	3.002720e+02
2.590000e-06	6.359861e-06	4.649841e-09	5.390572e+01	2.996666e+02
2.600000e-06	6.330756e-06	4.568476e-09	5.365903e+01	2.990417e+02
2.610000e-06	6.300225e-06	4.692850e-09	5.340025e+01	2.984008e+02
2.620000e-06	6.268147e-06	4.584884e-09	5.312836e+01	2.977474e+02
2.630000e-06	6.235049e-06	4.445373e-09	5.284782e+01	2.970846e+02
2.640000e-06	6.200747e-06	4.628575e-09	5.255708e+01	2.964154e+02
2.650000e-06	6.165202e-06	4.494926e-09	5.225581e+01	2.957419e+02
2.660000e-06	6.128851e-06	4.591793e-09	5.194770e+01	2.950662e+02
2.670000e-06	6.091483e-06	4.637328e-09	5.163097e+01	2.943894e+02
2.680000e-06	6.052552e-06	4.364750e-09	5.130099e+01	2.937121e+02
2.690000e-06	6.012329e-06	4.474322e-09	5.096006e+01	2.930344e+02
2.700000e-06	5.971389e-06	4.619903e-09	5.061306e+01	2.923554e+02
2.710000e-06	5.929352e-06	4.562943e-09	5.025675e+01	2.916738e+02
2.720000e-06	5.886022e-06	4.364911e-09	4.988950e+01	2.909876e+02
2.730000e-06	5.841913e-06	4.394994e-09	4.951563e+01	2.902942e+02
2.740000e-06	5.797062e-06	4.601852e-09	4.913548e+01	2.895904e+02
2.750000e-06	5.751103e-06	4.439130e-09	4.874593e+01	2.888728e+02
2.760000e-06	5.703959e-06	4.378215e-09	4.834634e+01	2.881375e+02
2.770000e-06	5.655844e-06	4.418780e-09	4.793852e+01	2.873807e+02
2.780000e-06	5.606735e-06	4.406322e-09	4.752228e+01	2.865985e+02
2.790000e-06	5.556447e-06	4.427900e-09	4.709604e+01	2.857871e+02
2.800000e-06	5.505215e-06	4.359818e-09	4.666181e+01	2.849433e+02
2.810000e-06	5.453182e-06	4.385809e-09	4.622078e+01	2.840642e+02
2.820000e-06	5.399958e-06	4.335595e-09	4.576965e+01	2.831475e+02
2.830000e-06	5.345368e-06	4.321129e-09	4.530695e+01	2.821919e+02
2.840000e-06	5.289707e-06	4.384744e-09	4.483517e+01	2.811965e+02
2.850000e-06	5.233196e-06	4.315241e-09	4.435619e+01	2.801615e+02
2.860000e-06	5.175793e-06	4.269100e-09	4.386965e+01	2.790877e+02
2.870000e-06	5.117529e-06	4.263215e-09	4.337580e+01	2.779767e+02
2.880000e-06	5.058443e-06	4.315113e-09	4.287500e+01	2.768306e+02
2.890000e-06	4.998600e-06	4.258939e-09	4.236777e+01	2.756520e+02
2.900000e-06	4.938014e-06	4.170596e-09	4.185425e+01	2.744435e+02
2.910000e-06	4.876531e-06	4.213752e-09	4.133312e+01	2.732079e+02
2.920000e-06	4.813983e-06	4.220216e-09	4.080297e+01	2.719477e+02
2.930000e-06	4.750380e-06	4.170938e-09	4.026388e+01	2.706648e+02
2.940000e-06	4.685920e-06	4.123680e-09	3.971752e+01	2.693607e+02
2.950000e-06	4.620757e-06	4.139671e-09	3.916520e+01	2.680362e+02
