# Temperatura_=_20.0
# Concentracion g/m^3_=_9000.0
# C_Vs_to_Am_M_A/Vsm_=_65563218390.804596
# pendiente_HvsI_1/m_=_3716.3
# ordenada_HvsI_A/m_=_1297.0
# frecuencia_Hz_=_212913.50548182926

Tiempo_(s)	Campo_(V.s)	Magnetizacion_(V.s)	Campo_(kA/m)	Magnetizacion_(A/m)
0.000000e+00	-6.723922e-06	-4.547189e-09	-5.696362e+01	-3.002225e+02
1.000000e-08	-6.722704e-06	-4.548772e-09	-5.695329e+01	-3.001423e+02
2.000000e-08	-6.720041e-06	-4.548890e-09	-5.693073e+01	-3.000509e+02
3.000000e-08	-6.716312e-06	-4.550682e-09	-5.689915e+01	-2.999504e+02
4.000000e-08	-6.711638e-06	-4.550833e-09	-5.685954e+01	-2.998430e+02
5.000000e-08	-6.705846e-06	-4.549620e-09	-5.681048e+01	-2.997311e+02
6.000000e-08	-6.699045e-06	-4.547615e-09	-5.675286e+01	-2.996171e+02
7.000000e-08	-6.691370e-06	-4.538284e-09	-5.668784e+01	-2.995035e+02
8.000000e-08	-6.682467e-06	-4.535233e-09	-5.661242e+01	-2.993926e+02
9.000000e-08	-6.671959e-06	-4.581703e-09	-5.652339e+01	-2.992867e+02
1.000000e-07	-6.659803e-06	-4.592861e-09	-5.642042e+01	-2.991874e+02
1.100000e-07	-6.646115e-06	-4.579975e-09	-5.630445e+01	-2.990960e+02
1.200000e-07	-6.630869e-06	-4.529866e-09	-5.617529e+01	-2.990130e+02
1.300000e-07	-6.614365e-06	-4.450770e-09	-5.603547e+01	-2.989382e+02
1.400000e-07	-6.597050e-06	-4.569680e-09	-5.588879e+01	-2.988703e+02
1.500000e-07	-6.578802e-06	-4.588332e-09	-5.573419e+01	-2.988071e+02
1.600000e-07	-6.559668e-06	-4.470798e-09	-5.557209e+01	-2.987452e+02
1.700000e-07	-6.539683e-06	-4.553325e-09	-5.540278e+01	-2.986803e+02
1.800000e-07	-6.518523e-06	-4.482480e-09	-5.522352e+01	-2.986075e+02
1.900000e-07	-6.496275e-06	-4.416695e-09	-5.503504e+01	-2.985208e+02
2.000000e-07	-6.473253e-06	-4.608859e-09	-5.484000e+01	-2.984140e+02
2.100000e-07	-6.449100e-06	-4.528376e-09	-5.463538e+01	-2.982806e+02
2.200000e-07	-6.423332e-06	-4.435996e-09	-5.441708e+01	-2.981145e+02
2.300000e-07	-6.396308e-06	-4.585775e-09	-5.418814e+01	-2.979097e+02
2.400000e-07	-6.368338e-06	-4.575735e-09	-5.395118e+01	-2.976612e+02
2.500000e-07	-6.339384e-06	-4.566038e-09	-5.370589e+01	-2.973652e+02
2.600000e-07	-6.309342e-06	-4.596365e-09	-5.345138e+01	-2.970191e+02
2.700000e-07	-6.278241e-06	-4.505701e-09	-5.318790e+01	-2.966216e+02
2.800000e-07	-6.246080e-06	-4.509609e-09	-5.291544e+01	-2.961733e+02
2.900000e-07	-6.212633e-06	-4.553305e-09	-5.263209e+01	-2.956760e+02
3.000000e-07	-6.177917e-06	-4.533094e-09	-5.233798e+01	-2.951333e+02
3.100000e-07	-6.142052e-06	-4.518207e-09	-5.203413e+01	-2.945497e+02
3.200000e-07	-6.105096e-06	-4.459138e-09	-5.172105e+01	-2.939307e+02
3.300000e-07	-6.067028e-06	-4.453400e-09	-5.139855e+01	-2.932826e+02
3.400000e-07	-6.028008e-06	-4.510630e-09	-5.106798e+01	-2.926118e+02
3.500000e-07	-5.987994e-06	-4.501605e-09	-5.072899e+01	-2.919242e+02
3.600000e-07	-5.946555e-06	-4.413427e-09	-5.037793e+01	-2.912255e+02
3.700000e-07	-5.903833e-06	-4.397645e-09	-5.001600e+01	-2.905201e+02
3.800000e-07	-5.860143e-06	-4.470575e-09	-4.964586e+01	-2.898114e+02
3.900000e-07	-5.815348e-06	-4.441107e-09	-4.926637e+01	-2.891010e+02
4.000000e-07	-5.769469e-06	-4.399333e-09	-4.887769e+01	-2.883892e+02
4.100000e-07	-5.722740e-06	-4.394453e-09	-4.848182e+01	-2.876746e+02
4.200000e-07	-5.675066e-06	-4.376801e-09	-4.807793e+01	-2.869542e+02
4.300000e-07	-5.626049e-06	-4.387214e-09	-4.766267e+01	-2.862238e+02
4.400000e-07	-5.575590e-06	-4.385815e-09	-4.723519e+01	-2.854783e+02
4.500000e-07	-5.523940e-06	-4.342572e-09	-4.679762e+01	-2.847118e+02
4.600000e-07	-5.471334e-06	-4.304499e-09	-4.635196e+01	-2.839185e+02
4.700000e-07	-5.417787e-06	-4.326420e-09	-4.589832e+01	-2.830925e+02
4.800000e-07	-5.363342e-06	-4.342136e-09	-4.543707e+01	-2.822287e+02
4.900000e-07	-5.308122e-06	-4.288704e-09	-4.496926e+01	-2.813230e+02
5.000000e-07	-5.251975e-06	-4.249107e-09	-4.449360e+01	-2.803723e+02
5.100000e-07	-5.194727e-06	-4.260065e-09	-4.400861e+01	-2.793752e+02
5.200000e-07	-5.136484e-06	-4.276162e-09	-4.351518e+01	-2.783316e+02
5.300000e-07	-5.077304e-06	-4.245244e-09	-4.301382e+01	-2.772429e+02
5.400000e-07	-5.017208e-06	-4.190661e-09	-4.250470e+01	-2.761116e+02
5.500000e-07	-4.956332e-06	-4.185363e-09	-4.198897e+01	-2.749413e+02
5.600000e-07	-4.894729e-06	-4.206149e-09	-4.146709e+01	-2.737364e+02
5.700000e-07	-4.832401e-06	-4.187336e-09	-4.093905e+01	-2.725014e+02
5.800000e-07	-4.769306e-06	-4.136267e-09	-4.040453e+01	-2.712408e+02
5.900000e-07	-4.705307e-06	-4.112826e-09	-3.986235e+01	-2.699583e+02
6.000000e-07	-4.640279e-06	-4.116775e-09	-3.931144e+01	-2.686570e+02
6.100000e-07	-4.574319e-06	-4.113699e-09	-3.875264e+01	-2.673386e+02
6.200000e-07	-4.507531e-06	-4.080438e-09	-3.818683e+01	-2.660036e+02
6.300000e-07	-4.439908e-06	-4.028088e-09	-3.761394e+01	-2.646510e+02
6.400000e-07	-4.371573e-06	-4.012526e-09	-3.703502e+01	-2.632781e+02
6.500000e-07	-4.302557e-06	-4.025731e-09	-3.645034e+01	-2.618814e+02
6.600000e-07	-4.232752e-06	-4.008250e-09	-3.585896e+01	-2.604559e+02
6.700000e-07	-4.162224e-06	-3.952680e-09	-3.526146e+01	-2.589961e+02
6.800000e-07	-4.091093e-06	-3.919380e-09	-3.465886e+01	-2.574961e+02
6.900000e-07	-4.019201e-06	-3.927072e-09	-3.404980e+01	-2.559502e+02
7.000000e-07	-3.946283e-06	-3.919125e-09	-3.343205e+01	-2.543530e+02
7.100000e-07	-3.872404e-06	-3.873129e-09	-3.280617e+01	-2.527001e+02
7.200000e-07	-3.797702e-06	-3.825832e-09	-3.217331e+01	-2.509882e+02
7.300000e-07	-3.722226e-06	-3.811307e-09	-3.153390e+01	-2.492153e+02
7.400000e-07	-3.646078e-06	-3.803750e-09	-3.088879e+01	-2.473807e+02
7.500000e-07	-3.569192e-06	-3.768919e-09	-3.023742e+01	-2.454852e+02
7.600000e-07	-3.491520e-06	-3.719091e-09	-2.957941e+01	-2.435307e+02
7.700000e-07	-3.413155e-06	-3.683739e-09	-2.891551e+01	-2.415200e+02
7.800000e-07	-3.334086e-06	-3.670024e-09	-2.824566e+01	-2.394565e+02
7.900000e-07	-3.254372e-06	-3.646863e-09	-2.757033e+01	-2.373436e+02
8.000000e-07	-3.174107e-06	-3.601719e-09	-2.689035e+01	-2.351844e+02
8.100000e-07	-3.093271e-06	-3.557849e-09	-2.620552e+01	-2.329813e+02
8.200000e-07	-3.011901e-06	-3.529565e-09	-2.551617e+01	-2.307353e+02
8.300000e-07	-2.930028e-06	-3.507211e-09	-2.482256e+01	-2.284461e+02
8.400000e-07	-2.847692e-06	-3.466501e-09	-2.412503e+01	-2.261116e+02
8.500000e-07	-2.764978e-06	-3.414884e-09	-2.342429e+01	-2.237282e+02
8.600000e-07	-2.681971e-06	-3.380564e-09	-2.272108e+01	-2.212902e+02
8.700000e-07	-2.598648e-06	-3.355040e-09	-2.201518e+01	-2.187907e+02
8.800000e-07	-2.514949e-06	-3.314816e-09	-2.130610e+01	-2.162214e+02
8.900000e-07	-2.430855e-06	-3.261943e-09	-2.059368e+01	-2.135735e+02
9.000000e-07	-2.346381e-06	-3.214950e-09	-1.987804e+01	-2.108377e+02
9.100000e-07	-2.261635e-06	-3.177627e-09	-1.916009e+01	-2.080049e+02
9.200000e-07	-2.176597e-06	-3.132460e-09	-1.843966e+01	-2.050665e+02
9.300000e-07	-2.091198e-06	-3.078298e-09	-1.771618e+01	-2.020151e+02
9.400000e-07	-2.005414e-06	-3.025364e-09	-1.698944e+01	-1.988444e+02
9.500000e-07	-1.919265e-06	-2.978908e-09	-1.625960e+01	-1.955493e+02
9.600000e-07	-1.832816e-06	-2.930157e-09	-1.552722e+01	-1.921262e+02
9.700000e-07	-1.746078e-06	-2.869652e-09	-1.479239e+01	-1.885725e+02
9.800000e-07	-1.659088e-06	-2.806244e-09	-1.405543e+01	-1.848861e+02
9.900000e-07	-1.571924e-06	-2.748265e-09	-1.331700e+01	-1.810649e+02
1.000000e-06	-1.484499e-06	-2.694639e-09	-1.257635e+01	-1.771062e+02
1.010000e-06	-1.396678e-06	-2.630992e-09	-1.183235e+01	-1.730057e+02
1.020000e-06	-1.308427e-06	-2.557655e-09	-1.108471e+01	-1.687570e+02
1.030000e-06	-1.219891e-06	-2.489731e-09	-1.033465e+01	-1.643506e+02
1.040000e-06	-1.131120e-06	-2.425850e-09	-9.582601e+00	-1.597733e+02
1.050000e-06	-1.042057e-06	-2.353944e-09	-8.828081e+00	-1.550080e+02
1.060000e-06	-9.528149e-07	-2.270997e-09	-8.072042e+00	-1.500333e+02
1.070000e-06	-8.633963e-07	-2.186323e-09	-7.314506e+00	-1.448235e+02
1.080000e-06	-7.738176e-07	-2.105927e-09	-6.555615e+00	-1.393494e+02
1.090000e-06	-6.841507e-07	-2.021823e-09	-5.795977e+00	-1.335783e+02
1.100000e-06	-5.943726e-07	-1.926578e-09	-5.035396e+00	-1.274760e+02
1.110000e-06	-5.044674e-07	-1.824199e-09	-4.273739e+00	-1.210074e+02
1.120000e-06	-4.144302e-07	-1.720224e-09	-3.510963e+00	-1.141383e+02
1.130000e-06	-3.242472e-07	-1.614676e-09	-2.746952e+00	-1.068370e+02
1.140000e-06	-2.339939e-07	-1.497609e-09	-1.982345e+00	-9.907647e+01
1.150000e-06	-1.437555e-07	-1.367391e-09	-1.217865e+00	-9.083577e+01
1.160000e-06	-5.350728e-08	-1.233400e-09	-4.533021e-01	-8.210185e+01
1.170000e-06	3.679637e-08	-1.097492e-09	3.117309e-01	-7.287107e+01
1.180000e-06	1.270807e-07	-9.542097e-10	1.076601e+00	-6.315030e+01
1.190000e-06	2.172488e-07	-7.980610e-10	1.840485e+00	-5.295776e+01
1.200000e-06	3.073440e-07	-6.339320e-10	2.603752e+00	-4.232337e+01
1.210000e-06	3.973806e-07	-4.662931e-10	3.366523e+00	-3.128864e+01
1.220000e-06	4.873144e-07	-2.963344e-10	4.128422e+00	-1.990604e+01
1.230000e-06	5.771483e-07	-1.203369e-10	4.889475e+00	-8.237974e+00
1.240000e-06	6.668115e-07	6.396870e-11	5.649083e+00	3.644739e+00
1.250000e-06	7.563106e-07	2.476624e-10	6.407300e+00	1.566476e+01
1.260000e-06	8.456856e-07	4.284274e-10	7.164466e+00	2.774040e+01
1.270000e-06	9.348682e-07	6.078842e-10	7.920001e+00	3.978795e+01
1.280000e-06	1.023810e-06	7.898845e-10	8.673493e+00	5.172416e+01
1.290000e-06	1.112486e-06	9.705408e-10	9.424741e+00	6.346865e+01
1.300000e-06	1.200913e-06	1.144845e-09	1.017387e+01	7.494617e+01
1.310000e-06	1.289118e-06	1.313368e-09	1.092113e+01	8.608869e+01
1.320000e-06	1.377096e-06	1.476746e-09	1.166646e+01	9.683706e+01
1.330000e-06	1.464818e-06	1.635272e-09	1.240962e+01	1.071423e+02
1.340000e-06	1.552273e-06	1.785061e-09	1.315052e+01	1.169667e+02
1.350000e-06	1.639496e-06	1.924840e-09	1.388946e+01	1.262838e+02
1.360000e-06	1.726441e-06	2.054579e-09	1.462603e+01	1.350788e+02
1.370000e-06	1.813107e-06	2.176843e-09	1.536025e+01	1.433476e+02
1.380000e-06	1.899544e-06	2.290676e-09	1.609252e+01	1.510963e+02
1.390000e-06	1.985690e-06	2.395108e-09	1.682234e+01	1.583398e+02
1.400000e-06	2.071588e-06	2.491054e-09	1.755004e+01	1.651003e+02
1.410000e-06	2.157219e-06	2.583595e-09	1.827549e+01	1.714056e+02
1.420000e-06	2.242451e-06	2.673817e-09	1.899756e+01	1.772877e+02
1.430000e-06	2.327289e-06	2.757888e-09	1.971629e+01	1.827809e+02
1.440000e-06	2.411753e-06	2.836186e-09	2.043185e+01	1.879201e+02
1.450000e-06	2.495844e-06	2.912813e-09	2.114425e+01	1.927398e+02
1.460000e-06	2.579616e-06	2.986346e-09	2.185395e+01	1.972726e+02
1.470000e-06	2.663036e-06	3.052151e-09	2.256067e+01	2.015485e+02
1.480000e-06	2.746014e-06	3.112552e-09	2.326363e+01	2.055939e+02
1.490000e-06	2.828472e-06	3.169925e-09	2.396221e+01	2.094319e+02
1.500000e-06	2.910439e-06	3.224593e-09	2.465661e+01	2.130818e+02
1.510000e-06	2.991895e-06	3.277295e-09	2.534668e+01	2.165592e+02
1.520000e-06	3.072813e-06	3.328537e-09	2.603220e+01	2.198769e+02
1.530000e-06	3.153236e-06	3.377458e-09	2.671353e+01	2.230446e+02
1.540000e-06	3.233050e-06	3.423829e-09	2.738970e+01	2.260704e+02
1.550000e-06	3.312203e-06	3.466991e-09	2.806027e+01	2.289605e+02
1.560000e-06	3.390787e-06	3.507252e-09	2.872602e+01	2.317206e+02
1.570000e-06	3.468746e-06	3.544991e-09	2.938647e+01	2.343560e+02
1.580000e-06	3.545975e-06	3.580043e-09	3.004074e+01	2.368719e+02
1.590000e-06	3.622478e-06	3.614430e-09	3.068885e+01	2.392742e+02
1.600000e-06	3.698297e-06	3.648434e-09	3.133117e+01	2.415692e+02
1.610000e-06	3.773412e-06	3.678022e-09	3.196753e+01	2.437640e+02
1.620000e-06	3.847696e-06	3.705511e-09	3.259685e+01	2.458661e+02
1.630000e-06	3.921058e-06	3.737164e-09	3.321836e+01	2.478833e+02
1.640000e-06	3.993552e-06	3.769311e-09	3.383251e+01	2.498237e+02
1.650000e-06	4.065325e-06	3.797922e-09	3.444056e+01	2.516952e+02
1.660000e-06	4.136399e-06	3.824827e-09	3.504267e+01	2.535049e+02
1.670000e-06	4.206779e-06	3.851813e-09	3.563892e+01	2.552595e+02
1.680000e-06	4.276428e-06	3.878756e-09	3.622898e+01	2.569643e+02
1.690000e-06	4.345289e-06	3.903401e-09	3.681235e+01	2.586239e+02
1.700000e-06	4.413456e-06	3.924702e-09	3.738984e+01	2.602412e+02
1.710000e-06	4.481012e-06	3.945052e-09	3.796216e+01	2.618180e+02
1.720000e-06	4.547849e-06	3.966600e-09	3.852839e+01	2.633551e+02
1.730000e-06	4.613783e-06	3.990623e-09	3.908697e+01	2.648522e+02
1.740000e-06	4.678775e-06	4.014332e-09	3.963757e+01	2.663081e+02
1.750000e-06	4.742884e-06	4.036894e-09	4.018069e+01	2.677216e+02
1.760000e-06	4.806173e-06	4.058944e-09	4.071686e+01	2.690909e+02
1.770000e-06	4.868724e-06	4.080555e-09	4.124677e+01	2.704145e+02
1.780000e-06	4.930553e-06	4.100318e-09	4.177058e+01	2.716913e+02
1.790000e-06	4.991635e-06	4.116290e-09	4.228805e+01	2.729207e+02
1.800000e-06	5.051935e-06	4.130726e-09	4.279890e+01	2.741029e+02
1.810000e-06	5.111464e-06	4.145974e-09	4.330322e+01	2.752389e+02
1.820000e-06	5.170134e-06	4.161807e-09	4.380026e+01	2.763303e+02
1.830000e-06	5.227721e-06	4.176671e-09	4.428812e+01	2.773796e+02
1.840000e-06	5.284178e-06	4.192350e-09	4.476641e+01	2.783898e+02
1.850000e-06	5.339683e-06	4.209334e-09	4.523664e+01	2.793644e+02
1.860000e-06	5.394375e-06	4.225193e-09	4.569998e+01	2.803068e+02
1.870000e-06	5.448167e-06	4.239637e-09	4.615569e+01	2.812205e+02
1.880000e-06	5.500930e-06	4.252126e-09	4.660269e+01	2.821089e+02
1.890000e-06	5.552589e-06	4.264633e-09	4.704034e+01	2.829746e+02
1.900000e-06	5.603000e-06	4.277711e-09	4.746740e+01	2.838199e+02
1.910000e-06	5.652095e-06	4.288928e-09	4.788332e+01	2.846462e+02
1.920000e-06	5.699994e-06	4.299610e-09	4.828912e+01	2.854543e+02
1.930000e-06	5.746866e-06	4.312352e-09	4.868621e+01	2.862443e+02
1.940000e-06	5.792792e-06	4.326828e-09	4.907528e+01	2.870156e+02
1.950000e-06	5.837796e-06	4.340109e-09	4.945654e+01	2.877672e+02
1.960000e-06	5.881858e-06	4.351944e-09	4.982983e+01	2.884978e+02
1.970000e-06	5.924874e-06	4.363247e-09	5.019425e+01	2.892058e+02
1.980000e-06	5.966715e-06	4.374761e-09	5.054872e+01	2.898898e+02
1.990000e-06	6.007281e-06	4.384922e-09	5.089239e+01	2.905486e+02
2.000000e-06	6.046717e-06	4.393620e-09	5.122648e+01	2.911811e+02
2.010000e-06	6.085157e-06	4.402053e-09	5.155214e+01	2.917869e+02
2.020000e-06	6.122593e-06	4.410728e-09	5.186929e+01	2.923660e+02
2.030000e-06	6.159076e-06	4.418888e-09	5.217836e+01	2.929191e+02
2.040000e-06	6.194679e-06	4.427382e-09	5.247998e+01	2.934471e+02
2.050000e-06	6.229264e-06	4.437142e-09	5.277298e+01	2.939516e+02
2.060000e-06	6.262544e-06	4.447894e-09	5.305491e+01	2.944342e+02
2.070000e-06	6.294566e-06	4.459434e-09	5.332620e+01	2.948968e+02
2.080000e-06	6.325567e-06	4.469683e-09	5.358884e+01	2.953415e+02
2.090000e-06	6.355558e-06	4.477836e-09	5.384291e+01	2.957699e+02
2.100000e-06	6.384528e-06	4.484706e-09	5.408834e+01	2.961836e+02
2.110000e-06	6.412539e-06	4.491058e-09	5.432564e+01	2.965837e+02
2.120000e-06	6.439591e-06	4.496860e-09	5.455482e+01	2.969709e+02
2.130000e-06	6.465409e-06	4.502990e-09	5.477355e+01	2.973453e+02
2.140000e-06	6.489748e-06	4.510205e-09	5.497974e+01	2.977068e+02
2.150000e-06	6.512908e-06	4.518626e-09	5.517595e+01	2.980544e+02
2.160000e-06	6.535053e-06	4.526458e-09	5.536356e+01	2.983871e+02
2.170000e-06	6.556113e-06	4.532596e-09	5.554197e+01	2.987034e+02
2.180000e-06	6.576154e-06	4.537547e-09	5.571176e+01	2.990018e+02
2.190000e-06	6.595280e-06	4.541866e-09	5.587378e+01	2.992807e+02
2.200000e-06	6.613309e-06	4.547388e-09	5.602653e+01	2.995383e+02
2.210000e-06	6.630046e-06	4.552645e-09	5.616832e+01	2.997735e+02
2.220000e-06	6.645622e-06	4.556583e-09	5.630027e+01	2.999849e+02
2.230000e-06	6.659922e-06	4.561873e-09	5.642142e+01	3.001717e+02
2.240000e-06	6.672866e-06	4.568049e-09	5.653108e+01	3.003335e+02
2.250000e-06	6.684581e-06	4.573415e-09	5.663033e+01	3.004701e+02
2.260000e-06	6.694920e-06	4.577287e-09	5.671791e+01	3.005816e+02
2.270000e-06	6.703797e-06	4.580562e-09	5.679312e+01	3.006686e+02
2.280000e-06	6.711430e-06	4.583776e-09	5.685778e+01	3.007319e+02
2.290000e-06	6.717897e-06	4.586543e-09	5.691257e+01	3.007722e+02
2.300000e-06	6.723185e-06	4.588344e-09	5.695737e+01	3.007909e+02
2.310000e-06	6.727470e-06	4.589212e-09	5.699367e+01	3.007891e+02
2.320000e-06	6.730745e-06	4.590735e-09	5.702142e+01	3.007681e+02
2.330000e-06	6.732659e-06	4.593289e-09	5.703763e+01	3.007294e+02
2.340000e-06	6.733116e-06	4.597018e-09	5.704150e+01	3.006746e+02
2.350000e-06	6.732411e-06	4.597759e-09	5.703553e+01	3.006052e+02
2.360000e-06	6.730667e-06	4.592388e-09	5.702075e+01	3.005231e+02
2.370000e-06	6.727784e-06	4.591380e-09	5.699633e+01	3.004301e+02
2.380000e-06	6.723910e-06	4.589908e-09	5.696351e+01	3.003283e+02
2.390000e-06	6.719162e-06	4.586829e-09	5.692329e+01	3.002200e+02
2.400000e-06	6.713181e-06	4.584200e-09	5.687261e+01	3.001075e+02
2.410000e-06	6.705836e-06	4.588106e-09	5.681040e+01	2.999934e+02
2.420000e-06	6.697477e-06	4.602824e-09	5.673958e+01	2.998799e+02
2.430000e-06	6.688192e-06	4.545737e-09	5.666092e+01	2.997696e+02
2.440000e-06	6.677622e-06	4.519688e-09	5.657137e+01	2.996645e+02
2.450000e-06	6.665227e-06	4.528318e-09	5.646636e+01	2.995662e+02
2.460000e-06	6.650733e-06	4.571596e-09	5.634357e+01	2.994760e+02
2.470000e-06	6.634846e-06	4.677242e-09	5.620898e+01	2.993942e+02
2.480000e-06	6.618489e-06	4.550551e-09	5.607041e+01	2.993205e+02
2.490000e-06	6.601512e-06	4.507295e-09	5.592658e+01	2.992533e+02
2.500000e-06	6.583165e-06	4.654037e-09	5.577115e+01	2.991904e+02
2.510000e-06	6.563695e-06	4.495906e-09	5.560621e+01	2.991283e+02
2.520000e-06	6.543711e-06	4.571212e-09	5.543690e+01	2.990625e+02
2.530000e-06	6.522464e-06	4.728213e-09	5.525690e+01	2.989879e+02
2.540000e-06	6.499486e-06	4.519458e-09	5.506224e+01	2.988985e+02
2.550000e-06	6.475436e-06	4.625952e-09	5.485850e+01	2.987880e+02
2.560000e-06	6.450461e-06	4.756011e-09	5.464691e+01	2.986500e+02
2.570000e-06	6.424464e-06	4.543164e-09	5.442667e+01	2.984783e+02
2.580000e-06	6.397363e-06	4.583417e-09	5.419708e+01	2.982672e+02
2.590000e-06	6.369176e-06	4.613426e-09	5.395828e+01	2.980118e+02
2.600000e-06	6.340102e-06	4.443864e-09	5.371197e+01	2.977083e+02
2.610000e-06	6.309655e-06	4.578823e-09	5.345404e+01	2.973544e+02
2.620000e-06	6.277767e-06	4.554255e-09	5.318388e+01	2.969491e+02
2.630000e-06	6.244876e-06	4.485778e-09	5.290524e+01	2.964932e+02
2.640000e-06	6.210891e-06	4.538799e-09	5.261732e+01	2.959888e+02
2.650000e-06	6.175704e-06	4.444269e-09	5.231923e+01	2.954395e+02
2.660000e-06	6.139601e-06	4.568134e-09	5.201337e+01	2.948501e+02
2.670000e-06	6.102422e-06	4.534791e-09	5.169840e+01	2.942263e+02
2.680000e-06	6.063722e-06	4.406008e-09	5.137054e+01	2.935743e+02
2.690000e-06	6.023817e-06	4.486833e-09	5.103247e+01	2.929005e+02
2.700000e-06	5.983072e-06	4.475439e-09	5.068729e+01	2.922108e+02
2.710000e-06	5.941244e-06	4.492902e-09	5.033293e+01	2.915107e+02
2.720000e-06	5.898173e-06	4.407734e-09	4.996805e+01	2.908046e+02
2.730000e-06	5.854240e-06	4.396513e-09	4.959585e+01	2.900955e+02
2.740000e-06	5.809537e-06	4.477675e-09	4.921714e+01	2.893848e+02
2.750000e-06	5.763815e-06	4.393223e-09	4.882979e+01	2.886727e+02
2.760000e-06	5.716958e-06	4.425179e-09	4.843284e+01	2.879573e+02
2.770000e-06	5.669068e-06	4.377333e-09	4.802712e+01	2.872356e+02
2.780000e-06	5.620260e-06	4.347075e-09	4.761362e+01	2.865032e+02
2.790000e-06	5.570343e-06	4.402827e-09	4.719074e+01	2.857548e+02
2.800000e-06	5.519327e-06	4.359631e-09	4.675854e+01	2.849846e+02
2.810000e-06	5.467363e-06	4.353329e-09	4.631832e+01	2.841866e+02
2.820000e-06	5.414311e-06	4.280439e-09	4.586887e+01	2.833552e+02
2.830000e-06	5.359965e-06	4.314747e-09	4.540846e+01	2.824853e+02
2.840000e-06	5.304499e-06	4.356540e-09	4.493857e+01	2.815729e+02
2.850000e-06	5.248116e-06	4.283924e-09	4.446091e+01	2.806152e+02
2.860000e-06	5.190839e-06	4.252579e-09	4.397567e+01	2.796110e+02
2.870000e-06	5.132746e-06	4.231040e-09	4.348351e+01	2.785605e+02
2.880000e-06	5.073860e-06	4.283073e-09	4.298465e+01	2.774650e+02
2.890000e-06	5.014225e-06	4.244762e-09	4.247943e+01	2.763275e+02
2.900000e-06	4.953810e-06	4.177867e-09	4.196761e+01	2.751517e+02
2.910000e-06	4.892484e-06	4.174451e-09	4.144807e+01	2.739420e+02
2.920000e-06	4.830163e-06	4.170492e-09	4.092009e+01	2.727028e+02
2.930000e-06	4.766855e-06	4.173212e-09	4.038376e+01	2.714385e+02
2.940000e-06	4.702633e-06	4.126925e-09	3.983969e+01	2.701529e+02
2.950000e-06	4.637593e-06	4.098560e-09	3.928868e+01	2.688489e+02
