# Temperatura_=_20.0
# Concentracion g/m^3_=_9000.0
# C_Vs_to_Am_M_A/Vsm_=_65563218390.804596
# pendiente_HvsI_1/m_=_3716.3
# ordenada_HvsI_A/m_=_1297.0
# frecuencia_Hz_=_212912.11557129488

Tiempo_(s)	Campo_(V.s)	Magnetizacion_(V.s)	Campo_(kA/m)	Magnetizacion_(A/m)
0.000000e+00	-6.710553e-06	-4.627209e-09	-5.696518e+01	-3.039944e+02
1.000000e-08	-6.709029e-06	-4.632945e-09	-5.695224e+01	-3.039582e+02
2.000000e-08	-6.706124e-06	-4.635642e-09	-5.692758e+01	-3.039046e+02
3.000000e-08	-6.702204e-06	-4.637389e-09	-5.689431e+01	-3.038335e+02
4.000000e-08	-6.697320e-06	-4.637634e-09	-5.685284e+01	-3.037454e+02
5.000000e-08	-6.691272e-06	-4.635309e-09	-5.680151e+01	-3.036410e+02
6.000000e-08	-6.684198e-06	-4.630232e-09	-5.674145e+01	-3.035220e+02
7.000000e-08	-6.676247e-06	-4.615597e-09	-5.667396e+01	-3.033903e+02
8.000000e-08	-6.666975e-06	-4.609027e-09	-5.659525e+01	-3.032486e+02
9.000000e-08	-6.655972e-06	-4.679626e-09	-5.650185e+01	-3.030999e+02
1.000000e-07	-6.643395e-06	-4.720515e-09	-5.639508e+01	-3.029474e+02
1.100000e-07	-6.629351e-06	-4.695281e-09	-5.627586e+01	-3.027943e+02
1.200000e-07	-6.613727e-06	-4.592127e-09	-5.614323e+01	-3.026435e+02
1.300000e-07	-6.596917e-06	-4.444297e-09	-5.600054e+01	-3.024977e+02
1.400000e-07	-6.579349e-06	-4.645487e-09	-5.585140e+01	-3.023584e+02
1.500000e-07	-6.560847e-06	-4.784817e-09	-5.569434e+01	-3.022264e+02
1.600000e-07	-6.541480e-06	-4.555556e-09	-5.552994e+01	-3.021012e+02
1.700000e-07	-6.521254e-06	-4.564872e-09	-5.535824e+01	-3.019812e+02
1.800000e-07	-6.499793e-06	-4.539849e-09	-5.517606e+01	-3.018632e+02
1.900000e-07	-6.477338e-06	-4.510744e-09	-5.498544e+01	-3.017430e+02
2.000000e-07	-6.454092e-06	-4.788871e-09	-5.478811e+01	-3.016153e+02
2.100000e-07	-6.429531e-06	-4.640297e-09	-5.457961e+01	-3.014739e+02
2.200000e-07	-6.403435e-06	-4.378486e-09	-5.435808e+01	-3.013120e+02
2.300000e-07	-6.376203e-06	-4.644999e-09	-5.412692e+01	-3.011228e+02
2.400000e-07	-6.348000e-06	-4.761681e-09	-5.388750e+01	-3.008995e+02
2.500000e-07	-6.318778e-06	-4.585917e-09	-5.363944e+01	-3.006360e+02
2.600000e-07	-6.288473e-06	-4.496877e-09	-5.338219e+01	-3.003271e+02
2.700000e-07	-6.257128e-06	-4.472399e-09	-5.311610e+01	-2.999689e+02
2.800000e-07	-6.224868e-06	-4.606249e-09	-5.284225e+01	-2.995590e+02
2.900000e-07	-6.191303e-06	-4.656026e-09	-5.255732e+01	-2.990966e+02
3.000000e-07	-6.156321e-06	-4.483325e-09	-5.226036e+01	-2.985825e+02
3.100000e-07	-6.120167e-06	-4.446772e-09	-5.195346e+01	-2.980193e+02
3.200000e-07	-6.082903e-06	-4.524834e-09	-5.163713e+01	-2.974109e+02
3.300000e-07	-6.044557e-06	-4.558853e-09	-5.131161e+01	-2.967624e+02
3.400000e-07	-6.005240e-06	-4.536105e-09	-5.097785e+01	-2.960794e+02
3.500000e-07	-5.964927e-06	-4.463897e-09	-5.063564e+01	-2.953684e+02
3.600000e-07	-5.923288e-06	-4.395328e-09	-5.028217e+01	-2.946353e+02
3.700000e-07	-5.880369e-06	-4.469299e-09	-4.991784e+01	-2.938859e+02
3.800000e-07	-5.836422e-06	-4.572868e-09	-4.954477e+01	-2.931248e+02
3.900000e-07	-5.791384e-06	-4.420899e-09	-4.916245e+01	-2.923557e+02
4.000000e-07	-5.745310e-06	-4.319685e-09	-4.877133e+01	-2.915807e+02
4.100000e-07	-5.698354e-06	-4.457736e-09	-4.837273e+01	-2.908002e+02
4.200000e-07	-5.650411e-06	-4.498300e-09	-4.796575e+01	-2.900132e+02
4.300000e-07	-5.601198e-06	-4.381050e-09	-4.754798e+01	-2.892172e+02
4.400000e-07	-5.550596e-06	-4.324041e-09	-4.711843e+01	-2.884083e+02
4.500000e-07	-5.498826e-06	-4.372734e-09	-4.667895e+01	-2.875818e+02
4.600000e-07	-5.446059e-06	-4.391052e-09	-4.623102e+01	-2.867322e+02
4.700000e-07	-5.392343e-06	-4.351937e-09	-4.577503e+01	-2.858539e+02
4.800000e-07	-5.337793e-06	-4.312175e-09	-4.531196e+01	-2.849416e+02
4.900000e-07	-5.282398e-06	-4.286411e-09	-4.484172e+01	-2.839906e+02
5.000000e-07	-5.226058e-06	-4.305265e-09	-4.436346e+01	-2.829972e+02
5.100000e-07	-5.168781e-06	-4.319117e-09	-4.387724e+01	-2.819587e+02
5.200000e-07	-5.110456e-06	-4.276916e-09	-4.338212e+01	-2.808742e+02
5.300000e-07	-5.051063e-06	-4.226032e-09	-4.287795e+01	-2.797440e+02
5.400000e-07	-4.990859e-06	-4.221240e-09	-4.236688e+01	-2.785698e+02
5.500000e-07	-4.929913e-06	-4.249864e-09	-4.184951e+01	-2.773546e+02
5.600000e-07	-4.868195e-06	-4.229097e-09	-4.132560e+01	-2.761022e+02
5.700000e-07	-4.805700e-06	-4.160460e-09	-4.079509e+01	-2.748172e+02
5.800000e-07	-4.742438e-06	-4.138611e-09	-4.025806e+01	-2.735040e+02
5.900000e-07	-4.678398e-06	-4.171973e-09	-3.971443e+01	-2.721671e+02
6.000000e-07	-4.613409e-06	-4.159281e-09	-3.916275e+01	-2.708103e+02
6.100000e-07	-4.547331e-06	-4.095658e-09	-3.860181e+01	-2.694363e+02
6.200000e-07	-4.480320e-06	-4.070153e-09	-3.803297e+01	-2.680466e+02
6.300000e-07	-4.412613e-06	-4.077719e-09	-3.745821e+01	-2.666412e+02
6.400000e-07	-4.344284e-06	-4.060157e-09	-3.687817e+01	-2.652188e+02
6.500000e-07	-4.275202e-06	-4.018093e-09	-3.629174e+01	-2.637763e+02
6.600000e-07	-4.205251e-06	-3.989266e-09	-3.569794e+01	-2.623097e+02
6.700000e-07	-4.134595e-06	-3.975528e-09	-3.509814e+01	-2.608138e+02
6.800000e-07	-4.063363e-06	-3.962284e-09	-3.449346e+01	-2.592826e+02
6.900000e-07	-3.991437e-06	-3.943065e-09	-3.388289e+01	-2.577102e+02
7.000000e-07	-3.918543e-06	-3.911007e-09	-3.326410e+01	-2.560903e+02
7.100000e-07	-3.844624e-06	-3.877813e-09	-3.263661e+01	-2.544176e+02
7.200000e-07	-3.769885e-06	-3.860877e-09	-3.200216e+01	-2.526873e+02
7.300000e-07	-3.694426e-06	-3.845603e-09	-3.136160e+01	-2.508960e+02
7.400000e-07	-3.618260e-06	-3.801973e-09	-3.071503e+01	-2.490413e+02
7.500000e-07	-3.541362e-06	-3.756049e-09	-3.006225e+01	-2.471223e+02
7.600000e-07	-3.463730e-06	-3.739834e-09	-2.940324e+01	-2.451394e+02
7.700000e-07	-3.385386e-06	-3.722278e-09	-2.873818e+01	-2.430940e+02
7.800000e-07	-3.306348e-06	-3.679380e-09	-2.806724e+01	-2.409884e+02
7.900000e-07	-3.226550e-06	-3.635789e-09	-2.738985e+01	-2.388251e+02
8.000000e-07	-3.146049e-06	-3.614768e-09	-2.670648e+01	-2.366069e+02
8.100000e-07	-3.065125e-06	-3.592707e-09	-2.601953e+01	-2.343361e+02
8.200000e-07	-2.983803e-06	-3.546810e-09	-2.532919e+01	-2.320144e+02
8.300000e-07	-2.901957e-06	-3.497695e-09	-2.463441e+01	-2.296422e+02
8.400000e-07	-2.819670e-06	-3.463107e-09	-2.393588e+01	-2.272186e+02
8.500000e-07	-2.737022e-06	-3.435222e-09	-2.323430e+01	-2.247413e+02
8.600000e-07	-2.654026e-06	-3.397863e-09	-2.252975e+01	-2.222064e+02
8.700000e-07	-2.570643e-06	-3.348378e-09	-2.182192e+01	-2.196088e+02
8.800000e-07	-2.486807e-06	-3.301168e-09	-2.111025e+01	-2.169418e+02
8.900000e-07	-2.402639e-06	-3.263164e-09	-2.039575e+01	-2.141981e+02
9.000000e-07	-2.318285e-06	-3.225165e-09	-1.967968e+01	-2.113697e+02
9.100000e-07	-2.233683e-06	-3.175372e-09	-1.896150e+01	-2.084488e+02
9.200000e-07	-2.148716e-06	-3.116480e-09	-1.824023e+01	-2.054274e+02
9.300000e-07	-2.063356e-06	-3.068639e-09	-1.751562e+01	-2.022984e+02
9.400000e-07	-1.977663e-06	-3.030505e-09	-1.678817e+01	-1.990553e+02
9.500000e-07	-1.891668e-06	-2.979759e-09	-1.605817e+01	-1.956927e+02
9.600000e-07	-1.805366e-06	-2.914289e-09	-1.532556e+01	-1.922061e+02
9.700000e-07	-1.718750e-06	-2.852958e-09	-1.459029e+01	-1.885915e+02
9.800000e-07	-1.631772e-06	-2.803585e-09	-1.385194e+01	-1.848455e+02
9.900000e-07	-1.544555e-06	-2.750130e-09	-1.311157e+01	-1.809645e+02
1.000000e-06	-1.457117e-06	-2.683002e-09	-1.236931e+01	-1.769439e+02
1.010000e-06	-1.369384e-06	-2.612499e-09	-1.162456e+01	-1.727779e+02
1.020000e-06	-1.281388e-06	-2.550193e-09	-1.087757e+01	-1.684586e+02
1.030000e-06	-1.193139e-06	-2.490120e-09	-1.012843e+01	-1.639753e+02
1.040000e-06	-1.104692e-06	-2.418534e-09	-9.377611e+00	-1.593137e+02
1.050000e-06	-1.016058e-06	-2.336316e-09	-8.625213e+00	-1.544562e+02
1.060000e-06	-9.271522e-07	-2.253114e-09	-7.870498e+00	-1.493811e+02
1.070000e-06	-8.379683e-07	-2.173960e-09	-7.113425e+00	-1.440632e+02
1.080000e-06	-7.486171e-07	-2.092135e-09	-6.354932e+00	-1.384736e+02
1.090000e-06	-6.590978e-07	-1.999581e-09	-5.595012e+00	-1.325812e+02
1.100000e-06	-5.694468e-07	-1.899919e-09	-4.833974e+00	-1.263529e+02
1.110000e-06	-4.797062e-07	-1.800926e-09	-4.072175e+00	-1.197556e+02
1.120000e-06	-3.898459e-07	-1.702069e-09	-3.309361e+00	-1.127571e+02
1.130000e-06	-2.998941e-07	-1.592469e-09	-2.545769e+00	-1.053282e+02
1.140000e-06	-2.098692e-07	-1.467197e-09	-1.781558e+00	-9.744395e+01
1.150000e-06	-1.197915e-07	-1.335934e-09	-1.016897e+00	-8.908586e+01
1.160000e-06	-2.968481e-08	-1.204350e-09	-2.519912e-01	-8.024313e+01
1.170000e-06	6.038500e-08	-1.064468e-09	5.126019e-01	-7.091417e+01
1.180000e-06	1.504157e-07	-9.125523e-10	1.276863e+00	-6.110767e+01
1.190000e-06	2.404241e-07	-7.541611e-10	2.040935e+00	-5.084334e+01
1.200000e-06	3.302902e-07	-5.921012e-10	2.803799e+00	-4.015220e+01
1.210000e-06	4.200221e-07	-4.259808e-10	3.565523e+00	-2.907644e+01
1.220000e-06	5.096725e-07	-2.552037e-10	4.326556e+00	-1.766882e+01
1.230000e-06	5.991750e-07	-7.991274e-11	5.086334e+00	-5.991535e+00
1.240000e-06	6.885301e-07	1.008157e-10	5.844860e+00	5.885206e+00
1.250000e-06	7.777020e-07	2.840278e-10	6.601830e+00	1.788509e+01
1.260000e-06	8.666178e-07	4.660647e-10	7.356627e+00	2.992778e+01
1.270000e-06	9.553434e-07	6.469455e-10	8.109810e+00	4.193129e+01
1.280000e-06	1.043867e-06	8.281281e-10	8.861273e+00	5.381428e+01
1.290000e-06	1.132223e-06	1.005600e-09	9.611320e+00	6.549850e+01
1.300000e-06	1.220366e-06	1.177011e-09	1.035956e+01	7.691092e+01
1.310000e-06	1.308239e-06	1.344926e-09	1.110550e+01	8.798573e+01
1.320000e-06	1.395958e-06	1.505790e-09	1.185014e+01	9.866601e+01
1.330000e-06	1.483463e-06	1.658701e-09	1.259296e+01	1.089049e+02
1.340000e-06	1.570628e-06	1.805685e-09	1.333290e+01	1.186665e+02
1.350000e-06	1.657551e-06	1.947938e-09	1.407078e+01	1.279261e+02
1.360000e-06	1.744286e-06	2.079884e-09	1.480706e+01	1.366703e+02
1.370000e-06	1.830798e-06	2.199332e-09	1.554145e+01	1.448961e+02
1.380000e-06	1.917105e-06	2.311332e-09	1.627410e+01	1.526104e+02
1.390000e-06	2.003111e-06	2.417734e-09	1.700420e+01	1.598286e+02
1.400000e-06	2.088783e-06	2.516161e-09	1.773146e+01	1.665730e+02
1.410000e-06	2.174103e-06	2.607190e-09	1.845573e+01	1.728713e+02
1.420000e-06	2.259023e-06	2.693252e-09	1.917661e+01	1.787552e+02
1.430000e-06	2.343556e-06	2.776626e-09	1.989420e+01	1.842583e+02
1.440000e-06	2.427747e-06	2.857642e-09	2.060889e+01	1.894149e+02
1.450000e-06	2.511658e-06	2.935119e-09	2.132120e+01	1.942586e+02
1.460000e-06	2.595260e-06	3.005643e-09	2.203089e+01	1.988210e+02
1.470000e-06	2.678462e-06	3.071497e-09	2.273718e+01	2.031313e+02
1.480000e-06	2.761213e-06	3.136112e-09	2.343964e+01	2.072150e+02
1.490000e-06	2.843515e-06	3.196938e-09	2.413830e+01	2.110946e+02
1.500000e-06	2.925309e-06	3.251209e-09	2.483264e+01	2.147886e+02
1.510000e-06	3.006523e-06	3.300657e-09	2.552206e+01	2.183122e+02
1.520000e-06	3.087184e-06	3.352677e-09	2.620678e+01	2.216777e+02
1.530000e-06	3.167293e-06	3.403643e-09	2.688682e+01	2.248947e+02
1.540000e-06	3.246825e-06	3.448339e-09	2.756196e+01	2.279712e+02
1.550000e-06	3.325694e-06	3.489550e-09	2.823147e+01	2.309134e+02
1.560000e-06	3.403826e-06	3.531980e-09	2.889472e+01	2.337270e+02
1.570000e-06	3.481297e-06	3.574048e-09	2.955236e+01	2.364174e+02
1.580000e-06	3.558130e-06	3.610561e-09	3.020459e+01	2.389901e+02
1.590000e-06	3.634291e-06	3.643527e-09	3.085111e+01	2.414508e+02
1.600000e-06	3.709793e-06	3.676078e-09	3.149204e+01	2.438059e+02
1.610000e-06	3.784502e-06	3.708440e-09	3.212624e+01	2.460622e+02
1.620000e-06	3.858292e-06	3.740383e-09	3.275264e+01	2.482269e+02
1.630000e-06	3.931186e-06	3.772308e-09	3.337142e+01	2.503076e+02
1.640000e-06	4.003285e-06	3.803367e-09	3.398347e+01	2.523117e+02
1.650000e-06	4.074705e-06	3.830896e-09	3.458975e+01	2.542464e+02
1.660000e-06	4.145475e-06	3.856631e-09	3.519050e+01	2.561181e+02
1.670000e-06	4.215540e-06	3.883318e-09	3.578527e+01	2.579326e+02
1.680000e-06	4.284836e-06	3.910110e-09	3.637352e+01	2.596945e+02
1.690000e-06	4.353429e-06	3.935347e-09	3.695580e+01	2.614074e+02
1.700000e-06	4.421403e-06	3.959042e-09	3.753282e+01	2.630737e+02
1.710000e-06	4.488748e-06	3.983137e-09	3.810451e+01	2.646946e+02
1.720000e-06	4.555306e-06	4.006925e-09	3.866952e+01	2.662705e+02
1.730000e-06	4.620853e-06	4.030357e-09	3.922593e+01	2.678007e+02
1.740000e-06	4.685373e-06	4.053627e-09	3.977364e+01	2.692844e+02
1.750000e-06	4.749114e-06	4.074961e-09	4.031473e+01	2.707203e+02
1.760000e-06	4.812173e-06	4.095624e-09	4.085003e+01	2.721073e+02
1.770000e-06	4.874488e-06	4.115613e-09	4.137902e+01	2.734445e+02
1.780000e-06	4.936014e-06	4.134532e-09	4.190130e+01	2.747315e+02
1.790000e-06	4.996745e-06	4.151703e-09	4.241684e+01	2.759688e+02
1.800000e-06	5.056771e-06	4.166951e-09	4.292640e+01	2.771576e+02
1.810000e-06	5.116095e-06	4.183649e-09	4.342999e+01	2.782998e+02
1.820000e-06	5.174434e-06	4.201540e-09	4.392522e+01	2.793982e+02
1.830000e-06	5.231530e-06	4.218688e-09	4.440991e+01	2.804560e+02
1.840000e-06	5.287556e-06	4.234797e-09	4.488551e+01	2.814770e+02
1.850000e-06	5.342754e-06	4.251090e-09	4.535408e+01	2.824650e+02
1.860000e-06	5.397110e-06	4.266931e-09	4.581550e+01	2.834241e+02
1.870000e-06	5.450521e-06	4.281031e-09	4.626890e+01	2.843577e+02
1.880000e-06	5.502937e-06	4.294332e-09	4.671385e+01	2.852691e+02
1.890000e-06	5.554214e-06	4.307776e-09	4.714914e+01	2.861606e+02
1.900000e-06	5.604181e-06	4.321045e-09	4.757331e+01	2.870341e+02
1.910000e-06	5.652816e-06	4.333783e-09	4.798616e+01	2.878902e+02
1.920000e-06	5.700311e-06	4.346498e-09	4.838934e+01	2.887293e+02
1.930000e-06	5.746852e-06	4.360128e-09	4.878442e+01	2.895506e+02
1.940000e-06	5.792452e-06	4.374683e-09	4.917152e+01	2.903528e+02
1.950000e-06	5.837070e-06	4.387532e-09	4.955027e+01	2.911343e+02
1.960000e-06	5.880804e-06	4.398681e-09	4.992152e+01	2.918932e+02
1.970000e-06	5.923551e-06	4.410411e-09	5.028440e+01	2.926276e+02
1.980000e-06	5.964961e-06	4.422847e-09	5.063593e+01	2.933358e+02
1.990000e-06	6.005124e-06	4.433499e-09	5.097686e+01	2.940164e+02
2.000000e-06	6.044282e-06	4.442401e-09	5.130928e+01	2.946685e+02
2.010000e-06	6.082456e-06	4.452491e-09	5.163333e+01	2.952917e+02
2.020000e-06	6.119678e-06	4.463146e-09	5.194931e+01	2.958864e+02
2.030000e-06	6.155968e-06	4.472513e-09	5.225737e+01	2.964533e+02
2.040000e-06	6.191347e-06	4.481120e-09	5.255770e+01	2.969938e+02
2.050000e-06	6.225608e-06	4.489622e-09	5.284854e+01	2.975096e+02
2.060000e-06	6.258491e-06	4.499345e-09	5.312767e+01	2.980027e+02
2.070000e-06	6.290217e-06	4.509129e-09	5.339699e+01	2.984750e+02
2.080000e-06	6.320952e-06	4.517702e-09	5.365789e+01	2.989285e+02
2.090000e-06	6.350663e-06	4.525959e-09	5.391011e+01	2.993649e+02
2.100000e-06	6.379359e-06	4.533967e-09	5.415371e+01	2.997856e+02
2.110000e-06	6.407088e-06	4.541303e-09	5.438910e+01	3.001912e+02
2.120000e-06	6.433821e-06	4.547158e-09	5.461603e+01	3.005823e+02
2.130000e-06	6.459199e-06	4.553582e-09	5.483146e+01	3.009588e+02
2.140000e-06	6.483203e-06	4.561583e-09	5.503523e+01	3.013200e+02
2.150000e-06	6.506081e-06	4.570063e-09	5.522944e+01	3.016652e+02
2.160000e-06	6.527854e-06	4.576396e-09	5.541427e+01	3.019931e+02
2.170000e-06	6.548566e-06	4.580499e-09	5.559009e+01	3.023025e+02
2.180000e-06	6.568355e-06	4.584666e-09	5.575807e+01	3.025923e+02
2.190000e-06	6.587196e-06	4.588646e-09	5.591801e+01	3.028614e+02
2.200000e-06	6.604813e-06	4.593832e-09	5.606757e+01	3.031090e+02
2.210000e-06	6.621170e-06	4.598404e-09	5.620642e+01	3.033347e+02
2.220000e-06	6.636296e-06	4.603344e-09	5.633482e+01	3.035385e+02
2.230000e-06	6.650117e-06	4.609467e-09	5.645214e+01	3.037207e+02
2.240000e-06	6.662728e-06	4.614108e-09	5.655920e+01	3.038818e+02
2.250000e-06	6.674141e-06	4.616915e-09	5.665608e+01	3.040230e+02
2.260000e-06	6.684046e-06	4.618945e-09	5.674017e+01	3.041451e+02
2.270000e-06	6.692471e-06	4.622490e-09	5.681169e+01	3.042492e+02
2.280000e-06	6.699739e-06	4.626368e-09	5.687338e+01	3.043365e+02
2.290000e-06	6.705881e-06	4.628339e-09	5.692552e+01	3.044078e+02
2.300000e-06	6.710846e-06	4.629268e-09	5.696767e+01	3.044636e+02
2.310000e-06	6.714825e-06	4.629778e-09	5.700144e+01	3.045042e+02
2.320000e-06	6.717814e-06	4.630786e-09	5.702681e+01	3.045296e+02
2.330000e-06	6.719394e-06	4.633111e-09	5.704023e+01	3.045395e+02
2.340000e-06	6.719544e-06	4.635508e-09	5.704150e+01	3.045335e+02
2.350000e-06	6.718579e-06	4.634370e-09	5.703331e+01	3.045109e+02
2.360000e-06	6.716595e-06	4.628169e-09	5.701647e+01	3.044712e+02
2.370000e-06	6.713511e-06	4.625568e-09	5.699029e+01	3.044140e+02
2.380000e-06	6.709468e-06	4.623596e-09	5.695597e+01	3.043395e+02
2.390000e-06	6.704476e-06	4.622512e-09	5.691359e+01	3.042480e+02
2.400000e-06	6.698129e-06	4.620816e-09	5.685971e+01	3.041405e+02
2.410000e-06	6.690451e-06	4.626046e-09	5.679454e+01	3.040188e+02
2.420000e-06	6.681801e-06	4.649879e-09	5.672110e+01	3.038848e+02
2.430000e-06	6.672175e-06	4.576448e-09	5.663940e+01	3.037414e+02
2.440000e-06	6.661175e-06	4.503027e-09	5.654601e+01	3.035916e+02
2.450000e-06	6.648217e-06	4.513334e-09	5.643602e+01	3.034387e+02
2.460000e-06	6.633277e-06	4.609417e-09	5.630919e+01	3.032858e+02
2.470000e-06	6.617257e-06	4.808266e-09	5.617320e+01	3.031358e+02
2.480000e-06	6.600907e-06	4.615210e-09	5.603441e+01	3.029912e+02
2.490000e-06	6.583745e-06	4.421474e-09	5.588872e+01	3.028533e+02
2.500000e-06	6.565076e-06	4.669394e-09	5.573024e+01	3.027227e+02
2.510000e-06	6.545468e-06	4.601103e-09	5.556379e+01	3.025987e+02
2.520000e-06	6.525346e-06	4.647334e-09	5.539298e+01	3.024792e+02
2.530000e-06	6.503704e-06	4.782943e-09	5.520926e+01	3.023612e+02
2.540000e-06	6.480341e-06	4.427152e-09	5.501093e+01	3.022399e+02
2.550000e-06	6.456104e-06	4.523365e-09	5.480519e+01	3.021099e+02
2.560000e-06	6.431029e-06	4.844055e-09	5.459233e+01	3.019649e+02
2.570000e-06	6.404885e-06	4.541006e-09	5.437040e+01	3.017981e+02
2.580000e-06	6.377610e-06	4.465005e-09	5.413886e+01	3.016026e+02
2.590000e-06	6.349390e-06	4.731360e-09	5.389931e+01	3.013717e+02
2.600000e-06	6.320231e-06	4.692010e-09	5.365178e+01	3.010994e+02
2.610000e-06	6.289490e-06	4.701546e-09	5.339082e+01	3.007809e+02
2.620000e-06	6.257282e-06	4.561405e-09	5.311741e+01	3.004125e+02
2.630000e-06	6.224186e-06	4.505263e-09	5.283646e+01	2.999920e+02
2.640000e-06	6.190040e-06	4.702867e-09	5.254660e+01	2.995191e+02
2.650000e-06	6.154713e-06	4.593186e-09	5.224672e+01	2.989949e+02
2.660000e-06	6.118456e-06	4.602995e-09	5.193893e+01	2.984223e+02
2.670000e-06	6.081053e-06	4.578195e-09	5.162142e+01	2.978054e+02
2.680000e-06	6.042119e-06	4.455803e-09	5.129091e+01	2.971494e+02
2.690000e-06	6.001977e-06	4.605307e-09	5.095015e+01	2.964604e+02
2.700000e-06	5.961056e-06	4.626333e-09	5.060278e+01	2.957444e+02
2.710000e-06	5.919083e-06	4.516113e-09	5.024647e+01	2.950076e+02
2.720000e-06	5.875880e-06	4.404783e-09	4.987973e+01	2.942554e+02
2.730000e-06	5.831816e-06	4.517051e-09	4.950567e+01	2.934925e+02
2.740000e-06	5.786877e-06	4.652520e-09	4.912420e+01	2.927220e+02
2.750000e-06	5.740874e-06	4.428249e-09	4.873368e+01	2.919458e+02
2.760000e-06	5.693852e-06	4.395784e-09	4.833451e+01	2.911642e+02
2.770000e-06	5.645870e-06	4.493057e-09	4.792720e+01	2.903756e+02
2.780000e-06	5.596838e-06	4.493120e-09	4.751097e+01	2.895773e+02
2.790000e-06	5.546614e-06	4.455658e-09	4.708462e+01	2.887653e+02
2.800000e-06	5.495420e-06	4.373739e-09	4.665005e+01	2.879345e+02
2.810000e-06	5.443371e-06	4.423979e-09	4.620820e+01	2.870796e+02
2.820000e-06	5.390191e-06	4.404307e-09	4.575677e+01	2.861949e+02
2.830000e-06	5.335711e-06	4.383181e-09	4.529429e+01	2.852752e+02
2.840000e-06	5.280103e-06	4.389920e-09	4.482224e+01	2.843159e+02
2.850000e-06	5.223640e-06	4.326634e-09	4.434293e+01	2.833136e+02
2.860000e-06	5.166354e-06	4.323617e-09	4.385664e+01	2.822659e+02
2.870000e-06	5.108173e-06	4.320944e-09	4.336274e+01	2.811722e+02
2.880000e-06	5.049119e-06	4.330903e-09	4.286144e+01	2.800330e+02
2.890000e-06	4.989297e-06	4.266587e-09	4.235362e+01	2.788503e+02
2.900000e-06	4.928761e-06	4.221521e-09	4.183974e+01	2.776272e+02
2.910000e-06	4.867361e-06	4.266642e-09	4.131852e+01	2.763679e+02
2.920000e-06	4.804901e-06	4.241936e-09	4.078830e+01	2.750768e+02
2.930000e-06	4.741407e-06	4.184299e-09	4.024930e+01	2.737586e+02
2.940000e-06	4.677097e-06	4.162594e-09	3.970339e+01	2.724174e+02
2.950000e-06	4.612064e-06	4.186531e-09	3.915133e+01	2.710569e+02
