# Temperatura_=_20.0
# Concentracion g/m^3_=_9000.0
# C_Vs_to_Am_M_A/Vsm_=_65563218390.804596
# pendiente_HvsI_1/m_=_3716.3
# ordenada_HvsI_A/m_=_1297.0
# frecuencia_Hz_=_212910.71696045966

Tiempo_(s)	Campo_(V.s)	Magnetizacion_(V.s)	Campo_(kA/m)	Magnetizacion_(A/m)
0.000000e+00	-6.705728e-06	-4.561941e-09	-5.695763e+01	-3.008761e+02
1.000000e-08	-6.704359e-06	-4.562124e-09	-5.694600e+01	-3.008273e+02
2.000000e-08	-6.701577e-06	-4.562497e-09	-5.692237e+01	-3.007709e+02
3.000000e-08	-6.697714e-06	-4.563058e-09	-5.688956e+01	-3.007075e+02
4.000000e-08	-6.692891e-06	-4.564879e-09	-5.684860e+01	-3.006374e+02
5.000000e-08	-6.686979e-06	-4.565879e-09	-5.679838e+01	-3.005603e+02
6.000000e-08	-6.680034e-06	-4.562176e-09	-5.673939e+01	-3.004756e+02
7.000000e-08	-6.672115e-06	-4.557428e-09	-5.667213e+01	-3.003824e+02
8.000000e-08	-6.662972e-06	-4.547730e-09	-5.659446e+01	-3.002792e+02
9.000000e-08	-6.652190e-06	-4.571242e-09	-5.650288e+01	-3.001647e+02
1.000000e-07	-6.639795e-06	-4.604474e-09	-5.639760e+01	-3.000372e+02
1.100000e-07	-6.625839e-06	-4.591954e-09	-5.627906e+01	-2.998949e+02
1.200000e-07	-6.610374e-06	-4.570320e-09	-5.614771e+01	-2.997362e+02
1.300000e-07	-6.593741e-06	-4.479354e-09	-5.600643e+01	-2.995592e+02
1.400000e-07	-6.576193e-06	-4.480474e-09	-5.585737e+01	-2.993625e+02
1.500000e-07	-6.557732e-06	-4.625276e-09	-5.570057e+01	-2.991444e+02
1.600000e-07	-6.538412e-06	-4.539598e-09	-5.553647e+01	-2.989035e+02
1.700000e-07	-6.518223e-06	-4.502340e-09	-5.536498e+01	-2.986386e+02
1.800000e-07	-6.496792e-06	-4.538118e-09	-5.518296e+01	-2.983486e+02
1.900000e-07	-6.474253e-06	-4.423512e-09	-5.499151e+01	-2.980327e+02
2.000000e-07	-6.450967e-06	-4.512086e-09	-5.479372e+01	-2.976901e+02
2.100000e-07	-6.426550e-06	-4.623192e-09	-5.458633e+01	-2.973203e+02
2.200000e-07	-6.400617e-06	-4.454885e-09	-5.436605e+01	-2.969234e+02
2.300000e-07	-6.373462e-06	-4.437020e-09	-5.413540e+01	-2.964993e+02
2.400000e-07	-6.345332e-06	-4.584696e-09	-5.389647e+01	-2.960485e+02
2.500000e-07	-6.316128e-06	-4.586478e-09	-5.364842e+01	-2.955718e+02
2.600000e-07	-6.285874e-06	-4.576974e-09	-5.339144e+01	-2.950704e+02
2.700000e-07	-6.254583e-06	-4.472598e-09	-5.312566e+01	-2.945455e+02
2.800000e-07	-6.222259e-06	-4.440934e-09	-5.285110e+01	-2.939991e+02
2.900000e-07	-6.188761e-06	-4.561806e-09	-5.256658e+01	-2.934329e+02
3.000000e-07	-6.153901e-06	-4.552719e-09	-5.227048e+01	-2.928492e+02
3.100000e-07	-6.117780e-06	-4.472088e-09	-5.196367e+01	-2.922501e+02
3.200000e-07	-6.080515e-06	-4.433915e-09	-5.164714e+01	-2.916377e+02
3.300000e-07	-6.042213e-06	-4.439742e-09	-5.132182e+01	-2.910140e+02
3.400000e-07	-6.003030e-06	-4.486842e-09	-5.098900e+01	-2.903806e+02
3.500000e-07	-5.962834e-06	-4.505763e-09	-5.064758e+01	-2.897386e+02
3.600000e-07	-5.921307e-06	-4.412993e-09	-5.029485e+01	-2.890888e+02
3.700000e-07	-5.878464e-06	-4.341021e-09	-4.993095e+01	-2.884311e+02
3.800000e-07	-5.834570e-06	-4.442062e-09	-4.955812e+01	-2.877648e+02
3.900000e-07	-5.789625e-06	-4.488166e-09	-4.917637e+01	-2.870887e+02
4.000000e-07	-5.743617e-06	-4.372046e-09	-4.878557e+01	-2.864006e+02
4.100000e-07	-5.696731e-06	-4.331081e-09	-4.838734e+01	-2.856979e+02
4.200000e-07	-5.648905e-06	-4.379525e-09	-4.798111e+01	-2.849775e+02
4.300000e-07	-5.599852e-06	-4.398626e-09	-4.756445e+01	-2.842359e+02
4.400000e-07	-5.549412e-06	-4.362454e-09	-4.713602e+01	-2.834696e+02
4.500000e-07	-5.497707e-06	-4.309757e-09	-4.669685e+01	-2.826751e+02
4.600000e-07	-5.444993e-06	-4.304204e-09	-4.624910e+01	-2.818491e+02
4.700000e-07	-5.391341e-06	-4.326540e-09	-4.579339e+01	-2.809887e+02
4.800000e-07	-5.336814e-06	-4.326219e-09	-4.533024e+01	-2.800919e+02
4.900000e-07	-5.281500e-06	-4.269116e-09	-4.486041e+01	-2.791572e+02
5.000000e-07	-5.225274e-06	-4.227937e-09	-4.438283e+01	-2.781841e+02
5.100000e-07	-5.168011e-06	-4.252181e-09	-4.389645e+01	-2.771727e+02
5.200000e-07	-5.109761e-06	-4.262373e-09	-4.340168e+01	-2.761242e+02
5.300000e-07	-5.050555e-06	-4.224457e-09	-4.289879e+01	-2.750404e+02
5.400000e-07	-4.990447e-06	-4.170552e-09	-4.238825e+01	-2.739235e+02
5.500000e-07	-4.929614e-06	-4.165572e-09	-4.187153e+01	-2.727762e+02
5.600000e-07	-4.868019e-06	-4.196000e-09	-4.134835e+01	-2.716014e+02
5.700000e-07	-4.805629e-06	-4.175462e-09	-4.081842e+01	-2.704017e+02
5.800000e-07	-4.742472e-06	-4.110242e-09	-4.028197e+01	-2.691793e+02
5.900000e-07	-4.678443e-06	-4.085877e-09	-3.973812e+01	-2.679358e+02
6.000000e-07	-4.613464e-06	-4.113670e-09	-3.918620e+01	-2.666722e+02
6.100000e-07	-4.547570e-06	-4.105050e-09	-3.862650e+01	-2.653882e+02
6.200000e-07	-4.480782e-06	-4.042679e-09	-3.805922e+01	-2.640828e+02
6.300000e-07	-4.413119e-06	-4.002399e-09	-3.748449e+01	-2.627539e+02
6.400000e-07	-4.344780e-06	-4.007457e-09	-3.690402e+01	-2.613985e+02
6.500000e-07	-4.275797e-06	-4.012072e-09	-3.631809e+01	-2.600129e+02
6.600000e-07	-4.205993e-06	-3.977710e-09	-3.572519e+01	-2.585929e+02
6.700000e-07	-4.135462e-06	-3.925450e-09	-3.512611e+01	-2.571338e+02
6.800000e-07	-4.064397e-06	-3.904191e-09	-3.452249e+01	-2.556311e+02
6.900000e-07	-3.992624e-06	-3.911244e-09	-3.391286e+01	-2.540806e+02
7.000000e-07	-3.919864e-06	-3.895677e-09	-3.329484e+01	-2.524785e+02
7.100000e-07	-3.846127e-06	-3.841325e-09	-3.266853e+01	-2.508219e+02
7.200000e-07	-3.771533e-06	-3.797448e-09	-3.203494e+01	-2.491086e+02
7.300000e-07	-3.696146e-06	-3.794617e-09	-3.139461e+01	-2.473376e+02
7.400000e-07	-3.620032e-06	-3.787660e-09	-3.074811e+01	-2.455089e+02
7.500000e-07	-3.543239e-06	-3.741822e-09	-3.009584e+01	-2.436231e+02
7.600000e-07	-3.465714e-06	-3.688594e-09	-2.943735e+01	-2.416819e+02
7.700000e-07	-3.387461e-06	-3.665423e-09	-2.877268e+01	-2.396872e+02
7.800000e-07	-3.308635e-06	-3.658543e-09	-2.810314e+01	-2.376411e+02
7.900000e-07	-3.229125e-06	-3.625599e-09	-2.742779e+01	-2.355458e+02
8.000000e-07	-3.148818e-06	-3.571647e-09	-2.674567e+01	-2.334027e+02
8.100000e-07	-3.068005e-06	-3.533843e-09	-2.605925e+01	-2.312125e+02
8.200000e-07	-2.986751e-06	-3.515297e-09	-2.536909e+01	-2.289750e+02
8.300000e-07	-2.904956e-06	-3.487634e-09	-2.467434e+01	-2.266885e+02
8.400000e-07	-2.822725e-06	-3.437715e-09	-2.397588e+01	-2.243502e+02
8.500000e-07	-2.740147e-06	-3.390810e-09	-2.327447e+01	-2.219558e+02
8.600000e-07	-2.657283e-06	-3.362878e-09	-2.257063e+01	-2.194997e+02
8.700000e-07	-2.574122e-06	-3.336149e-09	-2.186428e+01	-2.169755e+02
8.800000e-07	-2.490498e-06	-3.290088e-09	-2.115399e+01	-2.143759e+02
8.900000e-07	-2.406386e-06	-3.234040e-09	-2.043955e+01	-2.116930e+02
9.000000e-07	-2.322006e-06	-3.190858e-09	-1.972284e+01	-2.089192e+02
9.100000e-07	-2.237425e-06	-3.156848e-09	-1.900441e+01	-2.060469e+02
9.200000e-07	-2.152578e-06	-3.111584e-09	-1.828374e+01	-2.030693e+02
9.300000e-07	-2.067364e-06	-3.052270e-09	-1.755994e+01	-1.999803e+02
9.400000e-07	-1.981738e-06	-2.998360e-09	-1.683264e+01	-1.967748e+02
9.500000e-07	-1.895764e-06	-2.956278e-09	-1.610239e+01	-1.934489e+02
9.600000e-07	-1.809424e-06	-2.906499e-09	-1.536902e+01	-1.899992e+02
9.700000e-07	-1.722810e-06	-2.841603e-09	-1.463333e+01	-1.864232e+02
9.800000e-07	-1.635986e-06	-2.777510e-09	-1.389587e+01	-1.827182e+02
9.900000e-07	-1.548934e-06	-2.724580e-09	-1.315646e+01	-1.788812e+02
1.000000e-06	-1.461627e-06	-2.672573e-09	-1.241488e+01	-1.749082e+02
1.010000e-06	-1.374013e-06	-2.606842e-09	-1.167070e+01	-1.707934e+02
1.020000e-06	-1.286095e-06	-2.534499e-09	-1.092393e+01	-1.665283e+02
1.030000e-06	-1.197898e-06	-2.468343e-09	-1.017480e+01	-1.621018e+02
1.040000e-06	-1.109410e-06	-2.403818e-09	-9.423192e+00	-1.574989e+02
1.050000e-06	-1.020657e-06	-2.329484e-09	-8.669337e+00	-1.527010e+02
1.060000e-06	-9.316943e-07	-2.242896e-09	-7.913697e+00	-1.476857e+02
1.070000e-06	-8.425401e-07	-2.156084e-09	-7.156432e+00	-1.424265e+02
1.080000e-06	-7.532052e-07	-2.075305e-09	-6.397632e+00	-1.368940e+02
1.090000e-06	-6.636734e-07	-1.991577e-09	-5.637160e+00	-1.310562e+02
1.100000e-06	-5.739629e-07	-1.895285e-09	-4.875170e+00	-1.248798e+02
1.110000e-06	-4.841586e-07	-1.790274e-09	-4.112384e+00	-1.183312e+02
1.120000e-06	-3.942851e-07	-1.686943e-09	-3.349009e+00	-1.113781e+02
1.130000e-06	-3.043290e-07	-1.581283e-09	-2.584933e+00	-1.039915e+02
1.140000e-06	-2.143474e-07	-1.461206e-09	-1.820641e+00	-9.614677e+01
1.150000e-06	-1.243780e-07	-1.328341e-09	-1.056452e+00	-8.782570e+01
1.160000e-06	-3.438532e-08	-1.192968e-09	-2.920647e-01	-7.901800e+01
1.170000e-06	5.562305e-08	-1.056394e-09	4.724553e-01	-6.972255e+01
1.180000e-06	1.455793e-07	-9.101826e-10	1.236532e+00	-5.994853e+01
1.190000e-06	2.355573e-07	-7.517920e-10	2.000795e+00	-4.971605e+01
1.200000e-06	3.254897e-07	-5.869435e-10	2.764669e+00	-3.905652e+01
1.210000e-06	4.152681e-07	-4.198396e-10	3.527236e+00	-2.801239e+01
1.220000e-06	5.049083e-07	-2.503535e-10	4.288629e+00	-1.663661e+01
1.230000e-06	5.943970e-07	-7.234655e-11	5.048735e+00	-4.991558e+00
1.240000e-06	6.837590e-07	1.117801e-10	5.807765e+00	6.852470e+00
1.250000e-06	7.729553e-07	2.964543e-10	6.565387e+00	1.881904e+01
1.260000e-06	8.619613e-07	4.791132e-10	7.321394e+00	3.082769e+01
1.270000e-06	9.507230e-07	6.591017e-10	8.075324e+00	4.279623e+01
1.280000e-06	1.039257e-06	8.403531e-10	8.827324e+00	5.464307e+01
1.290000e-06	1.127616e-06	1.018053e-09	9.577829e+00	6.628961e+01
1.300000e-06	1.215790e-06	1.189304e-09	1.032677e+01	7.766238e+01
1.310000e-06	1.303758e-06	1.355177e-09	1.107396e+01	8.869511e+01
1.320000e-06	1.391404e-06	1.517119e-09	1.181841e+01	9.933033e+01
1.330000e-06	1.478776e-06	1.671796e-09	1.256054e+01	1.095207e+02
1.340000e-06	1.565906e-06	1.818274e-09	1.330062e+01	1.192298e+02
1.350000e-06	1.652792e-06	1.958239e-09	1.403861e+01	1.284326e+02
1.360000e-06	1.739469e-06	2.090588e-09	1.477484e+01	1.371155e+02
1.370000e-06	1.825935e-06	2.211117e-09	1.550927e+01	1.452756e+02
1.380000e-06	1.912186e-06	2.320206e-09	1.624187e+01	1.529200e+02
1.390000e-06	1.998152e-06	2.424096e-09	1.697205e+01	1.600644e+02
1.400000e-06	2.083811e-06	2.521537e-09	1.769964e+01	1.667320e+02
1.410000e-06	2.169091e-06	2.613358e-09	1.842400e+01	1.729515e+02
1.420000e-06	2.253967e-06	2.700532e-09	1.914492e+01	1.787556e+02
1.430000e-06	2.338527e-06	2.782384e-09	1.986316e+01	1.841790e+02
1.440000e-06	2.422804e-06	2.860960e-09	2.057900e+01	1.892574e+02
1.450000e-06	2.506759e-06	2.938231e-09	2.129210e+01	1.940254e+02
1.460000e-06	2.590335e-06	3.008709e-09	2.200199e+01	1.985158e+02
1.470000e-06	2.673470e-06	3.071915e-09	2.270813e+01	2.027583e+02
1.480000e-06	2.756148e-06	3.132951e-09	2.341039e+01	2.067792e+02
1.490000e-06	2.838379e-06	3.191476e-09	2.410885e+01	2.106006e+02
1.500000e-06	2.920107e-06	3.246506e-09	2.480303e+01	2.142410e+02
1.510000e-06	3.001272e-06	3.297685e-09	2.549244e+01	2.177147e+02
1.520000e-06	3.081893e-06	3.346720e-09	2.617722e+01	2.210331e+02
1.530000e-06	3.161933e-06	3.394837e-09	2.685707e+01	2.242043e+02
1.540000e-06	3.241362e-06	3.440771e-09	2.753173e+01	2.272346e+02
1.550000e-06	3.320183e-06	3.483868e-09	2.820122e+01	2.301285e+02
1.560000e-06	3.398318e-06	3.523740e-09	2.886490e+01	2.328901e+02
1.570000e-06	3.475759e-06	3.562653e-09	2.952267e+01	2.355231e+02
1.580000e-06	3.552578e-06	3.599297e-09	3.017516e+01	2.380315e+02
1.590000e-06	3.628815e-06	3.634001e-09	3.082271e+01	2.404203e+02
1.600000e-06	3.704379e-06	3.667527e-09	3.146454e+01	2.426953e+02
1.610000e-06	3.779126e-06	3.697188e-09	3.209943e+01	2.448634e+02
1.620000e-06	3.852997e-06	3.725557e-09	3.272688e+01	2.469324e+02
1.630000e-06	3.925974e-06	3.755273e-09	3.334674e+01	2.489110e+02
1.640000e-06	3.998074e-06	3.785189e-09	3.395915e+01	2.508082e+02
1.650000e-06	4.069372e-06	3.812586e-09	3.456474e+01	2.526332e+02
1.660000e-06	4.140033e-06	3.837075e-09	3.516493e+01	2.543949e+02
1.670000e-06	4.210098e-06	3.862107e-09	3.576005e+01	2.561016e+02
1.680000e-06	4.279426e-06	3.889768e-09	3.634892e+01	2.577605e+02
1.690000e-06	4.348036e-06	3.916480e-09	3.693168e+01	2.593775e+02
1.700000e-06	4.416007e-06	3.938891e-09	3.750902e+01	2.609570e+02
1.710000e-06	4.483308e-06	3.959605e-09	3.808067e+01	2.625020e+02
1.720000e-06	4.549813e-06	3.983081e-09	3.864555e+01	2.640139e+02
1.730000e-06	4.615366e-06	4.007261e-09	3.920235e+01	2.654926e+02
1.740000e-06	4.679917e-06	4.029378e-09	3.975064e+01	2.669372e+02
1.750000e-06	4.743606e-06	4.048584e-09	4.029161e+01	2.683456e+02
1.760000e-06	4.806608e-06	4.068261e-09	4.082674e+01	2.697153e+02
1.770000e-06	4.868925e-06	4.090163e-09	4.135605e+01	2.710437e+02
1.780000e-06	4.930453e-06	4.110069e-09	4.187866e+01	2.723284e+02
1.790000e-06	4.991179e-06	4.127405e-09	4.239446e+01	2.735675e+02
1.800000e-06	5.051171e-06	4.142772e-09	4.290403e+01	2.747596e+02
1.810000e-06	5.110429e-06	4.160008e-09	4.340736e+01	2.759046e+02
1.820000e-06	5.168778e-06	4.177657e-09	4.390297e+01	2.770031e+02
1.830000e-06	5.226021e-06	4.193224e-09	4.438918e+01	2.780567e+02
1.840000e-06	5.282113e-06	4.207908e-09	4.486562e+01	2.790681e+02
1.850000e-06	5.337283e-06	4.222689e-09	4.533422e+01	2.800406e+02
1.860000e-06	5.391622e-06	4.240008e-09	4.579577e+01	2.809780e+02
1.870000e-06	5.445013e-06	4.257108e-09	4.624927e+01	2.818843e+02
1.880000e-06	5.497393e-06	4.271304e-09	4.669418e+01	2.827637e+02
1.890000e-06	5.548645e-06	4.284175e-09	4.712950e+01	2.836198e+02
1.900000e-06	5.598665e-06	4.298406e-09	4.755437e+01	2.844561e+02
1.910000e-06	5.647339e-06	4.311955e-09	4.796781e+01	2.852749e+02
1.920000e-06	5.694877e-06	4.323230e-09	4.837159e+01	2.860780e+02
1.930000e-06	5.741504e-06	4.335421e-09	4.876763e+01	2.868663e+02
1.940000e-06	5.787150e-06	4.347987e-09	4.915534e+01	2.876396e+02
1.950000e-06	5.831785e-06	4.359680e-09	4.953446e+01	2.883972e+02
1.960000e-06	5.875462e-06	4.370947e-09	4.990545e+01	2.891375e+02
1.970000e-06	5.918231e-06	4.383109e-09	5.026872e+01	2.898585e+02
1.980000e-06	5.959830e-06	4.395961e-09	5.062206e+01	2.905579e+02
1.990000e-06	6.000103e-06	4.407391e-09	5.096414e+01	2.912336e+02
2.000000e-06	6.039326e-06	4.416620e-09	5.129730e+01	2.918834e+02
2.010000e-06	6.077616e-06	4.425001e-09	5.162253e+01	2.925056e+02
2.020000e-06	6.114888e-06	4.433555e-09	5.193911e+01	2.930991e+02
2.030000e-06	6.151120e-06	4.441809e-09	5.224686e+01	2.936634e+02
2.040000e-06	6.186392e-06	4.450071e-09	5.254645e+01	2.941988e+02
2.050000e-06	6.220652e-06	4.459104e-09	5.283746e+01	2.947061e+02
2.060000e-06	6.253599e-06	4.470055e-09	5.311730e+01	2.951868e+02
2.070000e-06	6.285310e-06	4.481648e-09	5.338665e+01	2.956429e+02
2.080000e-06	6.316057e-06	4.491346e-09	5.364781e+01	2.960768e+02
2.090000e-06	6.345817e-06	4.498622e-09	5.390059e+01	2.964910e+02
2.100000e-06	6.374581e-06	4.506098e-09	5.414491e+01	2.968880e+02
2.110000e-06	6.402325e-06	4.514564e-09	5.438056e+01	2.972699e+02
2.120000e-06	6.429002e-06	4.520569e-09	5.460715e+01	2.976386e+02
2.130000e-06	6.454411e-06	4.525064e-09	5.482297e+01	2.979955e+02
2.140000e-06	6.478424e-06	4.531422e-09	5.502693e+01	2.983413e+02
2.150000e-06	6.501299e-06	4.540190e-09	5.522124e+01	2.986760e+02
2.160000e-06	6.523154e-06	4.547863e-09	5.540687e+01	2.989992e+02
2.170000e-06	6.543983e-06	4.552694e-09	5.558379e+01	2.993096e+02
2.180000e-06	6.563820e-06	4.556940e-09	5.575228e+01	2.996058e+02
2.190000e-06	6.582648e-06	4.562270e-09	5.591220e+01	2.998858e+02
2.200000e-06	6.600299e-06	4.569076e-09	5.606213e+01	3.001476e+02
2.210000e-06	6.616672e-06	4.574812e-09	5.620120e+01	3.003891e+02
2.220000e-06	6.631817e-06	4.578323e-09	5.632984e+01	3.006083e+02
2.230000e-06	6.645737e-06	4.582548e-09	5.644808e+01	3.008038e+02
2.240000e-06	6.658447e-06	4.586124e-09	5.655603e+01	3.009744e+02
2.250000e-06	6.669910e-06	4.587539e-09	5.665339e+01	3.011194e+02
2.260000e-06	6.679929e-06	4.589351e-09	5.673850e+01	3.012389e+02
2.270000e-06	6.688425e-06	4.591847e-09	5.681066e+01	3.013334e+02
2.280000e-06	6.695739e-06	4.597381e-09	5.687278e+01	3.014039e+02
2.290000e-06	6.701959e-06	4.601752e-09	5.692562e+01	3.014521e+02
2.300000e-06	6.707016e-06	4.603810e-09	5.696857e+01	3.014798e+02
2.310000e-06	6.711018e-06	4.605925e-09	5.700256e+01	3.014893e+02
2.320000e-06	6.713907e-06	4.608777e-09	5.702710e+01	3.014826e+02
2.330000e-06	6.715433e-06	4.612358e-09	5.704006e+01	3.014622e+02
2.340000e-06	6.715602e-06	4.612237e-09	5.704150e+01	3.014301e+02
2.350000e-06	6.714666e-06	4.609386e-09	5.703355e+01	3.013880e+02
2.360000e-06	6.712632e-06	4.606251e-09	5.701627e+01	3.013375e+02
2.370000e-06	6.709544e-06	4.604815e-09	5.699004e+01	3.012796e+02
2.380000e-06	6.705503e-06	4.603418e-09	5.695572e+01	3.012148e+02
2.390000e-06	6.700462e-06	4.600887e-09	5.691290e+01	3.011432e+02
2.400000e-06	6.694236e-06	4.598965e-09	5.686002e+01	3.010646e+02
2.410000e-06	6.686701e-06	4.599877e-09	5.679602e+01	3.009783e+02
2.420000e-06	6.678103e-06	4.604230e-09	5.672299e+01	3.008831e+02
2.430000e-06	6.668581e-06	4.592798e-09	5.664210e+01	3.007777e+02
2.440000e-06	6.657704e-06	4.532470e-09	5.654972e+01	3.006607e+02
2.450000e-06	6.644961e-06	4.539424e-09	5.644148e+01	3.005302e+02
2.460000e-06	6.630239e-06	4.551796e-09	5.631644e+01	3.003847e+02
2.470000e-06	6.614261e-06	4.648171e-09	5.618072e+01	3.002224e+02
2.480000e-06	6.597827e-06	4.668125e-09	5.604113e+01	3.000416e+02
2.490000e-06	6.580722e-06	4.498092e-09	5.589584e+01	2.998406e+02
2.500000e-06	6.562280e-06	4.593129e-09	5.573920e+01	2.996180e+02
2.510000e-06	6.542694e-06	4.601380e-09	5.557284e+01	2.993723e+02
2.520000e-06	6.522455e-06	4.520799e-09	5.540093e+01	2.991024e+02
2.530000e-06	6.500888e-06	4.706436e-09	5.521774e+01	2.988073e+02
2.540000e-06	6.477618e-06	4.664348e-09	5.502009e+01	2.984859e+02
2.550000e-06	6.453350e-06	4.499023e-09	5.481396e+01	2.981379e+02
2.560000e-06	6.428293e-06	4.665968e-09	5.460113e+01	2.977626e+02
2.570000e-06	6.402182e-06	4.681073e-09	5.437934e+01	2.973602e+02
2.580000e-06	6.374929e-06	4.496555e-09	5.414786e+01	2.969306e+02
2.590000e-06	6.346633e-06	4.503496e-09	5.390752e+01	2.964745e+02
2.600000e-06	6.317356e-06	4.470060e-09	5.365885e+01	2.959927e+02
2.610000e-06	6.286772e-06	4.537641e-09	5.339907e+01	2.954864e+02
2.620000e-06	6.254759e-06	4.580081e-09	5.312715e+01	2.949570e+02
2.630000e-06	6.221703e-06	4.423461e-09	5.284638e+01	2.944063e+02
2.640000e-06	6.187543e-06	4.464122e-09	5.255623e+01	2.938364e+02
2.650000e-06	6.152156e-06	4.478436e-09	5.225565e+01	2.932494e+02
2.660000e-06	6.115824e-06	4.470140e-09	5.194706e+01	2.926474e+02
2.670000e-06	6.078409e-06	4.533235e-09	5.162926e+01	2.920325e+02
2.680000e-06	6.039605e-06	4.408350e-09	5.129966e+01	2.914067e+02
2.690000e-06	5.999555e-06	4.372488e-09	5.095949e+01	2.907714e+02
2.700000e-06	5.958604e-06	4.470628e-09	5.061165e+01	2.901278e+02
2.710000e-06	5.916658e-06	4.489764e-09	5.025536e+01	2.894763e+02
2.720000e-06	5.873570e-06	4.400340e-09	4.988938e+01	2.888169e+02
2.730000e-06	5.829617e-06	4.316735e-09	4.951605e+01	2.881487e+02
2.740000e-06	5.784830e-06	4.424324e-09	4.913563e+01	2.874703e+02
2.750000e-06	5.738984e-06	4.438884e-09	4.874623e+01	2.867794e+02
2.760000e-06	5.691997e-06	4.345773e-09	4.834712e+01	2.860734e+02
2.770000e-06	5.643954e-06	4.323972e-09	4.793905e+01	2.853489e+02
2.780000e-06	5.595005e-06	4.323470e-09	4.752328e+01	2.846026e+02
2.790000e-06	5.545009e-06	4.372047e-09	4.709863e+01	2.838309e+02
2.800000e-06	5.493942e-06	4.330765e-09	4.666486e+01	2.830303e+02
2.810000e-06	5.441964e-06	4.279946e-09	4.622337e+01	2.821975e+02
2.820000e-06	5.388864e-06	4.281449e-09	4.577235e+01	2.813300e+02
2.830000e-06	5.334559e-06	4.280239e-09	4.531109e+01	2.804256e+02
2.840000e-06	5.279191e-06	4.303359e-09	4.484080e+01	2.794832e+02
2.850000e-06	5.222805e-06	4.251726e-09	4.436186e+01	2.785023e+02
2.860000e-06	5.165533e-06	4.207552e-09	4.387540e+01	2.774833e+02
2.870000e-06	5.107405e-06	4.208308e-09	4.338167e+01	2.764275e+02
2.880000e-06	5.048477e-06	4.232685e-09	4.288115e+01	2.753367e+02
2.890000e-06	4.988785e-06	4.219663e-09	4.237413e+01	2.742135e+02
2.900000e-06	4.928266e-06	4.139271e-09	4.186009e+01	2.730604e+02
2.910000e-06	4.866865e-06	4.130251e-09	4.133856e+01	2.718804e+02
2.920000e-06	4.804480e-06	4.158629e-09	4.080867e+01	2.706759e+02
2.930000e-06	4.741128e-06	4.146383e-09	4.027056e+01	2.694491e+02
2.940000e-06	4.676844e-06	4.084016e-09	3.972454e+01	2.682015e+02
2.950000e-06	4.611757e-06	4.053302e-09	3.917169e+01	2.669337e+02
