# Temperatura_=_20.0
# Concentracion g/m^3_=_12600.0
# C_Vs_to_Am_M_A/Vsm_=_65563218390.804596
# pendiente_HvsI_1/m_=_3716.3
# ordenada_HvsI_A/m_=_1297.0
# frecuencia_Hz_=_135331.0510226327

Tiempo_(s)	Campo_(V.s)	Magnetizacion_(V.s)	Campo_(kA/m)	Magnetizacion_(A/m)
0.000000e+00	-6.507670e-06	-6.054373e-09	-4.775436e+01	-3.973157e+02
1.000000e-08	-6.507974e-06	-6.055107e-09	-4.775659e+01	-3.973978e+02
2.000000e-08	-6.507976e-06	-6.054987e-09	-4.775660e+01	-3.974542e+02
3.000000e-08	-6.507505e-06	-6.049079e-09	-4.775315e+01	-3.974821e+02
4.000000e-08	-6.506430e-06	-6.044446e-09	-4.774526e+01	-3.974788e+02
5.000000e-08	-6.504792e-06	-6.043560e-09	-4.773324e+01	-3.974420e+02
6.000000e-08	-6.502499e-06	-6.041448e-09	-4.771641e+01	-3.973699e+02
7.000000e-08	-6.499497e-06	-6.041070e-09	-4.769438e+01	-3.972611e+02
8.000000e-08	-6.496015e-06	-6.066961e-09	-4.766883e+01	-3.971146e+02
9.000000e-08	-6.492119e-06	-6.084560e-09	-4.764024e+01	-3.969300e+02
1.000000e-07	-6.487684e-06	-6.035036e-09	-4.760769e+01	-3.967078e+02
1.100000e-07	-6.482681e-06	-5.949485e-09	-4.757098e+01	-3.964489e+02
1.200000e-07	-6.477188e-06	-5.996165e-09	-4.753067e+01	-3.961548e+02
1.300000e-07	-6.471294e-06	-6.097762e-09	-4.748742e+01	-3.958278e+02
1.400000e-07	-6.465070e-06	-6.108010e-09	-4.744175e+01	-3.954708e+02
1.500000e-07	-6.458470e-06	-5.928215e-09	-4.739332e+01	-3.950871e+02
1.600000e-07	-6.451395e-06	-5.928115e-09	-4.734140e+01	-3.946807e+02
1.700000e-07	-6.443910e-06	-6.024743e-09	-4.728648e+01	-3.942558e+02
1.800000e-07	-6.436100e-06	-6.020675e-09	-4.722916e+01	-3.938170e+02
1.900000e-07	-6.428057e-06	-6.047195e-09	-4.717014e+01	-3.933694e+02
2.000000e-07	-6.419760e-06	-5.999906e-09	-4.710926e+01	-3.929177e+02
2.100000e-07	-6.410969e-06	-5.993029e-09	-4.704475e+01	-3.924670e+02
2.200000e-07	-6.401575e-06	-6.001364e-09	-4.697582e+01	-3.920222e+02
2.300000e-07	-6.391444e-06	-6.142216e-09	-4.690147e+01	-3.915877e+02
2.400000e-07	-6.380497e-06	-6.073134e-09	-4.682114e+01	-3.911680e+02
2.500000e-07	-6.369065e-06	-6.025169e-09	-4.673725e+01	-3.907668e+02
2.600000e-07	-6.357185e-06	-6.131202e-09	-4.665007e+01	-3.903873e+02
2.700000e-07	-6.344620e-06	-6.273008e-09	-4.655787e+01	-3.900323e+02
2.800000e-07	-6.331460e-06	-6.110169e-09	-4.646130e+01	-3.897035e+02
2.900000e-07	-6.317886e-06	-5.962761e-09	-4.636169e+01	-3.894022e+02
3.000000e-07	-6.303961e-06	-6.117768e-09	-4.625951e+01	-3.891288e+02
3.100000e-07	-6.289408e-06	-6.283802e-09	-4.615271e+01	-3.888828e+02
3.200000e-07	-6.274112e-06	-6.089908e-09	-4.604047e+01	-3.886629e+02
3.300000e-07	-6.258365e-06	-5.993987e-09	-4.592492e+01	-3.884672e+02
3.400000e-07	-6.242127e-06	-6.198918e-09	-4.580576e+01	-3.882929e+02
3.500000e-07	-6.225350e-06	-6.253939e-09	-4.568264e+01	-3.881366e+02
3.600000e-07	-6.208077e-06	-6.059403e-09	-4.555589e+01	-3.879943e+02
3.700000e-07	-6.190405e-06	-5.908572e-09	-4.542621e+01	-3.878614e+02
3.800000e-07	-6.172460e-06	-5.989108e-09	-4.529453e+01	-3.877329e+02
3.900000e-07	-6.154201e-06	-6.089713e-09	-4.516054e+01	-3.876036e+02
4.000000e-07	-6.135413e-06	-6.128134e-09	-4.502267e+01	-3.874682e+02
4.100000e-07	-6.116099e-06	-5.896603e-09	-4.488095e+01	-3.873210e+02
4.200000e-07	-6.096470e-06	-5.769132e-09	-4.473690e+01	-3.871567e+02
4.300000e-07	-6.076521e-06	-5.963488e-09	-4.459052e+01	-3.869700e+02
4.400000e-07	-6.056273e-06	-6.176631e-09	-4.444193e+01	-3.867559e+02
4.500000e-07	-6.035684e-06	-5.968417e-09	-4.429084e+01	-3.865100e+02
4.600000e-07	-6.014596e-06	-5.724060e-09	-4.413610e+01	-3.862281e+02
4.700000e-07	-5.993129e-06	-5.774577e-09	-4.397857e+01	-3.859067e+02
4.800000e-07	-5.971308e-06	-6.065351e-09	-4.381844e+01	-3.855430e+02
4.900000e-07	-5.949067e-06	-6.091077e-09	-4.365523e+01	-3.851347e+02
5.000000e-07	-5.926434e-06	-5.804402e-09	-4.348915e+01	-3.846804e+02
5.100000e-07	-5.903397e-06	-5.645653e-09	-4.332010e+01	-3.841793e+02
5.200000e-07	-5.880041e-06	-5.901361e-09	-4.314871e+01	-3.836313e+02
5.300000e-07	-5.856332e-06	-6.073032e-09	-4.297473e+01	-3.830370e+02
5.400000e-07	-5.832262e-06	-5.888358e-09	-4.279810e+01	-3.823977e+02
5.500000e-07	-5.807730e-06	-5.670035e-09	-4.261808e+01	-3.817152e+02
5.600000e-07	-5.782612e-06	-5.725123e-09	-4.243376e+01	-3.809919e+02
5.700000e-07	-5.756837e-06	-5.889460e-09	-4.224462e+01	-3.802306e+02
5.800000e-07	-5.730415e-06	-5.915683e-09	-4.205073e+01	-3.794344e+02
5.900000e-07	-5.703479e-06	-5.762337e-09	-4.185307e+01	-3.786066e+02
6.000000e-07	-5.676129e-06	-5.646404e-09	-4.165237e+01	-3.777508e+02
6.100000e-07	-5.648470e-06	-5.722470e-09	-4.144941e+01	-3.768705e+02
6.200000e-07	-5.620572e-06	-5.831859e-09	-4.124468e+01	-3.759693e+02
6.300000e-07	-5.592426e-06	-5.806631e-09	-4.103814e+01	-3.750505e+02
6.400000e-07	-5.563873e-06	-5.682768e-09	-4.082862e+01	-3.741172e+02
6.500000e-07	-5.534866e-06	-5.624679e-09	-4.061576e+01	-3.731723e+02
6.600000e-07	-5.505564e-06	-5.666144e-09	-4.040074e+01	-3.722182e+02
6.700000e-07	-5.475919e-06	-5.738990e-09	-4.018320e+01	-3.712569e+02
6.800000e-07	-5.445891e-06	-5.707908e-09	-3.996285e+01	-3.702900e+02
6.900000e-07	-5.415428e-06	-5.615274e-09	-3.973931e+01	-3.693186e+02
7.000000e-07	-5.384470e-06	-5.560984e-09	-3.951213e+01	-3.683433e+02
7.100000e-07	-5.353191e-06	-5.611534e-09	-3.928260e+01	-3.673641e+02
7.200000e-07	-5.321660e-06	-5.661411e-09	-3.905122e+01	-3.663808e+02
7.300000e-07	-5.289921e-06	-5.635733e-09	-3.881832e+01	-3.653924e+02
7.400000e-07	-5.257986e-06	-5.524701e-09	-3.858397e+01	-3.643978e+02
7.500000e-07	-5.225733e-06	-5.482679e-09	-3.834729e+01	-3.633955e+02
7.600000e-07	-5.193057e-06	-5.541380e-09	-3.810751e+01	-3.623838e+02
7.700000e-07	-5.159874e-06	-5.590533e-09	-3.786401e+01	-3.613606e+02
7.800000e-07	-5.126024e-06	-5.517920e-09	-3.761561e+01	-3.603238e+02
7.900000e-07	-5.091498e-06	-5.424439e-09	-3.736225e+01	-3.592714e+02
8.000000e-07	-5.056480e-06	-5.417120e-09	-3.710529e+01	-3.582011e+02
8.100000e-07	-5.021044e-06	-5.481335e-09	-3.684525e+01	-3.571110e+02
8.200000e-07	-4.985335e-06	-5.488092e-09	-3.658321e+01	-3.559992e+02
8.300000e-07	-4.949442e-06	-5.406661e-09	-3.631982e+01	-3.548640e+02
8.400000e-07	-4.913265e-06	-5.326978e-09	-3.605435e+01	-3.537041e+02
8.500000e-07	-4.876822e-06	-5.341020e-09	-3.578692e+01	-3.525184e+02
8.600000e-07	-4.840048e-06	-5.388393e-09	-3.551707e+01	-3.513061e+02
8.700000e-07	-4.802943e-06	-5.362405e-09	-3.524479e+01	-3.500670e+02
8.800000e-07	-4.765508e-06	-5.280531e-09	-3.497008e+01	-3.488008e+02
8.900000e-07	-4.727713e-06	-5.244216e-09	-3.469274e+01	-3.475081e+02
9.000000e-07	-4.689676e-06	-5.271928e-09	-3.441362e+01	-3.461892e+02
9.100000e-07	-4.651286e-06	-5.282430e-09	-3.413190e+01	-3.448453e+02
9.200000e-07	-4.612452e-06	-5.241082e-09	-3.384693e+01	-3.434774e+02
9.300000e-07	-4.573268e-06	-5.183352e-09	-3.355939e+01	-3.420870e+02
9.400000e-07	-4.533805e-06	-5.160438e-09	-3.326981e+01	-3.406755e+02
9.500000e-07	-4.494156e-06	-5.161750e-09	-3.297886e+01	-3.392446e+02
9.600000e-07	-4.454358e-06	-5.158455e-09	-3.268681e+01	-3.377960e+02
9.700000e-07	-4.414341e-06	-5.123813e-09	-3.239317e+01	-3.363312e+02
9.800000e-07	-4.374026e-06	-5.078491e-09	-3.209732e+01	-3.348518e+02
9.900000e-07	-4.333381e-06	-5.045154e-09	-3.179907e+01	-3.333593e+02
1.000000e-06	-4.292307e-06	-5.042939e-09	-3.149766e+01	-3.318547e+02
1.010000e-06	-4.250745e-06	-5.043084e-09	-3.119267e+01	-3.303391e+02
1.020000e-06	-4.208746e-06	-5.015222e-09	-3.088447e+01	-3.288131e+02
1.030000e-06	-4.166324e-06	-4.958927e-09	-3.057318e+01	-3.272771e+02
1.040000e-06	-4.123450e-06	-4.926664e-09	-3.025856e+01	-3.257311e+02
1.050000e-06	-4.080222e-06	-4.928366e-09	-2.994134e+01	-3.241749e+02
1.060000e-06	-4.036805e-06	-4.926229e-09	-2.962274e+01	-3.226078e+02
1.070000e-06	-3.993159e-06	-4.883334e-09	-2.930246e+01	-3.210289e+02
1.080000e-06	-3.949237e-06	-4.828978e-09	-2.898015e+01	-3.194369e+02
1.090000e-06	-3.905098e-06	-4.807087e-09	-2.865626e+01	-3.178304e+02
1.100000e-06	-3.860720e-06	-4.813371e-09	-2.833060e+01	-3.162077e+02
1.110000e-06	-3.816059e-06	-4.796750e-09	-2.800287e+01	-3.145669e+02
1.120000e-06	-3.771125e-06	-4.745282e-09	-2.767314e+01	-3.129060e+02
1.130000e-06	-3.725816e-06	-4.695308e-09	-2.734065e+01	-3.112229e+02
1.140000e-06	-3.680285e-06	-4.678377e-09	-2.700654e+01	-3.095155e+02
1.150000e-06	-3.634617e-06	-4.673443e-09	-2.667142e+01	-3.077817e+02
1.160000e-06	-3.588693e-06	-4.645004e-09	-2.633442e+01	-3.060197e+02
1.170000e-06	-3.542571e-06	-4.594307e-09	-2.599597e+01	-3.042275e+02
1.180000e-06	-3.496244e-06	-4.554342e-09	-2.565602e+01	-3.024036e+02
1.190000e-06	-3.449588e-06	-4.539412e-09	-2.531364e+01	-3.005466e+02
1.200000e-06	-3.402620e-06	-4.523038e-09	-2.496899e+01	-2.986554e+02
1.210000e-06	-3.355458e-06	-4.487611e-09	-2.462290e+01	-2.967291e+02
1.220000e-06	-3.308093e-06	-4.442027e-09	-2.427533e+01	-2.947672e+02
1.230000e-06	-3.260553e-06	-4.407632e-09	-2.392647e+01	-2.927695e+02
1.240000e-06	-3.212800e-06	-4.387894e-09	-2.357606e+01	-2.907361e+02
1.250000e-06	-3.164841e-06	-4.368030e-09	-2.322413e+01	-2.886673e+02
1.260000e-06	-3.116719e-06	-4.332685e-09	-2.287100e+01	-2.865640e+02
1.270000e-06	-3.068473e-06	-4.285915e-09	-2.251696e+01	-2.844269e+02
1.280000e-06	-3.020001e-06	-4.244995e-09	-2.216127e+01	-2.822572e+02
1.290000e-06	-2.971199e-06	-4.223561e-09	-2.180315e+01	-2.800562e+02
1.300000e-06	-2.922068e-06	-4.198845e-09	-2.144262e+01	-2.778254e+02
1.310000e-06	-2.872583e-06	-4.158657e-09	-2.107949e+01	-2.755663e+02
1.320000e-06	-2.822611e-06	-4.113058e-09	-2.071278e+01	-2.732805e+02
1.330000e-06	-2.772194e-06	-4.079993e-09	-2.034282e+01	-2.709695e+02
1.340000e-06	-2.721542e-06	-4.053617e-09	-1.997112e+01	-2.686347e+02
1.350000e-06	-2.670623e-06	-4.022205e-09	-1.959747e+01	-2.662777e+02
1.360000e-06	-2.619448e-06	-3.978159e-09	-1.922194e+01	-2.638996e+02
1.370000e-06	-2.568001e-06	-3.930949e-09	-1.884442e+01	-2.615015e+02
1.380000e-06	-2.516367e-06	-3.893025e-09	-1.846551e+01	-2.590844e+02
1.390000e-06	-2.464627e-06	-3.864129e-09	-1.808584e+01	-2.566487e+02
1.400000e-06	-2.412747e-06	-3.829000e-09	-1.770514e+01	-2.541950e+02
1.410000e-06	-2.360719e-06	-3.781082e-09	-1.732334e+01	-2.517233e+02
1.420000e-06	-2.308544e-06	-3.734251e-09	-1.694048e+01	-2.492336e+02
1.430000e-06	-2.256238e-06	-3.700727e-09	-1.655665e+01	-2.467255e+02
1.440000e-06	-2.203707e-06	-3.670885e-09	-1.617117e+01	-2.441983e+02
1.450000e-06	-2.150990e-06	-3.630241e-09	-1.578432e+01	-2.416514e+02
1.460000e-06	-2.098145e-06	-3.581113e-09	-1.539654e+01	-2.390838e+02
1.470000e-06	-2.045101e-06	-3.535046e-09	-1.500729e+01	-2.364941e+02
1.480000e-06	-1.991866e-06	-3.499618e-09	-1.461664e+01	-2.338813e+02
1.490000e-06	-1.938474e-06	-3.468194e-09	-1.422484e+01	-2.312439e+02
1.500000e-06	-1.884948e-06	-3.429897e-09	-1.383206e+01	-2.285805e+02
1.510000e-06	-1.831375e-06	-3.378993e-09	-1.343893e+01	-2.258896e+02
1.520000e-06	-1.777703e-06	-3.331441e-09	-1.304508e+01	-2.231698e+02
1.530000e-06	-1.723863e-06	-3.294125e-09	-1.264999e+01	-2.204196e+02
1.540000e-06	-1.669971e-06	-3.260079e-09	-1.225452e+01	-2.176377e+02
1.550000e-06	-1.616075e-06	-3.215391e-09	-1.185903e+01	-2.148229e+02
1.560000e-06	-1.562096e-06	-3.166229e-09	-1.146292e+01	-2.119740e+02
1.570000e-06	-1.507998e-06	-3.124032e-09	-1.106594e+01	-2.090899e+02
1.580000e-06	-1.453837e-06	-3.090684e-09	-1.066850e+01	-2.061698e+02
1.590000e-06	-1.399573e-06	-3.054048e-09	-1.027030e+01	-2.032129e+02
1.600000e-06	-1.345077e-06	-3.003413e-09	-9.870398e+00	-2.002185e+02
1.610000e-06	-1.290492e-06	-2.947333e-09	-9.469842e+00	-1.971863e+02
1.620000e-06	-1.235905e-06	-2.901031e-09	-9.069277e+00	-1.941157e+02
1.630000e-06	-1.181113e-06	-2.862635e-09	-8.667198e+00	-1.910065e+02
1.640000e-06	-1.126173e-06	-2.815331e-09	-8.264046e+00	-1.878585e+02
1.650000e-06	-1.071190e-06	-2.756588e-09	-7.860571e+00	-1.846717e+02
1.660000e-06	-1.016144e-06	-2.697310e-09	-7.456632e+00	-1.814460e+02
1.670000e-06	-9.610310e-07	-2.647641e-09	-7.052204e+00	-1.781813e+02
1.680000e-06	-9.058436e-07	-2.604239e-09	-6.647230e+00	-1.748777e+02
1.690000e-06	-8.506098e-07	-2.553590e-09	-6.241915e+00	-1.715351e+02
1.700000e-06	-7.953136e-07	-2.496431e-09	-5.836142e+00	-1.681536e+02
1.710000e-06	-7.400192e-07	-2.444842e-09	-5.430383e+00	-1.647331e+02
1.720000e-06	-6.846780e-07	-2.400282e-09	-5.024280e+00	-1.612734e+02
1.730000e-06	-6.292001e-07	-2.354933e-09	-4.617174e+00	-1.577746e+02
1.740000e-06	-5.737137e-07	-2.299797e-09	-4.210006e+00	-1.542362e+02
1.750000e-06	-5.181995e-07	-2.238069e-09	-3.802633e+00	-1.506582e+02
1.760000e-06	-4.626095e-07	-2.179550e-09	-3.394705e+00	-1.470402e+02
1.770000e-06	-4.070510e-07	-2.128267e-09	-2.987007e+00	-1.433819e+02
1.780000e-06	-3.515027e-07	-2.077594e-09	-2.579385e+00	-1.396828e+02
1.790000e-06	-2.959132e-07	-2.019090e-09	-2.171460e+00	-1.359426e+02
1.800000e-06	-2.403202e-07	-1.958242e-09	-1.763510e+00	-1.321609e+02
1.810000e-06	-1.847251e-07	-1.904332e-09	-1.355543e+00	-1.283372e+02
1.820000e-06	-1.291175e-07	-1.854556e-09	-9.474857e-01	-1.244711e+02
1.830000e-06	-7.352560e-08	-1.800492e-09	-5.395430e-01	-1.205623e+02
1.840000e-06	-1.794094e-08	-1.738329e-09	-1.316536e-01	-1.166104e+02
1.850000e-06	3.768196e-08	-1.672306e-09	2.765165e-01	-1.126151e+02
1.860000e-06	9.331585e-08	-1.608453e-09	6.847671e-01	-1.085762e+02
1.870000e-06	1.488666e-07	-1.548441e-09	1.092408e+00	-1.044935e+02
1.880000e-06	2.043706e-07	-1.488231e-09	1.499705e+00	-1.003670e+02
1.890000e-06	2.598832e-07	-1.422092e-09	1.907066e+00	-9.619650e+01
1.900000e-06	3.154058e-07	-1.354305e-09	2.314500e+00	-9.198215e+01
1.910000e-06	3.709833e-07	-1.293258e-09	2.722337e+00	-8.772401e+01
1.920000e-06	4.265687e-07	-1.235150e-09	3.130232e+00	-8.342223e+01
1.930000e-06	4.820871e-07	-1.171477e-09	3.537635e+00	-7.907697e+01
1.940000e-06	5.375356e-07	-1.100025e-09	3.944525e+00	-7.468844e+01
1.950000e-06	5.929759e-07	-1.028562e-09	4.351355e+00	-7.025686e+01
1.960000e-06	6.484529e-07	-9.642985e-10	4.758455e+00	-6.578243e+01
1.970000e-06	7.039211e-07	-9.014029e-10	5.165489e+00	-6.126536e+01
1.980000e-06	7.592906e-07	-8.304276e-10	5.571799e+00	-5.670580e+01
1.990000e-06	8.145340e-07	-7.568005e-10	5.977185e+00	-5.210389e+01
2.000000e-06	8.697119e-07	-6.887219e-10	6.382089e+00	-4.745970e+01
2.010000e-06	9.248195e-07	-6.216617e-10	6.786478e+00	-4.277327e+01
2.020000e-06	9.798477e-07	-5.514262e-10	7.190285e+00	-3.804457e+01
2.030000e-06	1.034797e-06	-4.771394e-10	7.593512e+00	-3.327354e+01
2.040000e-06	1.089684e-06	-4.017055e-10	7.996280e+00	-2.846008e+01
2.050000e-06	1.144506e-06	-3.260860e-10	8.398573e+00	-2.360405e+01
2.060000e-06	1.199271e-06	-2.499453e-10	8.800447e+00	-1.870533e+01
2.070000e-06	1.253909e-06	-1.752153e-10	9.201393e+00	-1.376381e+01
2.080000e-06	1.308393e-06	-9.761891e-11	9.601202e+00	-8.779445e+00
2.090000e-06	1.362766e-06	-1.664549e-11	1.000020e+01	-3.752263e+00
2.100000e-06	1.417055e-06	6.380658e-11	1.039858e+01	1.317584e+00
2.110000e-06	1.471266e-06	1.418904e-10	1.079640e+01	6.429785e+00
2.120000e-06	1.525330e-06	2.178287e-10	1.119312e+01	1.158383e+01
2.130000e-06	1.579261e-06	2.933965e-10	1.158888e+01	1.677898e+01
2.140000e-06	1.633101e-06	3.724787e-10	1.198396e+01	2.201421e+01
2.150000e-06	1.686881e-06	4.545219e-10	1.237861e+01	2.728818e+01
2.160000e-06	1.740546e-06	5.350891e-10	1.277241e+01	3.259923e+01
2.170000e-06	1.794172e-06	6.156292e-10	1.316593e+01	3.794531e+01
2.180000e-06	1.847699e-06	7.017948e-10	1.355872e+01	4.332400e+01
2.190000e-06	1.901093e-06	7.897010e-10	1.395053e+01	4.873244e+01
2.200000e-06	1.954434e-06	8.740368e-10	1.434196e+01	5.416741e+01
2.210000e-06	2.007617e-06	9.532000e-10	1.473223e+01	5.962524e+01
2.220000e-06	2.060576e-06	1.034446e-09	1.512085e+01	6.510189e+01
2.230000e-06	2.113267e-06	1.121225e-09	1.550750e+01	7.059293e+01
2.240000e-06	2.165759e-06	1.207465e-09	1.589270e+01	7.609361e+01
2.250000e-06	2.218145e-06	1.289408e-09	1.627711e+01	8.159883e+01
2.260000e-06	2.270379e-06	1.370419e-09	1.666041e+01	8.710325e+01
2.270000e-06	2.322406e-06	1.456087e-09	1.704220e+01	9.260134e+01
2.280000e-06	2.374257e-06	1.545634e-09	1.742269e+01	9.808737e+01
2.290000e-06	2.425982e-06	1.632813e-09	1.780226e+01	1.035556e+02
2.300000e-06	2.477529e-06	1.715587e-09	1.818052e+01	1.090001e+02
2.310000e-06	2.528941e-06	1.796544e-09	1.855779e+01	1.144153e+02
2.320000e-06	2.580246e-06	1.877561e-09	1.893427e+01	1.197954e+02
2.330000e-06	2.631352e-06	1.958701e-09	1.930930e+01	1.251350e+02
2.340000e-06	2.682090e-06	2.037348e-09	1.968162e+01	1.304289e+02
2.350000e-06	2.732419e-06	2.114392e-09	2.005094e+01	1.356723e+02
2.360000e-06	2.782364e-06	2.191945e-09	2.041745e+01	1.408605e+02
2.370000e-06	2.831940e-06	2.272478e-09	2.078125e+01	1.459895e+02
2.380000e-06	2.881121e-06	2.352908e-09	2.114214e+01	1.510557e+02
2.390000e-06	2.929976e-06	2.431012e-09	2.150065e+01	1.560559e+02
2.400000e-06	2.978590e-06	2.505993e-09	2.185738e+01	1.609875e+02
2.410000e-06	3.026909e-06	2.580171e-09	2.221196e+01	1.658483e+02
2.420000e-06	3.075005e-06	2.652696e-09	2.256489e+01	1.706367e+02
2.430000e-06	3.122943e-06	2.723773e-09	2.291667e+01	1.753516e+02
2.440000e-06	3.170799e-06	2.791990e-09	2.326785e+01	1.799924e+02
2.450000e-06	3.218536e-06	2.857168e-09	2.361815e+01	1.845588e+02
2.460000e-06	3.266126e-06	2.924219e-09	2.396737e+01	1.890513e+02
2.470000e-06	3.313549e-06	2.993284e-09	2.431537e+01	1.934703e+02
2.480000e-06	3.360712e-06	3.061288e-09	2.466146e+01	1.978168e+02
2.490000e-06	3.407544e-06	3.125418e-09	2.500512e+01	2.020920e+02
2.500000e-06	3.454049e-06	3.188014e-09	2.534639e+01	2.062972e+02
2.510000e-06	3.500299e-06	3.249497e-09	2.568577e+01	2.104341e+02
2.520000e-06	3.546384e-06	3.310863e-09	2.602395e+01	2.145042e+02
2.530000e-06	3.592274e-06	3.369757e-09	2.636070e+01	2.185092e+02
2.540000e-06	3.637908e-06	3.423916e-09	2.669557e+01	2.224507e+02
2.550000e-06	3.683316e-06	3.477687e-09	2.702878e+01	2.263303e+02
2.560000e-06	3.728494e-06	3.533218e-09	2.736031e+01	2.301495e+02
2.570000e-06	3.773380e-06	3.588160e-09	2.768969e+01	2.339094e+02
2.580000e-06	3.817974e-06	3.641185e-09	2.801692e+01	2.376112e+02
2.590000e-06	3.862284e-06	3.694431e-09	2.834208e+01	2.412559e+02
2.600000e-06	3.906356e-06	3.750624e-09	2.866548e+01	2.448442e+02
2.610000e-06	3.950262e-06	3.805331e-09	2.898768e+01	2.483766e+02
2.620000e-06	3.994011e-06	3.855163e-09	2.930872e+01	2.518535e+02
2.630000e-06	4.037594e-06	3.901341e-09	2.962853e+01	2.552749e+02
2.640000e-06	4.081015e-06	3.946277e-09	2.994716e+01	2.586410e+02
2.650000e-06	4.124128e-06	3.991022e-09	3.026353e+01	2.619515e+02
2.660000e-06	4.166840e-06	4.036703e-09	3.057696e+01	2.652064e+02
2.670000e-06	4.209115e-06	4.081998e-09	3.088718e+01	2.684053e+02
2.680000e-06	4.250871e-06	4.127360e-09	3.119359e+01	2.715480e+02
2.690000e-06	4.292095e-06	4.172844e-09	3.149610e+01	2.746341e+02
2.700000e-06	4.332772e-06	4.217605e-09	3.179459e+01	2.776636e+02
2.710000e-06	4.373081e-06	4.263462e-09	3.209039e+01	2.806364e+02
2.720000e-06	4.413160e-06	4.305680e-09	3.238450e+01	2.835524e+02
2.730000e-06	4.453073e-06	4.344280e-09	3.267738e+01	2.864118e+02
2.740000e-06	4.492787e-06	4.381350e-09	3.296881e+01	2.892151e+02
2.750000e-06	4.532285e-06	4.417931e-09	3.325866e+01	2.919628e+02
2.760000e-06	4.571510e-06	4.453806e-09	3.354649e+01	2.946556e+02
2.770000e-06	4.610418e-06	4.489540e-09	3.383201e+01	2.972945e+02
2.780000e-06	4.649026e-06	4.525769e-09	3.411532e+01	2.998806e+02
2.790000e-06	4.687265e-06	4.563485e-09	3.439593e+01	3.024153e+02
2.800000e-06	4.725135e-06	4.602026e-09	3.467382e+01	3.048999e+02
2.810000e-06	4.762634e-06	4.641271e-09	3.494899e+01	3.073360e+02
2.820000e-06	4.799810e-06	4.676625e-09	3.522179e+01	3.097254e+02
2.830000e-06	4.836652e-06	4.707399e-09	3.549215e+01	3.120696e+02
2.840000e-06	4.873147e-06	4.738607e-09	3.575996e+01	3.143705e+02
2.850000e-06	4.909310e-06	4.774422e-09	3.602533e+01	3.166296e+02
2.860000e-06	4.945227e-06	4.808130e-09	3.628889e+01	3.188487e+02
2.870000e-06	4.980972e-06	4.836538e-09	3.655120e+01	3.210292e+02
2.880000e-06	5.016541e-06	4.864593e-09	3.681221e+01	3.231725e+02
2.890000e-06	5.051916e-06	4.899944e-09	3.707179e+01	3.252798e+02
2.900000e-06	5.086886e-06	4.936048e-09	3.732841e+01	3.273519e+02
