# Temperatura_=_20.0
# Concentracion g/m^3_=_12600.0
# C_Vs_to_Am_M_A/Vsm_=_65563218390.804596
# pendiente_HvsI_1/m_=_3716.3
# ordenada_HvsI_A/m_=_1297.0
# frecuencia_Hz_=_135330.03616106854

Tiempo_(s)	Campo_(V.s)	Magnetizacion_(V.s)	Campo_(kA/m)	Magnetizacion_(A/m)
0.000000e+00	-6.559576e-06	-2.112374e-10	-4.775058e+01	-1.369123e+01
1.000000e-08	-6.559566e-06	-2.157605e-10	-4.775051e+01	-1.372907e+01
2.000000e-08	-6.559200e-06	-2.179985e-10	-4.774784e+01	-1.376570e+01
3.000000e-08	-6.558400e-06	-2.150668e-10	-4.774202e+01	-1.379942e+01
4.000000e-08	-6.556921e-06	-2.110844e-10	-4.773126e+01	-1.382832e+01
5.000000e-08	-6.554774e-06	-2.117490e-10	-4.771562e+01	-1.385037e+01
6.000000e-08	-6.551985e-06	-2.153992e-10	-4.769532e+01	-1.386340e+01
7.000000e-08	-6.548648e-06	-2.299804e-10	-4.767103e+01	-1.386520e+01
8.000000e-08	-6.544831e-06	-2.560245e-10	-4.764324e+01	-1.385348e+01
9.000000e-08	-6.540483e-06	-2.311616e-10	-4.761160e+01	-1.382600e+01
1.000000e-07	-6.535608e-06	-1.402090e-10	-4.757610e+01	-1.378055e+01
1.100000e-07	-6.530286e-06	-9.082710e-11	-4.753737e+01	-1.371505e+01
1.200000e-07	-6.524576e-06	-2.278223e-10	-4.749580e+01	-1.362753e+01
1.300000e-07	-6.518427e-06	-3.932220e-10	-4.745104e+01	-1.351625e+01
1.400000e-07	-6.511898e-06	-2.835195e-10	-4.740351e+01	-1.337969e+01
1.500000e-07	-6.505017e-06	-6.735846e-11	-4.735342e+01	-1.321658e+01
1.600000e-07	-6.497768e-06	-9.663958e-11	-4.730065e+01	-1.302598e+01
1.700000e-07	-6.490034e-06	-2.310757e-10	-4.724435e+01	-1.280729e+01
1.800000e-07	-6.481936e-06	-3.600357e-10	-4.718540e+01	-1.256025e+01
1.900000e-07	-6.473625e-06	-2.572333e-10	-4.712490e+01	-1.228497e+01
2.000000e-07	-6.464894e-06	-1.569524e-10	-4.706134e+01	-1.198195e+01
2.100000e-07	-6.455559e-06	-7.565749e-11	-4.699339e+01	-1.165208e+01
2.200000e-07	-6.445489e-06	-2.014179e-10	-4.692008e+01	-1.129661e+01
2.300000e-07	-6.434740e-06	-2.519972e-10	-4.684183e+01	-1.091717e+01
2.400000e-07	-6.423401e-06	-1.130803e-10	-4.675929e+01	-1.051574e+01
2.500000e-07	-6.411493e-06	3.600300e-11	-4.667261e+01	-1.009460e+01
2.600000e-07	-6.399006e-06	-5.886420e-11	-4.658170e+01	-9.656341e+00
2.700000e-07	-6.385989e-06	-1.590845e-10	-4.648695e+01	-9.203780e+00
2.800000e-07	-6.372470e-06	-3.928147e-11	-4.638854e+01	-8.739957e+00
2.900000e-07	-6.358368e-06	6.807028e-11	-4.628588e+01	-8.268068e+00
3.000000e-07	-6.343722e-06	-6.081898e-11	-4.617926e+01	-7.791419e+00
3.100000e-07	-6.328527e-06	-1.481043e-10	-4.606866e+01	-7.313379e+00
3.200000e-07	-6.312759e-06	-2.313945e-11	-4.595387e+01	-6.837321e+00
3.300000e-07	-6.296499e-06	-2.486184e-11	-4.583550e+01	-6.366578e+00
3.400000e-07	-6.279850e-06	-1.375829e-10	-4.571431e+01	-5.904386e+00
3.500000e-07	-6.262741e-06	-5.832550e-11	-4.558976e+01	-5.453841e+00
3.600000e-07	-6.245171e-06	1.842460e-10	-4.546186e+01	-5.017847e+00
3.700000e-07	-6.227239e-06	1.051317e-10	-4.533133e+01	-4.599083e+00
3.800000e-07	-6.208948e-06	-1.648343e-11	-4.519818e+01	-4.199960e+00
3.900000e-07	-6.190179e-06	-3.432697e-11	-4.506155e+01	-3.822594e+00
4.000000e-07	-6.170920e-06	1.189796e-10	-4.492135e+01	-3.468779e+00
4.100000e-07	-6.151327e-06	1.306590e-10	-4.477873e+01	-3.139969e+00
4.200000e-07	-6.131425e-06	5.621285e-11	-4.463385e+01	-2.837264e+00
4.300000e-07	-6.111149e-06	-8.335493e-11	-4.448625e+01	-2.561408e+00
4.400000e-07	-6.090449e-06	-2.423878e-11	-4.433556e+01	-2.312786e+00
4.500000e-07	-6.069370e-06	1.305543e-10	-4.418211e+01	-2.091432e+00
4.600000e-07	-6.047897e-06	1.912305e-10	-4.402580e+01	-1.897043e+00
4.700000e-07	-6.025971e-06	-7.318257e-12	-4.386619e+01	-1.728998e+00
4.800000e-07	-6.003580e-06	-1.324701e-10	-4.370320e+01	-1.586381e+00
4.900000e-07	-5.980781e-06	2.496630e-11	-4.353723e+01	-1.468006e+00
5.000000e-07	-5.957717e-06	2.179074e-10	-4.336933e+01	-1.372456e+00
5.100000e-07	-5.934353e-06	9.754696e-11	-4.319926e+01	-1.298108e+00
5.200000e-07	-5.910606e-06	-1.279946e-10	-4.302639e+01	-1.243177e+00
5.300000e-07	-5.886428e-06	-8.621577e-11	-4.285038e+01	-1.205750e+00
5.400000e-07	-5.861699e-06	1.260159e-10	-4.267037e+01	-1.183824e+00
5.500000e-07	-5.836399e-06	1.746725e-10	-4.248620e+01	-1.175346e+00
5.600000e-07	-5.810422e-06	5.901494e-12	-4.229710e+01	-1.178248e+00
5.700000e-07	-5.783801e-06	-8.836558e-11	-4.210331e+01	-1.190480e+00
5.800000e-07	-5.756721e-06	5.632445e-12	-4.190618e+01	-1.210046e+00
5.900000e-07	-5.729313e-06	1.309877e-10	-4.170667e+01	-1.235031e+00
6.000000e-07	-5.701578e-06	8.834684e-11	-4.150477e+01	-1.263628e+00
6.100000e-07	-5.673567e-06	-1.174380e-11	-4.130086e+01	-1.294160e+00
6.200000e-07	-5.645279e-06	-4.799305e-11	-4.109494e+01	-1.325098e+00
6.300000e-07	-5.616561e-06	2.464188e-11	-4.088588e+01	-1.355075e+00
6.400000e-07	-5.587485e-06	8.619910e-11	-4.067422e+01	-1.382899e+00
6.500000e-07	-5.558058e-06	7.981414e-11	-4.046001e+01	-1.407553e+00
6.600000e-07	-5.528212e-06	-8.986490e-12	-4.024274e+01	-1.428203e+00
6.700000e-07	-5.497983e-06	-3.971690e-11	-4.002269e+01	-1.444193e+00
6.800000e-07	-5.467418e-06	1.297323e-11	-3.980019e+01	-1.455040e+00
6.900000e-07	-5.436477e-06	8.170254e-11	-3.957495e+01	-1.460428e+00
7.000000e-07	-5.405138e-06	4.942036e-11	-3.934682e+01	-1.460196e+00
7.100000e-07	-5.373525e-06	-2.199590e-11	-3.911670e+01	-1.454322e+00
7.200000e-07	-5.341735e-06	-5.039848e-11	-3.888528e+01	-1.442913e+00
7.300000e-07	-5.309619e-06	1.620979e-11	-3.865149e+01	-1.426187e+00
7.400000e-07	-5.277054e-06	7.095337e-11	-3.841443e+01	-1.404455e+00
7.500000e-07	-5.244065e-06	4.070956e-11	-3.817429e+01	-1.378103e+00
7.600000e-07	-5.210634e-06	-3.419237e-11	-3.793093e+01	-1.347580e+00
7.700000e-07	-5.176635e-06	-3.225604e-11	-3.768343e+01	-1.313374e+00
7.800000e-07	-5.142056e-06	3.725822e-11	-3.743171e+01	-1.275999e+00
7.900000e-07	-5.106939e-06	7.405379e-11	-3.717607e+01	-1.235984e+00
8.000000e-07	-5.071515e-06	2.596392e-11	-3.691820e+01	-1.193851e+00
8.100000e-07	-5.035900e-06	-3.350161e-11	-3.665895e+01	-1.150110e+00
8.200000e-07	-4.999949e-06	-1.951532e-11	-3.639724e+01	-1.105244e+00
8.300000e-07	-4.963592e-06	4.710738e-11	-3.613258e+01	-1.059703e+00
8.400000e-07	-4.926922e-06	7.121688e-11	-3.586564e+01	-1.013896e+00
8.500000e-07	-4.889939e-06	1.792529e-11	-3.559642e+01	-9.681812e-01
8.600000e-07	-4.852655e-06	-2.703562e-11	-3.532501e+01	-9.228705e-01
8.700000e-07	-4.815069e-06	3.776174e-12	-3.505140e+01	-8.782201e-01
8.800000e-07	-4.777169e-06	6.625640e-11	-3.477551e+01	-8.344329e-01
8.900000e-07	-4.738919e-06	6.082870e-11	-3.449707e+01	-7.916582e-01
9.000000e-07	-4.700287e-06	5.136662e-12	-3.421585e+01	-7.499932e-01
9.100000e-07	-4.661407e-06	-1.968603e-11	-3.393282e+01	-7.094857e-01
9.200000e-07	-4.622200e-06	2.324713e-11	-3.364741e+01	-6.701371e-01
9.300000e-07	-4.582683e-06	6.154580e-11	-3.335975e+01	-6.319064e-01
9.400000e-07	-4.542943e-06	4.976239e-11	-3.307045e+01	-5.947144e-01
9.500000e-07	-4.503022e-06	5.239315e-12	-3.277985e+01	-5.584484e-01
9.600000e-07	-4.462822e-06	-9.435516e-13	-3.248721e+01	-5.229667e-01
9.700000e-07	-4.422127e-06	3.477226e-11	-3.219097e+01	-4.881033e-01
9.800000e-07	-4.381065e-06	6.442913e-11	-3.189206e+01	-4.536729e-01
9.900000e-07	-4.339682e-06	4.242933e-11	-3.159081e+01	-4.194752e-01
1.000000e-06	-4.297794e-06	4.598203e-12	-3.128589e+01	-3.852991e-01
1.010000e-06	-4.255323e-06	1.630630e-12	-3.097672e+01	-3.509271e-01
1.020000e-06	-4.212420e-06	3.749592e-11	-3.066441e+01	-3.161391e-01
1.030000e-06	-4.169275e-06	5.139352e-11	-3.035033e+01	-2.807161e-01
1.040000e-06	-4.125863e-06	2.449088e-11	-3.003432e+01	-2.444433e-01
1.050000e-06	-4.082206e-06	-5.056451e-12	-2.971651e+01	-2.071136e-01
1.060000e-06	-4.038371e-06	8.520439e-12	-2.939741e+01	-1.685307e-01
1.070000e-06	-3.994261e-06	4.253959e-11	-2.907631e+01	-1.285113e-01
1.080000e-06	-3.949848e-06	4.726898e-11	-2.875301e+01	-8.688845e-02
1.090000e-06	-3.905213e-06	1.791851e-11	-2.842808e+01	-4.351360e-02
1.100000e-06	-3.860311e-06	2.096900e-13	-2.810122e+01	1.740918e-03
1.110000e-06	-3.815131e-06	1.725845e-11	-2.777233e+01	4.897966e-02
1.120000e-06	-3.769667e-06	4.049665e-11	-2.744138e+01	9.828208e-02
1.130000e-06	-3.723920e-06	3.815587e-11	-2.710836e+01	1.497006e-01
1.140000e-06	-3.677981e-06	1.744981e-11	-2.677394e+01	2.032591e-01
1.150000e-06	-3.631877e-06	1.041205e-11	-2.643833e+01	2.589512e-01
1.160000e-06	-3.585439e-06	2.499093e-11	-2.610029e+01	3.167396e-01
1.170000e-06	-3.538672e-06	4.075520e-11	-2.575985e+01	3.765550e-01
1.180000e-06	-3.491716e-06	3.434236e-11	-2.541802e+01	4.382959e-01
1.190000e-06	-3.444587e-06	2.005546e-11	-2.507495e+01	5.018287e-01
1.200000e-06	-3.397294e-06	1.737079e-11	-2.473068e+01	5.669884e-01
1.210000e-06	-3.349671e-06	2.940610e-11	-2.438401e+01	6.335798e-01
1.220000e-06	-3.301777e-06	3.641565e-11	-2.403536e+01	7.013792e-01
1.230000e-06	-3.253707e-06	2.982298e-11	-2.368543e+01	7.701368e-01
1.240000e-06	-3.205411e-06	1.753132e-11	-2.333386e+01	8.395800e-01
1.250000e-06	-3.156889e-06	1.648212e-11	-2.298065e+01	9.094166e-01
1.260000e-06	-3.108075e-06	2.711220e-11	-2.262530e+01	9.793392e-01
1.270000e-06	-3.058880e-06	3.773250e-11	-2.226719e+01	1.049030e+00
1.280000e-06	-3.009341e-06	3.153551e-11	-2.190656e+01	1.118166e+00
1.290000e-06	-2.959465e-06	2.122149e-11	-2.154349e+01	1.186424e+00
1.300000e-06	-2.909229e-06	1.966801e-11	-2.117780e+01	1.253486e+00
1.310000e-06	-2.858822e-06	3.022379e-11	-2.081086e+01	1.319048e+00
1.320000e-06	-2.808160e-06	3.541569e-11	-2.044206e+01	1.382821e+00
1.330000e-06	-2.757205e-06	3.083083e-11	-2.007114e+01	1.444541e+00
1.340000e-06	-2.705911e-06	2.432530e-11	-1.969774e+01	1.503973e+00
1.350000e-06	-2.654298e-06	2.740544e-11	-1.932202e+01	1.560914e+00
1.360000e-06	-2.602546e-06	3.890113e-11	-1.894529e+01	1.615201e+00
1.370000e-06	-2.550645e-06	4.553222e-11	-1.856748e+01	1.666713e+00
1.380000e-06	-2.498521e-06	3.903282e-11	-1.818804e+01	1.715374e+00
1.390000e-06	-2.446225e-06	3.023686e-11	-1.780735e+01	1.761155e+00
1.400000e-06	-2.393815e-06	3.285852e-11	-1.742583e+01	1.804075e+00
1.410000e-06	-2.341275e-06	4.327718e-11	-1.704337e+01	1.844201e+00
1.420000e-06	-2.288568e-06	4.771174e-11	-1.665969e+01	1.881650e+00
1.430000e-06	-2.235645e-06	3.886288e-11	-1.627443e+01	1.916580e+00
1.440000e-06	-2.182577e-06	3.046088e-11	-1.588812e+01	1.949196e+00
1.450000e-06	-2.129330e-06	3.407169e-11	-1.550050e+01	1.979739e+00
1.460000e-06	-2.075853e-06	4.570229e-11	-1.511122e+01	2.008484e+00
1.470000e-06	-2.022292e-06	4.843141e-11	-1.472132e+01	2.035735e+00
1.480000e-06	-1.968621e-06	3.976361e-11	-1.433062e+01	2.061817e+00
1.490000e-06	-1.914818e-06	3.264308e-11	-1.393896e+01	2.087071e+00
1.500000e-06	-1.860911e-06	3.728922e-11	-1.354654e+01	2.111848e+00
1.510000e-06	-1.806749e-06	4.387909e-11	-1.315227e+01	2.136499e+00
1.520000e-06	-1.752338e-06	4.237979e-11	-1.275618e+01	2.161371e+00
1.530000e-06	-1.697943e-06	3.295700e-11	-1.236022e+01	2.186800e+00
1.540000e-06	-1.643589e-06	3.163355e-11	-1.196454e+01	2.213102e+00
1.550000e-06	-1.589032e-06	3.901035e-11	-1.156739e+01	2.240573e+00
1.560000e-06	-1.534362e-06	4.659322e-11	-1.116943e+01	2.269479e+00
1.570000e-06	-1.479653e-06	4.291603e-11	-1.077116e+01	2.300056e+00
1.580000e-06	-1.424828e-06	3.401465e-11	-1.037207e+01	2.332502e+00
1.590000e-06	-1.369909e-06	3.234752e-11	-9.972282e+00	2.366982e+00
1.600000e-06	-1.314905e-06	4.104234e-11	-9.571877e+00	2.403622e+00
1.610000e-06	-1.259842e-06	4.750914e-11	-9.171046e+00	2.442509e+00
1.620000e-06	-1.204700e-06	4.500783e-11	-8.769640e+00	2.483698e+00
1.630000e-06	-1.149372e-06	3.972022e-11	-8.366877e+00	2.527205e+00
1.640000e-06	-1.093929e-06	4.203464e-11	-7.963279e+00	2.573020e+00
1.650000e-06	-1.038502e-06	4.987137e-11	-7.559797e+00	2.621102e+00
1.660000e-06	-9.830462e-07	5.370631e-11	-7.156107e+00	2.671390e+00
1.670000e-06	-9.275203e-07	5.055299e-11	-6.751905e+00	2.723805e+00
1.680000e-06	-8.719484e-07	4.622519e-11	-6.347368e+00	2.778255e+00
1.690000e-06	-8.163497e-07	4.816145e-11	-5.942636e+00	2.834639e+00
1.700000e-06	-7.607284e-07	5.014844e-11	-5.537739e+00	2.892859e+00
1.710000e-06	-7.050645e-07	5.045466e-11	-5.132533e+00	2.952814e+00
1.720000e-06	-6.493363e-07	4.793807e-11	-4.726858e+00	3.014415e+00
1.730000e-06	-5.936020e-07	4.712166e-11	-4.321139e+00	3.077582e+00
1.740000e-06	-5.379181e-07	5.185116e-11	-3.915787e+00	3.142252e+00
1.750000e-06	-4.820715e-07	5.919585e-11	-3.509251e+00	3.208376e+00
1.760000e-06	-4.261545e-07	6.050155e-11	-3.102201e+00	3.275927e+00
1.770000e-06	-3.703605e-07	5.429525e-11	-2.696048e+00	3.344895e+00
1.780000e-06	-3.145456e-07	4.727072e-11	-2.289741e+00	3.415292e+00
1.790000e-06	-2.587094e-07	4.906379e-11	-1.883281e+00	3.487145e+00
1.800000e-06	-2.028484e-07	5.224237e-11	-1.476639e+00	3.560498e+00
1.810000e-06	-1.468679e-07	4.989685e-11	-1.069128e+00	3.635407e+00
1.820000e-06	-9.083891e-08	4.382328e-11	-6.612639e-01	3.711940e+00
1.830000e-06	-3.494982e-08	4.185326e-11	-2.544180e-01	3.790167e+00
1.840000e-06	2.090957e-08	4.780466e-11	1.522117e-01	3.870161e+00
1.850000e-06	7.674659e-08	5.492311e-11	5.586785e-01	3.951987e+00
1.860000e-06	1.324845e-07	5.626035e-11	9.644238e-01	4.035705e+00
1.870000e-06	1.883010e-07	5.291308e-11	1.370741e+00	4.121360e+00
1.880000e-06	2.441504e-07	5.286617e-11	1.777298e+00	4.208977e+00
1.890000e-06	2.999651e-07	5.662959e-11	2.183602e+00	4.298559e+00
1.900000e-06	3.557712e-07	5.719338e-11	2.589845e+00	4.390085e+00
1.910000e-06	4.116207e-07	5.392934e-11	2.996402e+00	4.483505e+00
1.920000e-06	4.674657e-07	5.170775e-11	3.402927e+00	4.578738e+00
1.930000e-06	5.232027e-07	5.283958e-11	3.808666e+00	4.675672e+00
1.940000e-06	5.789488e-07	5.685118e-11	4.214471e+00	4.774165e+00
1.950000e-06	6.346839e-07	6.012340e-11	4.620196e+00	4.874044e+00
1.960000e-06	6.903185e-07	6.171430e-11	5.025189e+00	4.975111e+00
1.970000e-06	7.459387e-07	6.327627e-11	5.430078e+00	5.077142e+00
1.980000e-06	8.016015e-07	6.639501e-11	5.835276e+00	5.179891e+00
1.990000e-06	8.572124e-07	6.748230e-11	6.240097e+00	5.283097e+00
2.000000e-06	9.127377e-07	6.519828e-11	6.644294e+00	5.386491e+00
2.010000e-06	9.681958e-07	6.079772e-11	7.048003e+00	5.489795e+00
2.020000e-06	1.023608e-06	5.833230e-11	7.451377e+00	5.592736e+00
2.030000e-06	1.079030e-06	6.015555e-11	7.854826e+00	5.695043e+00
2.040000e-06	1.134413e-06	6.660156e-11	8.257984e+00	5.796464e+00
2.050000e-06	1.189649e-06	7.137623e-11	8.660079e+00	5.896761e+00
2.060000e-06	1.244744e-06	7.078503e-11	9.061139e+00	5.995723e+00
2.070000e-06	1.299757e-06	6.967768e-11	9.461612e+00	6.093165e+00
2.080000e-06	1.354733e-06	7.303142e-11	9.861808e+00	6.188935e+00
2.090000e-06	1.409626e-06	7.747625e-11	1.026140e+01	6.282917e+00
2.100000e-06	1.464409e-06	7.929740e-11	1.066019e+01	6.375032e+00
2.110000e-06	1.519124e-06	7.744859e-11	1.105850e+01	6.465237e+00
2.120000e-06	1.573668e-06	7.515751e-11	1.145555e+01	6.553528e+00
2.130000e-06	1.628081e-06	7.535364e-11	1.185165e+01	6.639936e+00
2.140000e-06	1.682410e-06	7.687963e-11	1.224714e+01	6.724527e+00
2.150000e-06	1.736629e-06	7.769408e-11	1.264183e+01	6.807398e+00
2.160000e-06	1.790781e-06	7.783293e-11	1.303603e+01	6.888671e+00
2.170000e-06	1.844807e-06	7.974479e-11	1.342932e+01	6.968491e+00
2.180000e-06	1.898730e-06	8.237986e-11	1.382185e+01	7.047018e+00
2.190000e-06	1.952535e-06	8.336688e-11	1.421352e+01	7.124424e+00
2.200000e-06	2.006250e-06	8.108142e-11	1.460454e+01	7.200887e+00
2.210000e-06	2.059780e-06	7.932960e-11	1.499421e+01	7.276580e+00
2.220000e-06	2.113077e-06	7.969093e-11	1.538219e+01	7.351674e+00
2.230000e-06	2.166286e-06	8.192589e-11	1.576953e+01	7.426326e+00
2.240000e-06	2.219275e-06	8.417792e-11	1.615526e+01	7.500677e+00
2.250000e-06	2.271949e-06	8.342957e-11	1.653871e+01	7.574849e+00
2.260000e-06	2.324461e-06	8.315804e-11	1.692096e+01	7.648938e+00
2.270000e-06	2.376893e-06	8.742328e-11	1.730264e+01	7.723017e+00
2.280000e-06	2.429234e-06	9.180478e-11	1.768366e+01	7.797133e+00
2.290000e-06	2.481357e-06	9.420180e-11	1.806309e+01	7.871305e+00
2.300000e-06	2.533216e-06	9.411618e-11	1.844060e+01	7.945527e+00
2.310000e-06	2.584933e-06	9.288668e-11	1.881707e+01	8.019771e+00
2.320000e-06	2.636511e-06	9.207075e-11	1.919254e+01	8.093986e+00
2.330000e-06	2.687846e-06	9.347859e-11	1.956624e+01	8.168105e+00
2.340000e-06	2.738909e-06	9.696561e-11	1.993795e+01	8.242050e+00
2.350000e-06	2.789669e-06	9.936186e-11	2.030746e+01	8.315732e+00
2.360000e-06	2.840147e-06	1.006853e-10	2.067492e+01	8.389063e+00
2.370000e-06	2.890296e-06	1.018289e-10	2.103997e+01	8.461954e+00
2.380000e-06	2.940078e-06	1.026357e-10	2.140237e+01	8.534325e+00
2.390000e-06	2.989474e-06	1.033419e-10	2.176194e+01	8.606109e+00
2.400000e-06	3.038457e-06	1.056623e-10	2.211852e+01	8.677254e+00
2.410000e-06	3.087155e-06	1.068710e-10	2.247301e+01	8.747731e+00
2.420000e-06	3.135601e-06	1.046674e-10	2.282568e+01	8.817532e+00
2.430000e-06	3.183791e-06	1.036196e-10	2.317648e+01	8.886675e+00
2.440000e-06	3.231739e-06	1.063803e-10	2.352552e+01	8.955203e+00
2.450000e-06	3.279542e-06	1.073926e-10	2.387350e+01	9.023188e+00
2.460000e-06	3.327235e-06	1.078059e-10	2.422068e+01	9.090723e+00
2.470000e-06	3.374763e-06	1.108444e-10	2.456667e+01	9.157926e+00
2.480000e-06	3.422075e-06	1.136828e-10	2.491107e+01	9.224933e+00
2.490000e-06	3.469168e-06	1.151045e-10	2.525389e+01	9.291896e+00
2.500000e-06	3.516061e-06	1.147762e-10	2.559524e+01	9.358974e+00
2.510000e-06	3.562670e-06	1.143257e-10	2.593453e+01	9.426334e+00
2.520000e-06	3.608930e-06	1.161868e-10	2.627129e+01	9.494137e+00
2.530000e-06	3.654904e-06	1.180247e-10	2.660596e+01	9.562538e+00
2.540000e-06	3.700628e-06	1.181117e-10	2.693881e+01	9.631678e+00
2.550000e-06	3.746137e-06	1.170111e-10	2.727009e+01	9.701675e+00
2.560000e-06	3.791406e-06	1.149811e-10	2.759963e+01	9.772621e+00
2.570000e-06	3.836398e-06	1.166998e-10	2.792714e+01	9.844579e+00
2.580000e-06	3.881052e-06	1.199945e-10	2.825221e+01	9.917574e+00
2.590000e-06	3.925457e-06	1.213855e-10	2.857545e+01	9.991592e+00
2.600000e-06	3.969707e-06	1.219944e-10	2.889757e+01	1.006658e+01
2.610000e-06	4.013730e-06	1.247791e-10	2.921804e+01	1.014244e+01
2.620000e-06	4.057603e-06	1.284216e-10	2.953741e+01	1.021905e+01
2.630000e-06	4.101322e-06	1.273220e-10	2.985567e+01	1.029621e+01
2.640000e-06	4.144835e-06	1.243977e-10	3.017242e+01	1.037374e+01
2.650000e-06	4.188075e-06	1.255464e-10	3.048718e+01	1.045137e+01
2.660000e-06	4.230845e-06	1.296157e-10	3.079853e+01	1.052886e+01
2.670000e-06	4.273092e-06	1.329073e-10	3.110607e+01	1.060591e+01
2.680000e-06	4.314910e-06	1.351363e-10	3.141048e+01	1.068223e+01
2.690000e-06	4.356261e-06	1.350535e-10	3.171150e+01	1.075752e+01
2.700000e-06	4.397115e-06	1.375983e-10	3.200890e+01	1.083149e+01
2.710000e-06	4.437539e-06	1.421837e-10	3.230316e+01	1.090386e+01
2.720000e-06	4.477619e-06	1.455091e-10	3.259493e+01	1.097438e+01
2.730000e-06	4.517511e-06	1.428512e-10	3.288532e+01	1.104281e+01
2.740000e-06	4.557264e-06	1.371016e-10	3.317471e+01	1.110896e+01
2.750000e-06	4.596779e-06	1.346301e-10	3.346235e+01	1.117269e+01
2.760000e-06	4.636015e-06	1.361795e-10	3.374797e+01	1.123389e+01
2.770000e-06	4.675001e-06	1.389620e-10	3.403177e+01	1.129251e+01
2.780000e-06	4.713577e-06	1.389355e-10	3.431259e+01	1.134856e+01
2.790000e-06	4.751694e-06	1.368642e-10	3.459006e+01	1.140207e+01
2.800000e-06	4.789526e-06	1.395665e-10	3.486546e+01	1.145316e+01
2.810000e-06	4.827029e-06	1.428522e-10	3.513846e+01	1.150196e+01
2.820000e-06	4.864225e-06	1.433839e-10	3.540924e+01	1.154868e+01
2.830000e-06	4.901123e-06	1.395342e-10	3.567783e+01	1.159354e+01
2.840000e-06	4.937627e-06	1.366767e-10	3.594357e+01	1.163680e+01
2.850000e-06	4.973893e-06	1.377072e-10	3.620757e+01	1.167873e+01
2.860000e-06	5.009938e-06	1.388421e-10	3.646996e+01	1.171962e+01
2.870000e-06	5.045701e-06	1.395911e-10	3.673029e+01	1.175976e+01
2.880000e-06	5.081295e-06	1.448451e-10	3.698940e+01	1.179942e+01
2.890000e-06	5.116657e-06	1.529927e-10	3.724682e+01	1.183887e+01
2.900000e-06	5.151540e-06	1.556074e-10	3.750075e+01	1.187834e+01
2.910000e-06	5.185759e-06	1.536769e-10	3.774985e+01	1.191803e+01
2.920000e-06	5.219431e-06	1.501968e-10	3.799497e+01	1.195808e+01
2.930000e-06	5.252582e-06	1.448726e-10	3.823629e+01	1.199860e+01
2.940000e-06	5.285147e-06	1.413071e-10	3.847334e+01	1.203963e+01
