# Temperatura_=_20.0
# Concentracion g/m^3_=_12600.0
# C_Vs_to_Am_M_A/Vsm_=_65563218390.804596
# pendiente_HvsI_1/m_=_3716.3
# ordenada_HvsI_A/m_=_1297.0
# frecuencia_Hz_=_135327.71241374078

Tiempo_(s)	Campo_(V.s)	Magnetizacion_(V.s)	Campo_(kA/m)	Magnetizacion_(A/m)
0.000000e+00	-6.566744e-06	-5.963921e-09	-4.774676e+01	-4.119657e+02
1.000000e-08	-6.566800e-06	-5.961661e-09	-4.774717e+01	-4.121689e+02
2.000000e-08	-6.566469e-06	-5.957522e-09	-4.774476e+01	-4.123816e+02
3.000000e-08	-6.565716e-06	-5.951020e-09	-4.773928e+01	-4.125969e+02
4.000000e-08	-6.564446e-06	-5.945946e-09	-4.773005e+01	-4.128066e+02
5.000000e-08	-6.562585e-06	-5.943732e-09	-4.771652e+01	-4.130020e+02
6.000000e-08	-6.560055e-06	-5.939427e-09	-4.769812e+01	-4.131734e+02
7.000000e-08	-6.556831e-06	-5.934003e-09	-4.767468e+01	-4.133104e+02
8.000000e-08	-6.553150e-06	-5.931882e-09	-4.764792e+01	-4.134027e+02
9.000000e-08	-6.549112e-06	-5.944860e-09	-4.761856e+01	-4.134397e+02
1.000000e-07	-6.544482e-06	-5.959955e-09	-4.758489e+01	-4.134110e+02
1.100000e-07	-6.539218e-06	-5.949551e-09	-4.754662e+01	-4.133069e+02
1.200000e-07	-6.533489e-06	-5.886669e-09	-4.750496e+01	-4.131182e+02
1.300000e-07	-6.527331e-06	-5.861333e-09	-4.746019e+01	-4.128370e+02
1.400000e-07	-6.520922e-06	-5.913971e-09	-4.741359e+01	-4.124562e+02
1.500000e-07	-6.514195e-06	-5.914920e-09	-4.736468e+01	-4.119706e+02
1.600000e-07	-6.506880e-06	-5.884968e-09	-4.731149e+01	-4.113763e+02
1.700000e-07	-6.499158e-06	-5.860294e-09	-4.725534e+01	-4.106711e+02
1.800000e-07	-6.491126e-06	-5.863083e-09	-4.719695e+01	-4.098549e+02
1.900000e-07	-6.482835e-06	-5.935790e-09	-4.713666e+01	-4.089293e+02
2.000000e-07	-6.474338e-06	-5.958827e-09	-4.707488e+01	-4.078979e+02
2.100000e-07	-6.465381e-06	-5.952530e-09	-4.700975e+01	-4.067659e+02
2.200000e-07	-6.455631e-06	-5.932802e-09	-4.693886e+01	-4.055407e+02
2.300000e-07	-6.444931e-06	-5.912301e-09	-4.686106e+01	-4.042309e+02
2.400000e-07	-6.433598e-06	-5.874350e-09	-4.677866e+01	-4.028470e+02
2.500000e-07	-6.421877e-06	-5.995231e-09	-4.669344e+01	-4.014005e+02
2.600000e-07	-6.409561e-06	-6.116652e-09	-4.660389e+01	-3.999041e+02
2.700000e-07	-6.396590e-06	-6.068383e-09	-4.650957e+01	-3.983713e+02
2.800000e-07	-6.383200e-06	-5.985402e-09	-4.641221e+01	-3.968160e+02
2.900000e-07	-6.369373e-06	-6.107308e-09	-4.631168e+01	-3.952523e+02
3.000000e-07	-6.354946e-06	-6.221568e-09	-4.620678e+01	-3.936944e+02
3.100000e-07	-6.340022e-06	-6.163337e-09	-4.609827e+01	-3.921561e+02
3.200000e-07	-6.324514e-06	-6.087575e-09	-4.598551e+01	-3.906503e+02
3.300000e-07	-6.308219e-06	-6.155261e-09	-4.586703e+01	-3.891893e+02
3.400000e-07	-6.291407e-06	-6.260552e-09	-4.574479e+01	-3.877840e+02
3.500000e-07	-6.274321e-06	-6.273508e-09	-4.562055e+01	-3.864439e+02
3.600000e-07	-6.256829e-06	-6.222247e-09	-4.549337e+01	-3.851770e+02
3.700000e-07	-6.238914e-06	-6.142420e-09	-4.536311e+01	-3.839896e+02
3.800000e-07	-6.220659e-06	-6.183847e-09	-4.523038e+01	-3.828860e+02
3.900000e-07	-6.202016e-06	-6.255097e-09	-4.509483e+01	-3.818689e+02
4.000000e-07	-6.182891e-06	-6.260943e-09	-4.495577e+01	-3.809387e+02
4.100000e-07	-6.163339e-06	-6.147123e-09	-4.481361e+01	-3.800941e+02
4.200000e-07	-6.143419e-06	-6.123368e-09	-4.466877e+01	-3.793322e+02
4.300000e-07	-6.123190e-06	-6.199416e-09	-4.452168e+01	-3.786481e+02
4.400000e-07	-6.102664e-06	-6.247475e-09	-4.437244e+01	-3.780354e+02
4.500000e-07	-6.081696e-06	-6.159466e-09	-4.421998e+01	-3.774865e+02
4.600000e-07	-6.060263e-06	-6.075623e-09	-4.406414e+01	-3.769925e+02
4.700000e-07	-6.038484e-06	-6.076488e-09	-4.390579e+01	-3.765437e+02
4.800000e-07	-6.016369e-06	-6.165688e-09	-4.374499e+01	-3.761296e+02
4.900000e-07	-5.993815e-06	-6.167787e-09	-4.358100e+01	-3.757395e+02
5.000000e-07	-5.970871e-06	-6.068593e-09	-4.341417e+01	-3.753623e+02
5.100000e-07	-5.947517e-06	-6.027401e-09	-4.324437e+01	-3.749873e+02
5.200000e-07	-5.923736e-06	-6.103984e-09	-4.307145e+01	-3.746039e+02
5.300000e-07	-5.899650e-06	-6.132626e-09	-4.289632e+01	-3.742024e+02
5.400000e-07	-5.875214e-06	-6.068705e-09	-4.271865e+01	-3.737735e+02
5.500000e-07	-5.850256e-06	-6.007969e-09	-4.253718e+01	-3.733094e+02
5.600000e-07	-5.824603e-06	-6.002135e-09	-4.235066e+01	-3.728029e+02
5.700000e-07	-5.798275e-06	-6.026904e-09	-4.215923e+01	-3.722483e+02
5.800000e-07	-5.771377e-06	-6.023051e-09	-4.196365e+01	-3.716413e+02
5.900000e-07	-5.743947e-06	-5.971365e-09	-4.176421e+01	-3.709789e+02
6.000000e-07	-5.716160e-06	-5.939026e-09	-4.156217e+01	-3.702593e+02
6.100000e-07	-5.688162e-06	-5.953410e-09	-4.135860e+01	-3.694821e+02
6.200000e-07	-5.659949e-06	-5.943951e-09	-4.115346e+01	-3.686483e+02
6.300000e-07	-5.631446e-06	-5.920324e-09	-4.094621e+01	-3.677599e+02
6.400000e-07	-5.602554e-06	-5.905677e-09	-4.073614e+01	-3.668201e+02
6.500000e-07	-5.573195e-06	-5.884430e-09	-4.052267e+01	-3.658326e+02
6.600000e-07	-5.543466e-06	-5.843540e-09	-4.030652e+01	-3.648023e+02
6.700000e-07	-5.513455e-06	-5.836510e-09	-4.008830e+01	-3.637343e+02
6.800000e-07	-5.483000e-06	-5.850989e-09	-3.986687e+01	-3.626341e+02
6.900000e-07	-5.452023e-06	-5.842184e-09	-3.964163e+01	-3.615073e+02
7.000000e-07	-5.420754e-06	-5.786295e-09	-3.941428e+01	-3.603598e+02
7.100000e-07	-5.389258e-06	-5.751268e-09	-3.918526e+01	-3.591968e+02
7.200000e-07	-5.357406e-06	-5.768158e-09	-3.895367e+01	-3.580235e+02
7.300000e-07	-5.325310e-06	-5.789672e-09	-3.872030e+01	-3.568444e+02
7.400000e-07	-5.292980e-06	-5.736858e-09	-3.848523e+01	-3.556633e+02
7.500000e-07	-5.260215e-06	-5.669448e-09	-3.824700e+01	-3.544836e+02
7.600000e-07	-5.226893e-06	-5.664336e-09	-3.800471e+01	-3.533076e+02
7.700000e-07	-5.192935e-06	-5.698368e-09	-3.775780e+01	-3.521368e+02
7.800000e-07	-5.158470e-06	-5.679921e-09	-3.750721e+01	-3.509719e+02
7.900000e-07	-5.123493e-06	-5.615771e-09	-3.725289e+01	-3.498127e+02
8.000000e-07	-5.088057e-06	-5.577948e-09	-3.699523e+01	-3.486584e+02
8.100000e-07	-5.052343e-06	-5.594632e-09	-3.673556e+01	-3.475072e+02
8.200000e-07	-5.016328e-06	-5.602388e-09	-3.647369e+01	-3.463569e+02
8.300000e-07	-4.980026e-06	-5.558788e-09	-3.620974e+01	-3.452044e+02
8.400000e-07	-4.943422e-06	-5.499057e-09	-3.594359e+01	-3.440467e+02
8.500000e-07	-4.906499e-06	-5.478091e-09	-3.567513e+01	-3.428801e+02
8.600000e-07	-4.869273e-06	-5.484383e-09	-3.540446e+01	-3.417008e+02
8.700000e-07	-4.831708e-06	-5.469638e-09	-3.513132e+01	-3.405052e+02
8.800000e-07	-4.793807e-06	-5.428256e-09	-3.485575e+01	-3.392894e+02
8.900000e-07	-4.755603e-06	-5.392149e-09	-3.457796e+01	-3.380502e+02
9.000000e-07	-4.717102e-06	-5.378119e-09	-3.429803e+01	-3.367844e+02
9.100000e-07	-4.678239e-06	-5.366665e-09	-3.401545e+01	-3.354894e+02
9.200000e-07	-4.639027e-06	-5.345365e-09	-3.373034e+01	-3.341629e+02
9.300000e-07	-4.599561e-06	-5.313609e-09	-3.344338e+01	-3.328035e+02
9.400000e-07	-4.559816e-06	-5.277988e-09	-3.315440e+01	-3.314102e+02
9.500000e-07	-4.519858e-06	-5.244966e-09	-3.286386e+01	-3.299826e+02
9.600000e-07	-4.479659e-06	-5.228620e-09	-3.257158e+01	-3.285209e+02
9.700000e-07	-4.439110e-06	-5.217850e-09	-3.227675e+01	-3.270261e+02
9.800000e-07	-4.398244e-06	-5.189319e-09	-3.197961e+01	-3.254995e+02
9.900000e-07	-4.356922e-06	-5.140944e-09	-3.167916e+01	-3.239431e+02
1.000000e-06	-4.315159e-06	-5.113120e-09	-3.137550e+01	-3.223590e+02
1.010000e-06	-4.272994e-06	-5.115641e-09	-3.106892e+01	-3.207498e+02
1.020000e-06	-4.230337e-06	-5.109581e-09	-3.075876e+01	-3.191184e+02
1.030000e-06	-4.187286e-06	-5.062563e-09	-3.044574e+01	-3.174676e+02
1.040000e-06	-4.143941e-06	-5.010631e-09	-3.013057e+01	-3.158001e+02
1.050000e-06	-4.100307e-06	-4.995024e-09	-2.981331e+01	-3.141188e+02
1.060000e-06	-4.056403e-06	-4.999405e-09	-2.949408e+01	-3.124260e+02
1.070000e-06	-4.012267e-06	-4.969847e-09	-2.917317e+01	-3.107240e+02
1.080000e-06	-3.967928e-06	-4.910134e-09	-2.885078e+01	-3.090145e+02
1.090000e-06	-3.923330e-06	-4.874052e-09	-2.852651e+01	-3.072988e+02
1.100000e-06	-3.878429e-06	-4.875346e-09	-2.820004e+01	-3.055777e+02
1.110000e-06	-3.833302e-06	-4.864155e-09	-2.787192e+01	-3.038514e+02
1.120000e-06	-3.787909e-06	-4.813455e-09	-2.754187e+01	-3.021195e+02
1.130000e-06	-3.742185e-06	-4.760662e-09	-2.720941e+01	-3.003811e+02
1.140000e-06	-3.696160e-06	-4.740938e-09	-2.687476e+01	-2.986348e+02
1.150000e-06	-3.649895e-06	-4.731471e-09	-2.653836e+01	-2.968787e+02
1.160000e-06	-3.603348e-06	-4.696118e-09	-2.619992e+01	-2.951103e+02
1.170000e-06	-3.556601e-06	-4.643896e-09	-2.586003e+01	-2.933271e+02
1.180000e-06	-3.509732e-06	-4.606876e-09	-2.551924e+01	-2.915259e+02
1.190000e-06	-3.462606e-06	-4.588183e-09	-2.517659e+01	-2.897036e+02
1.200000e-06	-3.415223e-06	-4.562187e-09	-2.483207e+01	-2.878570e+02
1.210000e-06	-3.367676e-06	-4.520190e-09	-2.448635e+01	-2.859827e+02
1.220000e-06	-3.319948e-06	-4.478180e-09	-2.413932e+01	-2.840775e+02
1.230000e-06	-3.271978e-06	-4.447961e-09	-2.379054e+01	-2.821387e+02
1.240000e-06	-3.223699e-06	-4.419775e-09	-2.343950e+01	-2.801635e+02
1.250000e-06	-3.175123e-06	-4.385673e-09	-2.308630e+01	-2.781496e+02
1.260000e-06	-3.126274e-06	-4.349508e-09	-2.273112e+01	-2.760952e+02
1.270000e-06	-3.077116e-06	-4.313987e-09	-2.237369e+01	-2.739990e+02
1.280000e-06	-3.027685e-06	-4.277332e-09	-2.201428e+01	-2.718601e+02
1.290000e-06	-2.977972e-06	-4.242674e-09	-2.165282e+01	-2.696782e+02
1.300000e-06	-2.927799e-06	-4.212117e-09	-2.128801e+01	-2.674536e+02
1.310000e-06	-2.877391e-06	-4.182128e-09	-2.092149e+01	-2.651870e+02
1.320000e-06	-2.826818e-06	-4.141679e-09	-2.055378e+01	-2.628798e+02
1.330000e-06	-2.775948e-06	-4.097459e-09	-2.018391e+01	-2.605335e+02
1.340000e-06	-2.724799e-06	-4.059316e-09	-1.981200e+01	-2.581503e+02
1.350000e-06	-2.673283e-06	-4.027521e-09	-1.943742e+01	-2.557326e+02
1.360000e-06	-2.621537e-06	-3.988644e-09	-1.906118e+01	-2.532828e+02
1.370000e-06	-2.569684e-06	-3.939391e-09	-1.868416e+01	-2.508038e+02
1.380000e-06	-2.517656e-06	-3.896182e-09	-1.830586e+01	-2.482982e+02
1.390000e-06	-2.465389e-06	-3.866326e-09	-1.792583e+01	-2.457688e+02
1.400000e-06	-2.412946e-06	-3.834514e-09	-1.754452e+01	-2.432181e+02
1.410000e-06	-2.360313e-06	-3.788577e-09	-1.716182e+01	-2.406484e+02
1.420000e-06	-2.307520e-06	-3.739229e-09	-1.677797e+01	-2.380617e+02
1.430000e-06	-2.254648e-06	-3.700606e-09	-1.639353e+01	-2.354596e+02
1.440000e-06	-2.201653e-06	-3.666124e-09	-1.600821e+01	-2.328433e+02
1.450000e-06	-2.148502e-06	-3.621307e-09	-1.562174e+01	-2.302135e+02
1.460000e-06	-2.095180e-06	-3.568609e-09	-1.523404e+01	-2.275703e+02
1.470000e-06	-2.041694e-06	-3.523283e-09	-1.484514e+01	-2.249135e+02
1.480000e-06	-1.988063e-06	-3.488095e-09	-1.445520e+01	-2.222424e+02
1.490000e-06	-1.934337e-06	-3.448443e-09	-1.406455e+01	-2.195555e+02
1.500000e-06	-1.880444e-06	-3.399731e-09	-1.367270e+01	-2.168512e+02
1.510000e-06	-1.826383e-06	-3.349574e-09	-1.327962e+01	-2.141275e+02
1.520000e-06	-1.772216e-06	-3.304537e-09	-1.288577e+01	-2.113817e+02
1.530000e-06	-1.717892e-06	-3.262854e-09	-1.249079e+01	-2.086114e+02
1.540000e-06	-1.663440e-06	-3.218852e-09	-1.209486e+01	-2.058135e+02
1.550000e-06	-1.608894e-06	-3.169521e-09	-1.169826e+01	-2.029852e+02
1.560000e-06	-1.554234e-06	-3.119347e-09	-1.130083e+01	-2.001235e+02
1.570000e-06	-1.499497e-06	-3.071989e-09	-1.090284e+01	-1.972254e+02
1.580000e-06	-1.444644e-06	-3.029279e-09	-1.050400e+01	-1.942882e+02
1.590000e-06	-1.389731e-06	-2.985185e-09	-1.010473e+01	-1.913094e+02
1.600000e-06	-1.334778e-06	-2.939382e-09	-9.705166e+00	-1.882868e+02
1.610000e-06	-1.279704e-06	-2.889937e-09	-9.304718e+00	-1.852185e+02
1.620000e-06	-1.224475e-06	-2.840207e-09	-8.903150e+00	-1.821030e+02
1.630000e-06	-1.169075e-06	-2.790661e-09	-8.500342e+00	-1.789393e+02
1.640000e-06	-1.113605e-06	-2.737868e-09	-8.097013e+00	-1.757266e+02
1.650000e-06	-1.058035e-06	-2.682662e-09	-7.692970e+00	-1.724649e+02
1.660000e-06	-1.002427e-06	-2.625718e-09	-7.288645e+00	-1.691544e+02
1.670000e-06	-9.468885e-07	-2.570675e-09	-6.884821e+00	-1.657957e+02
1.680000e-06	-8.913022e-07	-2.518514e-09	-6.480654e+00	-1.623899e+02
1.690000e-06	-8.356154e-07	-2.465599e-09	-6.075755e+00	-1.589383e+02
1.700000e-06	-7.799364e-07	-2.409102e-09	-5.670914e+00	-1.554424e+02
1.710000e-06	-7.243017e-07	-2.354093e-09	-5.266394e+00	-1.519042e+02
1.720000e-06	-6.685847e-07	-2.302751e-09	-4.861276e+00	-1.483254e+02
1.730000e-06	-6.128220e-07	-2.251425e-09	-4.455825e+00	-1.447081e+02
1.740000e-06	-5.570716e-07	-2.192494e-09	-4.050465e+00	-1.410543e+02
1.750000e-06	-5.012402e-07	-2.129946e-09	-3.644515e+00	-1.373657e+02
1.760000e-06	-4.453554e-07	-2.069618e-09	-3.238177e+00	-1.336442e+02
1.770000e-06	-3.894738e-07	-2.014986e-09	-2.831862e+00	-1.298911e+02
1.780000e-06	-3.336043e-07	-1.960422e-09	-2.425635e+00	-1.261077e+02
1.790000e-06	-2.777240e-07	-1.900976e-09	-2.019330e+00	-1.222948e+02
1.800000e-06	-2.218004e-07	-1.838920e-09	-1.612709e+00	-1.184531e+02
1.810000e-06	-1.658330e-07	-1.781967e-09	-1.205771e+00	-1.145826e+02
1.820000e-06	-1.098590e-07	-1.727427e-09	-7.987841e-01	-1.106832e+02
1.830000e-06	-5.393621e-08	-1.669075e-09	-3.921699e-01	-1.067544e+02
1.840000e-06	1.940158e-09	-1.604922e-09	1.410688e-02	-1.027951e+02
1.850000e-06	5.785669e-08	-1.537464e-09	4.206757e-01	-9.880409e+01
1.860000e-06	1.137294e-07	-1.471553e-09	8.269255e-01	-9.477985e+01
1.870000e-06	1.695880e-07	-1.408483e-09	1.233073e+00	-9.072055e+01
1.880000e-06	2.255006e-07	-1.345604e-09	1.639614e+00	-8.662420e+01
1.890000e-06	2.813745e-07	-1.276664e-09	2.045872e+00	-8.248865e+01
1.900000e-06	3.372011e-07	-1.207464e-09	2.451787e+00	-7.831168e+01
1.910000e-06	3.930193e-07	-1.142584e-09	2.857641e+00	-7.409107e+01
1.920000e-06	4.489139e-07	-1.080220e-09	3.264050e+00	-6.982464e+01
1.930000e-06	5.047908e-07	-1.015471e-09	3.670331e+00	-6.551030e+01
1.940000e-06	5.605840e-07	-9.445015e-10	4.076003e+00	-6.114614e+01
1.950000e-06	6.163658e-07	-8.734768e-10	4.481593e+00	-5.673047e+01
1.960000e-06	6.721271e-07	-8.047215e-10	4.887032e+00	-5.226183e+01
1.970000e-06	7.278047e-07	-7.351395e-10	5.291865e+00	-4.773908e+01
1.980000e-06	7.833917e-07	-6.602716e-10	5.696037e+00	-4.316136e+01
1.990000e-06	8.389637e-07	-5.824012e-10	6.100101e+00	-3.852818e+01
2.000000e-06	8.945178e-07	-5.085099e-10	6.504035e+00	-3.383935e+01
2.010000e-06	9.500239e-07	-4.401563e-10	6.907619e+00	-2.909507e+01
2.020000e-06	1.005428e-06	-3.691182e-10	7.310464e+00	-2.429582e+01
2.030000e-06	1.060799e-06	-2.919739e-10	7.713060e+00	-1.944242e+01
2.040000e-06	1.116154e-06	-2.144195e-10	8.115551e+00	-1.453598e+01
2.050000e-06	1.171444e-06	-1.396273e-10	8.517560e+00	-9.577866e+00
2.060000e-06	1.226637e-06	-6.342451e-11	8.918871e+00	-4.569687e+00
2.070000e-06	1.281724e-06	1.851703e-11	9.319405e+00	4.867549e-01
2.080000e-06	1.336778e-06	1.021041e-10	9.719707e+00	5.589488e+00
2.090000e-06	1.391697e-06	1.819975e-10	1.011902e+01	1.073640e+01
2.100000e-06	1.446466e-06	2.601504e-10	1.051725e+01	1.592529e+01
2.110000e-06	1.501153e-06	3.416829e-10	1.091488e+01	2.115386e+01
2.120000e-06	1.555715e-06	4.235107e-10	1.131160e+01	2.641974e+01
2.130000e-06	1.610132e-06	5.037928e-10	1.170726e+01	3.172056e+01
2.140000e-06	1.664413e-06	5.846356e-10	1.210194e+01	3.705386e+01
2.150000e-06	1.718657e-06	6.688370e-10	1.249634e+01	4.241719e+01
2.160000e-06	1.772826e-06	7.542654e-10	1.289021e+01	4.780805e+01
2.170000e-06	1.826858e-06	8.417601e-10	1.328307e+01	5.322390e+01
2.180000e-06	1.880760e-06	9.300059e-10	1.367500e+01	5.866212e+01
2.190000e-06	1.934583e-06	1.018517e-09	1.406634e+01	6.412004e+01
2.200000e-06	1.988345e-06	1.105411e-09	1.445725e+01	6.959488e+01
2.210000e-06	2.041880e-06	1.191085e-09	1.484650e+01	7.508375e+01
2.220000e-06	2.095209e-06	1.277298e-09	1.523426e+01	8.058359e+01
2.230000e-06	2.148439e-06	1.364345e-09	1.562129e+01	8.609119e+01
2.240000e-06	2.201502e-06	1.452370e-09	1.600711e+01	9.160315e+01
2.250000e-06	2.254369e-06	1.540893e-09	1.639150e+01	9.711587e+01
2.260000e-06	2.307069e-06	1.628420e-09	1.677468e+01	1.026255e+02
2.270000e-06	2.359547e-06	1.716570e-09	1.715625e+01	1.081281e+02
2.280000e-06	2.411881e-06	1.806084e-09	1.753678e+01	1.136193e+02
2.290000e-06	2.464090e-06	1.894915e-09	1.791639e+01	1.190947e+02
2.300000e-06	2.516120e-06	1.981207e-09	1.829470e+01	1.245497e+02
2.310000e-06	2.567956e-06	2.064413e-09	1.867159e+01	1.299795e+02
2.320000e-06	2.619570e-06	2.146066e-09	1.904688e+01	1.353792e+02
2.330000e-06	2.671033e-06	2.229100e-09	1.942107e+01	1.407438e+02
2.340000e-06	2.722322e-06	2.314575e-09	1.979399e+01	1.460685e+02
2.350000e-06	2.773287e-06	2.396887e-09	2.016456e+01	1.513481e+02
2.360000e-06	2.823866e-06	2.476621e-09	2.053231e+01	1.565781e+02
2.370000e-06	2.874061e-06	2.557013e-09	2.089728e+01	1.617536e+02
2.380000e-06	2.923900e-06	2.636937e-09	2.125966e+01	1.668703e+02
2.390000e-06	2.973396e-06	2.714025e-09	2.161955e+01	1.719242e+02
2.400000e-06	3.022425e-06	2.790383e-09	2.197604e+01	1.769115e+02
2.410000e-06	3.071179e-06	2.866008e-09	2.233053e+01	1.818289e+02
2.420000e-06	3.119784e-06	2.939018e-09	2.268393e+01	1.866736e+02
2.430000e-06	3.168132e-06	3.011079e-09	2.303547e+01	1.914432e+02
2.440000e-06	3.216279e-06	3.084195e-09	2.338555e+01	1.961361e+02
2.450000e-06	3.264282e-06	3.157558e-09	2.373458e+01	2.007510e+02
2.460000e-06	3.312158e-06	3.229372e-09	2.408268e+01	2.052873e+02
2.470000e-06	3.359919e-06	3.300768e-09	2.442996e+01	2.097449e+02
2.480000e-06	3.407508e-06	3.370528e-09	2.477597e+01	2.141242e+02
2.490000e-06	3.454732e-06	3.438280e-09	2.511934e+01	2.184263e+02
2.500000e-06	3.501617e-06	3.503680e-09	2.546024e+01	2.226525e+02
2.510000e-06	3.548185e-06	3.567466e-09	2.579883e+01	2.268047e+02
2.520000e-06	3.594560e-06	3.631916e-09	2.613603e+01	2.308851e+02
2.530000e-06	3.640807e-06	3.694840e-09	2.647229e+01	2.348961e+02
2.540000e-06	3.686793e-06	3.754129e-09	2.680665e+01	2.388403e+02
2.550000e-06	3.732595e-06	3.810989e-09	2.713968e+01	2.427203e+02
2.560000e-06	3.778166e-06	3.867625e-09	2.747103e+01	2.465390e+02
2.570000e-06	3.823328e-06	3.926460e-09	2.779939e+01	2.502990e+02
2.580000e-06	3.868199e-06	3.986420e-09	2.812565e+01	2.540028e+02
2.590000e-06	3.912789e-06	4.043170e-09	2.844987e+01	2.576527e+02
2.600000e-06	3.957087e-06	4.097241e-09	2.877196e+01	2.612506e+02
2.610000e-06	4.001249e-06	4.150761e-09	2.909306e+01	2.647983e+02
2.620000e-06	4.045250e-06	4.204500e-09	2.941299e+01	2.682970e+02
2.630000e-06	4.089137e-06	4.255860e-09	2.973209e+01	2.717477e+02
2.640000e-06	4.132857e-06	4.304239e-09	3.004998e+01	2.751507e+02
2.650000e-06	4.176244e-06	4.353095e-09	3.036545e+01	2.785062e+02
2.660000e-06	4.219250e-06	4.404049e-09	3.067815e+01	2.818138e+02
2.670000e-06	4.261829e-06	4.453631e-09	3.098773e+01	2.850727e+02
2.680000e-06	4.303820e-06	4.500488e-09	3.129305e+01	2.882819e+02
2.690000e-06	4.345262e-06	4.546950e-09	3.159438e+01	2.914401e+02
2.700000e-06	4.386235e-06	4.593352e-09	3.189229e+01	2.945458e+02
2.710000e-06	4.426787e-06	4.638743e-09	3.218715e+01	2.975972e+02
2.720000e-06	4.467108e-06	4.682338e-09	3.248032e+01	3.005927e+02
2.730000e-06	4.507256e-06	4.724578e-09	3.277223e+01	3.035306e+02
2.740000e-06	4.547209e-06	4.764179e-09	3.306274e+01	3.064093e+02
2.750000e-06	4.586943e-06	4.802265e-09	3.335164e+01	3.092273e+02
2.760000e-06	4.626407e-06	4.840917e-09	3.363858e+01	3.119836e+02
2.770000e-06	4.665508e-06	4.880813e-09	3.392289e+01	3.146774e+02
2.780000e-06	4.704263e-06	4.922414e-09	3.420467e+01	3.173082e+02
2.790000e-06	4.742703e-06	4.961906e-09	3.448417e+01	3.198759e+02
2.800000e-06	4.780836e-06	5.000760e-09	3.476144e+01	3.223811e+02
2.810000e-06	4.818695e-06	5.037372e-09	3.503671e+01	3.248247e+02
2.820000e-06	4.856272e-06	5.072567e-09	3.530993e+01	3.272079e+02
2.830000e-06	4.893435e-06	5.106413e-09	3.558014e+01	3.295327e+02
2.840000e-06	4.930185e-06	5.141106e-09	3.584735e+01	3.318013e+02
2.850000e-06	4.966603e-06	5.179300e-09	3.611215e+01	3.340163e+02
2.860000e-06	5.002731e-06	5.216813e-09	3.637483e+01	3.361806e+02
2.870000e-06	5.038695e-06	5.250933e-09	3.663633e+01	3.382973e+02
2.880000e-06	5.074522e-06	5.283514e-09	3.689683e+01	3.403697e+02
2.890000e-06	5.110120e-06	5.319642e-09	3.715565e+01	3.424012e+02
2.900000e-06	5.145361e-06	5.354592e-09	3.741189e+01	3.443951e+02
