# Temperatura_=_20.0
# Concentracion g/m^3_=_12600.0
# C_Vs_to_Am_M_A/Vsm_=_65563218390.804596
# pendiente_HvsI_1/m_=_3716.3
# ordenada_HvsI_A/m_=_1297.0
# frecuencia_Hz_=_135331.0615838648

Tiempo_(s)	Campo_(V.s)	Magnetizacion_(V.s)	Campo_(kA/m)	Magnetizacion_(A/m)
0.000000e+00	-6.573835e-06	-1.002963e-09	-4.775485e+01	-5.265545e+01
1.000000e-08	-6.574013e-06	-1.009846e-09	-4.775614e+01	-5.277330e+01
2.000000e-08	-6.573753e-06	-1.012379e-09	-4.775426e+01	-5.289682e+01
3.000000e-08	-6.572918e-06	-1.011557e-09	-4.774819e+01	-5.302220e+01
4.000000e-08	-6.571385e-06	-1.013245e-09	-4.773705e+01	-5.314521e+01
5.000000e-08	-6.569177e-06	-1.014914e-09	-4.772102e+01	-5.326134e+01
6.000000e-08	-6.566429e-06	-1.013173e-09	-4.770105e+01	-5.336590e+01
7.000000e-08	-6.563238e-06	-1.019258e-09	-4.767787e+01	-5.345412e+01
8.000000e-08	-6.559613e-06	-1.056013e-09	-4.765154e+01	-5.352131e+01
9.000000e-08	-6.555397e-06	-1.068122e-09	-4.762091e+01	-5.356299e+01
1.000000e-07	-6.550537e-06	-9.827137e-10	-4.758560e+01	-5.357498e+01
1.100000e-07	-6.545164e-06	-8.597890e-10	-4.754658e+01	-5.355357e+01
1.200000e-07	-6.539469e-06	-9.393252e-10	-4.750521e+01	-5.349560e+01
1.300000e-07	-6.533441e-06	-1.172203e-09	-4.746141e+01	-5.339857e+01
1.400000e-07	-6.526986e-06	-1.193945e-09	-4.741452e+01	-5.326076e+01
1.500000e-07	-6.520124e-06	-9.610475e-10	-4.736467e+01	-5.308122e+01
1.600000e-07	-6.512855e-06	-8.583830e-10	-4.731187e+01	-5.285992e+01
1.700000e-07	-6.505159e-06	-9.712818e-10	-4.725596e+01	-5.259770e+01
1.800000e-07	-6.497046e-06	-1.085121e-09	-4.719703e+01	-5.229630e+01
1.900000e-07	-6.488715e-06	-1.144713e-09	-4.713651e+01	-5.195835e+01
2.000000e-07	-6.480145e-06	-1.025603e-09	-4.707425e+01	-5.158734e+01
2.100000e-07	-6.470876e-06	-8.775735e-10	-4.700692e+01	-5.118752e+01
2.200000e-07	-6.460654e-06	-8.571754e-10	-4.693266e+01	-5.076385e+01
2.300000e-07	-6.449796e-06	-9.757528e-10	-4.685379e+01	-5.032190e+01
2.400000e-07	-6.438547e-06	-9.193322e-10	-4.677207e+01	-4.986769e+01
2.500000e-07	-6.426776e-06	-6.819529e-10	-4.668656e+01	-4.940762e+01
2.600000e-07	-6.414376e-06	-6.280873e-10	-4.659648e+01	-4.894828e+01
2.700000e-07	-6.401407e-06	-7.388841e-10	-4.650227e+01	-4.849635e+01
2.800000e-07	-6.387974e-06	-6.611287e-10	-4.640469e+01	-4.805838e+01
2.900000e-07	-6.373971e-06	-4.363636e-10	-4.630296e+01	-4.764071e+01
3.000000e-07	-6.359419e-06	-4.737905e-10	-4.619725e+01	-4.724930e+01
3.100000e-07	-6.344316e-06	-6.286436e-10	-4.608754e+01	-4.688959e+01
3.200000e-07	-6.328571e-06	-5.336572e-10	-4.597316e+01	-4.656637e+01
3.300000e-07	-6.312258e-06	-4.631239e-10	-4.585465e+01	-4.628370e+01
3.400000e-07	-6.295374e-06	-5.956208e-10	-4.573200e+01	-4.604480e+01
3.500000e-07	-6.278045e-06	-6.441923e-10	-4.560612e+01	-4.585198e+01
3.600000e-07	-6.260433e-06	-5.312090e-10	-4.547818e+01	-4.570660e+01
3.700000e-07	-6.242515e-06	-4.664282e-10	-4.534802e+01	-4.560905e+01
3.800000e-07	-6.224120e-06	-5.205786e-10	-4.521439e+01	-4.555873e+01
3.900000e-07	-6.205303e-06	-5.726918e-10	-4.507769e+01	-4.555410e+01
4.000000e-07	-6.186140e-06	-5.629283e-10	-4.493849e+01	-4.559270e+01
4.100000e-07	-6.166543e-06	-4.177100e-10	-4.479613e+01	-4.567125e+01
4.200000e-07	-6.146642e-06	-3.877990e-10	-4.465156e+01	-4.578568e+01
4.300000e-07	-6.126374e-06	-5.312331e-10	-4.450432e+01	-4.593131e+01
4.400000e-07	-6.105606e-06	-6.152670e-10	-4.435346e+01	-4.610290e+01
4.500000e-07	-6.084421e-06	-4.706904e-10	-4.419956e+01	-4.629481e+01
4.600000e-07	-6.062917e-06	-3.234600e-10	-4.404335e+01	-4.650114e+01
4.700000e-07	-6.041017e-06	-3.850589e-10	-4.388425e+01	-4.671586e+01
4.800000e-07	-6.018597e-06	-6.057371e-10	-4.372139e+01	-4.693295e+01
4.900000e-07	-5.995766e-06	-6.230142e-10	-4.355554e+01	-4.714657e+01
5.000000e-07	-5.972688e-06	-3.706346e-10	-4.338789e+01	-4.735111e+01
5.100000e-07	-5.949280e-06	-2.935699e-10	-4.321785e+01	-4.754141e+01
5.200000e-07	-5.925558e-06	-5.432330e-10	-4.304552e+01	-4.771281e+01
5.300000e-07	-5.901418e-06	-6.614571e-10	-4.287016e+01	-4.786124e+01
5.400000e-07	-5.876729e-06	-4.698398e-10	-4.269081e+01	-4.798330e+01
5.500000e-07	-5.851440e-06	-3.337067e-10	-4.250710e+01	-4.807637e+01
5.600000e-07	-5.825551e-06	-4.256744e-10	-4.231903e+01	-4.813853e+01
5.700000e-07	-5.799119e-06	-5.659756e-10	-4.212702e+01	-4.816869e+01
5.800000e-07	-5.772183e-06	-5.575846e-10	-4.193134e+01	-4.816653e+01
5.900000e-07	-5.744893e-06	-4.405386e-10	-4.173310e+01	-4.813244e+01
6.000000e-07	-5.717277e-06	-3.809543e-10	-4.153248e+01	-4.806757e+01
6.100000e-07	-5.689335e-06	-4.630198e-10	-4.132951e+01	-4.797365e+01
6.200000e-07	-5.661023e-06	-5.436622e-10	-4.112383e+01	-4.785302e+01
6.300000e-07	-5.632309e-06	-5.282469e-10	-4.091525e+01	-4.770849e+01
6.400000e-07	-5.603271e-06	-4.521148e-10	-4.070430e+01	-4.754321e+01
6.500000e-07	-5.573889e-06	-4.170250e-10	-4.049086e+01	-4.736064e+01
6.600000e-07	-5.544068e-06	-4.617500e-10	-4.027423e+01	-4.716440e+01
6.700000e-07	-5.513820e-06	-5.401737e-10	-4.005450e+01	-4.695813e+01
6.800000e-07	-5.483187e-06	-5.351432e-10	-3.983197e+01	-4.674547e+01
6.900000e-07	-5.452219e-06	-4.570080e-10	-3.960701e+01	-4.652986e+01
7.000000e-07	-5.420956e-06	-4.153335e-10	-3.937990e+01	-4.631454e+01
7.100000e-07	-5.389354e-06	-4.745058e-10	-3.915032e+01	-4.610240e+01
7.200000e-07	-5.357405e-06	-5.552982e-10	-3.891824e+01	-4.589595e+01
7.300000e-07	-5.325221e-06	-5.380558e-10	-3.868444e+01	-4.569726e+01
7.400000e-07	-5.292703e-06	-4.357469e-10	-3.844822e+01	-4.550790e+01
7.500000e-07	-5.259752e-06	-4.115923e-10	-3.820885e+01	-4.532897e+01
7.600000e-07	-5.226296e-06	-5.107259e-10	-3.796581e+01	-4.516103e+01
7.700000e-07	-5.192264e-06	-5.740762e-10	-3.771859e+01	-4.500415e+01
7.800000e-07	-5.157734e-06	-5.006066e-10	-3.746775e+01	-4.485794e+01
7.900000e-07	-5.122713e-06	-4.128062e-10	-3.721334e+01	-4.472156e+01
8.000000e-07	-5.087279e-06	-4.436472e-10	-3.695594e+01	-4.459378e+01
8.100000e-07	-5.051504e-06	-5.385866e-10	-3.669605e+01	-4.447306e+01
8.200000e-07	-5.015389e-06	-5.524191e-10	-3.643371e+01	-4.435759e+01
8.300000e-07	-4.978992e-06	-4.643278e-10	-3.616930e+01	-4.424540e+01
8.400000e-07	-4.942366e-06	-4.106445e-10	-3.590324e+01	-4.413439e+01
8.500000e-07	-4.905380e-06	-4.668374e-10	-3.563456e+01	-4.402245e+01
8.600000e-07	-4.868043e-06	-5.362296e-10	-3.536333e+01	-4.390751e+01
8.700000e-07	-4.830479e-06	-5.060944e-10	-3.509044e+01	-4.378762e+01
8.800000e-07	-4.792568e-06	-4.312422e-10	-3.481505e+01	-4.366102e+01
8.900000e-07	-4.754242e-06	-4.257543e-10	-3.453663e+01	-4.352618e+01
9.000000e-07	-4.715552e-06	-4.846566e-10	-3.425557e+01	-4.338186e+01
9.100000e-07	-4.676587e-06	-5.093335e-10	-3.397252e+01	-4.322713e+01
9.200000e-07	-4.637366e-06	-4.732682e-10	-3.368760e+01	-4.306142e+01
9.300000e-07	-4.597880e-06	-4.351102e-10	-3.340076e+01	-4.288449e+01
9.400000e-07	-4.558090e-06	-4.435396e-10	-3.311171e+01	-4.269648e+01
9.500000e-07	-4.517934e-06	-4.730150e-10	-3.282000e+01	-4.249784e+01
9.600000e-07	-4.477456e-06	-4.820075e-10	-3.252595e+01	-4.228934e+01
9.700000e-07	-4.436714e-06	-4.615301e-10	-3.222998e+01	-4.207202e+01
9.800000e-07	-4.395689e-06	-4.382545e-10	-3.193197e+01	-4.184716e+01
9.900000e-07	-4.354250e-06	-4.352012e-10	-3.163094e+01	-4.161620e+01
1.000000e-06	-4.312290e-06	-4.571344e-10	-3.132612e+01	-4.138071e+01
1.010000e-06	-4.269823e-06	-4.759344e-10	-3.101763e+01	-4.114233e+01
1.020000e-06	-4.226973e-06	-4.635363e-10	-3.070635e+01	-4.090269e+01
1.030000e-06	-4.183810e-06	-4.303825e-10	-3.039279e+01	-4.066335e+01
1.040000e-06	-4.140373e-06	-4.226267e-10	-3.007725e+01	-4.042577e+01
1.050000e-06	-4.096745e-06	-4.509628e-10	-2.976032e+01	-4.019123e+01
1.060000e-06	-4.052903e-06	-4.678776e-10	-2.944183e+01	-3.996079e+01
1.070000e-06	-4.008752e-06	-4.398081e-10	-2.912110e+01	-3.973527e+01
1.080000e-06	-3.964251e-06	-4.055968e-10	-2.879783e+01	-3.951521e+01
1.090000e-06	-3.919485e-06	-4.163375e-10	-2.847264e+01	-3.930082e+01
1.100000e-06	-3.874481e-06	-4.519363e-10	-2.814571e+01	-3.909203e+01
1.110000e-06	-3.829231e-06	-4.558379e-10	-2.781700e+01	-3.888846e+01
1.120000e-06	-3.783719e-06	-4.235148e-10	-2.748638e+01	-3.868944e+01
1.130000e-06	-3.737924e-06	-4.048594e-10	-2.715371e+01	-3.849401e+01
1.140000e-06	-3.691839e-06	-4.230092e-10	-2.681893e+01	-3.830101e+01
1.150000e-06	-3.645489e-06	-4.469586e-10	-2.648222e+01	-3.810904e+01
1.160000e-06	-3.598941e-06	-4.385664e-10	-2.614408e+01	-3.791657e+01
1.170000e-06	-3.552250e-06	-4.090473e-10	-2.580490e+01	-3.772198e+01
1.180000e-06	-3.505352e-06	-3.999225e-10	-2.546422e+01	-3.752358e+01
1.190000e-06	-3.458145e-06	-4.191200e-10	-2.512129e+01	-3.731971e+01
1.200000e-06	-3.410676e-06	-4.313397e-10	-2.477645e+01	-3.710876e+01
1.210000e-06	-3.363013e-06	-4.186428e-10	-2.443021e+01	-3.688924e+01
1.220000e-06	-3.315136e-06	-3.991153e-10	-2.408242e+01	-3.665984e+01
1.230000e-06	-3.266975e-06	-3.966182e-10	-2.373256e+01	-3.641942e+01
1.240000e-06	-3.218550e-06	-4.093810e-10	-2.338078e+01	-3.616713e+01
1.250000e-06	-3.169799e-06	-4.164808e-10	-2.302663e+01	-3.590235e+01
1.260000e-06	-3.120775e-06	-4.041617e-10	-2.267050e+01	-3.562478e+01
1.270000e-06	-3.071556e-06	-3.815780e-10	-2.231296e+01	-3.533440e+01
1.280000e-06	-3.021995e-06	-3.744003e-10	-2.195293e+01	-3.503149e+01
1.290000e-06	-2.972065e-06	-3.894997e-10	-2.159021e+01	-3.471663e+01
1.300000e-06	-2.921780e-06	-4.002614e-10	-2.122493e+01	-3.439067e+01
1.310000e-06	-2.871170e-06	-3.878897e-10	-2.085728e+01	-3.405467e+01
1.320000e-06	-2.820322e-06	-3.691351e-10	-2.048789e+01	-3.370993e+01
1.330000e-06	-2.769288e-06	-3.703096e-10	-2.011716e+01	-3.335790e+01
1.340000e-06	-2.717955e-06	-3.865116e-10	-1.974426e+01	-3.300015e+01
1.350000e-06	-2.666297e-06	-3.897767e-10	-1.936900e+01	-3.263833e+01
1.360000e-06	-2.614412e-06	-3.701559e-10	-1.899209e+01	-3.227407e+01
1.370000e-06	-2.562362e-06	-3.519513e-10	-1.861398e+01	-3.190901e+01
1.380000e-06	-2.510145e-06	-3.583570e-10	-1.823465e+01	-3.154467e+01
1.390000e-06	-2.457787e-06	-3.767684e-10	-1.785430e+01	-3.118245e+01
1.400000e-06	-2.405335e-06	-3.769459e-10	-1.747327e+01	-3.082359e+01
1.410000e-06	-2.352653e-06	-3.577445e-10	-1.709057e+01	-3.046909e+01
1.420000e-06	-2.299738e-06	-3.486231e-10	-1.670618e+01	-3.011973e+01
1.430000e-06	-2.246631e-06	-3.619063e-10	-1.632039e+01	-2.977603e+01
1.440000e-06	-2.193340e-06	-3.726979e-10	-1.593326e+01	-2.943823e+01
1.450000e-06	-2.140018e-06	-3.629679e-10	-1.554591e+01	-2.910629e+01
1.460000e-06	-2.086671e-06	-3.457638e-10	-1.515837e+01	-2.877991e+01
1.470000e-06	-2.033016e-06	-3.407390e-10	-1.476861e+01	-2.845851e+01
1.480000e-06	-1.979115e-06	-3.482117e-10	-1.437705e+01	-2.814129e+01
1.490000e-06	-1.925114e-06	-3.513633e-10	-1.398476e+01	-2.782725e+01
1.500000e-06	-1.870982e-06	-3.403422e-10	-1.359153e+01	-2.751519e+01
1.510000e-06	-1.816823e-06	-3.264225e-10	-1.319809e+01	-2.720379e+01
1.520000e-06	-1.762496e-06	-3.238132e-10	-1.280344e+01	-2.689165e+01
1.530000e-06	-1.707932e-06	-3.298120e-10	-1.240707e+01	-2.657732e+01
1.540000e-06	-1.653384e-06	-3.316355e-10	-1.201082e+01	-2.625933e+01
1.550000e-06	-1.598830e-06	-3.225008e-10	-1.161451e+01	-2.593630e+01
1.560000e-06	-1.544167e-06	-3.095252e-10	-1.121742e+01	-2.560689e+01
1.570000e-06	-1.489367e-06	-3.034533e-10	-1.081933e+01	-2.526994e+01
1.580000e-06	-1.434362e-06	-3.040639e-10	-1.041975e+01	-2.492442e+01
1.590000e-06	-1.379262e-06	-3.023339e-10	-1.001949e+01	-2.456950e+01
1.600000e-06	-1.324142e-06	-2.915083e-10	-9.619072e+00	-2.420456e+01
1.610000e-06	-1.269016e-06	-2.792784e-10	-9.218620e+00	-2.382922e+01
1.620000e-06	-1.213718e-06	-2.763403e-10	-8.816911e+00	-2.344333e+01
1.630000e-06	-1.158262e-06	-2.810838e-10	-8.414055e+00	-2.304694e+01
1.640000e-06	-1.102845e-06	-2.793463e-10	-8.011484e+00	-2.264037e+01
1.650000e-06	-1.047383e-06	-2.624137e-10	-7.608589e+00	-2.222411e+01
1.660000e-06	-9.918259e-07	-2.471308e-10	-7.205003e+00	-2.179884e+01
1.670000e-06	-9.361789e-07	-2.447241e-10	-6.800762e+00	-2.136539e+01
1.680000e-06	-8.804969e-07	-2.520478e-10	-6.396266e+00	-2.092470e+01
1.690000e-06	-8.247899e-07	-2.494220e-10	-5.991589e+00	-2.047781e+01
1.700000e-06	-7.690503e-07	-2.361668e-10	-5.586675e+00	-2.002577e+01
1.710000e-06	-7.133320e-07	-2.264812e-10	-5.181916e+00	-1.956964e+01
1.720000e-06	-6.575752e-07	-2.310800e-10	-4.776878e+00	-1.911045e+01
1.730000e-06	-6.017968e-07	-2.374535e-10	-4.371682e+00	-1.864913e+01
1.740000e-06	-5.459935e-07	-2.260704e-10	-3.966305e+00	-1.818652e+01
1.750000e-06	-4.901542e-07	-2.045125e-10	-3.560668e+00	-1.772329e+01
1.760000e-06	-4.342778e-07	-1.953571e-10	-3.154760e+00	-1.725996e+01
1.770000e-06	-3.783399e-07	-2.021633e-10	-2.748406e+00	-1.679684e+01
1.780000e-06	-3.223693e-07	-2.059520e-10	-2.341814e+00	-1.633407e+01
1.790000e-06	-2.663643e-07	-1.937935e-10	-1.934972e+00	-1.587155e+01
1.800000e-06	-2.104075e-07	-1.797599e-10	-1.528480e+00	-1.540901e+01
1.810000e-06	-1.544788e-07	-1.805968e-10	-1.122193e+00	-1.494596e+01
1.820000e-06	-9.852206e-08	-1.879106e-10	-7.157019e-01	-1.448175e+01
1.830000e-06	-4.260740e-08	-1.859060e-10	-3.095165e-01	-1.401558e+01
1.840000e-06	1.331588e-08	-1.691350e-10	9.673165e-02	-1.354650e+01
1.850000e-06	6.925573e-08	-1.538387e-10	5.031001e-01	-1.307348e+01
1.860000e-06	1.251535e-07	-1.514126e-10	9.091630e-01	-1.259544e+01
1.870000e-06	1.810579e-07	-1.549208e-10	1.315274e+00	-1.211126e+01
1.880000e-06	2.369434e-07	-1.481330e-10	1.721248e+00	-1.161985e+01
1.890000e-06	2.927730e-07	-1.333799e-10	2.126815e+00	-1.112016e+01
1.900000e-06	3.485902e-07	-1.236471e-10	2.532292e+00	-1.061123e+01
1.910000e-06	4.044014e-07	-1.253551e-10	2.937726e+00	-1.009225e+01
1.920000e-06	4.602190e-07	-1.273236e-10	3.343207e+00	-9.562526e+00
1.930000e-06	5.160393e-07	-1.196265e-10	3.748707e+00	-9.021551e+00
1.940000e-06	5.718460e-07	-1.026735e-10	4.154108e+00	-8.469011e+00
1.950000e-06	6.276736e-07	-9.153655e-11	4.559661e+00	-7.904795e+00
1.960000e-06	6.834471e-07	-9.098759e-11	4.964821e+00	-7.329001e+00
1.970000e-06	7.391492e-07	-8.885474e-11	5.369462e+00	-6.741930e+00
1.980000e-06	7.948034e-07	-7.806871e-11	5.773756e+00	-6.144083e+00
1.990000e-06	8.504458e-07	-6.578678e-11	6.177963e+00	-5.536143e+00
2.000000e-06	9.061285e-07	-6.113672e-11	6.582464e+00	-4.918955e+00
2.010000e-06	9.617757e-07	-6.146955e-11	6.986706e+00	-4.293501e+00
2.020000e-06	1.017293e-06	-5.853529e-11	7.390008e+00	-3.660866e+00
2.030000e-06	1.072713e-06	-4.793239e-11	7.792601e+00	-3.022211e+00
2.040000e-06	1.128126e-06	-3.603277e-11	8.195140e+00	-2.378737e+00
2.050000e-06	1.183498e-06	-2.954753e-11	8.597385e+00	-1.731645e+00
2.060000e-06	1.238854e-06	-2.850875e-11	8.999509e+00	-1.082105e+00
2.070000e-06	1.294112e-06	-2.375977e-11	9.400926e+00	-4.312235e-01
2.080000e-06	1.349230e-06	-1.084891e-11	9.801324e+00	2.199899e-01
2.090000e-06	1.404322e-06	6.679885e-13	1.020153e+01	8.706468e-01
2.100000e-06	1.459332e-06	5.885758e-12	1.060115e+01	1.520003e+00
2.110000e-06	1.514189e-06	9.476403e-12	1.099965e+01	2.167474e+00
2.120000e-06	1.568859e-06	1.467686e-11	1.139679e+01	2.812645e+00
2.130000e-06	1.623362e-06	2.247310e-11	1.179272e+01	3.455279e+00
2.140000e-06	1.677848e-06	3.057990e-11	1.218853e+01	4.095307e+00
2.150000e-06	1.732263e-06	3.740032e-11	1.258382e+01	4.732828e+00
2.160000e-06	1.786513e-06	4.410922e-11	1.297791e+01	5.368086e+00
2.170000e-06	1.840590e-06	5.491347e-11	1.337075e+01	6.001460e+00
2.180000e-06	1.894504e-06	6.683551e-11	1.376240e+01	6.633432e+00
2.190000e-06	1.948318e-06	7.658766e-11	1.415333e+01	7.264561e+00
2.200000e-06	2.002054e-06	8.262454e-11	1.454369e+01	7.895455e+00
2.210000e-06	2.055714e-06	8.737967e-11	1.493349e+01	8.526737e+00
2.220000e-06	2.109169e-06	9.605468e-11	1.532181e+01	9.159011e+00
2.230000e-06	2.162341e-06	1.081245e-10	1.570807e+01	9.792834e+00
2.240000e-06	2.215365e-06	1.177158e-10	1.609326e+01	1.042868e+01
2.250000e-06	2.268327e-06	1.236157e-10	1.647800e+01	1.106692e+01
2.260000e-06	2.321162e-06	1.325178e-10	1.686181e+01	1.170780e+01
2.270000e-06	2.373753e-06	1.456314e-10	1.724385e+01	1.235141e+01
2.280000e-06	2.426031e-06	1.588802e-10	1.762362e+01	1.299769e+01
2.290000e-06	2.478145e-06	1.702046e-10	1.800220e+01	1.364640e+01
2.300000e-06	2.530207e-06	1.783046e-10	1.838039e+01	1.429714e+01
2.310000e-06	2.582223e-06	1.858509e-10	1.875826e+01	1.494936e+01
2.320000e-06	2.634077e-06	1.949742e-10	1.913494e+01	1.560233e+01
2.330000e-06	2.685562e-06	2.036215e-10	1.950895e+01	1.625523e+01
2.340000e-06	2.736703e-06	2.114060e-10	1.988045e+01	1.690707e+01
2.350000e-06	2.787582e-06	2.199432e-10	2.025006e+01	1.755683e+01
2.360000e-06	2.838170e-06	2.299827e-10	2.061755e+01	1.820341e+01
2.370000e-06	2.888413e-06	2.395464e-10	2.098254e+01	1.884569e+01
2.380000e-06	2.938314e-06	2.482141e-10	2.134504e+01	1.948254e+01
2.390000e-06	2.987837e-06	2.573978e-10	2.170479e+01	2.011291e+01
2.400000e-06	3.037033e-06	2.682375e-10	2.206217e+01	2.073580e+01
2.410000e-06	3.085908e-06	2.763939e-10	2.241722e+01	2.135032e+01
2.420000e-06	3.134481e-06	2.821919e-10	2.277007e+01	2.195570e+01
2.430000e-06	3.182877e-06	2.893216e-10	2.312164e+01	2.255133e+01
2.440000e-06	3.231120e-06	2.973790e-10	2.347209e+01	2.313677e+01
2.450000e-06	3.279163e-06	3.057188e-10	2.382109e+01	2.371177e+01
2.460000e-06	3.326989e-06	3.165166e-10	2.416852e+01	2.427623e+01
2.470000e-06	3.374621e-06	3.286851e-10	2.451454e+01	2.483025e+01
2.480000e-06	3.422001e-06	3.388825e-10	2.485872e+01	2.537412e+01
2.490000e-06	3.469079e-06	3.455034e-10	2.520072e+01	2.590826e+01
2.500000e-06	3.515971e-06	3.500911e-10	2.554136e+01	2.643326e+01
2.510000e-06	3.562587e-06	3.566014e-10	2.588000e+01	2.694978e+01
2.520000e-06	3.608896e-06	3.644436e-10	2.621640e+01	2.745862e+01
2.530000e-06	3.655013e-06	3.702991e-10	2.655141e+01	2.796059e+01
2.540000e-06	3.700876e-06	3.732717e-10	2.688458e+01	2.845653e+01
2.550000e-06	3.746457e-06	3.767601e-10	2.721570e+01	2.894729e+01
2.560000e-06	3.791771e-06	3.832932e-10	2.754488e+01	2.943363e+01
2.570000e-06	3.836852e-06	3.906535e-10	2.787236e+01	2.991625e+01
2.580000e-06	3.881662e-06	3.957449e-10	2.819788e+01	3.039575e+01
2.590000e-06	3.926186e-06	4.016887e-10	2.852132e+01	3.087255e+01
2.600000e-06	3.970474e-06	4.094421e-10	2.884304e+01	3.134696e+01
2.610000e-06	4.014528e-06	4.148794e-10	2.916307e+01	3.181908e+01
2.620000e-06	4.058417e-06	4.167014e-10	2.948189e+01	3.228884e+01
2.630000e-06	4.102211e-06	4.184334e-10	2.980003e+01	3.275598e+01
2.640000e-06	4.145822e-06	4.210338e-10	3.011684e+01	3.322008e+01
2.650000e-06	4.189186e-06	4.247258e-10	3.043185e+01	3.368053e+01
2.660000e-06	4.232299e-06	4.301626e-10	3.074504e+01	3.413659e+01
2.670000e-06	4.274957e-06	4.353990e-10	3.105492e+01	3.458737e+01
2.680000e-06	4.317103e-06	4.405397e-10	3.136109e+01	3.503192e+01
2.690000e-06	4.358768e-06	4.446645e-10	3.166376e+01	3.546920e+01
2.700000e-06	4.399845e-06	4.493560e-10	3.196216e+01	3.589817e+01
2.710000e-06	4.440415e-06	4.550369e-10	3.225687e+01	3.631779e+01
2.720000e-06	4.480641e-06	4.589023e-10	3.254909e+01	3.672709e+01
2.730000e-06	4.520661e-06	4.593507e-10	3.283981e+01	3.712520e+01
2.740000e-06	4.560475e-06	4.582823e-10	3.312904e+01	3.751135e+01
2.750000e-06	4.600119e-06	4.590516e-10	3.341702e+01	3.788497e+01
2.760000e-06	4.639478e-06	4.640619e-10	3.370294e+01	3.824568e+01
2.770000e-06	4.678428e-06	4.668008e-10	3.398589e+01	3.859328e+01
2.780000e-06	4.717131e-06	4.683058e-10	3.426704e+01	3.892785e+01
2.790000e-06	4.755546e-06	4.702213e-10	3.454611e+01	3.924968e+01
2.800000e-06	4.793582e-06	4.749069e-10	3.482241e+01	3.955929e+01
2.810000e-06	4.831305e-06	4.792351e-10	3.509644e+01	3.985745e+01
2.820000e-06	4.868662e-06	4.800305e-10	3.536782e+01	4.014513e+01
2.830000e-06	4.905641e-06	4.780807e-10	3.563645e+01	4.042350e+01
2.840000e-06	4.942371e-06	4.784798e-10	3.590327e+01	4.069387e+01
2.850000e-06	4.978786e-06	4.823638e-10	3.616780e+01	4.095770e+01
2.860000e-06	5.014860e-06	4.839158e-10	3.642986e+01	4.121649e+01
2.870000e-06	5.050732e-06	4.827677e-10	3.669045e+01	4.147181e+01
2.880000e-06	5.086422e-06	4.875212e-10	3.694971e+01	4.172518e+01
2.890000e-06	5.121904e-06	4.962874e-10	3.720747e+01	4.197808e+01
2.900000e-06	5.156938e-06	5.025822e-10	3.746197e+01	4.223186e+01
