# Temperatura_=_20.0
# Concentracion g/m^3_=_12600.0
# C_Vs_to_Am_M_A/Vsm_=_65563218390.804596
# pendiente_HvsI_1/m_=_3716.3
# ordenada_HvsI_A/m_=_1297.0
# frecuencia_Hz_=_135329.87270138998

Tiempo_(s)	Campo_(V.s)	Magnetizacion_(V.s)	Campo_(kA/m)	Magnetizacion_(A/m)
0.000000e+00	-6.589257e-06	-5.689120e-09	-4.774767e+01	-3.985416e+02
1.000000e-08	-6.589335e-06	-5.687760e-09	-4.774824e+01	-3.985696e+02
2.000000e-08	-6.589159e-06	-5.685228e-09	-4.774696e+01	-3.986233e+02
3.000000e-08	-6.588538e-06	-5.681833e-09	-4.774246e+01	-3.987082e+02
4.000000e-08	-6.587196e-06	-5.680241e-09	-4.773274e+01	-3.988292e+02
5.000000e-08	-6.585115e-06	-5.678320e-09	-4.771766e+01	-3.989904e+02
6.000000e-08	-6.582432e-06	-5.671178e-09	-4.769822e+01	-3.991950e+02
7.000000e-08	-6.579161e-06	-5.656503e-09	-4.767452e+01	-3.994451e+02
8.000000e-08	-6.575455e-06	-5.653944e-09	-4.764766e+01	-3.997420e+02
9.000000e-08	-6.571392e-06	-5.695874e-09	-4.761822e+01	-4.000854e+02
1.000000e-07	-6.566753e-06	-5.755914e-09	-4.758460e+01	-4.004742e+02
1.100000e-07	-6.561485e-06	-5.744536e-09	-4.754643e+01	-4.009057e+02
1.200000e-07	-6.555715e-06	-5.658099e-09	-4.750462e+01	-4.013761e+02
1.300000e-07	-6.549610e-06	-5.636640e-09	-4.746038e+01	-4.018803e+02
1.400000e-07	-6.543319e-06	-5.708900e-09	-4.741480e+01	-4.024121e+02
1.500000e-07	-6.536594e-06	-5.768868e-09	-4.736606e+01	-4.029643e+02
1.600000e-07	-6.529334e-06	-5.727289e-09	-4.731346e+01	-4.035286e+02
1.700000e-07	-6.521661e-06	-5.671226e-09	-4.725785e+01	-4.040959e+02
1.800000e-07	-6.513618e-06	-5.672352e-09	-4.719957e+01	-4.046567e+02
1.900000e-07	-6.505267e-06	-5.718074e-09	-4.713905e+01	-4.052009e+02
2.000000e-07	-6.496690e-06	-5.748370e-09	-4.707690e+01	-4.057180e+02
2.100000e-07	-6.487771e-06	-5.717657e-09	-4.701228e+01	-4.061978e+02
2.200000e-07	-6.477954e-06	-5.633228e-09	-4.694114e+01	-4.066301e+02
2.300000e-07	-6.467072e-06	-5.649736e-09	-4.686229e+01	-4.070049e+02
2.400000e-07	-6.455668e-06	-5.904359e-09	-4.677965e+01	-4.073131e+02
2.500000e-07	-6.443916e-06	-6.101322e-09	-4.669449e+01	-4.075462e+02
2.600000e-07	-6.431484e-06	-6.049612e-09	-4.660440e+01	-4.076967e+02
2.700000e-07	-6.418414e-06	-6.055547e-09	-4.650970e+01	-4.077583e+02
2.800000e-07	-6.404983e-06	-6.345240e-09	-4.641237e+01	-4.077259e+02
2.900000e-07	-6.391118e-06	-6.557242e-09	-4.631190e+01	-4.075957e+02
3.000000e-07	-6.376612e-06	-6.459619e-09	-4.620679e+01	-4.073653e+02
3.100000e-07	-6.361441e-06	-6.346206e-09	-4.609686e+01	-4.070341e+02
3.200000e-07	-6.345601e-06	-6.396340e-09	-4.598207e+01	-4.066026e+02
3.300000e-07	-6.329059e-06	-6.487032e-09	-4.586220e+01	-4.060729e+02
3.400000e-07	-6.312083e-06	-6.519178e-09	-4.573919e+01	-4.054487e+02
3.500000e-07	-6.294851e-06	-6.428788e-09	-4.561432e+01	-4.047348e+02
3.600000e-07	-6.277316e-06	-6.254439e-09	-4.548726e+01	-4.039374e+02
3.700000e-07	-6.259450e-06	-6.240745e-09	-4.535779e+01	-4.030636e+02
3.800000e-07	-6.241164e-06	-6.420258e-09	-4.522529e+01	-4.021216e+02
3.900000e-07	-6.222477e-06	-6.496880e-09	-4.508988e+01	-4.011202e+02
4.000000e-07	-6.203332e-06	-6.365838e-09	-4.495115e+01	-4.000689e+02
4.100000e-07	-6.183728e-06	-6.271423e-09	-4.480909e+01	-3.989772e+02
4.200000e-07	-6.163791e-06	-6.397009e-09	-4.466463e+01	-3.978552e+02
4.300000e-07	-6.143607e-06	-6.545500e-09	-4.451836e+01	-3.967126e+02
4.400000e-07	-6.123099e-06	-6.483587e-09	-4.436975e+01	-3.955588e+02
4.500000e-07	-6.102092e-06	-6.306306e-09	-4.421754e+01	-3.944030e+02
4.600000e-07	-6.080604e-06	-6.279739e-09	-4.406182e+01	-3.932534e+02
4.700000e-07	-6.058779e-06	-6.420572e-09	-4.390368e+01	-3.921177e+02
4.800000e-07	-6.036575e-06	-6.482098e-09	-4.374278e+01	-3.910025e+02
4.900000e-07	-6.013824e-06	-6.353770e-09	-4.357792e+01	-3.899133e+02
5.000000e-07	-5.990700e-06	-6.222633e-09	-4.341035e+01	-3.888546e+02
5.100000e-07	-5.967237e-06	-6.275895e-09	-4.324034e+01	-3.878296e+02
5.200000e-07	-5.943411e-06	-6.403379e-09	-4.306768e+01	-3.868405e+02
5.300000e-07	-5.919314e-06	-6.386325e-09	-4.289307e+01	-3.858881e+02
5.400000e-07	-5.894734e-06	-6.241453e-09	-4.271496e+01	-3.849722e+02
5.500000e-07	-5.869550e-06	-6.189683e-09	-4.253247e+01	-3.840912e+02
5.600000e-07	-5.843678e-06	-6.283922e-09	-4.234499e+01	-3.832428e+02
5.700000e-07	-5.817094e-06	-6.342936e-09	-4.215235e+01	-3.824238e+02
5.800000e-07	-5.790009e-06	-6.252402e-09	-4.195609e+01	-3.816300e+02
5.900000e-07	-5.762549e-06	-6.147359e-09	-4.175710e+01	-3.808568e+02
6.000000e-07	-5.734802e-06	-6.172149e-09	-4.155605e+01	-3.800989e+02
6.100000e-07	-5.706794e-06	-6.249070e-09	-4.135309e+01	-3.793509e+02
6.200000e-07	-5.678448e-06	-6.222404e-09	-4.114768e+01	-3.786070e+02
6.300000e-07	-5.649752e-06	-6.129677e-09	-4.093975e+01	-3.778615e+02
6.400000e-07	-5.620753e-06	-6.104989e-09	-4.072961e+01	-3.771090e+02
6.500000e-07	-5.591376e-06	-6.143336e-09	-4.051674e+01	-3.763440e+02
6.600000e-07	-5.561564e-06	-6.143500e-09	-4.030071e+01	-3.755618e+02
6.700000e-07	-5.531257e-06	-6.092956e-09	-4.008110e+01	-3.747578e+02
6.800000e-07	-5.500504e-06	-6.058081e-09	-3.985825e+01	-3.739284e+02
6.900000e-07	-5.469413e-06	-6.060982e-09	-3.963296e+01	-3.730704e+02
7.000000e-07	-5.438026e-06	-6.059260e-09	-3.940552e+01	-3.721813e+02
7.100000e-07	-5.406407e-06	-6.027298e-09	-3.917640e+01	-3.712595e+02
7.200000e-07	-5.374558e-06	-5.998110e-09	-3.894561e+01	-3.703039e+02
7.300000e-07	-5.342525e-06	-5.995422e-09	-3.871349e+01	-3.693142e+02
7.400000e-07	-5.310084e-06	-5.985887e-09	-3.847842e+01	-3.682908e+02
7.500000e-07	-5.277194e-06	-5.947753e-09	-3.824008e+01	-3.672347e+02
7.600000e-07	-5.243824e-06	-5.916587e-09	-3.799827e+01	-3.661474e+02
7.700000e-07	-5.209749e-06	-5.918751e-09	-3.775136e+01	-3.650307e+02
7.800000e-07	-5.175043e-06	-5.917857e-09	-3.749986e+01	-3.638870e+02
7.900000e-07	-5.139844e-06	-5.878451e-09	-3.724481e+01	-3.627187e+02
8.000000e-07	-5.104292e-06	-5.831633e-09	-3.698719e+01	-3.615285e+02
8.100000e-07	-5.068496e-06	-5.823980e-09	-3.672780e+01	-3.603190e+02
8.200000e-07	-5.032389e-06	-5.837611e-09	-3.646616e+01	-3.590928e+02
8.300000e-07	-4.995927e-06	-5.816777e-09	-3.620194e+01	-3.578524e+02
8.400000e-07	-4.959212e-06	-5.761553e-09	-3.593589e+01	-3.565999e+02
8.500000e-07	-4.922202e-06	-5.725590e-09	-3.566771e+01	-3.553371e+02
8.600000e-07	-4.884815e-06	-5.731141e-09	-3.539679e+01	-3.540656e+02
8.700000e-07	-4.847044e-06	-5.731748e-09	-3.512309e+01	-3.527864e+02
8.800000e-07	-4.808967e-06	-5.689580e-09	-3.484718e+01	-3.515001e+02
8.900000e-07	-4.770712e-06	-5.634076e-09	-3.456997e+01	-3.502068e+02
9.000000e-07	-4.732157e-06	-5.614024e-09	-3.429059e+01	-3.489062e+02
9.100000e-07	-4.693148e-06	-5.620179e-09	-3.400791e+01	-3.475977e+02
9.200000e-07	-4.653799e-06	-5.605787e-09	-3.372278e+01	-3.462800e+02
9.300000e-07	-4.614208e-06	-5.558587e-09	-3.343589e+01	-3.449517e+02
9.400000e-07	-4.574395e-06	-5.514099e-09	-3.314739e+01	-3.436110e+02
9.500000e-07	-4.534363e-06	-5.499566e-09	-3.285732e+01	-3.422561e+02
9.600000e-07	-4.494002e-06	-5.497748e-09	-3.256484e+01	-3.408847e+02
9.700000e-07	-4.453275e-06	-5.473996e-09	-3.226973e+01	-3.394947e+02
9.800000e-07	-4.412224e-06	-5.425766e-09	-3.197226e+01	-3.380839e+02
9.900000e-07	-4.370719e-06	-5.384008e-09	-3.167150e+01	-3.366502e+02
1.000000e-06	-4.328770e-06	-5.368531e-09	-3.136753e+01	-3.351918e+02
1.010000e-06	-4.286272e-06	-5.362951e-09	-3.105958e+01	-3.337069e+02
1.020000e-06	-4.243221e-06	-5.336900e-09	-3.074762e+01	-3.321941e+02
1.030000e-06	-4.199918e-06	-5.290793e-09	-3.043383e+01	-3.306522e+02
1.040000e-06	-4.156436e-06	-5.254574e-09	-3.011874e+01	-3.290805e+02
1.050000e-06	-4.112749e-06	-5.242095e-09	-2.980218e+01	-3.274785e+02
1.060000e-06	-4.068793e-06	-5.232125e-09	-2.948366e+01	-3.258463e+02
1.070000e-06	-4.024542e-06	-5.197268e-09	-2.916300e+01	-3.241840e+02
1.080000e-06	-3.979986e-06	-5.145204e-09	-2.884014e+01	-3.224925e+02
1.090000e-06	-3.935155e-06	-5.111054e-09	-2.851528e+01	-3.207725e+02
1.100000e-06	-3.890151e-06	-5.103502e-09	-2.818916e+01	-3.190253e+02
1.110000e-06	-3.844877e-06	-5.088073e-09	-2.786110e+01	-3.172523e+02
1.120000e-06	-3.799304e-06	-5.043821e-09	-2.753086e+01	-3.154551e+02
1.130000e-06	-3.753476e-06	-4.994330e-09	-2.719878e+01	-3.136352e+02
1.140000e-06	-3.707385e-06	-4.967701e-09	-2.686479e+01	-3.117943e+02
1.150000e-06	-3.661034e-06	-4.955057e-09	-2.652892e+01	-3.099340e+02
1.160000e-06	-3.614400e-06	-4.925654e-09	-2.619099e+01	-3.080558e+02
1.170000e-06	-3.567519e-06	-4.876763e-09	-2.585128e+01	-3.061608e+02
1.180000e-06	-3.520472e-06	-4.834778e-09	-2.551037e+01	-3.042502e+02
1.190000e-06	-3.473234e-06	-4.814506e-09	-2.516807e+01	-3.023247e+02
1.200000e-06	-3.425700e-06	-4.795529e-09	-2.482362e+01	-3.003847e+02
1.210000e-06	-3.377896e-06	-4.758619e-09	-2.447722e+01	-2.984302e+02
1.220000e-06	-3.329905e-06	-4.710409e-09	-2.412946e+01	-2.964611e+02
1.230000e-06	-3.281702e-06	-4.675694e-09	-2.378017e+01	-2.944767e+02
1.240000e-06	-3.233266e-06	-4.656746e-09	-2.342918e+01	-2.924760e+02
1.250000e-06	-3.184633e-06	-4.632308e-09	-2.307677e+01	-2.904577e+02
1.260000e-06	-3.135660e-06	-4.591779e-09	-2.272191e+01	-2.884202e+02
1.270000e-06	-3.086304e-06	-4.547635e-09	-2.236426e+01	-2.863617e+02
1.280000e-06	-3.036630e-06	-4.514597e-09	-2.200431e+01	-2.842801e+02
1.290000e-06	-2.986717e-06	-4.488079e-09	-2.164262e+01	-2.821733e+02
1.300000e-06	-2.936468e-06	-4.454091e-09	-2.127850e+01	-2.800390e+02
1.310000e-06	-2.885750e-06	-4.412351e-09	-2.091098e+01	-2.778751e+02
1.320000e-06	-2.834673e-06	-4.370544e-09	-2.054087e+01	-2.756793e+02
1.330000e-06	-2.783425e-06	-4.332881e-09	-2.016951e+01	-2.734496e+02
1.340000e-06	-2.732075e-06	-4.299170e-09	-1.979741e+01	-2.711842e+02
1.350000e-06	-2.680459e-06	-4.262260e-09	-1.942339e+01	-2.688815e+02
1.360000e-06	-2.628606e-06	-4.217589e-09	-1.904764e+01	-2.665402e+02
1.370000e-06	-2.576614e-06	-4.170530e-09	-1.867090e+01	-2.641594e+02
1.380000e-06	-2.524358e-06	-4.131532e-09	-1.829223e+01	-2.617383e+02
1.390000e-06	-2.471798e-06	-4.097895e-09	-1.791137e+01	-2.592769e+02
1.400000e-06	-2.419081e-06	-4.060235e-09	-1.752936e+01	-2.567752e+02
1.410000e-06	-2.366264e-06	-4.014325e-09	-1.714664e+01	-2.542338e+02
1.420000e-06	-2.313338e-06	-3.967847e-09	-1.676312e+01	-2.516535e+02
1.430000e-06	-2.260261e-06	-3.928204e-09	-1.637851e+01	-2.490354e+02
1.440000e-06	-2.207009e-06	-3.893456e-09	-1.599263e+01	-2.463811e+02
1.450000e-06	-2.153626e-06	-3.852340e-09	-1.560580e+01	-2.436923e+02
1.460000e-06	-2.100055e-06	-3.803017e-09	-1.521761e+01	-2.409706e+02
1.470000e-06	-2.046305e-06	-3.753708e-09	-1.482812e+01	-2.382181e+02
1.480000e-06	-1.992433e-06	-3.712408e-09	-1.443775e+01	-2.354367e+02
1.490000e-06	-1.938403e-06	-3.673176e-09	-1.404623e+01	-2.326283e+02
1.500000e-06	-1.884313e-06	-3.627342e-09	-1.365428e+01	-2.297948e+02
1.510000e-06	-1.830074e-06	-3.576805e-09	-1.326125e+01	-2.269377e+02
1.520000e-06	-1.775618e-06	-3.527904e-09	-1.286665e+01	-2.240585e+02
1.530000e-06	-1.721064e-06	-3.483622e-09	-1.247133e+01	-2.211582e+02
1.540000e-06	-1.666434e-06	-3.437844e-09	-1.207546e+01	-2.182378e+02
1.550000e-06	-1.611702e-06	-3.382838e-09	-1.167886e+01	-2.152975e+02
1.560000e-06	-1.556880e-06	-3.324669e-09	-1.128160e+01	-2.123375e+02
1.570000e-06	-1.501961e-06	-3.274025e-09	-1.088365e+01	-2.093575e+02
1.580000e-06	-1.446963e-06	-3.230271e-09	-1.048512e+01	-2.063566e+02
1.590000e-06	-1.391863e-06	-3.185857e-09	-1.008584e+01	-2.033339e+02
1.600000e-06	-1.336634e-06	-3.135852e-09	-9.685641e+00	-2.002878e+02
1.610000e-06	-1.281416e-06	-3.082955e-09	-9.285511e+00	-1.972166e+02
1.620000e-06	-1.226093e-06	-3.032261e-09	-8.884626e+00	-1.941183e+02
1.630000e-06	-1.170579e-06	-2.984767e-09	-8.482357e+00	-1.909907e+02
1.640000e-06	-1.114973e-06	-2.936198e-09	-8.079420e+00	-1.878313e+02
1.650000e-06	-1.059325e-06	-2.885155e-09	-7.676174e+00	-1.846377e+02
1.660000e-06	-1.003638e-06	-2.829656e-09	-7.272650e+00	-1.814074e+02
1.670000e-06	-9.479275e-07	-2.773626e-09	-6.868959e+00	-1.781380e+02
1.680000e-06	-8.922323e-07	-2.722108e-09	-6.465375e+00	-1.748272e+02
1.690000e-06	-8.364971e-07	-2.671255e-09	-6.061502e+00	-1.714727e+02
1.700000e-06	-7.807672e-07	-2.615731e-09	-5.657666e+00	-1.680729e+02
1.710000e-06	-7.250880e-07	-2.557983e-09	-5.254198e+00	-1.646259e+02
1.720000e-06	-6.692994e-07	-2.504926e-09	-4.849938e+00	-1.611305e+02
1.730000e-06	-6.134415e-07	-2.456798e-09	-4.445176e+00	-1.575858e+02
1.740000e-06	-5.575902e-07	-2.403216e-09	-4.040461e+00	-1.539913e+02
1.750000e-06	-5.017100e-07	-2.339990e-09	-3.635537e+00	-1.503467e+02
1.760000e-06	-4.458299e-07	-2.278154e-09	-3.230613e+00	-1.466522e+02
1.770000e-06	-3.898819e-07	-2.224850e-09	-2.825198e+00	-1.429084e+02
1.780000e-06	-3.338541e-07	-2.174111e-09	-2.419204e+00	-1.391162e+02
1.790000e-06	-2.778219e-07	-2.114342e-09	-2.013178e+00	-1.352767e+02
1.800000e-06	-2.218224e-07	-2.047785e-09	-1.607389e+00	-1.313912e+02
1.810000e-06	-1.658672e-07	-1.986316e-09	-1.201922e+00	-1.274615e+02
1.820000e-06	-1.099046e-07	-1.931649e-09	-7.964007e-01	-1.234891e+02
1.830000e-06	-5.389393e-08	-1.875488e-09	-3.905311e-01	-1.194759e+02
1.840000e-06	2.126776e-09	-1.812515e-09	1.541124e-02	-1.154236e+02
1.850000e-06	5.809491e-08	-1.747426e-09	4.209727e-01	-1.113339e+02
1.860000e-06	1.140554e-07	-1.682999e-09	8.264783e-01	-1.072083e+02
1.870000e-06	1.700280e-07	-1.620262e-09	1.232072e+00	-1.030483e+02
1.880000e-06	2.259408e-07	-1.555987e-09	1.637233e+00	-9.885481e+01
1.890000e-06	2.818440e-07	-1.488074e-09	2.042324e+00	-9.462877e+01
1.900000e-06	3.377915e-07	-1.422986e-09	2.447735e+00	-9.037062e+01
1.910000e-06	3.937090e-07	-1.359897e-09	2.852930e+00	-8.608051e+01
1.920000e-06	4.496249e-07	-1.298044e-09	3.258113e+00	-8.175821e+01
1.930000e-06	5.055049e-07	-1.231812e-09	3.663036e+00	-7.740311e+01
1.940000e-06	5.612704e-07	-1.161087e-09	4.067128e+00	-7.301428e+01
1.950000e-06	6.170398e-07	-1.088001e-09	4.471250e+00	-6.859044e+01
1.960000e-06	6.728272e-07	-1.015716e-09	4.875502e+00	-6.413002e+01
1.970000e-06	7.285803e-07	-9.446024e-10	5.279505e+00	-5.963119e+01
1.980000e-06	7.843346e-07	-8.735178e-10	5.683517e+00	-5.509194e+01
1.990000e-06	8.400746e-07	-8.012158e-10	6.087425e+00	-5.051012e+01
2.000000e-06	8.957209e-07	-7.277552e-10	6.490654e+00	-4.588349e+01
2.010000e-06	9.513649e-07	-6.557693e-10	6.893867e+00	-4.120985e+01
2.020000e-06	1.007005e-06	-5.860130e-10	7.297053e+00	-3.648706e+01
2.030000e-06	1.062533e-06	-5.139571e-10	7.699426e+00	-3.171313e+01
2.040000e-06	1.118051e-06	-4.350642e-10	8.101723e+00	-2.688629e+01
2.050000e-06	1.173576e-06	-3.518385e-10	8.504075e+00	-2.200507e+01
2.060000e-06	1.228992e-06	-2.722998e-10	8.905631e+00	-1.706835e+01
2.070000e-06	1.284238e-06	-1.986755e-10	9.305961e+00	-1.207543e+01
2.080000e-06	1.339379e-06	-1.214228e-10	9.705532e+00	-7.026053e+00
2.090000e-06	1.394477e-06	-3.776788e-11	1.010479e+01	-1.920464e+00
2.100000e-06	1.449530e-06	4.732515e-11	1.050372e+01	3.240572e+00
2.110000e-06	1.504527e-06	1.277742e-10	1.090224e+01	8.455754e+00
2.120000e-06	1.559432e-06	2.061823e-10	1.130010e+01	1.372324e+01
2.130000e-06	1.614198e-06	2.868774e-10	1.169695e+01	1.904065e+01
2.140000e-06	1.668800e-06	3.708016e-10	1.209261e+01	2.440508e+01
2.150000e-06	1.723313e-06	4.538392e-10	1.248763e+01	2.981316e+01
2.160000e-06	1.777661e-06	5.374138e-10	1.288145e+01	3.526104e+01
2.170000e-06	1.831806e-06	6.238239e-10	1.327380e+01	4.074447e+01
2.180000e-06	1.885870e-06	7.127822e-10	1.366556e+01	4.625885e+01
2.190000e-06	1.939866e-06	8.004430e-10	1.405683e+01	5.179926e+01
2.200000e-06	1.993775e-06	8.862080e-10	1.444747e+01	5.736055e+01
2.210000e-06	2.047515e-06	9.724522e-10	1.483689e+01	6.293740e+01
2.220000e-06	2.101027e-06	1.058520e-09	1.522466e+01	6.852435e+01
2.230000e-06	2.154395e-06	1.147950e-09	1.561137e+01	7.411590e+01
2.240000e-06	2.207581e-06	1.238093e-09	1.599678e+01	7.970655e+01
2.250000e-06	2.260601e-06	1.327135e-09	1.638097e+01	8.529085e+01
2.260000e-06	2.313439e-06	1.413186e-09	1.676385e+01	9.086347e+01
2.270000e-06	2.365970e-06	1.500018e-09	1.714451e+01	9.641921e+01
2.280000e-06	2.418360e-06	1.593187e-09	1.752414e+01	1.019531e+02
2.290000e-06	2.470684e-06	1.685116e-09	1.790330e+01	1.074604e+02
2.300000e-06	2.522891e-06	1.771674e-09	1.828160e+01	1.129364e+02
2.310000e-06	2.574953e-06	1.854193e-09	1.865886e+01	1.183771e+02
2.320000e-06	2.626809e-06	1.936519e-09	1.903462e+01	1.237784e+02
2.330000e-06	2.678410e-06	2.021030e-09	1.940854e+01	1.291365e+02
2.340000e-06	2.729762e-06	2.105096e-09	1.978065e+01	1.344481e+02
2.350000e-06	2.780874e-06	2.187446e-09	2.015102e+01	1.397100e+02
2.360000e-06	2.831712e-06	2.269893e-09	2.051941e+01	1.449193e+02
2.370000e-06	2.882231e-06	2.354281e-09	2.088549e+01	1.500733e+02
2.380000e-06	2.932346e-06	2.438676e-09	2.124863e+01	1.551697e+02
2.390000e-06	2.982048e-06	2.517211e-09	2.160878e+01	1.602062e+02
2.400000e-06	3.031342e-06	2.594887e-09	2.196599e+01	1.651809e+02
2.410000e-06	3.080380e-06	2.672396e-09	2.232133e+01	1.700921e+02
2.420000e-06	3.129208e-06	2.746944e-09	2.267515e+01	1.749380e+02
2.430000e-06	3.177759e-06	2.818905e-09	2.302696e+01	1.797172e+02
2.440000e-06	3.226068e-06	2.890491e-09	2.337703e+01	1.844285e+02
2.450000e-06	3.274185e-06	2.961976e-09	2.372569e+01	1.890707e+02
2.460000e-06	3.322134e-06	3.033808e-09	2.407315e+01	1.936428e+02
2.470000e-06	3.369903e-06	3.106238e-09	2.441930e+01	1.981441e+02
2.480000e-06	3.417503e-06	3.176905e-09	2.476422e+01	2.025737e+02
2.490000e-06	3.464944e-06	3.244001e-09	2.510799e+01	2.069313e+02
2.500000e-06	3.512144e-06	3.308489e-09	2.545001e+01	2.112164e+02
2.510000e-06	3.558970e-06	3.372985e-09	2.578933e+01	2.154289e+02
2.520000e-06	3.605527e-06	3.436870e-09	2.612670e+01	2.195686e+02
2.530000e-06	3.651905e-06	3.497917e-09	2.646277e+01	2.236358e+02
2.540000e-06	3.698009e-06	3.557125e-09	2.679685e+01	2.276308e+02
2.550000e-06	3.743784e-06	3.614227e-09	2.712855e+01	2.315541e+02
2.560000e-06	3.789308e-06	3.671332e-09	2.745843e+01	2.354064e+02
2.570000e-06	3.834697e-06	3.728206e-09	2.778733e+01	2.391886e+02
2.580000e-06	3.879930e-06	3.784399e-09	2.811511e+01	2.429018e+02
2.590000e-06	3.924834e-06	3.840717e-09	2.844049e+01	2.465471e+02
2.600000e-06	3.969457e-06	3.897436e-09	2.876384e+01	2.501260e+02
2.610000e-06	4.013829e-06	3.953077e-09	2.908537e+01	2.536399e+02
2.620000e-06	4.057940e-06	4.002930e-09	2.940501e+01	2.570904e+02
2.630000e-06	4.101890e-06	4.051489e-09	2.972349e+01	2.604792e+02
2.640000e-06	4.145623e-06	4.102395e-09	3.004039e+01	2.638080e+02
2.650000e-06	4.189069e-06	4.155003e-09	3.035522e+01	2.670785e+02
2.660000e-06	4.232251e-06	4.204305e-09	3.066812e+01	2.702925e+02
2.670000e-06	4.275081e-06	4.250959e-09	3.097848e+01	2.734516e+02
2.680000e-06	4.317455e-06	4.298109e-09	3.128554e+01	2.765574e+02
2.690000e-06	4.359348e-06	4.347749e-09	3.158910e+01	2.796114e+02
2.700000e-06	4.400720e-06	4.396504e-09	3.188890e+01	2.826148e+02
2.710000e-06	4.441503e-06	4.442623e-09	3.218443e+01	2.855689e+02
2.720000e-06	4.481809e-06	4.486469e-09	3.247649e+01	2.884746e+02
2.730000e-06	4.521893e-06	4.528388e-09	3.276696e+01	2.913327e+02
2.740000e-06	4.561836e-06	4.567776e-09	3.305639e+01	2.941439e+02
2.750000e-06	4.601600e-06	4.606516e-09	3.334453e+01	2.969085e+02
2.760000e-06	4.641103e-06	4.645343e-09	3.363078e+01	2.996266e+02
2.770000e-06	4.680304e-06	4.685793e-09	3.391485e+01	3.022983e+02
2.780000e-06	4.719289e-06	4.726772e-09	3.419734e+01	3.049234e+02
2.790000e-06	4.757947e-06	4.766005e-09	3.447747e+01	3.075016e+02
2.800000e-06	4.796128e-06	4.804504e-09	3.475414e+01	3.100324e+02
2.810000e-06	4.833987e-06	4.845459e-09	3.502847e+01	3.125154e+02
2.820000e-06	4.871595e-06	4.883845e-09	3.530100e+01	3.149499e+02
2.830000e-06	4.908840e-06	4.918814e-09	3.557088e+01	3.173355e+02
2.840000e-06	4.945730e-06	4.952189e-09	3.583820e+01	3.196715e+02
2.850000e-06	4.982316e-06	4.987854e-09	3.610331e+01	3.219576e+02
2.860000e-06	5.018603e-06	5.023242e-09	3.636626e+01	3.241934e+02
2.870000e-06	5.054654e-06	5.053247e-09	3.662750e+01	3.263786e+02
2.880000e-06	5.090479e-06	5.087314e-09	3.688709e+01	3.285134e+02
2.890000e-06	5.126069e-06	5.127749e-09	3.714499e+01	3.305978e+02
2.900000e-06	5.161344e-06	5.168068e-09	3.740060e+01	3.326323e+02
