# Temperatura_=_20.0
# Concentracion g/m^3_=_12600.0
# C_Vs_to_Am_M_A/Vsm_=_65563218390.804596
# pendiente_HvsI_1/m_=_3716.3
# ordenada_HvsI_A/m_=_1297.0
# frecuencia_Hz_=_135332.246787821

Tiempo_(s)	Campo_(V.s)	Magnetizacion_(V.s)	Campo_(kA/m)	Magnetizacion_(A/m)
0.000000e+00	-6.578958e-06	-6.225700e-09	-4.774532e+01	-3.954811e+02
1.000000e-08	-6.579229e-06	-6.226697e-09	-4.774729e+01	-3.955417e+02
2.000000e-08	-6.579192e-06	-6.228404e-09	-4.774702e+01	-3.955901e+02
3.000000e-08	-6.578775e-06	-6.224488e-09	-4.774400e+01	-3.956260e+02
4.000000e-08	-6.577852e-06	-6.220092e-09	-4.773730e+01	-3.956494e+02
5.000000e-08	-6.576266e-06	-6.221500e-09	-4.772578e+01	-3.956604e+02
6.000000e-08	-6.573883e-06	-6.224123e-09	-4.770849e+01	-3.956597e+02
7.000000e-08	-6.570844e-06	-6.225180e-09	-4.768644e+01	-3.956477e+02
8.000000e-08	-6.567374e-06	-6.239203e-09	-4.766125e+01	-3.956256e+02
9.000000e-08	-6.563496e-06	-6.277816e-09	-4.763311e+01	-3.955947e+02
1.000000e-07	-6.559080e-06	-6.264677e-09	-4.760106e+01	-3.955563e+02
1.100000e-07	-6.554064e-06	-6.162588e-09	-4.756466e+01	-3.955125e+02
1.200000e-07	-6.548580e-06	-6.104832e-09	-4.752486e+01	-3.954653e+02
1.300000e-07	-6.542739e-06	-6.286563e-09	-4.748247e+01	-3.954171e+02
1.400000e-07	-6.536527e-06	-6.462589e-09	-4.743739e+01	-3.953704e+02
1.500000e-07	-6.529882e-06	-6.289094e-09	-4.738916e+01	-3.953278e+02
1.600000e-07	-6.522857e-06	-6.036824e-09	-4.733818e+01	-3.952921e+02
1.700000e-07	-6.515538e-06	-6.142776e-09	-4.728506e+01	-3.952661e+02
1.800000e-07	-6.507742e-06	-6.287602e-09	-4.722849e+01	-3.952525e+02
1.900000e-07	-6.499513e-06	-6.287569e-09	-4.716877e+01	-3.952539e+02
2.000000e-07	-6.491072e-06	-6.218476e-09	-4.710751e+01	-3.952727e+02
2.100000e-07	-6.482248e-06	-6.138592e-09	-4.704347e+01	-3.953110e+02
2.200000e-07	-6.472669e-06	-6.142503e-09	-4.697395e+01	-3.953707e+02
2.300000e-07	-6.462306e-06	-6.246031e-09	-4.689875e+01	-3.954531e+02
2.400000e-07	-6.451348e-06	-6.238254e-09	-4.681922e+01	-3.955591e+02
2.500000e-07	-6.439785e-06	-6.063212e-09	-4.673531e+01	-3.956891e+02
2.600000e-07	-6.427573e-06	-6.086720e-09	-4.664668e+01	-3.958429e+02
2.700000e-07	-6.414793e-06	-6.382219e-09	-4.655393e+01	-3.960198e+02
2.800000e-07	-6.401566e-06	-6.427458e-09	-4.645794e+01	-3.962184e+02
2.900000e-07	-6.387883e-06	-6.111182e-09	-4.635864e+01	-3.964367e+02
3.000000e-07	-6.373681e-06	-6.030828e-09	-4.625557e+01	-3.966720e+02
3.100000e-07	-6.358933e-06	-6.329868e-09	-4.614854e+01	-3.969212e+02
3.200000e-07	-6.343498e-06	-6.341835e-09	-4.603652e+01	-3.971805e+02
3.300000e-07	-6.327271e-06	-5.995831e-09	-4.591876e+01	-3.974456e+02
3.400000e-07	-6.310558e-06	-6.060376e-09	-4.579747e+01	-3.977119e+02
3.500000e-07	-6.293537e-06	-6.320440e-09	-4.567394e+01	-3.979742e+02
3.600000e-07	-6.276118e-06	-6.179510e-09	-4.554753e+01	-3.982273e+02
3.700000e-07	-6.258359e-06	-5.954265e-09	-4.541864e+01	-3.984655e+02
3.800000e-07	-6.240209e-06	-6.061699e-09	-4.528693e+01	-3.986833e+02
3.900000e-07	-6.221571e-06	-6.130747e-09	-4.515167e+01	-3.988750e+02
4.000000e-07	-6.202505e-06	-6.089614e-09	-4.501330e+01	-3.990350e+02
4.100000e-07	-6.183087e-06	-6.013342e-09	-4.487238e+01	-3.991580e+02
4.200000e-07	-6.163382e-06	-5.887342e-09	-4.472937e+01	-3.992391e+02
4.300000e-07	-6.143373e-06	-5.882313e-09	-4.458416e+01	-3.992735e+02
4.400000e-07	-6.122966e-06	-6.065691e-09	-4.443606e+01	-3.992571e+02
4.500000e-07	-6.102116e-06	-6.070327e-09	-4.428474e+01	-3.991864e+02
4.600000e-07	-6.080904e-06	-5.828651e-09	-4.413081e+01	-3.990582e+02
4.700000e-07	-6.059323e-06	-5.726735e-09	-4.397418e+01	-3.988704e+02
4.800000e-07	-6.037314e-06	-5.917499e-09	-4.381446e+01	-3.986213e+02
4.900000e-07	-6.014872e-06	-6.093699e-09	-4.365159e+01	-3.983098e+02
5.000000e-07	-5.991967e-06	-5.940110e-09	-4.348537e+01	-3.979360e+02
5.100000e-07	-5.968601e-06	-5.678016e-09	-4.331579e+01	-3.975002e+02
5.200000e-07	-5.944891e-06	-5.765961e-09	-4.314372e+01	-3.970037e+02
5.300000e-07	-5.920958e-06	-6.048768e-09	-4.297004e+01	-3.964482e+02
5.400000e-07	-5.896676e-06	-5.998389e-09	-4.279381e+01	-3.958362e+02
5.500000e-07	-5.871844e-06	-5.729934e-09	-4.261360e+01	-3.951707e+02
5.600000e-07	-5.846297e-06	-5.693138e-09	-4.242820e+01	-3.944550e+02
5.700000e-07	-5.820115e-06	-5.864991e-09	-4.223819e+01	-3.936929e+02
5.800000e-07	-5.793393e-06	-5.931843e-09	-4.204426e+01	-3.928884e+02
5.900000e-07	-5.766200e-06	-5.828796e-09	-4.184691e+01	-3.920456e+02
6.000000e-07	-5.738684e-06	-5.700964e-09	-4.164722e+01	-3.911689e+02
6.100000e-07	-5.710869e-06	-5.699196e-09	-4.144536e+01	-3.902626e+02
6.200000e-07	-5.682721e-06	-5.791805e-09	-4.124108e+01	-3.893307e+02
6.300000e-07	-5.654234e-06	-5.832863e-09	-4.103435e+01	-3.883773e+02
6.400000e-07	-5.625390e-06	-5.750758e-09	-4.082501e+01	-3.874061e+02
6.500000e-07	-5.596114e-06	-5.645598e-09	-4.061255e+01	-3.864204e+02
6.600000e-07	-5.566461e-06	-5.638433e-09	-4.039735e+01	-3.854233e+02
6.700000e-07	-5.536482e-06	-5.728342e-09	-4.017979e+01	-3.844173e+02
6.800000e-07	-5.506143e-06	-5.760550e-09	-3.995960e+01	-3.834045e+02
6.900000e-07	-5.475377e-06	-5.666882e-09	-3.973633e+01	-3.823864e+02
7.000000e-07	-5.444183e-06	-5.570436e-09	-3.950995e+01	-3.813642e+02
7.100000e-07	-5.412671e-06	-5.593019e-09	-3.928126e+01	-3.803383e+02
7.200000e-07	-5.380885e-06	-5.667775e-09	-3.905057e+01	-3.793090e+02
7.300000e-07	-5.348862e-06	-5.670924e-09	-3.881817e+01	-3.782757e+02
7.400000e-07	-5.316528e-06	-5.571348e-09	-3.858352e+01	-3.772379e+02
7.500000e-07	-5.283750e-06	-5.488935e-09	-3.834564e+01	-3.761943e+02
7.600000e-07	-5.250490e-06	-5.529151e-09	-3.810426e+01	-3.751434e+02
7.700000e-07	-5.216691e-06	-5.604838e-09	-3.785898e+01	-3.740836e+02
7.800000e-07	-5.182392e-06	-5.568440e-09	-3.761005e+01	-3.730130e+02
7.900000e-07	-5.147560e-06	-5.457788e-09	-3.735727e+01	-3.719296e+02
8.000000e-07	-5.112236e-06	-5.425322e-09	-3.710091e+01	-3.708314e+02
8.100000e-07	-5.076648e-06	-5.487115e-09	-3.684264e+01	-3.697162e+02
8.200000e-07	-5.040777e-06	-5.520599e-09	-3.658232e+01	-3.685822e+02
8.300000e-07	-5.004589e-06	-5.455425e-09	-3.631969e+01	-3.674276e+02
8.400000e-07	-4.968131e-06	-5.367166e-09	-3.605511e+01	-3.662506e+02
8.500000e-07	-4.931326e-06	-5.358044e-09	-3.578800e+01	-3.650500e+02
8.600000e-07	-4.894108e-06	-5.409386e-09	-3.551790e+01	-3.638244e+02
8.700000e-07	-4.856552e-06	-5.406619e-09	-3.524535e+01	-3.625732e+02
8.800000e-07	-4.818748e-06	-5.329145e-09	-3.497099e+01	-3.612955e+02
8.900000e-07	-4.780610e-06	-5.275805e-09	-3.469421e+01	-3.599913e+02
9.000000e-07	-4.742135e-06	-5.294869e-09	-3.441499e+01	-3.586605e+02
9.100000e-07	-4.703318e-06	-5.314100e-09	-3.413328e+01	-3.573034e+02
9.200000e-07	-4.664194e-06	-5.279547e-09	-3.384935e+01	-3.559205e+02
9.300000e-07	-4.624843e-06	-5.228124e-09	-3.356377e+01	-3.545126e+02
9.400000e-07	-4.585197e-06	-5.206591e-09	-3.327605e+01	-3.530807e+02
9.500000e-07	-4.545265e-06	-5.201470e-09	-3.298625e+01	-3.516259e+02
9.600000e-07	-4.505095e-06	-5.187508e-09	-3.269472e+01	-3.501494e+02
9.700000e-07	-4.464625e-06	-5.161442e-09	-3.240102e+01	-3.486525e+02
9.800000e-07	-4.423749e-06	-5.129387e-09	-3.210437e+01	-3.471365e+02
9.900000e-07	-4.382427e-06	-5.094817e-09	-3.180448e+01	-3.456027e+02
1.000000e-06	-4.340649e-06	-5.071498e-09	-3.150129e+01	-3.440522e+02
1.010000e-06	-4.298438e-06	-5.066902e-09	-3.119495e+01	-3.424861e+02
1.020000e-06	-4.255795e-06	-5.060155e-09	-3.088549e+01	-3.409053e+02
1.030000e-06	-4.212796e-06	-5.023693e-09	-3.057343e+01	-3.393105e+02
1.040000e-06	-4.169492e-06	-4.974980e-09	-3.025916e+01	-3.377023e+02
1.050000e-06	-4.125900e-06	-4.955396e-09	-2.994280e+01	-3.360810e+02
1.060000e-06	-4.082038e-06	-4.961401e-09	-2.962448e+01	-3.344465e+02
1.070000e-06	-4.037948e-06	-4.943451e-09	-2.930451e+01	-3.327988e+02
1.080000e-06	-3.993715e-06	-4.888864e-09	-2.898349e+01	-3.311375e+02
1.090000e-06	-3.949212e-06	-4.845152e-09	-2.866053e+01	-3.294619e+02
1.100000e-06	-3.904381e-06	-4.843289e-09	-2.833517e+01	-3.277713e+02
1.110000e-06	-3.859257e-06	-4.845983e-09	-2.800770e+01	-3.260646e+02
1.120000e-06	-3.813816e-06	-4.809421e-09	-2.767792e+01	-3.243407e+02
1.130000e-06	-3.768108e-06	-4.751027e-09	-2.734620e+01	-3.225984e+02
1.140000e-06	-3.722133e-06	-4.719351e-09	-2.701255e+01	-3.208363e+02
1.150000e-06	-3.675909e-06	-4.718763e-09	-2.667709e+01	-3.190531e+02
1.160000e-06	-3.629489e-06	-4.706597e-09	-2.634021e+01	-3.172474e+02
1.170000e-06	-3.582878e-06	-4.656086e-09	-2.600194e+01	-3.154178e+02
1.180000e-06	-3.536000e-06	-4.602116e-09	-2.566173e+01	-3.135630e+02
1.190000e-06	-3.488874e-06	-4.581744e-09	-2.531972e+01	-3.116818e+02
1.200000e-06	-3.441566e-06	-4.573719e-09	-2.497640e+01	-3.097731e+02
1.210000e-06	-3.393976e-06	-4.546408e-09	-2.463102e+01	-3.078360e+02
1.220000e-06	-3.346133e-06	-4.500424e-09	-2.428382e+01	-3.058695e+02
1.230000e-06	-3.298055e-06	-4.464460e-09	-2.393490e+01	-3.038731e+02
1.240000e-06	-3.249756e-06	-4.443782e-09	-2.358438e+01	-3.018463e+02
1.250000e-06	-3.201319e-06	-4.423268e-09	-2.323286e+01	-2.997887e+02
1.260000e-06	-3.152566e-06	-4.390128e-09	-2.287905e+01	-2.977003e+02
1.270000e-06	-3.103430e-06	-4.347032e-09	-2.252245e+01	-2.955809e+02
1.280000e-06	-3.054017e-06	-4.306681e-09	-2.216385e+01	-2.934309e+02
1.290000e-06	-3.004225e-06	-4.279886e-09	-2.180249e+01	-2.912503e+02
1.300000e-06	-2.954101e-06	-4.258492e-09	-2.143873e+01	-2.890397e+02
1.310000e-06	-2.903723e-06	-4.230764e-09	-2.107312e+01	-2.867994e+02
1.320000e-06	-2.852985e-06	-4.188881e-09	-2.070490e+01	-2.845300e+02
1.330000e-06	-2.801896e-06	-4.145683e-09	-2.033414e+01	-2.822321e+02
1.340000e-06	-2.750592e-06	-4.115066e-09	-1.996181e+01	-2.799061e+02
1.350000e-06	-2.699130e-06	-4.090035e-09	-1.958834e+01	-2.775526e+02
1.360000e-06	-2.647410e-06	-4.053102e-09	-1.921299e+01	-2.751721e+02
1.370000e-06	-2.595476e-06	-4.002150e-09	-1.883609e+01	-2.727651e+02
1.380000e-06	-2.543378e-06	-3.958286e-09	-1.845800e+01	-2.703318e+02
1.390000e-06	-2.491091e-06	-3.931264e-09	-1.807854e+01	-2.678725e+02
1.400000e-06	-2.438618e-06	-3.909786e-09	-1.769773e+01	-2.653874e+02
1.410000e-06	-2.385905e-06	-3.870553e-09	-1.731518e+01	-2.628766e+02
1.420000e-06	-2.333045e-06	-3.816403e-09	-1.693155e+01	-2.603399e+02
1.430000e-06	-2.280122e-06	-3.773842e-09	-1.654748e+01	-2.577773e+02
1.440000e-06	-2.227022e-06	-3.749511e-09	-1.616211e+01	-2.551885e+02
1.450000e-06	-2.173753e-06	-3.718554e-09	-1.577553e+01	-2.525730e+02
1.460000e-06	-2.120364e-06	-3.668826e-09	-1.538807e+01	-2.499305e+02
1.470000e-06	-2.066749e-06	-3.615825e-09	-1.499897e+01	-2.472604e+02
1.480000e-06	-2.012955e-06	-3.578652e-09	-1.460857e+01	-2.445622e+02
1.490000e-06	-1.959026e-06	-3.551661e-09	-1.421719e+01	-2.418352e+02
1.500000e-06	-1.904980e-06	-3.515878e-09	-1.382497e+01	-2.390788e+02
1.510000e-06	-1.850820e-06	-3.463357e-09	-1.343191e+01	-2.362924e+02
1.520000e-06	-1.796538e-06	-3.410890e-09	-1.303798e+01	-2.334754e+02
1.530000e-06	-1.742125e-06	-3.373756e-09	-1.264309e+01	-2.306270e+02
1.540000e-06	-1.687581e-06	-3.343056e-09	-1.224724e+01	-2.277468e+02
1.550000e-06	-1.632994e-06	-3.296861e-09	-1.185109e+01	-2.248342e+02
1.560000e-06	-1.578300e-06	-3.240495e-09	-1.145416e+01	-2.218887e+02
1.570000e-06	-1.523513e-06	-3.193444e-09	-1.105655e+01	-2.189098e+02
1.580000e-06	-1.468672e-06	-3.158622e-09	-1.065856e+01	-2.158971e+02
1.590000e-06	-1.413747e-06	-3.122987e-09	-1.025996e+01	-2.128504e+02
1.600000e-06	-1.358720e-06	-3.078263e-09	-9.860609e+00	-2.097693e+02
1.610000e-06	-1.303588e-06	-3.026529e-09	-9.460497e+00	-2.066535e+02
1.620000e-06	-1.248331e-06	-2.978032e-09	-9.059487e+00	-2.035030e+02
1.630000e-06	-1.192953e-06	-2.934185e-09	-8.657591e+00	-2.003175e+02
1.640000e-06	-1.137549e-06	-2.886896e-09	-8.255507e+00	-1.970968e+02
1.650000e-06	-1.082081e-06	-2.831569e-09	-7.852965e+00	-1.938409e+02
1.660000e-06	-1.026523e-06	-2.770559e-09	-7.449763e+00	-1.905495e+02
1.670000e-06	-9.709417e-07	-2.719755e-09	-7.046393e+00	-1.872225e+02
1.680000e-06	-9.153313e-07	-2.678343e-09	-6.642813e+00	-1.838598e+02
1.690000e-06	-8.596826e-07	-2.633499e-09	-6.238955e+00	-1.804610e+02
1.700000e-06	-8.040219e-07	-2.577250e-09	-5.835010e+00	-1.770260e+02
1.710000e-06	-7.482954e-07	-2.520414e-09	-5.430587e+00	-1.735546e+02
1.720000e-06	-6.925126e-07	-2.471719e-09	-5.025756e+00	-1.700463e+02
1.730000e-06	-6.367137e-07	-2.426357e-09	-4.620808e+00	-1.665007e+02
1.740000e-06	-5.808737e-07	-2.374519e-09	-4.215562e+00	-1.629176e+02
1.750000e-06	-5.249748e-07	-2.312935e-09	-3.809887e+00	-1.592963e+02
1.760000e-06	-4.690861e-07	-2.251516e-09	-3.404288e+00	-1.556365e+02
1.770000e-06	-4.132149e-07	-2.200316e-09	-2.998815e+00	-1.519377e+02
1.780000e-06	-3.573060e-07	-2.155624e-09	-2.593069e+00	-1.481992e+02
1.790000e-06	-3.013778e-07	-2.103738e-09	-2.187182e+00	-1.444206e+02
1.800000e-06	-2.453769e-07	-2.042199e-09	-1.780768e+00	-1.406013e+02
1.810000e-06	-1.893268e-07	-1.983752e-09	-1.373997e+00	-1.367409e+02
1.820000e-06	-1.333307e-07	-1.933779e-09	-9.676179e-01	-1.328388e+02
1.830000e-06	-7.741572e-08	-1.882545e-09	-5.618273e-01	-1.288945e+02
1.840000e-06	-2.152702e-08	-1.820289e-09	-1.562276e-01	-1.249076e+02
1.850000e-06	3.440652e-08	-1.751780e-09	2.496976e-01	-1.208778e+02
1.860000e-06	9.034564e-08	-1.691135e-09	6.556634e-01	-1.168046e+02
1.870000e-06	1.463166e-07	-1.637114e-09	1.061860e+00	-1.126878e+02
1.880000e-06	2.023226e-07	-1.580554e-09	1.468311e+00	-1.085271e+02
1.890000e-06	2.582855e-07	-1.515098e-09	1.874449e+00	-1.043223e+02
1.900000e-06	3.142762e-07	-1.447972e-09	2.280789e+00	-1.000732e+02
1.910000e-06	3.702199e-07	-1.388147e-09	2.686788e+00	-9.577976e+01
1.920000e-06	4.260817e-07	-1.330624e-09	3.092193e+00	-9.144178e+01
1.930000e-06	4.819473e-07	-1.266243e-09	3.497625e+00	-8.705919e+01
1.940000e-06	5.378260e-07	-1.194429e-09	3.903152e+00	-8.263191e+01
1.950000e-06	5.936840e-07	-1.120447e-09	4.308529e+00	-7.815985e+01
1.960000e-06	6.494406e-07	-1.052034e-09	4.713170e+00	-7.364291e+01
1.970000e-06	7.051145e-07	-9.873333e-10	5.117211e+00	-6.908098e+01
1.980000e-06	7.607836e-07	-9.210207e-10	5.521217e+00	-6.447394e+01
1.990000e-06	8.164258e-07	-8.514600e-10	5.925028e+00	-5.982161e+01
2.000000e-06	8.720362e-07	-7.812013e-10	6.328608e+00	-5.512383e+01
2.010000e-06	9.276025e-07	-7.139908e-10	6.731868e+00	-5.038039e+01
2.020000e-06	9.831091e-07	-6.459344e-10	7.134695e+00	-4.559107e+01
2.030000e-06	1.038597e-06	-5.736587e-10	7.537385e+00	-4.075567e+01
2.040000e-06	1.093988e-06	-4.959337e-10	7.939375e+00	-3.587397e+01
2.050000e-06	1.149235e-06	-4.170270e-10	8.340316e+00	-3.094581e+01
2.060000e-06	1.204454e-06	-3.415439e-10	8.741058e+00	-2.597107e+01
2.070000e-06	1.259707e-06	-2.694940e-10	9.142039e+00	-2.094972e+01
2.080000e-06	1.314941e-06	-1.955452e-10	9.542894e+00	-1.588182e+01
2.090000e-06	1.370039e-06	-1.181194e-10	9.942753e+00	-1.076760e+01
2.100000e-06	1.424934e-06	-4.157144e-11	1.034114e+01	-5.607437e+00
2.110000e-06	1.479740e-06	3.295111e-11	1.073888e+01	-4.019446e-01
2.120000e-06	1.534476e-06	1.074410e-10	1.113612e+01	4.848042e+00
2.130000e-06	1.589111e-06	1.846772e-10	1.153262e+01	1.014141e+01
2.140000e-06	1.643630e-06	2.662780e-10	1.192828e+01	1.547673e+01
2.150000e-06	1.697955e-06	3.499151e-10	1.232253e+01	2.085225e+01
2.160000e-06	1.752140e-06	4.304453e-10	1.271576e+01	2.626587e+01
2.170000e-06	1.806289e-06	5.095890e-10	1.310874e+01	3.171511e+01
2.180000e-06	1.860341e-06	5.933991e-10	1.350101e+01	3.719710e+01
2.190000e-06	1.914321e-06	6.783373e-10	1.389276e+01	4.270860e+01
2.200000e-06	1.968216e-06	7.616177e-10	1.428389e+01	4.824596e+01
2.210000e-06	2.021891e-06	8.429340e-10	1.467343e+01	5.380516e+01
2.220000e-06	2.075345e-06	9.250911e-10	1.506135e+01	5.938184e+01
2.230000e-06	2.128598e-06	1.010105e-09	1.544782e+01	6.497129e+01
2.240000e-06	2.181742e-06	1.097486e-09	1.583351e+01	7.056849e+01
2.250000e-06	2.234833e-06	1.185443e-09	1.621880e+01	7.616818e+01
2.260000e-06	2.287713e-06	1.271446e-09	1.660257e+01	8.176487e+01
2.270000e-06	2.340334e-06	1.354620e-09	1.698445e+01	8.735291e+01
2.280000e-06	2.392742e-06	1.440196e-09	1.736479e+01	9.292656e+01
2.290000e-06	2.445006e-06	1.527940e-09	1.774409e+01	9.848002e+01
2.300000e-06	2.497168e-06	1.610579e-09	1.812264e+01	1.040075e+02
2.310000e-06	2.549143e-06	1.687784e-09	1.849984e+01	1.095034e+02
2.320000e-06	2.600943e-06	1.764071e-09	1.887577e+01	1.149620e+02
2.330000e-06	2.652547e-06	1.846861e-09	1.925027e+01	1.203782e+02
2.340000e-06	2.703889e-06	1.932058e-09	1.962287e+01	1.257468e+02
2.350000e-06	2.755014e-06	2.012921e-09	1.999390e+01	1.310630e+02
2.360000e-06	2.805883e-06	2.091214e-09	2.036307e+01	1.363227e+02
2.370000e-06	2.856407e-06	2.170805e-09	2.072974e+01	1.415217e+02
2.380000e-06	2.906541e-06	2.251757e-09	2.109357e+01	1.466566e+02
2.390000e-06	2.956267e-06	2.326496e-09	2.145445e+01	1.517244e+02
2.400000e-06	3.005716e-06	2.395667e-09	2.181331e+01	1.567227e+02
2.410000e-06	3.054873e-06	2.466622e-09	2.217006e+01	1.616493e+02
2.420000e-06	3.103694e-06	2.539993e-09	2.252437e+01	1.665028e+02
2.430000e-06	3.152321e-06	2.612504e-09	2.287727e+01	1.712822e+02
2.440000e-06	3.200766e-06	2.682070e-09	2.322884e+01	1.759870e+02
2.450000e-06	3.248947e-06	2.750592e-09	2.357851e+01	1.806169e+02
2.460000e-06	3.296873e-06	2.820049e-09	2.392632e+01	1.851724e+02
2.470000e-06	3.344637e-06	2.890552e-09	2.427296e+01	1.896541e+02
2.480000e-06	3.392218e-06	2.957838e-09	2.461827e+01	1.940630e+02
2.490000e-06	3.439596e-06	3.019906e-09	2.496210e+01	1.984004e+02
2.500000e-06	3.486780e-06	3.081019e-09	2.530453e+01	2.026677e+02
2.510000e-06	3.533686e-06	3.142822e-09	2.564494e+01	2.068665e+02
2.520000e-06	3.580329e-06	3.204060e-09	2.598344e+01	2.109986e+02
2.530000e-06	3.626733e-06	3.264366e-09	2.632020e+01	2.150657e+02
2.540000e-06	3.672865e-06	3.321897e-09	2.665500e+01	2.190695e+02
2.550000e-06	3.718753e-06	3.378102e-09	2.698802e+01	2.230119e+02
2.560000e-06	3.764491e-06	3.433188e-09	2.731996e+01	2.268943e+02
2.570000e-06	3.809951e-06	3.487224e-09	2.764987e+01	2.307184e+02
2.580000e-06	3.854984e-06	3.540838e-09	2.797669e+01	2.344852e+02
2.590000e-06	3.899825e-06	3.593337e-09	2.830211e+01	2.381961e+02
2.600000e-06	3.944499e-06	3.645464e-09	2.862632e+01	2.418519e+02
2.610000e-06	3.988889e-06	3.696413e-09	2.894848e+01	2.454533e+02
2.620000e-06	4.033000e-06	3.745179e-09	2.926860e+01	2.490009e+02
2.630000e-06	4.076900e-06	3.792593e-09	2.958719e+01	2.524950e+02
2.640000e-06	4.120671e-06	3.838694e-09	2.990485e+01	2.559357e+02
2.650000e-06	4.164202e-06	3.884122e-09	3.022077e+01	2.593230e+02
2.660000e-06	4.207378e-06	3.933586e-09	3.053411e+01	2.626569e+02
2.670000e-06	4.250231e-06	3.982499e-09	3.084511e+01	2.659369e+02
2.680000e-06	4.292691e-06	4.026102e-09	3.115325e+01	2.691628e+02
2.690000e-06	4.334595e-06	4.068061e-09	3.145736e+01	2.723342e+02
2.700000e-06	4.376073e-06	4.113689e-09	3.175837e+01	2.754508e+02
2.710000e-06	4.417206e-06	4.161475e-09	3.205689e+01	2.785122e+02
2.720000e-06	4.457964e-06	4.204374e-09	3.235268e+01	2.815182e+02
2.730000e-06	4.498375e-06	4.242672e-09	3.264596e+01	2.844685e+02
2.740000e-06	4.538434e-06	4.280043e-09	3.293667e+01	2.873631e+02
2.750000e-06	4.578204e-06	4.318029e-09	3.322530e+01	2.902021e+02
2.760000e-06	4.617792e-06	4.356672e-09	3.351259e+01	2.929857e+02
2.770000e-06	4.657191e-06	4.394305e-09	3.379853e+01	2.957142e+02
2.780000e-06	4.696210e-06	4.429865e-09	3.408170e+01	2.983882e+02
2.790000e-06	4.734810e-06	4.466203e-09	3.436183e+01	3.010084e+02
2.800000e-06	4.773128e-06	4.502520e-09	3.463991e+01	3.035756e+02
2.810000e-06	4.811165e-06	4.539751e-09	3.491596e+01	3.060908e+02
2.820000e-06	4.848864e-06	4.574789e-09	3.518955e+01	3.085551e+02
2.830000e-06	4.886225e-06	4.606192e-09	3.546069e+01	3.109697e+02
2.840000e-06	4.923246e-06	4.637519e-09	3.572936e+01	3.133359e+02
2.850000e-06	4.959884e-06	4.673167e-09	3.599525e+01	3.156550e+02
2.860000e-06	4.996168e-06	4.708284e-09	3.625857e+01	3.179283e+02
2.870000e-06	5.032203e-06	4.738579e-09	3.652009e+01	3.201571e+02
2.880000e-06	5.068047e-06	4.766065e-09	3.678022e+01	3.223426e+02
2.890000e-06	5.103696e-06	4.798931e-09	3.703894e+01	3.244860e+02
2.900000e-06	5.139035e-06	4.833101e-09	3.729540e+01	3.265885e+02
