# Temperatura_=_20.0
# Concentracion g/m^3_=_12600.0
# C_Vs_to_Am_M_A/Vsm_=_65563218390.804596
# pendiente_HvsI_1/m_=_3716.3
# ordenada_HvsI_A/m_=_1297.0
# frecuencia_Hz_=_135327.99863232402

Tiempo_(s)	Campo_(V.s)	Magnetizacion_(V.s)	Campo_(kA/m)	Magnetizacion_(A/m)
0.000000e+00	-6.575607e-06	-6.354064e-09	-4.775550e+01	-4.110710e+02
1.000000e-08	-6.575552e-06	-6.356907e-09	-4.775510e+01	-4.112167e+02
2.000000e-08	-6.575147e-06	-6.354833e-09	-4.775216e+01	-4.113370e+02
3.000000e-08	-6.574269e-06	-6.353134e-09	-4.774578e+01	-4.114242e+02
4.000000e-08	-6.572761e-06	-6.358550e-09	-4.773483e+01	-4.114702e+02
5.000000e-08	-6.570602e-06	-6.361954e-09	-4.771915e+01	-4.114671e+02
6.000000e-08	-6.567926e-06	-6.368929e-09	-4.769972e+01	-4.114070e+02
7.000000e-08	-6.564785e-06	-6.391645e-09	-4.767691e+01	-4.112823e+02
8.000000e-08	-6.561033e-06	-6.407642e-09	-4.764966e+01	-4.110861e+02
9.000000e-08	-6.556640e-06	-6.335013e-09	-4.761775e+01	-4.108123e+02
1.000000e-07	-6.551687e-06	-6.228367e-09	-4.758178e+01	-4.104556e+02
1.100000e-07	-6.546297e-06	-6.249056e-09	-4.754264e+01	-4.100120e+02
1.200000e-07	-6.540537e-06	-6.445038e-09	-4.750080e+01	-4.094787e+02
1.300000e-07	-6.534344e-06	-6.496562e-09	-4.745583e+01	-4.088543e+02
1.400000e-07	-6.527763e-06	-6.306836e-09	-4.740803e+01	-4.081389e+02
1.500000e-07	-6.520878e-06	-6.142193e-09	-4.735803e+01	-4.073341e+02
1.600000e-07	-6.513538e-06	-6.284598e-09	-4.730473e+01	-4.064431e+02
1.700000e-07	-6.505729e-06	-6.383331e-09	-4.724801e+01	-4.054705e+02
1.800000e-07	-6.497695e-06	-6.412412e-09	-4.718966e+01	-4.044225e+02
1.900000e-07	-6.489415e-06	-6.331724e-09	-4.712953e+01	-4.033067e+02
2.000000e-07	-6.480694e-06	-6.204096e-09	-4.706619e+01	-4.021318e+02
2.100000e-07	-6.471295e-06	-6.260754e-09	-4.699793e+01	-4.009076e+02
2.200000e-07	-6.461185e-06	-6.425703e-09	-4.692451e+01	-3.996449e+02
2.300000e-07	-6.450353e-06	-6.433066e-09	-4.684584e+01	-3.983550e+02
2.400000e-07	-6.438865e-06	-6.179962e-09	-4.676241e+01	-3.970499e+02
2.500000e-07	-6.426914e-06	-6.217695e-09	-4.667561e+01	-3.957415e+02
2.600000e-07	-6.414435e-06	-6.448609e-09	-4.658498e+01	-3.944418e+02
2.700000e-07	-6.401347e-06	-6.407808e-09	-4.648993e+01	-3.931625e+02
2.800000e-07	-6.387685e-06	-6.071726e-09	-4.639072e+01	-3.919147e+02
2.900000e-07	-6.373555e-06	-6.052540e-09	-4.628809e+01	-3.907089e+02
3.000000e-07	-6.358813e-06	-6.219447e-09	-4.618103e+01	-3.895542e+02
3.100000e-07	-6.343357e-06	-6.074970e-09	-4.606878e+01	-3.884589e+02
3.200000e-07	-6.327468e-06	-5.800893e-09	-4.595339e+01	-3.874298e+02
3.300000e-07	-6.311109e-06	-5.916445e-09	-4.583458e+01	-3.864721e+02
3.400000e-07	-6.294169e-06	-5.961882e-09	-4.571155e+01	-3.855895e+02
3.500000e-07	-6.276864e-06	-5.783890e-09	-4.558587e+01	-3.847842e+02
3.600000e-07	-6.259193e-06	-5.734971e-09	-4.545754e+01	-3.840564e+02
3.700000e-07	-6.241159e-06	-5.851280e-09	-4.532656e+01	-3.834049e+02
3.800000e-07	-6.222700e-06	-5.871080e-09	-4.519250e+01	-3.828269e+02
3.900000e-07	-6.203798e-06	-5.819683e-09	-4.505523e+01	-3.823178e+02
4.000000e-07	-6.184478e-06	-5.742788e-09	-4.491492e+01	-3.818719e+02
4.100000e-07	-6.164812e-06	-5.690562e-09	-4.477209e+01	-3.814821e+02
4.200000e-07	-6.144874e-06	-5.790443e-09	-4.462729e+01	-3.811405e+02
4.300000e-07	-6.124544e-06	-5.853354e-09	-4.447964e+01	-3.808380e+02
4.400000e-07	-6.103779e-06	-5.709042e-09	-4.432884e+01	-3.805651e+02
4.500000e-07	-6.082626e-06	-5.566465e-09	-4.417521e+01	-3.803118e+02
4.600000e-07	-6.061108e-06	-5.644605e-09	-4.401894e+01	-3.800680e+02
4.700000e-07	-6.039202e-06	-5.777303e-09	-4.385984e+01	-3.798236e+02
4.800000e-07	-6.016785e-06	-5.807110e-09	-4.369704e+01	-3.795688e+02
4.900000e-07	-5.993891e-06	-5.617290e-09	-4.353078e+01	-3.792943e+02
5.000000e-07	-5.970641e-06	-5.509631e-09	-4.336192e+01	-3.789916e+02
5.100000e-07	-5.947064e-06	-5.684236e-09	-4.319069e+01	-3.786528e+02
5.200000e-07	-5.923247e-06	-5.847387e-09	-4.301772e+01	-3.782713e+02
5.300000e-07	-5.899038e-06	-5.657575e-09	-4.284190e+01	-3.778415e+02
5.400000e-07	-5.874302e-06	-5.490091e-09	-4.266225e+01	-3.773589e+02
5.500000e-07	-5.849142e-06	-5.574979e-09	-4.247953e+01	-3.768203e+02
5.600000e-07	-5.823282e-06	-5.704830e-09	-4.229172e+01	-3.762240e+02
5.700000e-07	-5.796613e-06	-5.659920e-09	-4.209804e+01	-3.755691e+02
5.800000e-07	-5.769445e-06	-5.549323e-09	-4.190073e+01	-3.748563e+02
5.900000e-07	-5.741921e-06	-5.484738e-09	-4.170084e+01	-3.740872e+02
6.000000e-07	-5.714155e-06	-5.542326e-09	-4.149919e+01	-3.732645e+02
6.100000e-07	-5.686129e-06	-5.613846e-09	-4.129564e+01	-3.723918e+02
6.200000e-07	-5.657695e-06	-5.584797e-09	-4.108915e+01	-3.714734e+02
6.300000e-07	-5.628870e-06	-5.488310e-09	-4.087980e+01	-3.705140e+02
6.400000e-07	-5.599798e-06	-5.456494e-09	-4.066866e+01	-3.695190e+02
6.500000e-07	-5.570358e-06	-5.501957e-09	-4.045485e+01	-3.684939e+02
6.600000e-07	-5.540432e-06	-5.536237e-09	-4.023751e+01	-3.674442e+02
6.700000e-07	-5.510106e-06	-5.496195e-09	-4.001727e+01	-3.663753e+02
6.800000e-07	-5.479433e-06	-5.421625e-09	-3.979451e+01	-3.652924e+02
6.900000e-07	-5.448418e-06	-5.406020e-09	-3.956926e+01	-3.642002e+02
7.000000e-07	-5.417047e-06	-5.439373e-09	-3.934143e+01	-3.631029e+02
7.100000e-07	-5.385375e-06	-5.456725e-09	-3.911141e+01	-3.620041e+02
7.200000e-07	-5.353471e-06	-5.417495e-09	-3.887971e+01	-3.609065e+02
7.300000e-07	-5.321315e-06	-5.361212e-09	-3.864617e+01	-3.598121e+02
7.400000e-07	-5.288679e-06	-5.333642e-09	-3.840916e+01	-3.587222e+02
7.500000e-07	-5.255444e-06	-5.360005e-09	-3.816779e+01	-3.576372e+02
7.600000e-07	-5.221751e-06	-5.364559e-09	-3.792309e+01	-3.565566e+02
7.700000e-07	-5.187603e-06	-5.321376e-09	-3.767509e+01	-3.554792e+02
7.800000e-07	-5.152856e-06	-5.266749e-09	-3.742273e+01	-3.544033e+02
7.900000e-07	-5.117638e-06	-5.261990e-09	-3.716697e+01	-3.533263e+02
8.000000e-07	-5.082114e-06	-5.274526e-09	-3.690898e+01	-3.522452e+02
8.100000e-07	-5.046291e-06	-5.269975e-09	-3.664881e+01	-3.511568e+02
8.200000e-07	-5.010170e-06	-5.227728e-09	-3.638648e+01	-3.500575e+02
8.300000e-07	-4.973720e-06	-5.182404e-09	-3.612176e+01	-3.489434e+02
8.400000e-07	-4.936963e-06	-5.162309e-09	-3.585481e+01	-3.478110e+02
8.500000e-07	-4.899848e-06	-5.169639e-09	-3.558526e+01	-3.466564e+02
8.600000e-07	-4.862423e-06	-5.155098e-09	-3.531346e+01	-3.454763e+02
8.700000e-07	-4.824748e-06	-5.113931e-09	-3.503985e+01	-3.442677e+02
8.800000e-07	-4.786623e-06	-5.077106e-09	-3.476296e+01	-3.430279e+02
8.900000e-07	-4.748081e-06	-5.067789e-09	-3.448305e+01	-3.417547e+02
9.000000e-07	-4.709269e-06	-5.066630e-09	-3.420118e+01	-3.404466e+02
9.100000e-07	-4.670132e-06	-5.054180e-09	-3.391694e+01	-3.391025e+02
9.200000e-07	-4.630686e-06	-5.021869e-09	-3.363047e+01	-3.377220e+02
9.300000e-07	-4.591028e-06	-4.984314e-09	-3.334245e+01	-3.363055e+02
9.400000e-07	-4.551163e-06	-4.962774e-09	-3.305293e+01	-3.348536e+02
9.500000e-07	-4.511035e-06	-4.959149e-09	-3.276150e+01	-3.333677e+02
9.600000e-07	-4.470590e-06	-4.948971e-09	-3.246777e+01	-3.318495e+02
9.700000e-07	-4.429802e-06	-4.908696e-09	-3.217154e+01	-3.303014e+02
9.800000e-07	-4.388703e-06	-4.861168e-09	-3.187306e+01	-3.287258e+02
9.900000e-07	-4.347213e-06	-4.845485e-09	-3.157173e+01	-3.271256e+02
1.000000e-06	-4.305138e-06	-4.856001e-09	-3.126617e+01	-3.255035e+02
1.010000e-06	-4.262548e-06	-4.840361e-09	-3.095686e+01	-3.238624e+02
1.020000e-06	-4.219569e-06	-4.788512e-09	-3.064472e+01	-3.222054e+02
1.030000e-06	-4.176275e-06	-4.745652e-09	-3.033029e+01	-3.205349e+02
1.040000e-06	-4.132757e-06	-4.746973e-09	-3.001424e+01	-3.188534e+02
1.050000e-06	-4.088993e-06	-4.748771e-09	-2.969641e+01	-3.171630e+02
1.060000e-06	-4.044999e-06	-4.708423e-09	-2.937690e+01	-3.154653e+02
1.070000e-06	-4.000773e-06	-4.648363e-09	-2.905571e+01	-3.137615e+02
1.080000e-06	-3.956283e-06	-4.627307e-09	-2.873260e+01	-3.120523e+02
1.090000e-06	-3.911515e-06	-4.636909e-09	-2.840747e+01	-3.103380e+02
1.100000e-06	-3.866487e-06	-4.625829e-09	-2.808046e+01	-3.086181e+02
1.110000e-06	-3.821192e-06	-4.574082e-09	-2.775150e+01	-3.068918e+02
1.120000e-06	-3.775621e-06	-4.527605e-09	-2.742054e+01	-3.051579e+02
1.130000e-06	-3.729784e-06	-4.516251e-09	-2.708764e+01	-3.034144e+02
1.140000e-06	-3.683683e-06	-4.512325e-09	-2.675284e+01	-3.016594e+02
1.150000e-06	-3.637372e-06	-4.479315e-09	-2.641650e+01	-2.998903e+02
1.160000e-06	-3.590799e-06	-4.425444e-09	-2.607826e+01	-2.981045e+02
1.170000e-06	-3.543975e-06	-4.386348e-09	-2.573820e+01	-2.962992e+02
1.180000e-06	-3.496929e-06	-4.376455e-09	-2.539653e+01	-2.944714e+02
1.190000e-06	-3.449617e-06	-4.360530e-09	-2.505293e+01	-2.926183e+02
1.200000e-06	-3.402037e-06	-4.319216e-09	-2.470737e+01	-2.907371e+02
1.210000e-06	-3.354295e-06	-4.273043e-09	-2.436065e+01	-2.888252e+02
1.220000e-06	-3.306426e-06	-4.245710e-09	-2.401299e+01	-2.868803e+02
1.230000e-06	-3.258267e-06	-4.230182e-09	-2.366324e+01	-2.849004e+02
1.240000e-06	-3.209866e-06	-4.204696e-09	-2.331173e+01	-2.828838e+02
1.250000e-06	-3.161296e-06	-4.164594e-09	-2.295899e+01	-2.808293e+02
1.260000e-06	-3.112481e-06	-4.121716e-09	-2.260447e+01	-2.787361e+02
1.270000e-06	-3.063285e-06	-4.090209e-09	-2.224718e+01	-2.766038e+02
1.280000e-06	-3.013635e-06	-4.068454e-09	-2.188660e+01	-2.744325e+02
1.290000e-06	-2.963740e-06	-4.040435e-09	-2.152423e+01	-2.722228e+02
1.300000e-06	-2.913617e-06	-3.999239e-09	-2.116021e+01	-2.699754e+02
1.310000e-06	-2.863176e-06	-3.960409e-09	-2.079388e+01	-2.676916e+02
1.320000e-06	-2.812390e-06	-3.931929e-09	-2.042505e+01	-2.653729e+02
1.330000e-06	-2.761290e-06	-3.904643e-09	-2.005394e+01	-2.630211e+02
1.340000e-06	-2.709977e-06	-3.866756e-09	-1.968127e+01	-2.606380e+02
1.350000e-06	-2.658398e-06	-3.821531e-09	-1.930668e+01	-2.582257e+02
1.360000e-06	-2.606532e-06	-3.775847e-09	-1.893000e+01	-2.557862e+02
1.370000e-06	-2.554498e-06	-3.741280e-09	-1.855210e+01	-2.533214e+02
1.380000e-06	-2.502301e-06	-3.712414e-09	-1.817302e+01	-2.508332e+02
1.390000e-06	-2.449830e-06	-3.677179e-09	-1.779195e+01	-2.483231e+02
1.400000e-06	-2.397248e-06	-3.632581e-09	-1.741007e+01	-2.457927e+02
1.410000e-06	-2.344577e-06	-3.588936e-09	-1.702755e+01	-2.432429e+02
1.420000e-06	-2.291688e-06	-3.555231e-09	-1.664344e+01	-2.406745e+02
1.430000e-06	-2.238591e-06	-3.523897e-09	-1.625782e+01	-2.380880e+02
1.440000e-06	-2.185351e-06	-3.482055e-09	-1.587116e+01	-2.354834e+02
1.450000e-06	-2.132035e-06	-3.433574e-09	-1.548395e+01	-2.328604e+02
1.460000e-06	-2.078575e-06	-3.390154e-09	-1.509570e+01	-2.302183e+02
1.470000e-06	-2.024949e-06	-3.352684e-09	-1.470624e+01	-2.275560e+02
1.480000e-06	-1.971206e-06	-3.314643e-09	-1.431593e+01	-2.248722e+02
1.490000e-06	-1.917313e-06	-3.272276e-09	-1.392453e+01	-2.221654e+02
1.500000e-06	-1.863186e-06	-3.228172e-09	-1.353143e+01	-2.194336e+02
1.510000e-06	-1.808937e-06	-3.188200e-09	-1.313745e+01	-2.166750e+02
1.520000e-06	-1.754674e-06	-3.151352e-09	-1.274336e+01	-2.138875e+02
1.530000e-06	-1.700306e-06	-3.111183e-09	-1.234851e+01	-2.110689e+02
1.540000e-06	-1.645793e-06	-3.064419e-09	-1.195261e+01	-2.082171e+02
1.550000e-06	-1.591144e-06	-3.016260e-09	-1.155572e+01	-2.053302e+02
1.560000e-06	-1.536379e-06	-2.975343e-09	-1.115799e+01	-2.024063e+02
1.570000e-06	-1.481531e-06	-2.939065e-09	-1.075966e+01	-1.994436e+02
1.580000e-06	-1.426541e-06	-2.898633e-09	-1.036029e+01	-1.964407e+02
1.590000e-06	-1.371425e-06	-2.849767e-09	-9.960004e+00	-1.933965e+02
1.600000e-06	-1.316301e-06	-2.801998e-09	-9.559669e+00	-1.903099e+02
1.610000e-06	-1.261172e-06	-2.758677e-09	-9.159293e+00	-1.871804e+02
1.620000e-06	-1.206007e-06	-2.714753e-09	-8.758653e+00	-1.840077e+02
1.630000e-06	-1.150652e-06	-2.665320e-09	-8.356636e+00	-1.807916e+02
1.640000e-06	-1.095086e-06	-2.612026e-09	-7.953087e+00	-1.775325e+02
1.650000e-06	-1.039531e-06	-2.559908e-09	-7.549619e+00	-1.742309e+02
1.660000e-06	-9.839724e-07	-2.509026e-09	-7.146122e+00	-1.708875e+02
1.670000e-06	-9.283595e-07	-2.458637e-09	-6.742233e+00	-1.675032e+02
1.680000e-06	-8.727185e-07	-2.406702e-09	-6.338139e+00	-1.640790e+02
1.690000e-06	-8.170358e-07	-2.354127e-09	-5.933742e+00	-1.606162e+02
1.700000e-06	-7.613486e-07	-2.303058e-09	-5.529312e+00	-1.571157e+02
1.710000e-06	-7.056442e-07	-2.254229e-09	-5.124758e+00	-1.535788e+02
1.720000e-06	-6.498563e-07	-2.205039e-09	-4.719597e+00	-1.500067e+02
1.730000e-06	-5.940294e-07	-2.154787e-09	-4.314153e+00	-1.464001e+02
1.740000e-06	-5.382422e-07	-2.099329e-09	-3.908997e+00	-1.427601e+02
1.750000e-06	-4.824107e-07	-2.041432e-09	-3.503519e+00	-1.390872e+02
1.760000e-06	-4.264916e-07	-1.985986e-09	-3.097405e+00	-1.353820e+02
1.770000e-06	-3.706137e-07	-1.934320e-09	-2.691591e+00	-1.316444e+02
1.780000e-06	-3.147647e-07	-1.880242e-09	-2.285986e+00	-1.278747e+02
1.790000e-06	-2.588407e-07	-1.821837e-09	-1.879837e+00	-1.240723e+02
1.800000e-06	-2.029384e-07	-1.766547e-09	-1.473845e+00	-1.202369e+02
1.810000e-06	-1.470352e-07	-1.713679e-09	-1.067847e+00	-1.163676e+02
1.820000e-06	-9.107806e-08	-1.659858e-09	-6.614565e-01	-1.124636e+02
1.830000e-06	-3.512582e-08	-1.600906e-09	-2.551021e-01	-1.085235e+02
1.840000e-06	2.078110e-08	-1.539724e-09	1.509232e-01	-1.045461e+02
1.850000e-06	7.667718e-08	-1.478611e-09	5.568698e-01	-1.005300e+02
1.860000e-06	1.326057e-07	-1.420164e-09	9.630519e-01	-9.647374e+01
1.870000e-06	1.885155e-07	-1.361110e-09	1.369098e+00	-9.237571e+01
1.880000e-06	2.444173e-07	-1.299127e-09	1.775086e+00	-8.823443e+01
1.890000e-06	3.002641e-07	-1.237676e-09	2.180675e+00	-8.404841e+01
1.900000e-06	3.560801e-07	-1.177763e-09	2.586040e+00	-7.981629e+01
1.910000e-06	4.119530e-07	-1.117082e-09	2.991818e+00	-7.553677e+01
1.920000e-06	4.678092e-07	-1.052279e-09	3.397476e+00	-7.120876e+01
1.930000e-06	5.236591e-07	-9.856037e-10	3.803087e+00	-6.683131e+01
1.940000e-06	5.794990e-07	-9.171228e-10	4.208625e+00	-6.240365e+01
1.950000e-06	6.352327e-07	-8.498466e-10	4.613392e+00	-5.792524e+01
1.960000e-06	6.909164e-07	-7.844239e-10	5.017796e+00	-5.339572e+01
1.970000e-06	7.465576e-07	-7.177463e-10	5.421892e+00	-4.881494e+01
1.980000e-06	8.021738e-07	-6.472950e-10	5.825806e+00	-4.418298e+01
1.990000e-06	8.577914e-07	-5.768901e-10	6.229730e+00	-3.950005e+01
2.000000e-06	9.133773e-07	-5.071386e-10	6.633424e+00	-3.476658e+01
2.010000e-06	9.688861e-07	-4.367357e-10	7.036558e+00	-2.998314e+01
2.020000e-06	1.024323e-06	-3.658997e-10	7.439167e+00	-2.515042e+01
2.030000e-06	1.079812e-06	-2.913389e-10	7.842160e+00	-2.026925e+01
2.040000e-06	1.135241e-06	-2.126032e-10	8.244716e+00	-1.534052e+01
2.050000e-06	1.190574e-06	-1.368273e-10	8.646568e+00	-1.036522e+01
2.060000e-06	1.245847e-06	-6.193122e-11	9.047992e+00	-5.344403e+00
2.070000e-06	1.300957e-06	1.091599e-11	9.448233e+00	-2.791533e-01
2.080000e-06	1.355901e-06	8.626187e-11	9.847265e+00	4.829391e+00
2.090000e-06	1.410759e-06	1.660037e-10	1.024567e+01	9.980051e+00
2.100000e-06	1.465587e-06	2.447175e-10	1.064386e+01	1.517161e+01
2.110000e-06	1.520341e-06	3.223634e-10	1.104151e+01	2.040278e+01
2.120000e-06	1.574963e-06	4.014038e-10	1.143820e+01	2.567221e+01
2.130000e-06	1.629451e-06	4.834234e-10	1.183393e+01	3.097848e+01
2.140000e-06	1.683858e-06	5.654676e-10	1.222906e+01	3.632001e+01
2.150000e-06	1.738203e-06	6.475454e-10	1.262374e+01	4.169513e+01
2.160000e-06	1.792384e-06	7.311023e-10	1.301723e+01	4.710194e+01
2.170000e-06	1.846416e-06	8.156307e-10	1.340964e+01	5.253838e+01
2.180000e-06	1.900376e-06	8.988858e-10	1.380152e+01	5.800212e+01
2.190000e-06	1.954151e-06	9.813739e-10	1.419207e+01	6.349060e+01
2.200000e-06	2.007830e-06	1.063550e-09	1.458191e+01	6.900093e+01
2.210000e-06	2.061411e-06	1.148281e-09	1.497105e+01	7.452994e+01
2.220000e-06	2.114783e-06	1.232783e-09	1.535866e+01	8.007410e+01
2.230000e-06	2.168008e-06	1.317804e-09	1.574521e+01	8.562958e+01
2.240000e-06	2.220981e-06	1.402921e-09	1.612993e+01	9.119217e+01
2.250000e-06	2.273733e-06	1.489445e-09	1.651304e+01	9.675738e+01
2.260000e-06	2.326422e-06	1.576477e-09	1.689570e+01	1.023204e+02
2.270000e-06	2.378921e-06	1.663599e-09	1.727697e+01	1.078760e+02
2.280000e-06	2.431207e-06	1.748007e-09	1.765670e+01	1.134191e+02
2.290000e-06	2.483405e-06	1.830223e-09	1.803579e+01	1.189439e+02
2.300000e-06	2.535473e-06	1.912970e-09	1.841393e+01	1.244448e+02
2.310000e-06	2.587272e-06	1.996451e-09	1.879012e+01	1.299161e+02
2.320000e-06	2.638775e-06	2.077568e-09	1.916417e+01	1.353519e+02
2.330000e-06	2.690144e-06	2.156877e-09	1.953723e+01	1.407466e+02
2.340000e-06	2.741376e-06	2.234482e-09	1.990931e+01	1.460947e+02
2.350000e-06	2.792242e-06	2.313282e-09	2.027872e+01	1.513906e+02
2.360000e-06	2.842754e-06	2.394780e-09	2.064556e+01	1.566295e+02
2.370000e-06	2.893009e-06	2.474488e-09	2.101055e+01	1.618065e+02
2.380000e-06	2.942901e-06	2.547487e-09	2.137288e+01	1.669173e+02
2.390000e-06	2.992417e-06	2.620213e-09	2.173250e+01	1.719582e+02
2.400000e-06	3.041605e-06	2.696137e-09	2.208972e+01	1.769259e+02
2.410000e-06	3.090414e-06	2.770131e-09	2.244420e+01	1.818176e+02
2.420000e-06	3.138972e-06	2.841557e-09	2.279686e+01	1.866312e+02
2.430000e-06	3.187327e-06	2.909845e-09	2.314804e+01	1.913653e+02
2.440000e-06	3.235419e-06	2.978449e-09	2.349731e+01	1.960188e+02
2.450000e-06	3.283379e-06	3.049601e-09	2.384562e+01	2.005916e+02
2.460000e-06	3.331193e-06	3.121111e-09	2.419287e+01	2.050838e+02
2.470000e-06	3.378778e-06	3.189780e-09	2.453845e+01	2.094963e+02
2.480000e-06	3.426121e-06	3.254700e-09	2.488229e+01	2.138303e+02
2.490000e-06	3.473249e-06	3.319442e-09	2.522455e+01	2.180876e+02
2.500000e-06	3.520134e-06	3.382534e-09	2.556506e+01	2.222702e+02
2.510000e-06	3.566736e-06	3.440890e-09	2.590350e+01	2.263804e+02
2.520000e-06	3.613094e-06	3.496573e-09	2.624018e+01	2.304209e+02
2.530000e-06	3.659192e-06	3.551169e-09	2.657497e+01	2.343941e+02
2.540000e-06	3.705073e-06	3.608579e-09	2.690818e+01	2.383030e+02
2.550000e-06	3.750708e-06	3.666435e-09	2.723961e+01	2.421501e+02
2.560000e-06	3.796064e-06	3.722157e-09	2.756900e+01	2.459379e+02
2.570000e-06	3.841173e-06	3.776007e-09	2.789661e+01	2.496689e+02
2.580000e-06	3.886074e-06	3.830477e-09	2.822270e+01	2.533451e+02
2.590000e-06	3.930756e-06	3.883446e-09	2.854721e+01	2.569685e+02
2.600000e-06	3.975147e-06	3.934039e-09	2.886960e+01	2.605404e+02
2.610000e-06	4.019307e-06	3.980341e-09	2.919031e+01	2.640620e+02
2.620000e-06	4.063293e-06	4.025570e-09	2.950976e+01	2.675341e+02
2.630000e-06	4.107113e-06	4.072241e-09	2.982800e+01	2.709571e+02
2.640000e-06	4.150714e-06	4.119232e-09	3.014466e+01	2.743310e+02
2.650000e-06	4.194046e-06	4.167158e-09	3.045936e+01	2.776557e+02
2.660000e-06	4.236990e-06	4.215467e-09	3.077124e+01	2.809305e+02
2.670000e-06	4.279495e-06	4.262268e-09	3.107993e+01	2.841547e+02
2.680000e-06	4.321521e-06	4.307558e-09	3.138515e+01	2.873272e+02
2.690000e-06	4.363074e-06	4.352229e-09	3.168692e+01	2.904469e+02
2.700000e-06	4.404217e-06	4.397873e-09	3.198573e+01	2.935127e+02
2.710000e-06	4.444902e-06	4.441525e-09	3.228120e+01	2.965235e+02
2.720000e-06	4.485202e-06	4.481746e-09	3.257388e+01	2.994781e+02
2.730000e-06	4.525275e-06	4.518970e-09	3.286492e+01	3.023756e+02
2.740000e-06	4.565178e-06	4.553526e-09	3.315471e+01	3.052152e+02
2.750000e-06	4.604840e-06	4.588824e-09	3.344276e+01	3.079965e+02
2.760000e-06	4.644166e-06	4.627418e-09	3.372837e+01	3.107192e+02
2.770000e-06	4.683148e-06	4.667451e-09	3.401148e+01	3.133834e+02
2.780000e-06	4.721895e-06	4.705607e-09	3.429287e+01	3.159896e+02
2.790000e-06	4.760260e-06	4.742072e-09	3.457150e+01	3.185385e+02
2.800000e-06	4.798187e-06	4.780602e-09	3.484695e+01	3.210313e+02
2.810000e-06	4.835813e-06	4.819591e-09	3.512020e+01	3.234694e+02
2.820000e-06	4.873157e-06	4.853275e-09	3.539142e+01	3.258546e+02
2.830000e-06	4.910222e-06	4.881992e-09	3.566060e+01	3.281888e+02
2.840000e-06	4.946922e-06	4.912230e-09	3.592714e+01	3.304743e+02
2.850000e-06	4.983346e-06	4.945470e-09	3.619167e+01	3.327133e+02
2.860000e-06	5.019551e-06	4.978331e-09	3.645461e+01	3.349084e+02
2.870000e-06	5.055519e-06	5.008995e-09	3.671583e+01	3.370618e+02
2.880000e-06	5.091296e-06	5.042392e-09	3.697566e+01	3.391760e+02
2.890000e-06	5.126730e-06	5.077392e-09	3.723300e+01	3.412533e+02
2.900000e-06	5.161555e-06	5.110570e-09	3.748592e+01	3.432956e+02
