# Temperatura_=_20.0
# Concentracion g/m^3_=_12600.0
# C_Vs_to_Am_M_A/Vsm_=_65563218390.804596
# pendiente_HvsI_1/m_=_3716.3
# ordenada_HvsI_A/m_=_1297.0
# frecuencia_Hz_=_135330.55689839326

Tiempo_(s)	Campo_(V.s)	Magnetizacion_(V.s)	Campo_(kA/m)	Magnetizacion_(A/m)
0.000000e+00	-6.579213e-06	-5.876001e-09	-4.774289e+01	-3.901312e+02
1.000000e-08	-6.579513e-06	-5.875108e-09	-4.774507e+01	-3.901457e+02
2.000000e-08	-6.579549e-06	-5.877488e-09	-4.774533e+01	-3.901580e+02
3.000000e-08	-6.579189e-06	-5.875987e-09	-4.774272e+01	-3.901727e+02
4.000000e-08	-6.578303e-06	-5.870040e-09	-4.773629e+01	-3.901946e+02
5.000000e-08	-6.576687e-06	-5.866931e-09	-4.772456e+01	-3.902288e+02
6.000000e-08	-6.574272e-06	-5.865608e-09	-4.770704e+01	-3.902804e+02
7.000000e-08	-6.571298e-06	-5.858419e-09	-4.768546e+01	-3.903546e+02
8.000000e-08	-6.567929e-06	-5.850709e-09	-4.766101e+01	-3.904563e+02
9.000000e-08	-6.564150e-06	-5.885820e-09	-4.763358e+01	-3.905902e+02
1.000000e-07	-6.559814e-06	-5.937082e-09	-4.760212e+01	-3.907608e+02
1.100000e-07	-6.554822e-06	-5.899350e-09	-4.756590e+01	-3.909718e+02
1.200000e-07	-6.549231e-06	-5.778606e-09	-4.752532e+01	-3.912265e+02
1.300000e-07	-6.543318e-06	-5.813866e-09	-4.748241e+01	-3.915275e+02
1.400000e-07	-6.537144e-06	-6.025483e-09	-4.743761e+01	-3.918766e+02
1.500000e-07	-6.530549e-06	-6.038975e-09	-4.738976e+01	-3.922745e+02
1.600000e-07	-6.523517e-06	-5.826123e-09	-4.733873e+01	-3.927213e+02
1.700000e-07	-6.516068e-06	-5.794542e-09	-4.728467e+01	-3.932158e+02
1.800000e-07	-6.508240e-06	-5.942431e-09	-4.722787e+01	-3.937560e+02
1.900000e-07	-6.500031e-06	-5.950788e-09	-4.716829e+01	-3.943389e+02
2.000000e-07	-6.491611e-06	-5.947348e-09	-4.710719e+01	-3.949604e+02
2.100000e-07	-6.483006e-06	-5.848750e-09	-4.704475e+01	-3.956155e+02
2.200000e-07	-6.473627e-06	-5.776215e-09	-4.697669e+01	-3.962983e+02
2.300000e-07	-6.463246e-06	-5.827056e-09	-4.690136e+01	-3.970022e+02
2.400000e-07	-6.452335e-06	-6.011691e-09	-4.682218e+01	-3.977199e+02
2.500000e-07	-6.440998e-06	-6.030308e-09	-4.673992e+01	-3.984433e+02
2.600000e-07	-6.428954e-06	-5.897866e-09	-4.665251e+01	-3.991642e+02
2.700000e-07	-6.416268e-06	-6.028499e-09	-4.656046e+01	-3.998737e+02
2.800000e-07	-6.403184e-06	-6.355867e-09	-4.646551e+01	-4.005632e+02
2.900000e-07	-6.389667e-06	-6.380968e-09	-4.636743e+01	-4.012238e+02
3.000000e-07	-6.375565e-06	-6.172344e-09	-4.626509e+01	-4.018468e+02
3.100000e-07	-6.360790e-06	-6.235147e-09	-4.615788e+01	-4.024239e+02
3.200000e-07	-6.345295e-06	-6.402313e-09	-4.604543e+01	-4.029474e+02
3.300000e-07	-6.329093e-06	-6.281632e-09	-4.592786e+01	-4.034099e+02
3.400000e-07	-6.312351e-06	-6.273901e-09	-4.580637e+01	-4.038050e+02
3.500000e-07	-6.295260e-06	-6.431993e-09	-4.568235e+01	-4.041271e+02
3.600000e-07	-6.277882e-06	-6.208812e-09	-4.555625e+01	-4.043716e+02
3.700000e-07	-6.260137e-06	-6.054649e-09	-4.542747e+01	-4.045347e+02
3.800000e-07	-6.242088e-06	-6.325705e-09	-4.529650e+01	-4.046139e+02
3.900000e-07	-6.223681e-06	-6.465512e-09	-4.516293e+01	-4.046078e+02
4.000000e-07	-6.204688e-06	-6.193264e-09	-4.502510e+01	-4.045161e+02
4.100000e-07	-6.185231e-06	-6.126437e-09	-4.488391e+01	-4.043395e+02
4.200000e-07	-6.165501e-06	-6.286300e-09	-4.474073e+01	-4.040797e+02
4.300000e-07	-6.145490e-06	-6.396952e-09	-4.459552e+01	-4.037397e+02
4.400000e-07	-6.125079e-06	-6.334045e-09	-4.444741e+01	-4.033231e+02
4.500000e-07	-6.104252e-06	-6.197859e-09	-4.429628e+01	-4.028344e+02
4.600000e-07	-6.083068e-06	-6.122162e-09	-4.414255e+01	-4.022788e+02
4.700000e-07	-6.061527e-06	-6.253294e-09	-4.398624e+01	-4.016622e+02
4.800000e-07	-6.039533e-06	-6.326790e-09	-4.382663e+01	-4.009907e+02
4.900000e-07	-6.017081e-06	-6.217749e-09	-4.366371e+01	-4.002708e+02
5.000000e-07	-5.994208e-06	-6.102182e-09	-4.349772e+01	-3.995090e+02
5.100000e-07	-5.970908e-06	-6.109248e-09	-4.332865e+01	-3.987122e+02
5.200000e-07	-5.947331e-06	-6.208971e-09	-4.315756e+01	-3.978866e+02
5.300000e-07	-5.923481e-06	-6.280214e-09	-4.298449e+01	-3.970386e+02
5.400000e-07	-5.899208e-06	-6.160082e-09	-4.280835e+01	-3.961738e+02
5.500000e-07	-5.874400e-06	-6.006161e-09	-4.262833e+01	-3.952978e+02
5.600000e-07	-5.848870e-06	-6.107118e-09	-4.244306e+01	-3.944150e+02
5.700000e-07	-5.822667e-06	-6.243769e-09	-4.225292e+01	-3.935297e+02
5.800000e-07	-5.795909e-06	-6.146252e-09	-4.205874e+01	-3.926451e+02
5.900000e-07	-5.768695e-06	-5.995342e-09	-4.186126e+01	-3.917639e+02
6.000000e-07	-5.741173e-06	-6.034110e-09	-4.166155e+01	-3.908878e+02
6.100000e-07	-5.713349e-06	-6.108671e-09	-4.145964e+01	-3.900180e+02
6.200000e-07	-5.685215e-06	-6.081844e-09	-4.125548e+01	-3.891546e+02
6.300000e-07	-5.656776e-06	-6.007409e-09	-4.104911e+01	-3.882974e+02
6.400000e-07	-5.627987e-06	-5.995036e-09	-4.084020e+01	-3.874453e+02
6.500000e-07	-5.598849e-06	-6.001709e-09	-4.062876e+01	-3.865967e+02
6.600000e-07	-5.569313e-06	-5.992778e-09	-4.041442e+01	-3.857496e+02
6.700000e-07	-5.539325e-06	-5.971373e-09	-4.019681e+01	-3.849014e+02
6.800000e-07	-5.508892e-06	-5.968748e-09	-3.997597e+01	-3.840493e+02
6.900000e-07	-5.478044e-06	-5.946064e-09	-3.975212e+01	-3.831903e+02
7.000000e-07	-5.446891e-06	-5.914979e-09	-3.952605e+01	-3.823214e+02
7.100000e-07	-5.415446e-06	-5.898777e-09	-3.929787e+01	-3.814393e+02
7.200000e-07	-5.383751e-06	-5.903858e-09	-3.906787e+01	-3.805412e+02
7.300000e-07	-5.351767e-06	-5.897461e-09	-3.883578e+01	-3.796240e+02
7.400000e-07	-5.319429e-06	-5.865748e-09	-3.860111e+01	-3.786852e+02
7.500000e-07	-5.286709e-06	-5.815620e-09	-3.836367e+01	-3.777224e+02
7.600000e-07	-5.253513e-06	-5.804282e-09	-3.812278e+01	-3.767338e+02
7.700000e-07	-5.219789e-06	-5.826818e-09	-3.787806e+01	-3.757176e+02
7.800000e-07	-5.185496e-06	-5.819377e-09	-3.762920e+01	-3.746728e+02
7.900000e-07	-5.150661e-06	-5.760093e-09	-3.737642e+01	-3.735987e+02
8.000000e-07	-5.115417e-06	-5.718240e-09	-3.712067e+01	-3.724949e+02
8.100000e-07	-5.079837e-06	-5.728956e-09	-3.686248e+01	-3.713616e+02
8.200000e-07	-5.043943e-06	-5.746742e-09	-3.660201e+01	-3.701992e+02
8.300000e-07	-5.007747e-06	-5.722928e-09	-3.633935e+01	-3.690086e+02
8.400000e-07	-4.971216e-06	-5.663372e-09	-3.607426e+01	-3.677909e+02
8.500000e-07	-4.934383e-06	-5.627994e-09	-3.580697e+01	-3.665475e+02
8.600000e-07	-4.897269e-06	-5.641041e-09	-3.553765e+01	-3.652798e+02
8.700000e-07	-4.859764e-06	-5.653173e-09	-3.526549e+01	-3.639896e+02
8.800000e-07	-4.821892e-06	-5.609266e-09	-3.499067e+01	-3.626784e+02
8.900000e-07	-4.783751e-06	-5.550658e-09	-3.471390e+01	-3.613480e+02
9.000000e-07	-4.745346e-06	-5.534470e-09	-3.443520e+01	-3.599998e+02
9.100000e-07	-4.706618e-06	-5.551553e-09	-3.415417e+01	-3.586355e+02
9.200000e-07	-4.667513e-06	-5.542511e-09	-3.387040e+01	-3.572562e+02
9.300000e-07	-4.628106e-06	-5.496859e-09	-3.358443e+01	-3.558629e+02
9.400000e-07	-4.588449e-06	-5.446692e-09	-3.329666e+01	-3.544565e+02
9.500000e-07	-4.548536e-06	-5.431366e-09	-3.300702e+01	-3.530375e+02
9.600000e-07	-4.508293e-06	-5.437026e-09	-3.271500e+01	-3.516062e+02
9.700000e-07	-4.467642e-06	-5.422739e-09	-3.242001e+01	-3.501624e+02
9.800000e-07	-4.426737e-06	-5.370896e-09	-3.212318e+01	-3.487058e+02
9.900000e-07	-4.385550e-06	-5.324807e-09	-3.182430e+01	-3.472359e+02
1.000000e-06	-4.343923e-06	-5.316032e-09	-3.152223e+01	-3.457518e+02
1.010000e-06	-4.301780e-06	-5.325589e-09	-3.121641e+01	-3.442525e+02
1.020000e-06	-4.259106e-06	-5.304770e-09	-3.090674e+01	-3.427369e+02
1.030000e-06	-4.216040e-06	-5.253873e-09	-3.059423e+01	-3.412035e+02
1.040000e-06	-4.172731e-06	-5.214622e-09	-3.027995e+01	-3.396511e+02
1.050000e-06	-4.129130e-06	-5.210011e-09	-2.996355e+01	-3.380783e+02
1.060000e-06	-4.085246e-06	-5.207265e-09	-2.964510e+01	-3.364835e+02
1.070000e-06	-4.041169e-06	-5.170172e-09	-2.932525e+01	-3.348657e+02
1.080000e-06	-3.996870e-06	-5.115550e-09	-2.900379e+01	-3.332234e+02
1.090000e-06	-3.952297e-06	-5.087911e-09	-2.868035e+01	-3.315557e+02
1.100000e-06	-3.907479e-06	-5.087351e-09	-2.835511e+01	-3.298616e+02
1.110000e-06	-3.862429e-06	-5.072579e-09	-2.802821e+01	-3.281404e+02
1.120000e-06	-3.817097e-06	-5.025854e-09	-2.769924e+01	-3.263915e+02
1.130000e-06	-3.771421e-06	-4.979321e-09	-2.736779e+01	-3.246148e+02
1.140000e-06	-3.725461e-06	-4.958741e-09	-2.703428e+01	-3.228100e+02
1.150000e-06	-3.679281e-06	-4.944075e-09	-2.669917e+01	-3.209773e+02
1.160000e-06	-3.632820e-06	-4.913916e-09	-2.636202e+01	-3.191169e+02
1.170000e-06	-3.586145e-06	-4.868942e-09	-2.602332e+01	-3.172293e+02
1.180000e-06	-3.539243e-06	-4.830003e-09	-2.568296e+01	-3.153152e+02
1.190000e-06	-3.492070e-06	-4.806058e-09	-2.534065e+01	-3.133752e+02
1.200000e-06	-3.444658e-06	-4.784389e-09	-2.499659e+01	-3.114100e+02
1.210000e-06	-3.397043e-06	-4.749295e-09	-2.465107e+01	-3.094204e+02
1.220000e-06	-3.349210e-06	-4.707649e-09	-2.430397e+01	-3.074073e+02
1.230000e-06	-3.301080e-06	-4.675740e-09	-2.395470e+01	-3.053714e+02
1.240000e-06	-3.252732e-06	-4.650537e-09	-2.360386e+01	-3.033133e+02
1.250000e-06	-3.204173e-06	-4.623061e-09	-2.325149e+01	-3.012336e+02
1.260000e-06	-3.155364e-06	-4.591669e-09	-2.289729e+01	-2.991328e+02
1.270000e-06	-3.106333e-06	-4.554583e-09	-2.254150e+01	-2.970110e+02
1.280000e-06	-3.056993e-06	-4.517120e-09	-2.218345e+01	-2.948684e+02
1.290000e-06	-3.007363e-06	-4.481958e-09	-2.182331e+01	-2.927049e+02
1.300000e-06	-2.957495e-06	-4.451016e-09	-2.146144e+01	-2.905202e+02
1.310000e-06	-2.907315e-06	-4.419953e-09	-2.109730e+01	-2.883139e+02
1.320000e-06	-2.856736e-06	-4.384623e-09	-2.073027e+01	-2.860853e+02
1.330000e-06	-2.805752e-06	-4.345858e-09	-2.036030e+01	-2.838336e+02
1.340000e-06	-2.754505e-06	-4.311077e-09	-1.998842e+01	-2.815581e+02
1.350000e-06	-2.703086e-06	-4.278356e-09	-1.961529e+01	-2.792575e+02
1.360000e-06	-2.651399e-06	-4.239951e-09	-1.924021e+01	-2.769310e+02
1.370000e-06	-2.599435e-06	-4.191819e-09	-1.886313e+01	-2.745773e+02
1.380000e-06	-2.547254e-06	-4.147776e-09	-1.848447e+01	-2.721953e+02
1.390000e-06	-2.494936e-06	-4.111768e-09	-1.810481e+01	-2.697840e+02
1.400000e-06	-2.442504e-06	-4.080091e-09	-1.772434e+01	-2.673423e+02
1.410000e-06	-2.389882e-06	-4.042428e-09	-1.734248e+01	-2.648693e+02
1.420000e-06	-2.337092e-06	-3.998748e-09	-1.695940e+01	-2.623641e+02
1.430000e-06	-2.284118e-06	-3.960012e-09	-1.657499e+01	-2.598261e+02
1.440000e-06	-2.230956e-06	-3.925686e-09	-1.618922e+01	-2.572546e+02
1.450000e-06	-2.177668e-06	-3.887040e-09	-1.580252e+01	-2.546494e+02
1.460000e-06	-2.124207e-06	-3.837774e-09	-1.541458e+01	-2.520102e+02
1.470000e-06	-2.070540e-06	-3.787093e-09	-1.502514e+01	-2.493370e+02
1.480000e-06	-2.016807e-06	-3.744335e-09	-1.463521e+01	-2.466300e+02
1.490000e-06	-1.962991e-06	-3.708780e-09	-1.424469e+01	-2.438893e+02
1.500000e-06	-1.908914e-06	-3.669750e-09	-1.385228e+01	-2.411153e+02
1.510000e-06	-1.854727e-06	-3.624110e-09	-1.345906e+01	-2.383086e+02
1.520000e-06	-1.800476e-06	-3.576216e-09	-1.306538e+01	-2.354698e+02
1.530000e-06	-1.746051e-06	-3.534863e-09	-1.267044e+01	-2.325993e+02
1.540000e-06	-1.691515e-06	-3.496107e-09	-1.227469e+01	-2.296978e+02
1.550000e-06	-1.636887e-06	-3.450186e-09	-1.187828e+01	-2.267658e+02
1.560000e-06	-1.582200e-06	-3.394821e-09	-1.148143e+01	-2.238040e+02
1.570000e-06	-1.527470e-06	-3.341903e-09	-1.108428e+01	-2.208126e+02
1.580000e-06	-1.472650e-06	-3.299103e-09	-1.068647e+01	-2.177921e+02
1.590000e-06	-1.417676e-06	-3.259983e-09	-1.028754e+01	-2.147425e+02
1.600000e-06	-1.362622e-06	-3.210798e-09	-9.888037e+00	-2.116638e+02
1.610000e-06	-1.307533e-06	-3.157518e-09	-9.488280e+00	-2.085559e+02
1.620000e-06	-1.252318e-06	-3.111657e-09	-9.087600e+00	-2.054184e+02
1.630000e-06	-1.197016e-06	-3.068794e-09	-8.686295e+00	-2.022507e+02
1.640000e-06	-1.141611e-06	-3.019073e-09	-8.284242e+00	-1.990522e+02
1.650000e-06	-1.086111e-06	-2.963634e-09	-7.881503e+00	-1.958218e+02
1.660000e-06	-1.030608e-06	-2.908099e-09	-7.478738e+00	-1.925587e+02
1.670000e-06	-9.750074e-07	-2.855015e-09	-7.075264e+00	-1.892615e+02
1.680000e-06	-9.192996e-07	-2.806809e-09	-6.671014e+00	-1.859291e+02
1.690000e-06	-8.635673e-07	-2.757589e-09	-6.266585e+00	-1.825602e+02
1.700000e-06	-8.078671e-07	-2.704047e-09	-5.862389e+00	-1.791534e+02
1.710000e-06	-7.521923e-07	-2.650826e-09	-5.458378e+00	-1.757074e+02
1.720000e-06	-6.964482e-07	-2.599480e-09	-5.053865e+00	-1.722210e+02
1.730000e-06	-6.406485e-07	-2.549467e-09	-4.648947e+00	-1.686928e+02
1.740000e-06	-5.848299e-07	-2.496770e-09	-4.243892e+00	-1.651220e+02
1.750000e-06	-5.289947e-07	-2.437404e-09	-3.838717e+00	-1.615075e+02
1.760000e-06	-4.731424e-07	-2.375895e-09	-3.433418e+00	-1.578487e+02
1.770000e-06	-4.172652e-07	-2.317995e-09	-3.027938e+00	-1.541449e+02
1.780000e-06	-3.613524e-07	-2.264846e-09	-2.622200e+00	-1.503959e+02
1.790000e-06	-3.053935e-07	-2.208181e-09	-2.216127e+00	-1.466015e+02
1.800000e-06	-2.494292e-07	-2.143535e-09	-1.810014e+00	-1.427618e+02
1.810000e-06	-1.934517e-07	-2.080839e-09	-1.403807e+00	-1.388772e+02
1.820000e-06	-1.374599e-07	-2.027020e-09	-9.974955e-01	-1.349480e+02
1.830000e-06	-8.148828e-08	-1.974655e-09	-5.913300e-01	-1.309750e+02
1.840000e-06	-2.554049e-08	-1.915514e-09	-1.853378e-01	-1.269588e+02
1.850000e-06	3.041506e-08	-1.850624e-09	2.207107e-01	-1.229005e+02
1.860000e-06	8.639665e-08	-1.788137e-09	6.269482e-01	-1.188010e+02
1.870000e-06	1.423495e-07	-1.729118e-09	1.032977e+00	-1.146612e+02
1.880000e-06	1.982526e-07	-1.669668e-09	1.438645e+00	-1.104821e+02
1.890000e-06	2.541286e-07	-1.604753e-09	1.844116e+00	-1.062645e+02
1.900000e-06	3.100784e-07	-1.536538e-09	2.250123e+00	-1.020094e+02
1.910000e-06	3.660622e-07	-1.472842e-09	2.656376e+00	-9.771718e+01
1.920000e-06	4.219982e-07	-1.411220e-09	3.062283e+00	-9.338847e+01
1.930000e-06	4.778948e-07	-1.344855e-09	3.467904e+00	-8.902349e+01
1.940000e-06	5.337261e-07	-1.274128e-09	3.873051e+00	-8.462226e+01
1.950000e-06	5.895007e-07	-1.202536e-09	4.277786e+00	-8.018456e+01
1.960000e-06	6.452225e-07	-1.132611e-09	4.682139e+00	-7.570994e+01
1.970000e-06	7.009426e-07	-1.063514e-09	5.086479e+00	-7.119768e+01
1.980000e-06	7.566132e-07	-9.920028e-10	5.490460e+00	-6.664684e+01
1.990000e-06	8.122237e-07	-9.186408e-10	5.894004e+00	-6.205628e+01
2.000000e-06	8.678120e-07	-8.473796e-10	6.297388e+00	-5.742466e+01
2.010000e-06	9.233867e-07	-7.778657e-10	6.700673e+00	-5.275052e+01
2.020000e-06	9.789596e-07	-7.081831e-10	7.103944e+00	-4.803229e+01
2.030000e-06	1.034491e-06	-6.369896e-10	7.506911e+00	-4.326839e+01
2.040000e-06	1.089947e-06	-5.629495e-10	7.909336e+00	-3.845723e+01
2.050000e-06	1.145329e-06	-4.869291e-10	8.311228e+00	-3.359732e+01
2.060000e-06	1.200616e-06	-4.095199e-10	8.712422e+00	-2.868732e+01
2.070000e-06	1.255844e-06	-3.319555e-10	9.113189e+00	-2.372610e+01
2.080000e-06	1.311074e-06	-2.544404e-10	9.513973e+00	-1.871280e+01
2.090000e-06	1.366235e-06	-1.740872e-10	9.914256e+00	-1.364690e+01
2.100000e-06	1.421244e-06	-9.317408e-11	1.031344e+01	-8.528290e+00
2.110000e-06	1.476126e-06	-1.379094e-11	1.071170e+01	-3.357267e+00
2.120000e-06	1.530886e-06	6.456552e-11	1.110906e+01	1.865369e+00
2.130000e-06	1.585510e-06	1.430703e-10	1.150546e+01	7.138313e+00
2.140000e-06	1.639976e-06	2.232484e-10	1.190069e+01	1.245972e+01
2.150000e-06	1.694309e-06	3.052005e-10	1.229497e+01	1.782721e+01
2.160000e-06	1.748576e-06	3.870120e-10	1.268876e+01	2.323785e+01
2.170000e-06	1.802764e-06	4.703397e-10	1.308199e+01	2.868818e+01
2.180000e-06	1.856880e-06	5.568429e-10	1.347468e+01	3.417423e+01
2.190000e-06	1.910904e-06	6.460596e-10	1.386671e+01	3.969155e+01
2.200000e-06	1.964784e-06	7.349941e-10	1.425770e+01	4.523526e+01
2.210000e-06	2.018447e-06	8.216478e-10	1.464712e+01	5.080011e+01
2.220000e-06	2.071968e-06	9.067400e-10	1.503550e+01	5.638054e+01
2.230000e-06	2.125404e-06	9.897753e-10	1.542326e+01	6.197070e+01
2.240000e-06	2.178678e-06	1.075750e-09	1.580985e+01	6.756461e+01
2.250000e-06	2.231737e-06	1.161923e-09	1.619488e+01	7.315615e+01
2.260000e-06	2.284600e-06	1.247454e-09	1.657849e+01	7.873920e+01
2.270000e-06	2.337274e-06	1.333730e-09	1.696072e+01	8.430765e+01
2.280000e-06	2.389761e-06	1.422498e-09	1.734160e+01	8.985555e+01
2.290000e-06	2.442035e-06	1.510906e-09	1.772094e+01	9.537710e+01
2.300000e-06	2.494132e-06	1.597864e-09	1.809898e+01	1.008668e+02
2.310000e-06	2.546089e-06	1.682385e-09	1.847602e+01	1.063194e+02
2.320000e-06	2.597888e-06	1.764374e-09	1.885190e+01	1.117300e+02
2.330000e-06	2.649539e-06	1.842123e-09	1.922672e+01	1.170942e+02
2.340000e-06	2.701015e-06	1.920519e-09	1.960026e+01	1.224079e+02
2.350000e-06	2.752244e-06	2.000798e-09	1.997200e+01	1.276675e+02
2.360000e-06	2.803147e-06	2.080660e-09	2.034139e+01	1.328699e+02
2.370000e-06	2.853689e-06	2.160088e-09	2.070816e+01	1.380124e+02
2.380000e-06	2.903928e-06	2.240528e-09	2.107272e+01	1.430927e+02
2.390000e-06	2.953826e-06	2.320887e-09	2.143481e+01	1.481090e+02
2.400000e-06	3.003390e-06	2.399031e-09	2.179448e+01	1.530600e+02
2.410000e-06	3.052588e-06	2.476078e-09	2.215149e+01	1.579445e+02
2.420000e-06	3.101380e-06	2.549176e-09	2.250556e+01	1.627619e+02
2.430000e-06	3.149919e-06	2.620602e-09	2.285779e+01	1.675118e+02
2.440000e-06	3.198204e-06	2.689869e-09	2.320817e+01	1.721940e+02
2.450000e-06	3.246258e-06	2.757615e-09	2.355688e+01	1.768086e+02
2.460000e-06	3.294225e-06	2.825369e-09	2.390496e+01	1.813557e+02
2.470000e-06	3.342078e-06	2.894184e-09	2.425221e+01	1.858357e+02
2.480000e-06	3.389727e-06	2.963202e-09	2.459799e+01	1.902491e+02
2.490000e-06	3.437183e-06	3.030786e-09	2.494235e+01	1.945961e+02
2.500000e-06	3.484384e-06	3.094732e-09	2.528487e+01	1.988774e+02
2.510000e-06	3.531286e-06	3.157612e-09	2.562522e+01	2.030933e+02
2.520000e-06	3.577885e-06	3.219356e-09	2.596338e+01	2.072442e+02
2.530000e-06	3.624269e-06	3.281611e-09	2.629997e+01	2.113304e+02
2.540000e-06	3.670414e-06	3.341326e-09	2.663482e+01	2.153524e+02
2.550000e-06	3.716267e-06	3.396954e-09	2.696756e+01	2.193102e+02
2.560000e-06	3.761863e-06	3.450445e-09	2.729844e+01	2.232040e+02
2.570000e-06	3.807193e-06	3.505640e-09	2.762737e+01	2.270340e+02
2.580000e-06	3.852316e-06	3.562537e-09	2.795482e+01	2.308003e+02
2.590000e-06	3.897237e-06	3.616732e-09	2.828079e+01	2.345029e+02
2.600000e-06	3.941946e-06	3.669826e-09	2.860523e+01	2.381419e+02
2.610000e-06	3.986403e-06	3.723608e-09	2.892783e+01	2.417173e+02
2.620000e-06	4.030577e-06	3.776768e-09	2.924839e+01	2.452294e+02
2.630000e-06	4.074493e-06	3.826866e-09	2.956708e+01	2.486783e+02
2.640000e-06	4.118182e-06	3.873180e-09	2.988411e+01	2.520643e+02
2.650000e-06	4.161781e-06	3.917251e-09	3.020049e+01	2.553878e+02
2.660000e-06	4.205192e-06	3.964919e-09	3.051551e+01	2.586493e+02
2.670000e-06	4.248213e-06	4.014187e-09	3.082770e+01	2.618495e+02
2.680000e-06	4.290748e-06	4.060288e-09	3.113636e+01	2.649890e+02
2.690000e-06	4.332825e-06	4.104814e-09	3.144169e+01	2.680689e+02
2.700000e-06	4.374337e-06	4.151104e-09	3.174293e+01	2.710901e+02
2.710000e-06	4.415272e-06	4.199093e-09	3.203998e+01	2.740538e+02
2.720000e-06	4.455876e-06	4.242434e-09	3.233463e+01	2.769612e+02
2.730000e-06	4.496199e-06	4.281187e-09	3.262723e+01	2.798137e+02
2.740000e-06	4.536308e-06	4.317899e-09	3.291829e+01	2.826126e+02
2.750000e-06	4.576180e-06	4.355627e-09	3.320763e+01	2.853594e+02
2.760000e-06	4.615810e-06	4.393841e-09	3.349521e+01	2.880556e+02
2.770000e-06	4.655218e-06	4.431793e-09	3.378118e+01	2.907027e+02
2.780000e-06	4.694250e-06	4.468968e-09	3.406442e+01	2.933020e+02
2.790000e-06	4.732910e-06	4.507480e-09	3.434496e+01	2.958550e+02
2.800000e-06	4.771286e-06	4.547120e-09	3.462344e+01	2.983628e+02
2.810000e-06	4.809347e-06	4.586244e-09	3.489964e+01	3.008268e+02
2.820000e-06	4.847083e-06	4.621345e-09	3.517347e+01	3.032479e+02
2.830000e-06	4.884382e-06	4.652683e-09	3.544414e+01	3.056271e+02
2.840000e-06	4.921313e-06	4.683490e-09	3.571213e+01	3.079652e+02
2.850000e-06	4.957962e-06	4.716323e-09	3.597807e+01	3.102627e+02
2.860000e-06	4.994256e-06	4.749884e-09	3.624145e+01	3.125202e+02
2.870000e-06	5.030272e-06	4.782619e-09	3.650281e+01	3.147380e+02
2.880000e-06	5.066074e-06	4.813795e-09	3.676261e+01	3.169162e+02
2.890000e-06	5.101715e-06	4.848567e-09	3.702124e+01	3.190550e+02
2.900000e-06	5.137151e-06	4.885065e-09	3.727838e+01	3.211544e+02
