# Temperatura_=_20.0
# Concentracion g/m^3_=_9000.0
# C_Vs_to_Am_M_A/Vsm_=_65563218390.804596
# pendiente_HvsI_1/m_=_3716.3
# ordenada_HvsI_A/m_=_1297.0
# frecuencia_Hz_=_212895.3617532986

Tiempo_(s)	Campo_(V.s)	Magnetizacion_(V.s)	Campo_(kA/m)	Magnetizacion_(A/m)
0.000000e+00	-3.974473e-06	-3.476557e-09	-2.913158e+01	-2.309756e+02
1.000000e-08	-3.974538e-06	-3.478903e-09	-2.913205e+01	-2.309912e+02
2.000000e-08	-3.973943e-06	-3.479623e-09	-2.912769e+01	-2.309946e+02
3.000000e-08	-3.972473e-06	-3.477273e-09	-2.911692e+01	-2.309848e+02
4.000000e-08	-3.970083e-06	-3.474954e-09	-2.909940e+01	-2.309598e+02
5.000000e-08	-3.966909e-06	-3.475640e-09	-2.907614e+01	-2.309178e+02
6.000000e-08	-3.963187e-06	-3.476222e-09	-2.904886e+01	-2.308566e+02
7.000000e-08	-3.958927e-06	-3.478102e-09	-2.901763e+01	-2.307739e+02
8.000000e-08	-3.953969e-06	-3.479970e-09	-2.898129e+01	-2.306675e+02
9.000000e-08	-3.948223e-06	-3.472660e-09	-2.893917e+01	-2.305356e+02
1.000000e-07	-3.941650e-06	-3.454323e-09	-2.889100e+01	-2.303764e+02
1.100000e-07	-3.934384e-06	-3.463784e-09	-2.883774e+01	-2.301887e+02
1.200000e-07	-3.926671e-06	-3.475201e-09	-2.878121e+01	-2.299718e+02
1.300000e-07	-3.918408e-06	-3.474107e-09	-2.872064e+01	-2.297254e+02
1.400000e-07	-3.909286e-06	-3.451515e-09	-2.865377e+01	-2.294499e+02
1.500000e-07	-3.899396e-06	-3.476931e-09	-2.858129e+01	-2.291463e+02
1.600000e-07	-3.888784e-06	-3.499656e-09	-2.850351e+01	-2.288161e+02
1.700000e-07	-3.877088e-06	-3.485569e-09	-2.841778e+01	-2.284614e+02
1.800000e-07	-3.864404e-06	-3.507062e-09	-2.832481e+01	-2.280847e+02
1.900000e-07	-3.851250e-06	-3.491075e-09	-2.822839e+01	-2.276887e+02
2.000000e-07	-3.837467e-06	-3.480222e-09	-2.812737e+01	-2.272765e+02
2.100000e-07	-3.822520e-06	-3.480933e-09	-2.801781e+01	-2.268512e+02
2.200000e-07	-3.806650e-06	-3.503226e-09	-2.790149e+01	-2.264158e+02
2.300000e-07	-3.790273e-06	-3.467386e-09	-2.778145e+01	-2.259732e+02
2.400000e-07	-3.773293e-06	-3.452517e-09	-2.765699e+01	-2.255260e+02
2.500000e-07	-3.755634e-06	-3.507755e-09	-2.752756e+01	-2.250764e+02
2.600000e-07	-3.737333e-06	-3.488332e-09	-2.739342e+01	-2.246260e+02
2.700000e-07	-3.718434e-06	-3.438506e-09	-2.725489e+01	-2.241760e+02
2.800000e-07	-3.698975e-06	-3.422247e-09	-2.711226e+01	-2.237268e+02
2.900000e-07	-3.679021e-06	-3.455996e-09	-2.696601e+01	-2.232783e+02
3.000000e-07	-3.658534e-06	-3.448812e-09	-2.681585e+01	-2.228297e+02
3.100000e-07	-3.637357e-06	-3.415566e-09	-2.666063e+01	-2.223799e+02
3.200000e-07	-3.615499e-06	-3.404555e-09	-2.650042e+01	-2.219268e+02
3.300000e-07	-3.592969e-06	-3.407951e-09	-2.633528e+01	-2.214684e+02
3.400000e-07	-3.569838e-06	-3.411485e-09	-2.616573e+01	-2.210021e+02
3.500000e-07	-3.546193e-06	-3.398002e-09	-2.599242e+01	-2.205250e+02
3.600000e-07	-3.521998e-06	-3.382391e-09	-2.581508e+01	-2.200344e+02
3.700000e-07	-3.497191e-06	-3.364570e-09	-2.563326e+01	-2.195274e+02
3.800000e-07	-3.471546e-06	-3.364411e-09	-2.544528e+01	-2.190013e+02
3.900000e-07	-3.444869e-06	-3.385525e-09	-2.524976e+01	-2.184536e+02
4.000000e-07	-3.417459e-06	-3.369400e-09	-2.504884e+01	-2.178822e+02
4.100000e-07	-3.389688e-06	-3.321309e-09	-2.484530e+01	-2.172854e+02
4.200000e-07	-3.361492e-06	-3.332396e-09	-2.463863e+01	-2.166618e+02
4.300000e-07	-3.332655e-06	-3.354780e-09	-2.442726e+01	-2.160106e+02
4.400000e-07	-3.303225e-06	-3.326264e-09	-2.421155e+01	-2.153314e+02
4.500000e-07	-3.273340e-06	-3.286183e-09	-2.399250e+01	-2.146242e+02
4.600000e-07	-3.242906e-06	-3.282869e-09	-2.376943e+01	-2.138894e+02
4.700000e-07	-3.211885e-06	-3.293926e-09	-2.354206e+01	-2.131277e+02
4.800000e-07	-3.180416e-06	-3.277202e-09	-2.331140e+01	-2.123401e+02
4.900000e-07	-3.148606e-06	-3.253642e-09	-2.307824e+01	-2.115275e+02
5.000000e-07	-3.116333e-06	-3.237906e-09	-2.284169e+01	-2.106911e+02
5.100000e-07	-3.083386e-06	-3.232077e-09	-2.260021e+01	-2.098321e+02
5.200000e-07	-3.049632e-06	-3.229383e-09	-2.235280e+01	-2.089513e+02
5.300000e-07	-3.015004e-06	-3.211198e-09	-2.209898e+01	-2.080494e+02
5.400000e-07	-2.979717e-06	-3.188680e-09	-2.184034e+01	-2.071270e+02
5.500000e-07	-2.944083e-06	-3.172824e-09	-2.157916e+01	-2.061842e+02
5.600000e-07	-2.908157e-06	-3.165745e-09	-2.131583e+01	-2.052209e+02
5.700000e-07	-2.871777e-06	-3.157819e-09	-2.104918e+01	-2.042365e+02
5.800000e-07	-2.834840e-06	-3.132224e-09	-2.077844e+01	-2.032302e+02
5.900000e-07	-2.797423e-06	-3.109790e-09	-2.050419e+01	-2.022009e+02
6.000000e-07	-2.759531e-06	-3.099675e-09	-2.022645e+01	-2.011473e+02
6.100000e-07	-2.721060e-06	-3.088840e-09	-1.994447e+01	-2.000679e+02
6.200000e-07	-2.682057e-06	-3.065944e-09	-1.965860e+01	-1.989612e+02
6.300000e-07	-2.642693e-06	-3.042340e-09	-1.937007e+01	-1.978256e+02
6.400000e-07	-2.603049e-06	-3.033561e-09	-1.907949e+01	-1.966595e+02
6.500000e-07	-2.563066e-06	-3.017662e-09	-1.878643e+01	-1.954617e+02
6.600000e-07	-2.522592e-06	-2.991521e-09	-1.848977e+01	-1.942309e+02
6.700000e-07	-2.481517e-06	-2.971651e-09	-1.818870e+01	-1.929661e+02
6.800000e-07	-2.439729e-06	-2.954753e-09	-1.788241e+01	-1.916666e+02
6.900000e-07	-2.397269e-06	-2.934559e-09	-1.757119e+01	-1.903321e+02
7.000000e-07	-2.354272e-06	-2.907861e-09	-1.725604e+01	-1.889622e+02
7.100000e-07	-2.310808e-06	-2.882178e-09	-1.693746e+01	-1.875570e+02
7.200000e-07	-2.267087e-06	-2.861344e-09	-1.661700e+01	-1.861166e+02
7.300000e-07	-2.223150e-06	-2.842705e-09	-1.629495e+01	-1.846412e+02
7.400000e-07	-2.178846e-06	-2.821471e-09	-1.597023e+01	-1.831310e+02
7.500000e-07	-2.134054e-06	-2.791061e-09	-1.564191e+01	-1.815862e+02
7.600000e-07	-2.088819e-06	-2.764587e-09	-1.531035e+01	-1.800069e+02
7.700000e-07	-2.043346e-06	-2.745214e-09	-1.497705e+01	-1.783929e+02
7.800000e-07	-1.997588e-06	-2.722720e-09	-1.464166e+01	-1.767437e+02
7.900000e-07	-1.951493e-06	-2.693097e-09	-1.430380e+01	-1.750586e+02
8.000000e-07	-1.905024e-06	-2.659239e-09	-1.396319e+01	-1.733365e+02
8.100000e-07	-1.858148e-06	-2.635361e-09	-1.361961e+01	-1.715760e+02
8.200000e-07	-1.811004e-06	-2.616258e-09	-1.327406e+01	-1.697752e+02
8.300000e-07	-1.763613e-06	-2.586761e-09	-1.292670e+01	-1.679322e+02
8.400000e-07	-1.715971e-06	-2.550416e-09	-1.257750e+01	-1.660445e+02
8.500000e-07	-1.668114e-06	-2.517834e-09	-1.222673e+01	-1.641096e+02
8.600000e-07	-1.620048e-06	-2.492968e-09	-1.187442e+01	-1.621247e+02
8.700000e-07	-1.571664e-06	-2.463634e-09	-1.151978e+01	-1.600871e+02
8.800000e-07	-1.522828e-06	-2.425828e-09	-1.116183e+01	-1.579939e+02
8.900000e-07	-1.473540e-06	-2.389306e-09	-1.080056e+01	-1.558424e+02
9.000000e-07	-1.423890e-06	-2.357320e-09	-1.043664e+01	-1.536300e+02
9.100000e-07	-1.373831e-06	-2.327236e-09	-1.006973e+01	-1.513539e+02
9.200000e-07	-1.323247e-06	-2.290082e-09	-9.698961e+00	-1.490119e+02
9.300000e-07	-1.272205e-06	-2.247420e-09	-9.324847e+00	-1.466015e+02
9.400000e-07	-1.220993e-06	-2.208934e-09	-8.949479e+00	-1.441205e+02
9.500000e-07	-1.169701e-06	-2.174847e-09	-8.573526e+00	-1.415667e+02
9.600000e-07	-1.118150e-06	-2.138709e-09	-8.195672e+00	-1.389378e+02
9.700000e-07	-1.066322e-06	-2.093224e-09	-7.815788e+00	-1.362316e+02
9.800000e-07	-1.014311e-06	-2.046533e-09	-7.434566e+00	-1.334453e+02
9.900000e-07	-9.621937e-07	-2.005993e-09	-7.052563e+00	-1.305764e+02
1.000000e-06	-9.099329e-07	-1.964572e-09	-6.669508e+00	-1.276214e+02
1.010000e-06	-8.574089e-07	-1.917611e-09	-6.284524e+00	-1.245770e+02
1.020000e-06	-8.046422e-07	-1.865369e-09	-5.897762e+00	-1.214391e+02
1.030000e-06	-7.517430e-07	-1.814849e-09	-5.510028e+00	-1.182032e+02
1.040000e-06	-6.987220e-07	-1.765133e-09	-5.121402e+00	-1.148645e+02
1.050000e-06	-6.455567e-07	-1.711575e-09	-4.731718e+00	-1.114177e+02
1.060000e-06	-5.922670e-07	-1.655751e-09	-4.341122e+00	-1.078571e+02
1.070000e-06	-5.389273e-07	-1.597340e-09	-3.950159e+00	-1.041769e+02
1.080000e-06	-4.854964e-07	-1.538744e-09	-3.558528e+00	-1.003714e+02
1.090000e-06	-4.319597e-07	-1.478246e-09	-3.166122e+00	-9.643478e+01
1.100000e-06	-3.784175e-07	-1.414653e-09	-2.773675e+00	-9.236154e+01
1.110000e-06	-3.248460e-07	-1.350172e-09	-2.381014e+00	-8.814673e+01
1.120000e-06	-2.711503e-07	-1.283922e-09	-1.987442e+00	-8.378604e+01
1.130000e-06	-2.174094e-07	-1.216017e-09	-1.593539e+00	-7.927605e+01
1.140000e-06	-1.637017e-07	-1.143172e-09	-1.199879e+00	-7.461436e+01
1.150000e-06	-1.099912e-07	-1.067032e-09	-8.061994e-01	-6.979980e+01
1.160000e-06	-5.626501e-08	-9.927198e-10	-4.124040e-01	-6.483254e+01
1.170000e-06	-2.538042e-09	-9.164800e-10	-1.860301e-02	-5.971417e+01
1.180000e-06	5.114583e-08	-8.360608e-10	3.748820e-01	-5.444781e+01
1.190000e-06	1.047761e-07	-7.525462e-10	7.679742e-01	-4.903814e+01
1.200000e-06	1.583855e-07	-6.692170e-10	1.160914e+00	-4.349133e+01
1.210000e-06	2.119824e-07	-5.842424e-10	1.553761e+00	-3.781508e+01
1.220000e-06	2.655260e-07	-4.941500e-10	1.946218e+00	-3.201852e+01
1.230000e-06	3.190552e-07	-4.012227e-10	2.338569e+00	-2.611209e+01
1.240000e-06	3.725699e-07	-3.060446e-10	2.730815e+00	-2.010742e+01
1.250000e-06	4.260547e-07	-2.117214e-10	3.122841e+00	-1.401722e+01
1.260000e-06	4.794233e-07	-1.174273e-10	3.514015e+00	-7.855081e+00
1.270000e-06	5.326242e-07	-2.026167e-11	3.903960e+00	-1.635333e+00
1.280000e-06	5.857595e-07	7.586277e-11	4.293424e+00	4.627124e+00
1.290000e-06	6.388269e-07	1.705024e-10	4.682391e+00	1.091699e+01
1.300000e-06	6.916855e-07	2.637605e-10	5.069827e+00	1.721874e+01
1.310000e-06	7.443821e-07	3.594543e-10	5.456075e+00	2.351675e+01
1.320000e-06	7.970059e-07	4.579072e-10	5.841791e+00	2.979548e+01
1.330000e-06	8.494885e-07	5.523526e-10	6.226471e+00	3.603961e+01
1.340000e-06	9.017672e-07	6.457580e-10	6.609656e+00	4.223416e+01
1.350000e-06	9.538193e-07	7.410850e-10	6.991181e+00	4.836463e+01
1.360000e-06	1.005724e-06	8.362347e-10	7.371623e+00	5.441712e+01
1.370000e-06	1.057507e-06	9.272315e-10	7.751180e+00	6.037845e+01
1.380000e-06	1.109119e-06	1.014401e-09	8.129477e+00	6.623627e+01
1.390000e-06	1.160555e-06	1.100401e-09	8.506484e+00	7.197916e+01
1.400000e-06	1.211818e-06	1.186344e-09	8.882225e+00	7.759675e+01
1.410000e-06	1.262900e-06	1.270913e-09	9.256642e+00	8.307981e+01
1.420000e-06	1.313711e-06	1.353292e-09	9.629070e+00	8.842030e+01
1.430000e-06	1.364074e-06	1.434634e-09	9.998211e+00	9.361152e+01
1.440000e-06	1.413954e-06	1.513406e-09	1.036382e+01	9.864808e+01
1.450000e-06	1.463356e-06	1.586918e-09	1.072592e+01	1.035260e+02
1.460000e-06	1.512342e-06	1.656609e-09	1.108497e+01	1.082427e+02
1.470000e-06	1.560943e-06	1.725042e-09	1.144120e+01	1.127971e+02
1.480000e-06	1.609174e-06	1.789925e-09	1.179472e+01	1.171892e+02
1.490000e-06	1.657131e-06	1.850968e-09	1.214622e+01	1.214206e+02
1.500000e-06	1.704861e-06	1.910638e-09	1.249607e+01	1.254941e+02
1.510000e-06	1.752419e-06	1.969740e-09	1.284466e+01	1.294133e+02
1.520000e-06	1.799763e-06	2.026373e-09	1.319167e+01	1.331829e+02
1.530000e-06	1.846851e-06	2.081906e-09	1.353681e+01	1.368086e+02
1.540000e-06	1.893598e-06	2.138007e-09	1.387945e+01	1.402962e+02
1.550000e-06	1.939958e-06	2.189834e-09	1.421926e+01	1.436523e+02
1.560000e-06	1.985919e-06	2.236556e-09	1.455613e+01	1.468835e+02
1.570000e-06	2.031459e-06	2.281973e-09	1.488992e+01	1.499965e+02
1.580000e-06	2.076693e-06	2.327622e-09	1.522148e+01	1.529977e+02
1.590000e-06	2.121563e-06	2.372429e-09	1.555036e+01	1.558932e+02
1.600000e-06	2.165998e-06	2.414453e-09	1.587605e+01	1.586888e+02
1.610000e-06	2.210107e-06	2.454706e-09	1.619936e+01	1.613897e+02
1.620000e-06	2.253955e-06	2.494646e-09	1.652074e+01	1.640003e+02
1.630000e-06	2.297590e-06	2.534443e-09	1.684058e+01	1.665246e+02
1.640000e-06	2.341042e-06	2.572086e-09	1.715907e+01	1.689658e+02
1.650000e-06	2.384179e-06	2.605805e-09	1.747524e+01	1.713268e+02
1.660000e-06	2.426708e-06	2.638685e-09	1.778697e+01	1.736097e+02
1.670000e-06	2.468504e-06	2.672061e-09	1.809332e+01	1.758163e+02
1.680000e-06	2.509606e-06	2.704026e-09	1.839458e+01	1.779482e+02
1.690000e-06	2.550013e-06	2.734144e-09	1.869075e+01	1.800068e+02
1.700000e-06	2.589923e-06	2.762721e-09	1.898328e+01	1.819935e+02
1.710000e-06	2.629551e-06	2.790673e-09	1.927374e+01	1.839097e+02
1.720000e-06	2.668879e-06	2.818767e-09	1.956201e+01	1.857569e+02
1.730000e-06	2.707850e-06	2.845827e-09	1.984765e+01	1.875372e+02
1.740000e-06	2.746379e-06	2.870438e-09	2.013005e+01	1.892526e+02
1.750000e-06	2.784391e-06	2.894506e-09	2.040867e+01	1.909057e+02
1.760000e-06	2.821918e-06	2.919627e-09	2.068373e+01	1.924992e+02
1.770000e-06	2.858958e-06	2.944428e-09	2.095522e+01	1.940363e+02
1.780000e-06	2.895497e-06	2.969236e-09	2.122304e+01	1.955202e+02
1.790000e-06	2.931608e-06	2.994005e-09	2.148772e+01	1.969544e+02
1.800000e-06	2.967381e-06	3.017535e-09	2.174992e+01	1.983424e+02
1.810000e-06	3.002839e-06	3.039744e-09	2.200982e+01	1.996874e+02
1.820000e-06	3.037845e-06	3.061620e-09	2.226640e+01	2.009926e+02
1.830000e-06	3.072185e-06	3.081739e-09	2.251811e+01	2.022609e+02
1.840000e-06	3.105732e-06	3.099456e-09	2.276399e+01	2.034949e+02
1.850000e-06	3.138439e-06	3.118001e-09	2.300373e+01	2.046965e+02
1.860000e-06	3.170494e-06	3.137664e-09	2.323868e+01	2.058673e+02
1.870000e-06	3.202169e-06	3.157153e-09	2.347084e+01	2.070084e+02
1.880000e-06	3.233412e-06	3.176332e-09	2.369984e+01	2.081204e+02
1.890000e-06	3.264077e-06	3.195262e-09	2.392461e+01	2.092034e+02
1.900000e-06	3.294175e-06	3.212043e-09	2.414522e+01	2.102572e+02
1.910000e-06	3.323696e-06	3.228323e-09	2.436160e+01	2.112813e+02
1.920000e-06	3.352554e-06	3.243898e-09	2.457312e+01	2.122751e+02
1.930000e-06	3.380817e-06	3.257630e-09	2.478028e+01	2.132378e+02
1.940000e-06	3.408666e-06	3.271348e-09	2.498440e+01	2.141688e+02
1.950000e-06	3.436129e-06	3.285527e-09	2.518569e+01	2.150675e+02
1.960000e-06	3.463088e-06	3.301214e-09	2.538329e+01	2.159336e+02
1.970000e-06	3.489301e-06	3.317209e-09	2.557543e+01	2.167670e+02
1.980000e-06	3.514531e-06	3.332500e-09	2.576035e+01	2.175683e+02
1.990000e-06	3.538867e-06	3.346206e-09	2.593873e+01	2.183379e+02
2.000000e-06	3.562604e-06	3.358332e-09	2.611272e+01	2.190771e+02
2.010000e-06	3.585814e-06	3.371472e-09	2.628283e+01	2.197872e+02
2.020000e-06	3.608400e-06	3.384223e-09	2.644838e+01	2.204697e+02
2.030000e-06	3.630309e-06	3.395456e-09	2.660897e+01	2.211265e+02
2.040000e-06	3.651615e-06	3.405088e-09	2.676513e+01	2.217594e+02
2.050000e-06	3.672316e-06	3.414302e-09	2.691687e+01	2.223703e+02
2.060000e-06	3.692471e-06	3.423870e-09	2.706459e+01	2.229609e+02
2.070000e-06	3.712211e-06	3.433155e-09	2.720928e+01	2.235326e+02
2.080000e-06	3.731468e-06	3.443032e-09	2.735043e+01	2.240865e+02
2.090000e-06	3.750068e-06	3.453071e-09	2.748677e+01	2.246236e+02
2.100000e-06	3.767934e-06	3.463377e-09	2.761772e+01	2.251442e+02
2.110000e-06	3.785116e-06	3.473241e-09	2.774365e+01	2.256482e+02
2.120000e-06	3.801682e-06	3.481499e-09	2.786508e+01	2.261352e+02
2.130000e-06	3.817618e-06	3.488448e-09	2.798188e+01	2.266045e+02
2.140000e-06	3.832797e-06	3.495350e-09	2.809314e+01	2.270549e+02
2.150000e-06	3.847146e-06	3.502924e-09	2.819831e+01	2.274851e+02
2.160000e-06	3.860713e-06	3.510540e-09	2.829775e+01	2.278938e+02
2.170000e-06	3.873585e-06	3.516541e-09	2.839210e+01	2.282794e+02
2.180000e-06	3.885766e-06	3.524128e-09	2.848138e+01	2.286407e+02
2.190000e-06	3.897224e-06	3.533301e-09	2.856537e+01	2.289766e+02
2.200000e-06	3.907872e-06	3.540326e-09	2.864342e+01	2.292862e+02
2.210000e-06	3.917626e-06	3.543854e-09	2.871491e+01	2.295692e+02
2.220000e-06	3.926409e-06	3.547429e-09	2.877929e+01	2.298254e+02
2.230000e-06	3.934373e-06	3.552355e-09	2.883765e+01	2.300553e+02
2.240000e-06	3.941771e-06	3.556559e-09	2.889188e+01	2.302596e+02
2.250000e-06	3.948620e-06	3.559338e-09	2.894208e+01	2.304395e+02
2.260000e-06	3.954802e-06	3.560696e-09	2.898740e+01	2.305966e+02
2.270000e-06	3.960235e-06	3.562686e-09	2.902722e+01	2.307327e+02
2.280000e-06	3.964933e-06	3.566342e-09	2.906165e+01	2.308495e+02
2.290000e-06	3.969020e-06	3.571729e-09	2.909161e+01	2.309492e+02
2.300000e-06	3.972650e-06	3.575983e-09	2.911822e+01	2.310334e+02
2.310000e-06	3.975738e-06	3.578353e-09	2.914085e+01	2.311039e+02
2.320000e-06	3.977962e-06	3.580358e-09	2.915715e+01	2.311621e+02
2.330000e-06	3.979205e-06	3.582886e-09	2.916626e+01	2.312089e+02
2.340000e-06	3.979613e-06	3.584874e-09	2.916925e+01	2.312448e+02
2.350000e-06	3.979369e-06	3.586524e-09	2.916746e+01	2.312699e+02
2.360000e-06	3.978538e-06	3.587678e-09	2.916137e+01	2.312838e+02
2.370000e-06	3.977089e-06	3.588710e-09	2.915075e+01	2.312854e+02
2.380000e-06	3.975016e-06	3.589467e-09	2.913556e+01	2.312734e+02
2.390000e-06	3.972265e-06	3.589210e-09	2.911539e+01	2.312461e+02
2.400000e-06	3.968854e-06	3.589315e-09	2.909039e+01	2.312013e+02
2.410000e-06	3.964883e-06	3.586472e-09	2.906129e+01	2.311370e+02
2.420000e-06	3.960445e-06	3.575613e-09	2.902876e+01	2.310510e+02
2.430000e-06	3.955478e-06	3.575413e-09	2.899235e+01	2.309410e+02
2.440000e-06	3.949568e-06	3.588563e-09	2.894903e+01	2.308051e+02
2.450000e-06	3.942374e-06	3.580407e-09	2.889630e+01	2.306417e+02
2.460000e-06	3.934289e-06	3.568826e-09	2.883704e+01	2.304497e+02
2.470000e-06	3.925900e-06	3.555892e-09	2.877556e+01	2.302284e+02
2.480000e-06	3.917154e-06	3.573706e-09	2.871145e+01	2.299776e+02
2.490000e-06	3.907511e-06	3.537465e-09	2.864077e+01	2.296978e+02
2.500000e-06	3.896986e-06	3.512729e-09	2.856362e+01	2.293902e+02
2.510000e-06	3.886155e-06	3.516345e-09	2.848423e+01	2.290562e+02
2.520000e-06	3.874834e-06	3.496340e-09	2.840126e+01	2.286981e+02
2.530000e-06	3.862366e-06	3.487091e-09	2.830987e+01	2.283183e+02
2.540000e-06	3.848922e-06	3.478227e-09	2.821133e+01	2.279197e+02
2.550000e-06	3.835067e-06	3.475899e-09	2.810977e+01	2.275054e+02
2.560000e-06	3.820491e-06	3.435185e-09	2.800294e+01	2.270784e+02
2.570000e-06	3.804859e-06	3.451212e-09	2.788836e+01	2.266418e+02
2.580000e-06	3.788519e-06	3.446778e-09	2.776860e+01	2.261984e+02
2.590000e-06	3.771616e-06	3.380762e-09	2.764470e+01	2.257507e+02
2.600000e-06	3.753989e-06	3.365451e-09	2.751550e+01	2.253009e+02
2.610000e-06	3.735648e-06	3.412974e-09	2.738107e+01	2.248506e+02
2.620000e-06	3.716672e-06	3.409986e-09	2.724198e+01	2.244007e+02
2.630000e-06	3.697020e-06	3.366588e-09	2.709793e+01	2.239516e+02
2.640000e-06	3.676788e-06	3.383525e-09	2.694965e+01	2.235032e+02
2.650000e-06	3.656083e-06	3.385381e-09	2.679788e+01	2.230546e+02
2.660000e-06	3.634894e-06	3.371680e-09	2.664258e+01	2.226044e+02
2.670000e-06	3.612884e-06	3.365705e-09	2.648125e+01	2.221508e+02
2.680000e-06	3.589746e-06	3.341743e-09	2.631166e+01	2.216914e+02
2.690000e-06	3.565772e-06	3.342527e-09	2.613593e+01	2.212237e+02
2.700000e-06	3.541293e-06	3.342842e-09	2.595651e+01	2.207448e+02
2.710000e-06	3.516231e-06	3.344197e-09	2.577282e+01	2.202519e+02
2.720000e-06	3.490515e-06	3.338873e-09	2.558432e+01	2.197422e+02
2.730000e-06	3.464313e-06	3.300069e-09	2.539227e+01	2.192130e+02
2.740000e-06	3.437588e-06	3.296857e-09	2.519639e+01	2.186620e+02
2.750000e-06	3.410150e-06	3.323429e-09	2.499528e+01	2.180869e+02
2.760000e-06	3.382142e-06	3.305319e-09	2.478998e+01	2.174862e+02
2.770000e-06	3.353730e-06	3.263401e-09	2.458174e+01	2.168585e+02
2.780000e-06	3.324865e-06	3.257863e-09	2.437016e+01	2.162032e+02
2.790000e-06	3.295301e-06	3.274584e-09	2.415347e+01	2.155198e+02
2.800000e-06	3.264926e-06	3.264035e-09	2.393083e+01	2.148085e+02
2.810000e-06	3.233856e-06	3.234887e-09	2.370310e+01	2.140696e+02
2.820000e-06	3.202089e-06	3.222562e-09	2.347025e+01	2.133040e+02
2.830000e-06	3.169765e-06	3.221483e-09	2.323333e+01	2.125125e+02
2.840000e-06	3.137035e-06	3.213653e-09	2.299343e+01	2.116964e+02
2.850000e-06	3.103825e-06	3.193368e-09	2.275001e+01	2.108566e+02
2.860000e-06	3.070082e-06	3.178376e-09	2.250269e+01	2.099942e+02
2.870000e-06	3.035850e-06	3.167056e-09	2.225178e+01	2.091103e+02
2.880000e-06	3.001140e-06	3.155907e-09	2.199736e+01	2.082053e+02
2.890000e-06	2.965890e-06	3.144499e-09	2.173900e+01	2.072799e+02
2.900000e-06	2.930127e-06	3.125460e-09	2.147687e+01	2.063341e+02
2.910000e-06	2.893968e-06	3.110517e-09	2.121183e+01	2.053677e+02
2.920000e-06	2.857448e-06	3.097142e-09	2.094415e+01	2.043801e+02
2.930000e-06	2.820506e-06	3.086134e-09	2.067338e+01	2.033704e+02
2.940000e-06	2.783021e-06	3.072341e-09	2.039863e+01	2.023376e+02
2.950000e-06	2.744742e-06	3.052083e-09	2.011806e+01	2.012803e+02
