# Temperatura_=_20.0
# Concentracion g/m^3_=_9000.0
# C_Vs_to_Am_M_A/Vsm_=_65563218390.804596
# pendiente_HvsI_1/m_=_3716.3
# ordenada_HvsI_A/m_=_1297.0
# frecuencia_Hz_=_212897.4686572892

Tiempo_(s)	Campo_(V.s)	Magnetizacion_(V.s)	Campo_(kA/m)	Magnetizacion_(A/m)
0.000000e+00	-3.979311e-06	-3.468254e-09	-2.913409e+01	-2.310631e+02
1.000000e-08	-3.979272e-06	-3.470598e-09	-2.913381e+01	-2.311057e+02
2.000000e-08	-3.978643e-06	-3.472759e-09	-2.912920e+01	-2.311409e+02
3.000000e-08	-3.977132e-06	-3.473384e-09	-2.911814e+01	-2.311663e+02
4.000000e-08	-3.974657e-06	-3.472120e-09	-2.910002e+01	-2.311790e+02
5.000000e-08	-3.971364e-06	-3.471508e-09	-2.907591e+01	-2.311753e+02
6.000000e-08	-3.967532e-06	-3.470467e-09	-2.904785e+01	-2.311512e+02
7.000000e-08	-3.963193e-06	-3.467694e-09	-2.901609e+01	-2.311027e+02
8.000000e-08	-3.958172e-06	-3.463339e-09	-2.897933e+01	-2.310257e+02
9.000000e-08	-3.952354e-06	-3.475403e-09	-2.893673e+01	-2.309164e+02
1.000000e-07	-3.945637e-06	-3.504330e-09	-2.888755e+01	-2.307714e+02
1.100000e-07	-3.938214e-06	-3.499893e-09	-2.883321e+01	-2.305882e+02
1.200000e-07	-3.930368e-06	-3.431640e-09	-2.877576e+01	-2.303648e+02
1.300000e-07	-3.922058e-06	-3.409584e-09	-2.871493e+01	-2.301003e+02
1.400000e-07	-3.912962e-06	-3.477237e-09	-2.864833e+01	-2.297948e+02
1.500000e-07	-3.902977e-06	-3.522491e-09	-2.857522e+01	-2.294493e+02
1.600000e-07	-3.892231e-06	-3.477478e-09	-2.849655e+01	-2.290659e+02
1.700000e-07	-3.880523e-06	-3.461141e-09	-2.841083e+01	-2.286474e+02
1.800000e-07	-3.867861e-06	-3.461892e-09	-2.831813e+01	-2.281977e+02
1.900000e-07	-3.854755e-06	-3.458116e-09	-2.822217e+01	-2.277211e+02
2.000000e-07	-3.840922e-06	-3.510950e-09	-2.812090e+01	-2.272223e+02
2.100000e-07	-3.825774e-06	-3.496743e-09	-2.800999e+01	-2.267063e+02
2.200000e-07	-3.809612e-06	-3.416712e-09	-2.789166e+01	-2.261783e+02
2.300000e-07	-3.793078e-06	-3.434642e-09	-2.777061e+01	-2.256431e+02
2.400000e-07	-3.776058e-06	-3.542576e-09	-2.764600e+01	-2.251052e+02
2.500000e-07	-3.758282e-06	-3.496997e-09	-2.751586e+01	-2.245684e+02
2.600000e-07	-3.739893e-06	-3.393946e-09	-2.738122e+01	-2.240360e+02
2.700000e-07	-3.720841e-06	-3.429865e-09	-2.724174e+01	-2.235102e+02
2.800000e-07	-3.701217e-06	-3.487687e-09	-2.709806e+01	-2.229926e+02
2.900000e-07	-3.681199e-06	-3.475565e-09	-2.695150e+01	-2.224837e+02
3.000000e-07	-3.660617e-06	-3.427378e-09	-2.680081e+01	-2.219831e+02
3.100000e-07	-3.639307e-06	-3.392905e-09	-2.664479e+01	-2.214893e+02
3.200000e-07	-3.617345e-06	-3.400378e-09	-2.648400e+01	-2.210005e+02
3.300000e-07	-3.594762e-06	-3.439567e-09	-2.631866e+01	-2.205139e+02
3.400000e-07	-3.571571e-06	-3.433163e-09	-2.614887e+01	-2.200261e+02
3.500000e-07	-3.547855e-06	-3.378042e-09	-2.597523e+01	-2.195336e+02
3.600000e-07	-3.523636e-06	-3.337577e-09	-2.579792e+01	-2.190325e+02
3.700000e-07	-3.498824e-06	-3.368116e-09	-2.561626e+01	-2.185190e+02
3.800000e-07	-3.473109e-06	-3.429846e-09	-2.542799e+01	-2.179893e+02
3.900000e-07	-3.446271e-06	-3.373760e-09	-2.523150e+01	-2.174400e+02
4.000000e-07	-3.418709e-06	-3.279974e-09	-2.502971e+01	-2.168680e+02
4.100000e-07	-3.390824e-06	-3.336948e-09	-2.482555e+01	-2.162707e+02
4.200000e-07	-3.362406e-06	-3.397131e-09	-2.461749e+01	-2.156462e+02
4.300000e-07	-3.333296e-06	-3.318786e-09	-2.440436e+01	-2.149929e+02
4.400000e-07	-3.303725e-06	-3.268618e-09	-2.418787e+01	-2.143099e+02
4.500000e-07	-3.273723e-06	-3.293840e-09	-2.396821e+01	-2.135971e+02
4.600000e-07	-3.243134e-06	-3.299600e-09	-2.374425e+01	-2.128546e+02
4.700000e-07	-3.211947e-06	-3.288302e-09	-2.351592e+01	-2.120830e+02
4.800000e-07	-3.180369e-06	-3.266561e-09	-2.328473e+01	-2.112833e+02
4.900000e-07	-3.148519e-06	-3.227593e-09	-2.305154e+01	-2.104567e+02
5.000000e-07	-3.116202e-06	-3.227359e-09	-2.281494e+01	-2.096045e+02
5.100000e-07	-3.083175e-06	-3.251871e-09	-2.257313e+01	-2.087281e+02
5.200000e-07	-3.049168e-06	-3.220053e-09	-2.232415e+01	-2.078287e+02
5.300000e-07	-3.014213e-06	-3.166668e-09	-2.206823e+01	-2.069073e+02
5.400000e-07	-2.978745e-06	-3.163431e-09	-2.180856e+01	-2.059646e+02
5.500000e-07	-2.942997e-06	-3.183048e-09	-2.154684e+01	-2.050012e+02
5.600000e-07	-2.906909e-06	-3.171834e-09	-2.128262e+01	-2.040170e+02
5.700000e-07	-2.870371e-06	-3.126799e-09	-2.101511e+01	-2.030119e+02
5.800000e-07	-2.833328e-06	-3.095314e-09	-2.074391e+01	-2.019852e+02
5.900000e-07	-2.795777e-06	-3.108036e-09	-2.046898e+01	-2.009358e+02
6.000000e-07	-2.757690e-06	-3.110187e-09	-2.019013e+01	-1.998627e+02
6.100000e-07	-2.719043e-06	-3.066243e-09	-1.990718e+01	-1.987642e+02
6.200000e-07	-2.679892e-06	-3.028256e-09	-1.962054e+01	-1.976389e+02
6.300000e-07	-2.640424e-06	-3.029783e-09	-1.933158e+01	-1.964850e+02
6.400000e-07	-2.600744e-06	-3.028226e-09	-1.904107e+01	-1.953009e+02
6.500000e-07	-2.560782e-06	-2.999380e-09	-1.874849e+01	-1.940851e+02
6.600000e-07	-2.520351e-06	-2.967627e-09	-1.845248e+01	-1.928361e+02
6.700000e-07	-2.479297e-06	-2.946422e-09	-1.815190e+01	-1.915527e+02
6.800000e-07	-2.437491e-06	-2.937676e-09	-1.784582e+01	-1.902340e+02
6.900000e-07	-2.394966e-06	-2.926622e-09	-1.753448e+01	-1.888792e+02
7.000000e-07	-2.351846e-06	-2.892175e-09	-1.721878e+01	-1.874879e+02
7.100000e-07	-2.308264e-06	-2.854748e-09	-1.689970e+01	-1.860598e+02
7.200000e-07	-2.264443e-06	-2.843292e-09	-1.657887e+01	-1.845948e+02
7.300000e-07	-2.220384e-06	-2.836894e-09	-1.625630e+01	-1.830931e+02
7.400000e-07	-2.175920e-06	-2.803292e-09	-1.593076e+01	-1.815548e+02
7.500000e-07	-2.131027e-06	-2.761476e-09	-1.560208e+01	-1.799799e+02
7.600000e-07	-2.085804e-06	-2.744696e-09	-1.527099e+01	-1.783687e+02
7.700000e-07	-2.040244e-06	-2.735546e-09	-1.493743e+01	-1.767209e+02
7.800000e-07	-1.994280e-06	-2.706648e-09	-1.460090e+01	-1.750364e+02
7.900000e-07	-1.947948e-06	-2.667373e-09	-1.426169e+01	-1.733147e+02
8.000000e-07	-1.901303e-06	-2.639639e-09	-1.392019e+01	-1.715548e+02
8.100000e-07	-1.854303e-06	-2.623494e-09	-1.357608e+01	-1.697557e+02
8.200000e-07	-1.807045e-06	-2.597992e-09	-1.323008e+01	-1.679159e+02
8.300000e-07	-1.759557e-06	-2.558141e-09	-1.288241e+01	-1.660338e+02
8.400000e-07	-1.711797e-06	-2.520241e-09	-1.253273e+01	-1.641072e+02
8.500000e-07	-1.663851e-06	-2.494127e-09	-1.218171e+01	-1.621341e+02
8.600000e-07	-1.615686e-06	-2.470052e-09	-1.182907e+01	-1.601119e+02
8.700000e-07	-1.567204e-06	-2.434470e-09	-1.147411e+01	-1.580383e+02
8.800000e-07	-1.518264e-06	-2.393047e-09	-1.111580e+01	-1.559104e+02
8.900000e-07	-1.468840e-06	-2.360369e-09	-1.075395e+01	-1.537259e+02
9.000000e-07	-1.419055e-06	-2.335404e-09	-1.038946e+01	-1.514820e+02
9.100000e-07	-1.368903e-06	-2.303111e-09	-1.002228e+01	-1.491763e+02
9.200000e-07	-1.318316e-06	-2.257948e-09	-9.651908e+00	-1.468063e+02
9.300000e-07	-1.267334e-06	-2.214898e-09	-9.278648e+00	-1.443695e+02
9.400000e-07	-1.216100e-06	-2.182881e-09	-8.903546e+00	-1.418637e+02
9.500000e-07	-1.164689e-06	-2.148722e-09	-8.527145e+00	-1.392865e+02
9.600000e-07	-1.113052e-06	-2.102745e-09	-8.149087e+00	-1.366354e+02
9.700000e-07	-1.061162e-06	-2.053909e-09	-7.769180e+00	-1.339080e+02
9.800000e-07	-1.009110e-06	-2.014362e-09	-7.388092e+00	-1.311014e+02
9.900000e-07	-9.569139e-07	-1.977898e-09	-7.005941e+00	-1.282128e+02
1.000000e-06	-9.045637e-07	-1.933876e-09	-6.622665e+00	-1.252386e+02
1.010000e-06	-8.519891e-07	-1.883099e-09	-6.237746e+00	-1.221753e+02
1.020000e-06	-7.991237e-07	-1.832963e-09	-5.850697e+00	-1.190186e+02
1.030000e-06	-7.460691e-07	-1.786664e-09	-5.462264e+00	-1.157640e+02
1.040000e-06	-6.929148e-07	-1.736628e-09	-5.073101e+00	-1.124066e+02
1.050000e-06	-6.396904e-07	-1.678224e-09	-4.683424e+00	-1.089409e+02
1.060000e-06	-5.863470e-07	-1.615918e-09	-4.292876e+00	-1.053613e+02
1.070000e-06	-5.328855e-07	-1.557602e-09	-3.901463e+00	-1.016621e+02
1.080000e-06	-4.793787e-07	-1.501964e-09	-3.509719e+00	-9.783739e+01
1.090000e-06	-4.258194e-07	-1.440176e-09	-3.117590e+00	-9.388149e+01
1.100000e-06	-3.721622e-07	-1.373053e-09	-2.724746e+00	-8.978904e+01
1.110000e-06	-3.184566e-07	-1.307350e-09	-2.331545e+00	-8.555520e+01
1.120000e-06	-2.647420e-07	-1.243510e-09	-1.938280e+00	-8.117586e+01
1.130000e-06	-2.110074e-07	-1.175672e-09	-1.544868e+00	-7.664779e+01
1.140000e-06	-1.572403e-07	-1.099270e-09	-1.151218e+00	-7.196890e+01
1.150000e-06	-1.034608e-07	-1.020138e-09	-7.574770e-01	-6.713830e+01
1.160000e-06	-4.969278e-08	-9.445182e-10	-3.638203e-01	-6.215654e+01
1.170000e-06	4.077377e-09	-8.678244e-10	2.985207e-02	-5.702563e+01
1.180000e-06	5.785855e-08	-7.855364e-10	4.236051e-01	-5.174910e+01
1.190000e-06	1.116213e-07	-7.000308e-10	8.172230e-01	-4.633207e+01
1.200000e-06	1.653499e-07	-6.173773e-10	1.210591e+00	-4.078119e+01
1.210000e-06	2.190322e-07	-5.349210e-10	1.603621e+00	-3.510460e+01
1.220000e-06	2.726985e-07	-4.463373e-10	1.996533e+00	-2.931180e+01
1.230000e-06	3.263544e-07	-3.528107e-10	2.389368e+00	-2.341359e+01
1.240000e-06	3.799531e-07	-2.572853e-10	2.781785e+00	-1.742186e+01
1.250000e-06	4.334978e-07	-1.636157e-10	3.173807e+00	-1.134945e+01
1.260000e-06	4.869294e-07	-7.034303e-11	3.565001e+00	-5.209983e+00
1.270000e-06	5.402399e-07	2.582549e-11	3.955308e+00	9.823211e-01
1.280000e-06	5.934723e-07	1.222246e-10	4.345043e+00	7.212833e+00
1.290000e-06	6.465550e-07	2.154685e-10	4.733682e+00	1.346667e+01
1.300000e-06	6.994703e-07	3.070199e-10	5.121096e+00	1.972886e+01
1.310000e-06	7.522484e-07	4.027755e-10	5.507505e+00	2.598448e+01
1.320000e-06	8.048570e-07	4.994975e-10	5.892673e+00	3.221878e+01
1.330000e-06	8.573338e-07	5.925431e-10	6.276876e+00	3.841732e+01
1.340000e-06	9.097129e-07	6.861760e-10	6.660364e+00	4.456605e+01
1.350000e-06	9.619205e-07	7.797114e-10	7.042597e+00	5.065137e+01
1.360000e-06	1.013910e-06	8.727288e-10	7.423231e+00	5.666028e+01
1.370000e-06	1.065749e-06	9.640526e-10	7.802762e+00	6.258038e+01
1.380000e-06	1.117421e-06	1.051716e-09	8.181077e+00	6.840000e+01
1.390000e-06	1.168898e-06	1.137598e-09	8.557957e+00	7.410823e+01
1.400000e-06	1.220220e-06	1.224278e-09	8.933709e+00	7.969503e+01
1.410000e-06	1.271335e-06	1.307770e-09	9.307943e+00	8.515126e+01
1.420000e-06	1.322114e-06	1.385472e-09	9.679714e+00	9.046883e+01
1.430000e-06	1.372477e-06	1.462869e-09	1.004844e+01	9.564068e+01
1.440000e-06	1.422410e-06	1.540636e-09	1.041402e+01	1.006609e+02
1.450000e-06	1.471917e-06	1.614069e-09	1.077648e+01	1.055250e+02
1.460000e-06	1.520956e-06	1.683364e-09	1.113552e+01	1.102294e+02
1.470000e-06	1.569496e-06	1.751412e-09	1.149089e+01	1.147722e+02
1.480000e-06	1.617713e-06	1.817651e-09	1.184391e+01	1.191526e+02
1.490000e-06	1.665684e-06	1.880672e-09	1.219513e+01	1.233713e+02
1.500000e-06	1.713449e-06	1.940663e-09	1.254483e+01	1.274301e+02
1.510000e-06	1.761058e-06	1.998203e-09	1.289339e+01	1.313320e+02
1.520000e-06	1.808438e-06	2.054659e-09	1.324029e+01	1.350813e+02
1.530000e-06	1.855488e-06	2.111012e-09	1.358476e+01	1.386832e+02
1.540000e-06	1.902164e-06	2.165092e-09	1.392649e+01	1.421435e+02
1.550000e-06	1.948487e-06	2.216643e-09	1.426564e+01	1.454689e+02
1.560000e-06	1.994448e-06	2.265896e-09	1.460213e+01	1.486662e+02
1.570000e-06	2.040013e-06	2.312241e-09	1.493574e+01	1.517427e+02
1.580000e-06	2.085203e-06	2.356301e-09	1.526659e+01	1.547056e+02
1.590000e-06	2.130056e-06	2.399028e-09	1.559497e+01	1.575617e+02
1.600000e-06	2.174535e-06	2.441033e-09	1.592062e+01	1.603177e+02
1.610000e-06	2.218668e-06	2.481304e-09	1.624374e+01	1.629797e+02
1.620000e-06	2.262559e-06	2.519601e-09	1.656508e+01	1.655530e+02
1.630000e-06	2.306255e-06	2.558003e-09	1.688500e+01	1.680424e+02
1.640000e-06	2.349703e-06	2.596130e-09	1.720309e+01	1.704519e+02
1.650000e-06	2.392716e-06	2.631803e-09	1.751801e+01	1.727845e+02
1.660000e-06	2.435113e-06	2.665441e-09	1.782842e+01	1.750430e+02
1.670000e-06	2.476744e-06	2.698645e-09	1.813321e+01	1.772291e+02
1.680000e-06	2.517642e-06	2.731399e-09	1.843265e+01	1.793442e+02
1.690000e-06	2.558010e-06	2.763355e-09	1.872820e+01	1.813896e+02
1.700000e-06	2.597976e-06	2.794192e-09	1.902080e+01	1.833660e+02
1.710000e-06	2.637668e-06	2.823650e-09	1.931140e+01	1.852742e+02
1.720000e-06	2.677059e-06	2.851353e-09	1.959980e+01	1.871151e+02
1.730000e-06	2.716047e-06	2.878408e-09	1.988525e+01	1.888898e+02
1.740000e-06	2.754558e-06	2.904453e-09	2.016720e+01	1.905997e+02
1.750000e-06	2.792598e-06	2.929160e-09	2.044570e+01	1.922464e+02
1.760000e-06	2.830129e-06	2.954098e-09	2.072048e+01	1.938322e+02
1.770000e-06	2.867093e-06	2.979306e-09	2.099111e+01	1.953596e+02
1.780000e-06	2.903545e-06	3.005054e-09	2.125799e+01	1.968314e+02
1.790000e-06	2.939611e-06	3.030240e-09	2.152204e+01	1.982508e+02
1.800000e-06	2.975398e-06	3.054549e-09	2.178405e+01	1.996212e+02
1.810000e-06	3.010906e-06	3.077287e-09	2.204402e+01	2.009458e+02
1.820000e-06	3.045944e-06	3.098580e-09	2.230055e+01	2.022281e+02
1.830000e-06	3.080195e-06	3.117265e-09	2.255132e+01	2.034712e+02
1.840000e-06	3.113494e-06	3.132520e-09	2.279511e+01	2.046778e+02
1.850000e-06	3.145959e-06	3.150031e-09	2.303280e+01	2.058504e+02
1.860000e-06	3.177920e-06	3.171038e-09	2.326680e+01	2.069909e+02
1.870000e-06	3.209522e-06	3.190869e-09	2.349817e+01	2.081006e+02
1.880000e-06	3.240689e-06	3.209963e-09	2.372635e+01	2.091804e+02
1.890000e-06	3.271312e-06	3.230351e-09	2.395055e+01	2.102307e+02
1.900000e-06	3.301334e-06	3.249272e-09	2.417036e+01	2.112511e+02
1.910000e-06	3.330760e-06	3.264691e-09	2.438580e+01	2.122414e+02
1.920000e-06	3.359622e-06	3.277622e-09	2.459711e+01	2.132006e+02
1.930000e-06	3.387942e-06	3.289899e-09	2.480445e+01	2.141280e+02
1.940000e-06	3.415830e-06	3.302006e-09	2.500863e+01	2.150226e+02
1.950000e-06	3.443346e-06	3.315521e-09	2.521009e+01	2.158837e+02
1.960000e-06	3.470231e-06	3.330276e-09	2.540692e+01	2.167110e+02
1.970000e-06	3.496195e-06	3.345601e-09	2.559701e+01	2.175042e+02
1.980000e-06	3.521175e-06	3.361199e-09	2.577990e+01	2.182637e+02
1.990000e-06	3.545374e-06	3.375277e-09	2.595707e+01	2.189903e+02
2.000000e-06	3.569026e-06	3.386050e-09	2.613024e+01	2.196854e+02
2.010000e-06	3.592114e-06	3.395564e-09	2.629927e+01	2.203506e+02
2.020000e-06	3.614588e-06	3.406777e-09	2.646382e+01	2.209880e+02
2.030000e-06	3.636509e-06	3.417015e-09	2.662431e+01	2.216000e+02
2.040000e-06	3.657860e-06	3.426168e-09	2.678062e+01	2.221892e+02
2.050000e-06	3.678537e-06	3.436150e-09	2.693201e+01	2.227579e+02
2.060000e-06	3.698645e-06	3.445189e-09	2.707923e+01	2.233087e+02
2.070000e-06	3.718384e-06	3.453652e-09	2.722375e+01	2.238436e+02
2.080000e-06	3.737662e-06	3.463199e-09	2.736489e+01	2.243642e+02
2.090000e-06	3.756207e-06	3.471565e-09	2.750066e+01	2.248719e+02
2.100000e-06	3.773989e-06	3.480330e-09	2.763085e+01	2.253672e+02
2.110000e-06	3.791152e-06	3.490191e-09	2.775651e+01	2.258501e+02
2.120000e-06	3.807816e-06	3.496881e-09	2.787851e+01	2.263201e+02
2.130000e-06	3.823765e-06	3.502722e-09	2.799528e+01	2.267761e+02
2.140000e-06	3.838781e-06	3.510558e-09	2.810522e+01	2.272165e+02
2.150000e-06	3.853039e-06	3.519216e-09	2.820961e+01	2.276393e+02
2.160000e-06	3.866610e-06	3.526369e-09	2.830896e+01	2.280425e+02
2.170000e-06	3.879457e-06	3.532804e-09	2.840302e+01	2.284237e+02
2.180000e-06	3.891590e-06	3.540931e-09	2.849185e+01	2.287809e+02
2.190000e-06	3.902999e-06	3.549762e-09	2.857538e+01	2.291124e+02
2.200000e-06	3.913638e-06	3.556214e-09	2.865327e+01	2.294166e+02
2.210000e-06	3.923279e-06	3.558995e-09	2.872387e+01	2.296926e+02
2.220000e-06	3.931854e-06	3.561326e-09	2.878664e+01	2.299404e+02
2.230000e-06	3.939737e-06	3.564772e-09	2.884436e+01	2.301601e+02
2.240000e-06	3.947146e-06	3.568518e-09	2.889860e+01	2.303529e+02
2.250000e-06	3.953946e-06	3.570875e-09	2.894839e+01	2.305204e+02
2.260000e-06	3.960058e-06	3.572485e-09	2.899313e+01	2.306648e+02
2.270000e-06	3.965498e-06	3.575626e-09	2.903296e+01	2.307887e+02
2.280000e-06	3.970202e-06	3.580319e-09	2.906741e+01	2.308950e+02
2.290000e-06	3.974288e-06	3.584869e-09	2.909732e+01	2.309866e+02
2.300000e-06	3.977943e-06	3.587349e-09	2.912408e+01	2.310664e+02
2.310000e-06	3.980960e-06	3.589766e-09	2.914616e+01	2.311369e+02
2.320000e-06	3.982965e-06	3.593023e-09	2.916085e+01	2.312002e+02
2.330000e-06	3.983920e-06	3.594657e-09	2.916784e+01	2.312577e+02
2.340000e-06	3.984113e-06	3.594280e-09	2.916925e+01	2.313103e+02
2.350000e-06	3.983782e-06	3.595218e-09	2.916683e+01	2.313579e+02
2.360000e-06	3.982861e-06	3.598434e-09	2.916009e+01	2.313995e+02
2.370000e-06	3.981271e-06	3.599452e-09	2.914844e+01	2.314335e+02
2.380000e-06	3.979059e-06	3.597685e-09	2.913225e+01	2.314573e+02
2.390000e-06	3.976220e-06	3.598048e-09	2.911146e+01	2.314679e+02
2.400000e-06	3.972753e-06	3.600479e-09	2.908608e+01	2.314614e+02
2.410000e-06	3.968786e-06	3.601058e-09	2.905703e+01	2.314340e+02
2.420000e-06	3.964424e-06	3.602973e-09	2.902510e+01	2.313815e+02
2.430000e-06	3.959402e-06	3.594487e-09	2.898834e+01	2.313000e+02
2.440000e-06	3.953227e-06	3.557062e-09	2.894312e+01	2.311855e+02
2.450000e-06	3.945818e-06	3.547942e-09	2.888888e+01	2.310351e+02
2.460000e-06	3.937614e-06	3.611920e-09	2.882881e+01	2.308460e+02
2.470000e-06	3.929148e-06	3.635667e-09	2.876683e+01	2.306165e+02
2.480000e-06	3.920410e-06	3.571627e-09	2.870286e+01	2.303459e+02
2.490000e-06	3.910755e-06	3.505691e-09	2.863217e+01	2.300344e+02
2.500000e-06	3.900218e-06	3.540416e-09	2.855502e+01	2.296831e+02
2.510000e-06	3.889448e-06	3.538744e-09	2.847617e+01	2.292943e+02
2.520000e-06	3.878114e-06	3.523904e-09	2.839319e+01	2.288709e+02
2.530000e-06	3.865389e-06	3.532523e-09	2.830003e+01	2.284169e+02
2.540000e-06	3.851698e-06	3.472325e-09	2.819979e+01	2.279367e+02
2.550000e-06	3.837800e-06	3.444953e-09	2.809804e+01	2.274351e+02
2.560000e-06	3.823124e-06	3.508812e-09	2.799059e+01	2.269171e+02
2.570000e-06	3.807307e-06	3.484966e-09	2.787478e+01	2.263878e+02
2.580000e-06	3.790900e-06	3.320711e-09	2.775467e+01	2.258519e+02
2.590000e-06	3.773962e-06	3.350583e-09	2.763066e+01	2.253140e+02
2.600000e-06	3.756225e-06	3.458950e-09	2.750080e+01	2.247777e+02
2.610000e-06	3.737779e-06	3.369647e-09	2.736574e+01	2.242462e+02
2.620000e-06	3.718763e-06	3.295432e-09	2.722652e+01	2.237217e+02
2.630000e-06	3.699144e-06	3.360938e-09	2.708288e+01	2.232055e+02
2.640000e-06	3.678973e-06	3.352183e-09	2.693521e+01	2.226979e+02
2.650000e-06	3.658328e-06	3.327954e-09	2.678405e+01	2.221984e+02
2.660000e-06	3.637009e-06	3.368796e-09	2.662797e+01	2.217057e+02
2.670000e-06	3.614751e-06	3.312868e-09	2.646501e+01	2.212174e+02
2.680000e-06	3.591439e-06	3.272199e-09	2.629433e+01	2.207309e+02
2.690000e-06	3.567414e-06	3.333674e-09	2.611844e+01	2.202427e+02
2.700000e-06	3.542978e-06	3.346604e-09	2.593953e+01	2.197492e+02
2.710000e-06	3.517797e-06	3.300873e-09	2.575517e+01	2.192465e+02
2.720000e-06	3.491923e-06	3.242325e-09	2.556574e+01	2.187309e+02
2.730000e-06	3.465704e-06	3.264836e-09	2.537378e+01	2.181986e+02
2.740000e-06	3.438921e-06	3.340788e-09	2.517768e+01	2.176461e+02
2.750000e-06	3.411372e-06	3.275483e-09	2.497599e+01	2.170705e+02
2.760000e-06	3.383358e-06	3.189087e-09	2.477089e+01	2.164694e+02
2.770000e-06	3.354992e-06	3.245998e-09	2.456321e+01	2.158406e+02
2.780000e-06	3.326011e-06	3.275486e-09	2.435103e+01	2.151830e+02
2.790000e-06	3.296183e-06	3.225778e-09	2.413265e+01	2.144956e+02
2.800000e-06	3.265489e-06	3.202922e-09	2.390792e+01	2.137784e+02
2.810000e-06	3.234121e-06	3.193198e-09	2.367827e+01	2.130315e+02
2.820000e-06	3.202231e-06	3.196994e-09	2.344478e+01	2.122556e+02
2.830000e-06	3.169910e-06	3.203802e-09	2.320815e+01	2.114519e+02
2.840000e-06	3.137159e-06	3.178752e-09	2.296837e+01	2.106215e+02
2.850000e-06	3.103820e-06	3.149308e-09	2.272428e+01	2.097656e+02
2.860000e-06	3.069932e-06	3.136180e-09	2.247618e+01	2.088858e+02
2.870000e-06	3.035682e-06	3.142703e-09	2.222542e+01	2.079830e+02
2.880000e-06	3.000965e-06	3.142587e-09	2.197124e+01	2.070584e+02
2.890000e-06	2.965577e-06	3.100842e-09	2.171215e+01	2.061127e+02
2.900000e-06	2.929697e-06	3.070932e-09	2.144946e+01	2.051462e+02
2.910000e-06	2.893598e-06	3.085426e-09	2.118516e+01	2.041590e+02
2.920000e-06	2.857201e-06	3.089123e-09	2.091869e+01	2.031508e+02
2.930000e-06	2.820262e-06	3.050282e-09	2.064824e+01	2.021208e+02
2.940000e-06	2.782478e-06	3.016088e-09	2.037161e+01	2.010680e+02
2.950000e-06	2.743747e-06	3.026966e-09	2.008805e+01	1.999912e+02
