# Temperatura_=_20.0
# Concentracion g/m^3_=_9000.0
# C_Vs_to_Am_M_A/Vsm_=_65563218390.804596
# pendiente_HvsI_1/m_=_3716.3
# ordenada_HvsI_A/m_=_1297.0
# frecuencia_Hz_=_212895.72357721414

Tiempo_(s)	Campo_(V.s)	Magnetizacion_(V.s)	Campo_(kA/m)	Magnetizacion_(A/m)
0.000000e+00	-3.974500e-06	-3.478077e-09	-2.913280e+01	-2.317835e+02
1.000000e-08	-3.974607e-06	-3.479527e-09	-2.913358e+01	-2.317987e+02
2.000000e-08	-3.974122e-06	-3.480530e-09	-2.913003e+01	-2.318053e+02
3.000000e-08	-3.972768e-06	-3.481404e-09	-2.912011e+01	-2.318036e+02
4.000000e-08	-3.970401e-06	-3.479374e-09	-2.910276e+01	-2.317931e+02
5.000000e-08	-3.967148e-06	-3.477605e-09	-2.907891e+01	-2.317726e+02
6.000000e-08	-3.963363e-06	-3.478197e-09	-2.905117e+01	-2.317404e+02
7.000000e-08	-3.959116e-06	-3.478911e-09	-2.902004e+01	-2.316941e+02
8.000000e-08	-3.954187e-06	-3.462637e-09	-2.898391e+01	-2.316308e+02
9.000000e-08	-3.948430e-06	-3.464819e-09	-2.894171e+01	-2.315472e+02
1.000000e-07	-3.941801e-06	-3.515913e-09	-2.889312e+01	-2.314399e+02
1.100000e-07	-3.934434e-06	-3.564112e-09	-2.883912e+01	-2.313053e+02
1.200000e-07	-3.926675e-06	-3.424217e-09	-2.878225e+01	-2.311400e+02
1.300000e-07	-3.918533e-06	-3.356553e-09	-2.872257e+01	-2.309411e+02
1.400000e-07	-3.909484e-06	-3.478656e-09	-2.865624e+01	-2.307061e+02
1.500000e-07	-3.899413e-06	-3.581510e-09	-2.858242e+01	-2.304330e+02
1.600000e-07	-3.888748e-06	-3.466382e-09	-2.850424e+01	-2.301208e+02
1.700000e-07	-3.877255e-06	-3.440696e-09	-2.842000e+01	-2.297695e+02
1.800000e-07	-3.864668e-06	-3.510076e-09	-2.832774e+01	-2.293799e+02
1.900000e-07	-3.851561e-06	-3.426814e-09	-2.823167e+01	-2.289536e+02
2.000000e-07	-3.838007e-06	-3.568326e-09	-2.813232e+01	-2.284935e+02
2.100000e-07	-3.823080e-06	-3.588102e-09	-2.802290e+01	-2.280030e+02
2.200000e-07	-3.806921e-06	-3.397883e-09	-2.790446e+01	-2.274861e+02
2.300000e-07	-3.790461e-06	-3.384785e-09	-2.778381e+01	-2.269476e+02
2.400000e-07	-3.773534e-06	-3.646788e-09	-2.765974e+01	-2.263923e+02
2.500000e-07	-3.755858e-06	-3.585333e-09	-2.753018e+01	-2.258251e+02
2.600000e-07	-3.737552e-06	-3.304172e-09	-2.739599e+01	-2.252508e+02
2.700000e-07	-3.718666e-06	-3.450438e-09	-2.725756e+01	-2.246738e+02
2.800000e-07	-3.699213e-06	-3.593714e-09	-2.711497e+01	-2.240979e+02
2.900000e-07	-3.679273e-06	-3.488391e-09	-2.696881e+01	-2.235260e+02
3.000000e-07	-3.658797e-06	-3.389820e-09	-2.681872e+01	-2.229605e+02
3.100000e-07	-3.637638e-06	-3.427193e-09	-2.666363e+01	-2.224025e+02
3.200000e-07	-3.615802e-06	-3.430326e-09	-2.650357e+01	-2.218522e+02
3.300000e-07	-3.593276e-06	-3.424584e-09	-2.633845e+01	-2.213091e+02
3.400000e-07	-3.570144e-06	-3.464106e-09	-2.616890e+01	-2.207714e+02
3.500000e-07	-3.546569e-06	-3.421603e-09	-2.599610e+01	-2.202368e+02
3.600000e-07	-3.522481e-06	-3.316237e-09	-2.581953e+01	-2.197023e+02
3.700000e-07	-3.497782e-06	-3.357752e-09	-2.563849e+01	-2.191645e+02
3.800000e-07	-3.472223e-06	-3.509447e-09	-2.545115e+01	-2.186197e+02
3.900000e-07	-3.445527e-06	-3.401446e-09	-2.525547e+01	-2.180641e+02
4.000000e-07	-3.418069e-06	-3.219487e-09	-2.505420e+01	-2.174941e+02
4.100000e-07	-3.390332e-06	-3.364995e-09	-2.485089e+01	-2.169062e+02
4.200000e-07	-3.362168e-06	-3.492024e-09	-2.464445e+01	-2.162976e+02
4.300000e-07	-3.333256e-06	-3.300013e-09	-2.443253e+01	-2.156658e+02
4.400000e-07	-3.303781e-06	-3.245878e-09	-2.421648e+01	-2.150090e+02
4.500000e-07	-3.273924e-06	-3.356608e-09	-2.399763e+01	-2.143258e+02
4.600000e-07	-3.243446e-06	-3.335935e-09	-2.377423e+01	-2.136158e+02
4.700000e-07	-3.212335e-06	-3.282562e-09	-2.354619e+01	-2.128786e+02
4.800000e-07	-3.180855e-06	-3.275022e-09	-2.331544e+01	-2.121148e+02
4.900000e-07	-3.149080e-06	-3.255175e-09	-2.308253e+01	-2.113248e+02
5.000000e-07	-3.116813e-06	-3.241282e-09	-2.284602e+01	-2.105096e+02
5.100000e-07	-3.083864e-06	-3.268144e-09	-2.260450e+01	-2.096701e+02
5.200000e-07	-3.050062e-06	-3.249114e-09	-2.235674e+01	-2.088071e+02
5.300000e-07	-3.015374e-06	-3.182348e-09	-2.210248e+01	-2.079213e+02
5.400000e-07	-2.980098e-06	-3.184118e-09	-2.184391e+01	-2.070132e+02
5.500000e-07	-2.944515e-06	-3.217080e-09	-2.158309e+01	-2.060827e+02
5.600000e-07	-2.908623e-06	-3.201482e-09	-2.132000e+01	-2.051296e+02
5.700000e-07	-2.872224e-06	-3.142824e-09	-2.105320e+01	-2.041532e+02
5.800000e-07	-2.835247e-06	-3.107050e-09	-2.078216e+01	-2.031525e+02
5.900000e-07	-2.797796e-06	-3.148089e-09	-2.050765e+01	-2.021261e+02
6.000000e-07	-2.759874e-06	-3.147074e-09	-2.022968e+01	-2.010724e+02
6.100000e-07	-2.721439e-06	-3.073610e-09	-1.994796e+01	-1.999898e+02
6.200000e-07	-2.682542e-06	-3.042632e-09	-1.966284e+01	-1.988766e+02
6.300000e-07	-2.643270e-06	-3.066725e-09	-1.937498e+01	-1.977311e+02
6.400000e-07	-2.603686e-06	-3.058560e-09	-1.908483e+01	-1.965519e+02
6.500000e-07	-2.563813e-06	-3.006116e-09	-1.879257e+01	-1.953378e+02
6.600000e-07	-2.523483e-06	-2.987023e-09	-1.849695e+01	-1.940880e+02
6.700000e-07	-2.482506e-06	-2.980064e-09	-1.819659e+01	-1.928018e+02
6.800000e-07	-2.440742e-06	-2.956809e-09	-1.789047e+01	-1.914792e+02
6.900000e-07	-2.398271e-06	-2.945274e-09	-1.757915e+01	-1.901203e+02
7.000000e-07	-2.355262e-06	-2.912926e-09	-1.726390e+01	-1.887256e+02
7.100000e-07	-2.311822e-06	-2.872218e-09	-1.694549e+01	-1.872957e+02
7.200000e-07	-2.268105e-06	-2.863343e-09	-1.662505e+01	-1.858314e+02
7.300000e-07	-2.224112e-06	-2.862111e-09	-1.630258e+01	-1.843334e+02
7.400000e-07	-2.179800e-06	-2.827156e-09	-1.597778e+01	-1.828025e+02
7.500000e-07	-2.135062e-06	-2.776885e-09	-1.564985e+01	-1.812392e+02
7.600000e-07	-2.089887e-06	-2.768061e-09	-1.531872e+01	-1.796436e+02
7.700000e-07	-2.044384e-06	-2.763861e-09	-1.498519e+01	-1.780157e+02
7.800000e-07	-1.998563e-06	-2.726569e-09	-1.464933e+01	-1.763548e+02
7.900000e-07	-1.952449e-06	-2.683722e-09	-1.431131e+01	-1.746600e+02
8.000000e-07	-1.905976e-06	-2.660116e-09	-1.397067e+01	-1.729298e+02
8.100000e-07	-1.859099e-06	-2.652997e-09	-1.362706e+01	-1.711624e+02
8.200000e-07	-1.811922e-06	-2.623366e-09	-1.328126e+01	-1.693554e+02
8.300000e-07	-1.764534e-06	-2.577407e-09	-1.293391e+01	-1.675064e+02
8.400000e-07	-1.717003e-06	-2.546785e-09	-1.258551e+01	-1.656127e+02
8.500000e-07	-1.669217e-06	-2.524859e-09	-1.223524e+01	-1.636712e+02
8.600000e-07	-1.621089e-06	-2.498695e-09	-1.188247e+01	-1.616791e+02
8.700000e-07	-1.572704e-06	-2.459811e-09	-1.152781e+01	-1.596335e+02
8.800000e-07	-1.523928e-06	-2.420137e-09	-1.117028e+01	-1.575315e+02
8.900000e-07	-1.474669e-06	-2.388691e-09	-1.080922e+01	-1.553706e+02
9.000000e-07	-1.425097e-06	-2.361929e-09	-1.044586e+01	-1.531482e+02
9.100000e-07	-1.375092e-06	-2.333586e-09	-1.007933e+01	-1.508620e+02
9.200000e-07	-1.324605e-06	-2.287008e-09	-9.709264e+00	-1.485100e+02
9.300000e-07	-1.273728e-06	-2.242689e-09	-9.336337e+00	-1.460900e+02
9.400000e-07	-1.222496e-06	-2.215277e-09	-8.960808e+00	-1.436002e+02
9.500000e-07	-1.171094e-06	-2.180766e-09	-8.584035e+00	-1.410384e+02
9.600000e-07	-1.119556e-06	-2.133576e-09	-8.206264e+00	-1.384026e+02
9.700000e-07	-1.067820e-06	-2.082937e-09	-7.827048e+00	-1.356903e+02
9.800000e-07	-1.015915e-06	-2.045729e-09	-7.446581e+00	-1.328989e+02
9.900000e-07	-9.638363e-07	-2.010353e-09	-7.064852e+00	-1.300253e+02
1.000000e-06	-9.115448e-07	-1.962430e-09	-6.681558e+00	-1.270660e+02
1.010000e-06	-8.590042e-07	-1.914103e-09	-6.296440e+00	-1.240170e+02
1.020000e-06	-8.061950e-07	-1.865890e-09	-5.909352e+00	-1.208739e+02
1.030000e-06	-7.532592e-07	-1.818487e-09	-5.521336e+00	-1.176317e+02
1.040000e-06	-7.002476e-07	-1.766675e-09	-5.132765e+00	-1.142852e+02
1.050000e-06	-6.470596e-07	-1.709830e-09	-4.742901e+00	-1.108288e+02
1.060000e-06	-5.937836e-07	-1.652626e-09	-4.352392e+00	-1.072567e+02
1.070000e-06	-5.404756e-07	-1.593869e-09	-3.961647e+00	-1.035631e+02
1.080000e-06	-4.870510e-07	-1.537849e-09	-3.570049e+00	-9.974221e+01
1.090000e-06	-4.335375e-07	-1.477062e-09	-3.177799e+00	-9.578865e+01
1.100000e-06	-3.799796e-07	-1.409566e-09	-2.785224e+00	-9.169742e+01
1.110000e-06	-3.263741e-07	-1.343244e-09	-2.392299e+00	-8.746414e+01
1.120000e-06	-2.727069e-07	-1.277425e-09	-1.998922e+00	-8.308522e+01
1.130000e-06	-2.190157e-07	-1.210412e-09	-1.605369e+00	-7.855800e+01
1.140000e-06	-1.653273e-07	-1.134938e-09	-1.211838e+00	-7.388086e+01
1.150000e-06	-1.116086e-07	-1.058226e-09	-8.180831e-01	-6.905334e+01
1.160000e-06	-5.787718e-08	-9.848717e-10	-4.242356e-01	-6.407623e+01
1.170000e-06	-4.181102e-09	-9.062250e-10	-3.064718e-02	-5.895160e+01
1.180000e-06	4.949074e-08	-8.245822e-10	3.627636e-01	-5.368285e+01
1.190000e-06	1.031691e-07	-7.397725e-10	7.562222e-01	-4.827472e+01
1.200000e-06	1.568228e-07	-6.539719e-10	1.149500e+00	-4.273323e+01
1.210000e-06	2.104359e-07	-5.661616e-10	1.542480e+00	-3.706571e+01
1.220000e-06	2.640437e-07	-4.752359e-10	1.935421e+00	-3.128069e+01
1.230000e-06	3.176090e-07	-3.862594e-10	2.328051e+00	-2.538786e+01
1.240000e-06	3.710960e-07	-2.943847e-10	2.720107e+00	-1.939797e+01
1.250000e-06	4.244767e-07	-2.017961e-10	3.111384e+00	-1.332276e+01
1.260000e-06	4.777491e-07	-1.090163e-10	3.501867e+00	-7.174863e+00
1.270000e-06	5.309538e-07	-1.344030e-11	3.891854e+00	-9.676611e-01
1.280000e-06	5.840628e-07	8.105057e-11	4.281139e+00	5.284781e+00
1.290000e-06	6.370342e-07	1.777380e-10	4.669416e+00	1.156786e+01
1.300000e-06	6.899298e-07	2.728030e-10	5.057136e+00	1.786656e+01
1.310000e-06	7.427218e-07	3.695549e-10	5.444098e+00	2.416558e+01
1.320000e-06	7.953173e-07	4.666886e-10	5.829619e+00	3.044949e+01
1.330000e-06	8.477701e-07	5.590883e-10	6.214095e+00	3.670284e+01
1.340000e-06	9.000806e-07	6.554773e-10	6.597527e+00	4.291038e+01
1.350000e-06	9.522427e-07	7.518038e-10	6.979871e+00	4.905716e+01
1.360000e-06	1.004233e-06	8.474575e-10	7.360958e+00	5.512876e+01
1.370000e-06	1.056019e-06	9.404244e-10	7.740547e+00	6.111138e+01
1.380000e-06	1.107616e-06	1.029908e-09	8.118750e+00	6.699207e+01
1.390000e-06	1.159043e-06	1.118812e-09	8.495702e+00	7.275885e+01
1.400000e-06	1.210318e-06	1.205413e-09	8.871545e+00	7.840088e+01
1.410000e-06	1.261382e-06	1.289729e-09	9.245841e+00	8.390855e+01
1.420000e-06	1.312184e-06	1.368664e-09	9.618212e+00	8.927363e+01
1.430000e-06	1.362679e-06	1.444494e-09	9.988342e+00	9.448933e+01
1.440000e-06	1.412714e-06	1.521936e-09	1.035509e+01	9.955036e+01
1.450000e-06	1.462259e-06	1.597205e-09	1.071826e+01	1.044529e+02
1.460000e-06	1.511367e-06	1.668451e-09	1.107822e+01	1.091948e+02
1.470000e-06	1.559978e-06	1.735674e-09	1.143453e+01	1.137751e+02
1.480000e-06	1.608141e-06	1.801001e-09	1.178756e+01	1.181945e+02
1.490000e-06	1.656056e-06	1.864774e-09	1.213877e+01	1.224547e+02
1.500000e-06	1.703807e-06	1.924058e-09	1.248878e+01	1.265586e+02
1.510000e-06	1.751395e-06	1.981654e-09	1.283760e+01	1.305103e+02
1.520000e-06	1.798759e-06	2.036767e-09	1.318478e+01	1.343144e+02
1.530000e-06	1.845833e-06	2.091795e-09	1.352983e+01	1.379761e+02
1.540000e-06	1.892554e-06	2.146024e-09	1.387229e+01	1.415012e+02
1.550000e-06	1.938877e-06	2.195359e-09	1.421183e+01	1.448957e+02
1.560000e-06	1.984780e-06	2.244004e-09	1.454830e+01	1.481655e+02
1.570000e-06	2.030329e-06	2.291824e-09	1.488216e+01	1.513165e+02
1.580000e-06	2.075575e-06	2.336810e-09	1.521382e+01	1.543545e+02
1.590000e-06	2.120474e-06	2.380492e-09	1.554292e+01	1.572849e+02
1.600000e-06	2.164979e-06	2.422674e-09	1.586915e+01	1.601124e+02
1.610000e-06	2.209088e-06	2.463734e-09	1.619246e+01	1.628418e+02
1.620000e-06	2.252927e-06	2.503405e-09	1.651380e+01	1.654770e+02
1.630000e-06	2.296551e-06	2.542241e-09	1.683355e+01	1.680215e+02
1.640000e-06	2.339964e-06	2.579054e-09	1.715177e+01	1.704786e+02
1.650000e-06	2.383077e-06	2.612953e-09	1.746779e+01	1.728509e+02
1.660000e-06	2.425668e-06	2.646842e-09	1.777998e+01	1.751410e+02
1.670000e-06	2.467529e-06	2.679565e-09	1.808681e+01	1.773510e+02
1.680000e-06	2.508504e-06	2.710973e-09	1.838716e+01	1.794831e+02
1.690000e-06	2.548806e-06	2.741727e-09	1.868257e+01	1.815393e+02
1.700000e-06	2.588724e-06	2.771644e-09	1.897517e+01	1.835214e+02
1.710000e-06	2.628321e-06	2.800883e-09	1.926541e+01	1.854317e+02
1.720000e-06	2.667643e-06	2.828384e-09	1.955364e+01	1.872723e+02
1.730000e-06	2.706624e-06	2.855563e-09	1.983936e+01	1.890456e+02
1.740000e-06	2.745117e-06	2.881469e-09	2.012151e+01	1.907541e+02
1.750000e-06	2.783113e-06	2.905718e-09	2.040002e+01	1.924005e+02
1.760000e-06	2.820643e-06	2.930670e-09	2.067511e+01	1.939877e+02
1.770000e-06	2.857717e-06	2.956151e-09	2.094686e+01	1.955186e+02
1.780000e-06	2.894331e-06	2.981513e-09	2.121524e+01	1.969964e+02
1.790000e-06	2.930455e-06	3.006343e-09	2.148003e+01	1.984240e+02
1.800000e-06	2.966219e-06	3.030238e-09	2.174217e+01	1.998047e+02
1.810000e-06	3.001688e-06	3.052652e-09	2.200216e+01	2.011413e+02
1.820000e-06	3.036683e-06	3.071926e-09	2.225867e+01	2.024368e+02
1.830000e-06	3.070989e-06	3.090126e-09	2.251013e+01	2.036936e+02
1.840000e-06	3.104487e-06	3.109470e-09	2.275567e+01	2.049142e+02
1.850000e-06	3.137134e-06	3.127826e-09	2.299497e+01	2.061005e+02
1.860000e-06	3.169089e-06	3.146144e-09	2.322920e+01	2.072544e+02
1.870000e-06	3.200649e-06	3.165079e-09	2.346053e+01	2.083770e+02
1.880000e-06	3.231836e-06	3.183811e-09	2.368912e+01	2.094694e+02
1.890000e-06	3.262490e-06	3.202169e-09	2.391382e+01	2.105323e+02
1.900000e-06	3.292597e-06	3.220091e-09	2.413450e+01	2.115659e+02
1.910000e-06	3.322101e-06	3.237447e-09	2.435076e+01	2.125703e+02
1.920000e-06	3.350947e-06	3.252948e-09	2.456221e+01	2.135455e+02
1.930000e-06	3.379216e-06	3.267457e-09	2.476941e+01	2.144909e+02
1.940000e-06	3.407068e-06	3.281754e-09	2.497356e+01	2.154063e+02
1.950000e-06	3.434563e-06	3.296040e-09	2.517511e+01	2.162912e+02
1.960000e-06	3.461541e-06	3.310258e-09	2.537285e+01	2.171450e+02
1.970000e-06	3.487726e-06	3.323836e-09	2.556479e+01	2.179676e+02
1.980000e-06	3.512925e-06	3.338592e-09	2.574949e+01	2.187588e+02
1.990000e-06	3.537172e-06	3.352751e-09	2.592722e+01	2.195186e+02
2.000000e-06	3.560814e-06	3.363206e-09	2.610051e+01	2.202472e+02
2.010000e-06	3.584016e-06	3.373290e-09	2.627058e+01	2.209452e+02
2.020000e-06	3.606605e-06	3.385664e-09	2.643616e+01	2.216134e+02
2.030000e-06	3.628517e-06	3.396757e-09	2.659678e+01	2.222528e+02
2.040000e-06	3.649899e-06	3.406141e-09	2.675350e+01	2.228647e+02
2.050000e-06	3.670721e-06	3.415677e-09	2.690613e+01	2.234506e+02
2.060000e-06	3.690845e-06	3.423571e-09	2.705363e+01	2.240120e+02
2.070000e-06	3.710503e-06	3.431671e-09	2.719772e+01	2.245505e+02
2.080000e-06	3.729799e-06	3.441271e-09	2.733916e+01	2.250678e+02
2.090000e-06	3.748456e-06	3.450129e-09	2.747592e+01	2.255655e+02
2.100000e-06	3.766361e-06	3.458978e-09	2.760716e+01	2.260449e+02
2.110000e-06	3.783611e-06	3.468761e-09	2.773360e+01	2.265072e+02
2.120000e-06	3.800289e-06	3.477240e-09	2.785585e+01	2.269535e+02
2.130000e-06	3.816339e-06	3.483662e-09	2.797349e+01	2.273842e+02
2.140000e-06	3.831647e-06	3.489271e-09	2.808570e+01	2.277997e+02
2.150000e-06	3.846076e-06	3.495077e-09	2.819147e+01	2.281998e+02
2.160000e-06	3.859706e-06	3.502221e-09	2.829137e+01	2.285843e+02
2.170000e-06	3.872657e-06	3.508738e-09	2.838630e+01	2.289524e+02
2.180000e-06	3.884867e-06	3.514127e-09	2.847580e+01	2.293032e+02
2.190000e-06	3.896386e-06	3.520680e-09	2.856023e+01	2.296356e+02
2.200000e-06	3.907157e-06	3.528373e-09	2.863919e+01	2.299483e+02
2.210000e-06	3.916959e-06	3.534042e-09	2.871103e+01	2.302403e+02
2.220000e-06	3.925756e-06	3.536824e-09	2.877551e+01	2.305104e+02
2.230000e-06	3.933773e-06	3.540790e-09	2.883428e+01	2.307577e+02
2.240000e-06	3.941256e-06	3.544439e-09	2.888913e+01	2.309817e+02
2.250000e-06	3.948201e-06	3.545543e-09	2.894003e+01	2.311820e+02
2.260000e-06	3.954433e-06	3.546030e-09	2.898572e+01	2.313587e+02
2.270000e-06	3.959935e-06	3.546952e-09	2.902604e+01	2.315123e+02
2.280000e-06	3.964750e-06	3.549976e-09	2.906133e+01	2.316438e+02
2.290000e-06	3.968891e-06	3.553758e-09	2.909169e+01	2.317545e+02
2.300000e-06	3.972486e-06	3.557334e-09	2.911804e+01	2.318458e+02
2.310000e-06	3.975586e-06	3.561216e-09	2.914077e+01	2.319197e+02
2.320000e-06	3.977909e-06	3.564727e-09	2.915779e+01	2.319782e+02
2.330000e-06	3.979156e-06	3.568791e-09	2.916693e+01	2.320230e+02
2.340000e-06	3.979472e-06	3.570117e-09	2.916925e+01	2.320562e+02
2.350000e-06	3.979197e-06	3.570890e-09	2.916723e+01	2.320791e+02
2.360000e-06	3.978412e-06	3.571977e-09	2.916148e+01	2.320929e+02
2.370000e-06	3.976964e-06	3.571143e-09	2.915087e+01	2.320983e+02
2.380000e-06	3.974884e-06	3.569513e-09	2.913561e+01	2.320954e+02
2.390000e-06	3.972194e-06	3.569459e-09	2.911590e+01	2.320835e+02
2.400000e-06	3.968789e-06	3.571382e-09	2.909094e+01	2.320614e+02
2.410000e-06	3.964798e-06	3.569803e-09	2.906169e+01	2.320273e+02
2.420000e-06	3.960432e-06	3.579608e-09	2.902968e+01	2.319787e+02
2.430000e-06	3.955566e-06	3.596391e-09	2.899402e+01	2.319125e+02
2.440000e-06	3.949736e-06	3.533909e-09	2.895128e+01	2.318256e+02
2.450000e-06	3.942585e-06	3.457647e-09	2.889887e+01	2.317145e+02
2.460000e-06	3.934388e-06	3.598067e-09	2.883878e+01	2.315755e+02
2.470000e-06	3.925872e-06	3.670422e-09	2.877637e+01	2.314054e+02
2.480000e-06	3.917185e-06	3.576655e-09	2.871269e+01	2.312013e+02
2.490000e-06	3.907661e-06	3.420352e-09	2.864288e+01	2.309606e+02
2.500000e-06	3.897057e-06	3.537698e-09	2.856515e+01	2.306818e+02
2.510000e-06	3.886157e-06	3.537190e-09	2.848526e+01	2.303638e+02
2.520000e-06	3.875028e-06	3.474308e-09	2.840368e+01	2.300066e+02
2.530000e-06	3.862682e-06	3.572417e-09	2.831319e+01	2.296114e+02
2.540000e-06	3.849125e-06	3.457442e-09	2.821382e+01	2.291799e+02
2.550000e-06	3.835345e-06	3.386860e-09	2.811281e+01	2.287150e+02
2.560000e-06	3.820988e-06	3.572214e-09	2.800757e+01	2.282203e+02
2.570000e-06	3.805273e-06	3.667187e-09	2.789238e+01	2.277000e+02
2.580000e-06	3.788805e-06	3.266691e-09	2.777167e+01	2.271586e+02
2.590000e-06	3.771958e-06	3.297604e-09	2.764819e+01	2.266012e+02
2.600000e-06	3.754392e-06	3.618595e-09	2.751943e+01	2.260327e+02
2.610000e-06	3.736069e-06	3.391140e-09	2.738512e+01	2.254578e+02
2.620000e-06	3.717094e-06	3.185428e-09	2.724604e+01	2.248807e+02
2.630000e-06	3.697486e-06	3.438784e-09	2.710231e+01	2.243053e+02
2.640000e-06	3.677366e-06	3.473540e-09	2.695483e+01	2.237343e+02
2.650000e-06	3.656760e-06	3.280267e-09	2.680379e+01	2.231698e+02
2.660000e-06	3.635607e-06	3.406432e-09	2.664874e+01	2.226130e+02
2.670000e-06	3.613690e-06	3.424263e-09	2.648809e+01	2.220639e+02
2.680000e-06	3.590635e-06	3.265099e-09	2.631910e+01	2.215217e+02
2.690000e-06	3.566671e-06	3.342517e-09	2.614345e+01	2.209847e+02
2.700000e-06	3.542265e-06	3.425347e-09	2.596455e+01	2.204504e+02
2.710000e-06	3.517207e-06	3.374016e-09	2.578088e+01	2.199157e+02
2.720000e-06	3.491426e-06	3.221578e-09	2.559191e+01	2.193771e+02
2.730000e-06	3.465260e-06	3.256506e-09	2.540011e+01	2.188309e+02
2.740000e-06	3.438573e-06	3.470861e-09	2.520450e+01	2.182734e+02
2.750000e-06	3.411079e-06	3.311182e-09	2.500296e+01	2.177010e+02
2.760000e-06	3.383039e-06	3.132865e-09	2.479744e+01	2.171102e+02
2.770000e-06	3.354728e-06	3.326828e-09	2.458992e+01	2.164983e+02
2.780000e-06	3.325962e-06	3.359623e-09	2.437907e+01	2.158628e+02
2.790000e-06	3.296405e-06	3.211570e-09	2.416241e+01	2.152021e+02
2.800000e-06	3.266030e-06	3.224452e-09	2.393977e+01	2.145150e+02
2.810000e-06	3.234909e-06	3.260276e-09	2.371165e+01	2.138009e+02
2.820000e-06	3.203100e-06	3.241187e-09	2.347850e+01	2.130598e+02
2.830000e-06	3.170839e-06	3.212295e-09	2.324203e+01	2.122920e+02
2.840000e-06	3.138205e-06	3.210530e-09	2.300282e+01	2.114982e+02
2.850000e-06	3.105026e-06	3.208138e-09	2.275962e+01	2.106793e+02
2.860000e-06	3.071229e-06	3.165923e-09	2.251189e+01	2.098363e+02
2.870000e-06	3.036993e-06	3.164587e-09	2.226095e+01	2.089699e+02
2.880000e-06	3.002330e-06	3.193666e-09	2.200687e+01	2.080807e+02
2.890000e-06	2.967063e-06	3.143974e-09	2.174836e+01	2.071693e+02
2.900000e-06	2.931232e-06	3.091667e-09	2.148572e+01	2.062355e+02
2.910000e-06	2.895079e-06	3.129509e-09	2.122072e+01	2.052790e+02
2.920000e-06	2.858689e-06	3.139381e-09	2.095399e+01	2.042991e+02
2.930000e-06	2.821857e-06	3.070461e-09	2.068401e+01	2.032946e+02
2.940000e-06	2.784326e-06	3.038118e-09	2.040891e+01	2.022642e+02
2.950000e-06	2.745954e-06	3.080792e-09	2.012765e+01	2.012064e+02
