# Temperatura_=_20.0
# Concentracion g/m^3_=_9000.0
# C_Vs_to_Am_M_A/Vsm_=_65563218390.804596
# pendiente_HvsI_1/m_=_3716.3
# ordenada_HvsI_A/m_=_1297.0
# frecuencia_Hz_=_212895.0617586177

Tiempo_(s)	Campo_(V.s)	Magnetizacion_(V.s)	Campo_(kA/m)	Magnetizacion_(A/m)
0.000000e+00	-3.972663e-06	-3.445471e-09	-2.913017e+01	-2.289634e+02
1.000000e-08	-3.972782e-06	-3.446687e-09	-2.913104e+01	-2.289555e+02
2.000000e-08	-3.972317e-06	-3.447030e-09	-2.912763e+01	-2.289356e+02
3.000000e-08	-3.970907e-06	-3.445454e-09	-2.911729e+01	-2.289039e+02
4.000000e-08	-3.968471e-06	-3.442512e-09	-2.909943e+01	-2.288604e+02
5.000000e-08	-3.965208e-06	-3.440008e-09	-2.907551e+01	-2.288047e+02
6.000000e-08	-3.961469e-06	-3.438396e-09	-2.904809e+01	-2.287356e+02
7.000000e-08	-3.957288e-06	-3.440324e-09	-2.901743e+01	-2.286517e+02
8.000000e-08	-3.952423e-06	-3.429383e-09	-2.898175e+01	-2.285512e+02
9.000000e-08	-3.946717e-06	-3.419830e-09	-2.893991e+01	-2.284319e+02
1.000000e-07	-3.940157e-06	-3.439045e-09	-2.889181e+01	-2.282914e+02
1.100000e-07	-3.932904e-06	-3.481051e-09	-2.883863e+01	-2.281271e+02
1.200000e-07	-3.925192e-06	-3.426636e-09	-2.878208e+01	-2.279365e+02
1.300000e-07	-3.917050e-06	-3.356008e-09	-2.872237e+01	-2.277173e+02
1.400000e-07	-3.908146e-06	-3.410303e-09	-2.865709e+01	-2.274675e+02
1.500000e-07	-3.898305e-06	-3.487965e-09	-2.858492e+01	-2.271855e+02
1.600000e-07	-3.887679e-06	-3.450672e-09	-2.850701e+01	-2.268705e+02
1.700000e-07	-3.876152e-06	-3.416561e-09	-2.842248e+01	-2.265222e+02
1.800000e-07	-3.863608e-06	-3.443719e-09	-2.833050e+01	-2.261412e+02
1.900000e-07	-3.850474e-06	-3.425211e-09	-2.823420e+01	-2.257288e+02
2.000000e-07	-3.836831e-06	-3.481235e-09	-2.813416e+01	-2.252871e+02
2.100000e-07	-3.822012e-06	-3.507938e-09	-2.802549e+01	-2.248191e+02
2.200000e-07	-3.805965e-06	-3.389573e-09	-2.790783e+01	-2.243281e+02
2.300000e-07	-3.789444e-06	-3.343651e-09	-2.778669e+01	-2.238182e+02
2.400000e-07	-3.772538e-06	-3.496270e-09	-2.766272e+01	-2.232936e+02
2.500000e-07	-3.754924e-06	-3.523155e-09	-2.753356e+01	-2.227587e+02
2.600000e-07	-3.736680e-06	-3.360187e-09	-2.739979e+01	-2.222178e+02
2.700000e-07	-3.717815e-06	-3.367075e-09	-2.726145e+01	-2.216749e+02
2.800000e-07	-3.698357e-06	-3.459233e-09	-2.711878e+01	-2.211336e+02
2.900000e-07	-3.678430e-06	-3.433926e-09	-2.697266e+01	-2.205966e+02
3.000000e-07	-3.657900e-06	-3.383966e-09	-2.682212e+01	-2.200662e+02
3.100000e-07	-3.636690e-06	-3.364278e-09	-2.666659e+01	-2.195434e+02
3.200000e-07	-3.614820e-06	-3.340368e-09	-2.650622e+01	-2.190284e+02
3.300000e-07	-3.592325e-06	-3.364617e-09	-2.634128e+01	-2.185204e+02
3.400000e-07	-3.569308e-06	-3.400450e-09	-2.617251e+01	-2.180177e+02
3.500000e-07	-3.545795e-06	-3.358480e-09	-2.600009e+01	-2.175179e+02
3.600000e-07	-3.521685e-06	-3.277993e-09	-2.582330e+01	-2.170176e+02
3.700000e-07	-3.496956e-06	-3.291326e-09	-2.564197e+01	-2.165132e+02
3.800000e-07	-3.471437e-06	-3.393476e-09	-2.545485e+01	-2.160005e+02
3.900000e-07	-3.444821e-06	-3.364507e-09	-2.525969e+01	-2.154753e+02
4.000000e-07	-3.417388e-06	-3.239472e-09	-2.505853e+01	-2.149336e+02
4.100000e-07	-3.389593e-06	-3.268654e-09	-2.485472e+01	-2.143715e+02
4.200000e-07	-3.361353e-06	-3.364544e-09	-2.464764e+01	-2.137855e+02
4.300000e-07	-3.332449e-06	-3.305648e-09	-2.443570e+01	-2.131728e+02
4.400000e-07	-3.302984e-06	-3.233184e-09	-2.421964e+01	-2.125313e+02
4.500000e-07	-3.273097e-06	-3.254780e-09	-2.400049e+01	-2.118595e+02
4.600000e-07	-3.242620e-06	-3.261382e-09	-2.377701e+01	-2.111567e+02
4.700000e-07	-3.211553e-06	-3.244900e-09	-2.354921e+01	-2.104228e+02
4.800000e-07	-3.180136e-06	-3.237357e-09	-2.331884e+01	-2.096585e+02
4.900000e-07	-3.148442e-06	-3.210534e-09	-2.308644e+01	-2.088647e+02
5.000000e-07	-3.116289e-06	-3.183775e-09	-2.285067e+01	-2.080429e+02
5.100000e-07	-3.083413e-06	-3.198013e-09	-2.260961e+01	-2.071946e+02
5.200000e-07	-3.049643e-06	-3.202805e-09	-2.236198e+01	-2.063214e+02
5.300000e-07	-3.014973e-06	-3.159722e-09	-2.210776e+01	-2.054248e+02
5.400000e-07	-2.979724e-06	-3.128664e-09	-2.184929e+01	-2.045061e+02
5.500000e-07	-2.944156e-06	-3.139227e-09	-2.158848e+01	-2.035660e+02
5.600000e-07	-2.908239e-06	-3.144085e-09	-2.132512e+01	-2.026050e+02
5.700000e-07	-2.871902e-06	-3.111230e-09	-2.105866e+01	-2.016230e+02
5.800000e-07	-2.835088e-06	-3.072042e-09	-2.078872e+01	-2.006194e+02
5.900000e-07	-2.797711e-06	-3.073368e-09	-2.051465e+01	-1.995934e+02
6.000000e-07	-2.759800e-06	-3.077431e-09	-2.023666e+01	-1.985436e+02
6.100000e-07	-2.721377e-06	-3.039831e-09	-1.995492e+01	-1.974684e+02
6.200000e-07	-2.682426e-06	-3.007524e-09	-1.966930e+01	-1.963660e+02
6.300000e-07	-2.643095e-06	-3.009976e-09	-1.938090e+01	-1.952347e+02
6.400000e-07	-2.603505e-06	-3.000297e-09	-1.909061e+01	-1.940729e+02
6.500000e-07	-2.563615e-06	-2.965168e-09	-1.879810e+01	-1.928789e+02
6.600000e-07	-2.523237e-06	-2.944170e-09	-1.850203e+01	-1.916518e+02
6.700000e-07	-2.482243e-06	-2.934112e-09	-1.820143e+01	-1.903906e+02
6.800000e-07	-2.440567e-06	-2.912640e-09	-1.789584e+01	-1.890949e+02
6.900000e-07	-2.398211e-06	-2.892612e-09	-1.758525e+01	-1.877646e+02
7.000000e-07	-2.355262e-06	-2.870281e-09	-1.727032e+01	-1.864001e+02
7.100000e-07	-2.311871e-06	-2.839921e-09	-1.695215e+01	-1.850018e+02
7.200000e-07	-2.268222e-06	-2.822247e-09	-1.663209e+01	-1.835704e+02
7.300000e-07	-2.224329e-06	-2.812725e-09	-1.631024e+01	-1.821067e+02
7.400000e-07	-2.180055e-06	-2.782791e-09	-1.598559e+01	-1.806113e+02
7.500000e-07	-2.135334e-06	-2.740823e-09	-1.565767e+01	-1.790847e+02
7.600000e-07	-2.090195e-06	-2.723004e-09	-1.532668e+01	-1.775270e+02
7.700000e-07	-2.044708e-06	-2.718378e-09	-1.499313e+01	-1.759381e+02
7.800000e-07	-1.998922e-06	-2.689434e-09	-1.465741e+01	-1.743171e+02
7.900000e-07	-1.952801e-06	-2.645682e-09	-1.431922e+01	-1.726628e+02
8.000000e-07	-1.906304e-06	-2.619925e-09	-1.397827e+01	-1.709735e+02
8.100000e-07	-1.859515e-06	-2.610603e-09	-1.363519e+01	-1.692467e+02
8.200000e-07	-1.812410e-06	-2.588440e-09	-1.328977e+01	-1.674799e+02
8.300000e-07	-1.765013e-06	-2.547140e-09	-1.294223e+01	-1.656700e+02
8.400000e-07	-1.717440e-06	-2.509670e-09	-1.259340e+01	-1.638136e+02
8.500000e-07	-1.669661e-06	-2.485016e-09	-1.224305e+01	-1.619074e+02
8.600000e-07	-1.621639e-06	-2.462004e-09	-1.189092e+01	-1.599480e+02
8.700000e-07	-1.573247e-06	-2.428337e-09	-1.153607e+01	-1.579320e+02
8.800000e-07	-1.524422e-06	-2.386988e-09	-1.117806e+01	-1.558566e+02
8.900000e-07	-1.475232e-06	-2.351462e-09	-1.081737e+01	-1.537190e+02
9.000000e-07	-1.425650e-06	-2.326889e-09	-1.045380e+01	-1.515167e+02
9.100000e-07	-1.375605e-06	-2.302429e-09	-1.008683e+01	-1.492478e+02
9.200000e-07	-1.325119e-06	-2.260735e-09	-9.716642e+00	-1.469106e+02
9.300000e-07	-1.274250e-06	-2.212303e-09	-9.343636e+00	-1.445036e+02
9.400000e-07	-1.223115e-06	-2.178595e-09	-8.968678e+00	-1.420257e+02
9.500000e-07	-1.171848e-06	-2.150081e-09	-8.592760e+00	-1.394756e+02
9.600000e-07	-1.120386e-06	-2.108576e-09	-8.215403e+00	-1.368521e+02
9.700000e-07	-1.068665e-06	-2.057231e-09	-7.836155e+00	-1.341535e+02
9.800000e-07	-1.016703e-06	-2.014177e-09	-7.455131e+00	-1.313782e+02
9.900000e-07	-9.645645e-07	-1.979546e-09	-7.072818e+00	-1.285235e+02
1.000000e-06	-9.122586e-07	-1.939535e-09	-6.689277e+00	-1.255866e+02
1.010000e-06	-8.596925e-07	-1.891602e-09	-6.303828e+00	-1.225637e+02
1.020000e-06	-8.068649e-07	-1.840498e-09	-5.916462e+00	-1.194506e+02
1.030000e-06	-7.539353e-07	-1.790724e-09	-5.528347e+00	-1.162420e+02
1.040000e-06	-7.009681e-07	-1.741792e-09	-5.139958e+00	-1.129324e+02
1.050000e-06	-6.478821e-07	-1.689785e-09	-4.750696e+00	-1.095155e+02
1.060000e-06	-5.947109e-07	-1.632878e-09	-4.360810e+00	-1.059849e+02
1.070000e-06	-5.414296e-07	-1.573560e-09	-3.970116e+00	-1.023337e+02
1.080000e-06	-4.880613e-07	-1.516194e-09	-3.578785e+00	-9.855529e+01
1.090000e-06	-4.346374e-07	-1.457915e-09	-3.187046e+00	-9.464329e+01
1.100000e-06	-3.811357e-07	-1.393719e-09	-2.794737e+00	-9.059177e+01
1.110000e-06	-3.275501e-07	-1.326439e-09	-2.401812e+00	-8.639557e+01
1.120000e-06	-2.739236e-07	-1.259804e-09	-2.008587e+00	-8.205047e+01
1.130000e-06	-2.202726e-07	-1.194032e-09	-1.615183e+00	-7.755339e+01
1.140000e-06	-1.665584e-07	-1.122215e-09	-1.221315e+00	-7.290255e+01
1.150000e-06	-1.128723e-07	-1.044548e-09	-8.276536e-01	-6.809758e+01
1.160000e-06	-5.923252e-08	-9.686808e-10	-4.343316e-01	-6.313960e+01
1.170000e-06	-5.582078e-09	-8.926630e-10	-4.093145e-02	-5.803124e+01
1.180000e-06	4.808045e-08	-8.133482e-10	3.525574e-01	-5.277665e+01
1.190000e-06	1.017294e-07	-7.299256e-10	7.459463e-01	-4.738145e+01
1.200000e-06	1.553511e-07	-6.448909e-10	1.139136e+00	-4.185267e+01
1.210000e-06	2.089503e-07	-5.587507e-10	1.532161e+00	-3.619862e+01
1.220000e-06	2.625037e-07	-4.706799e-10	1.924849e+00	-3.042876e+01
1.230000e-06	3.160207e-07	-3.821681e-10	2.317271e+00	-2.455364e+01
1.240000e-06	3.694805e-07	-2.913454e-10	2.709273e+00	-1.858469e+01
1.250000e-06	4.228422e-07	-1.991754e-10	3.100556e+00	-1.253413e+01
1.260000e-06	4.761729e-07	-1.057225e-10	3.491611e+00	-6.414827e+00
1.270000e-06	5.294360e-07	-9.771344e-12	3.882172e+00	-2.401889e-01
1.280000e-06	5.825971e-07	8.664972e-11	4.271983e+00	5.975947e+00
1.290000e-06	6.356283e-07	1.817918e-10	4.660843e+00	1.221941e+01
1.300000e-06	6.884883e-07	2.749630e-10	5.048447e+00	1.847578e+01
1.310000e-06	7.412224e-07	3.708425e-10	5.435128e+00	2.473048e+01
1.320000e-06	7.937897e-07	4.693638e-10	5.820586e+00	3.096886e+01
1.330000e-06	8.462510e-07	5.643558e-10	6.205266e+00	3.717627e+01
1.340000e-06	8.986411e-07	6.573568e-10	6.589425e+00	4.333816e+01
1.350000e-06	9.508312e-07	7.520737e-10	6.972117e+00	4.944022e+01
1.360000e-06	1.002750e-06	8.451836e-10	7.352821e+00	5.546842e+01
1.370000e-06	1.054501e-06	9.358210e-10	7.732292e+00	6.140921e+01
1.380000e-06	1.106125e-06	1.024535e-09	8.110833e+00	6.724964e+01
1.390000e-06	1.157603e-06	1.110961e-09	8.488307e+00	7.297749e+01
1.400000e-06	1.208900e-06	1.196182e-09	8.864447e+00	7.858145e+01
1.410000e-06	1.259910e-06	1.277834e-09	9.238487e+00	8.405130e+01
1.420000e-06	1.310593e-06	1.357375e-09	9.610126e+00	8.937797e+01
1.430000e-06	1.360949e-06	1.436225e-09	9.979369e+00	9.455380e+01
1.440000e-06	1.410873e-06	1.513700e-09	1.034544e+01	9.957254e+01
1.450000e-06	1.460352e-06	1.588111e-09	1.070826e+01	1.044295e+02
1.460000e-06	1.509367e-06	1.658613e-09	1.106767e+01	1.091216e+02
1.470000e-06	1.557913e-06	1.728085e-09	1.142364e+01	1.136473e+02
1.480000e-06	1.606125e-06	1.794815e-09	1.177716e+01	1.180066e+02
1.490000e-06	1.654060e-06	1.857176e-09	1.212865e+01	1.222012e+02
1.500000e-06	1.701771e-06	1.916375e-09	1.247850e+01	1.262340e+02
1.510000e-06	1.749321e-06	1.973697e-09	1.282716e+01	1.301091e+02
1.520000e-06	1.796681e-06	2.029458e-09	1.317444e+01	1.338317e+02
1.530000e-06	1.843755e-06	2.083376e-09	1.351962e+01	1.374079e+02
1.540000e-06	1.890414e-06	2.135062e-09	1.386175e+01	1.408442e+02
1.550000e-06	1.936654e-06	2.184210e-09	1.420081e+01	1.441478e+02
1.560000e-06	1.982555e-06	2.231879e-09	1.453739e+01	1.473257e+02
1.570000e-06	2.028103e-06	2.276754e-09	1.487138e+01	1.503851e+02
1.580000e-06	2.073347e-06	2.319250e-09	1.520314e+01	1.533328e+02
1.590000e-06	2.118283e-06	2.362419e-09	1.553264e+01	1.561754e+02
1.600000e-06	2.162838e-06	2.405518e-09	1.585934e+01	1.589186e+02
1.610000e-06	2.206999e-06	2.446599e-09	1.618316e+01	1.615680e+02
1.620000e-06	2.250843e-06	2.485105e-09	1.650465e+01	1.641280e+02
1.630000e-06	2.294466e-06	2.521680e-09	1.682453e+01	1.666027e+02
1.640000e-06	2.337895e-06	2.556253e-09	1.714298e+01	1.689954e+02
1.650000e-06	2.381009e-06	2.588775e-09	1.745911e+01	1.713091e+02
1.660000e-06	2.423580e-06	2.620752e-09	1.777127e+01	1.735458e+02
1.670000e-06	2.465426e-06	2.653478e-09	1.807812e+01	1.757077e+02
1.680000e-06	2.506467e-06	2.685145e-09	1.837906e+01	1.777963e+02
1.690000e-06	2.546837e-06	2.716044e-09	1.867508e+01	1.798131e+02
1.700000e-06	2.586782e-06	2.746408e-09	1.896798e+01	1.817597e+02
1.710000e-06	2.626423e-06	2.775972e-09	1.925865e+01	1.836375e+02
1.720000e-06	2.665785e-06	2.804948e-09	1.954728e+01	1.854482e+02
1.730000e-06	2.704787e-06	2.830649e-09	1.983327e+01	1.871937e+02
1.740000e-06	2.743323e-06	2.855310e-09	2.011584e+01	1.888760e+02
1.750000e-06	2.781363e-06	2.880244e-09	2.039477e+01	1.904975e+02
1.760000e-06	2.818918e-06	2.905626e-09	2.067015e+01	1.920607e+02
1.770000e-06	2.856010e-06	2.930393e-09	2.094214e+01	1.935684e+02
1.780000e-06	2.892602e-06	2.953744e-09	2.121045e+01	1.950234e+02
1.790000e-06	2.928691e-06	2.976823e-09	2.147508e+01	1.964287e+02
1.800000e-06	2.964441e-06	3.001378e-09	2.173722e+01	1.977871e+02
1.810000e-06	2.999923e-06	3.024334e-09	2.199740e+01	1.991017e+02
1.820000e-06	3.034938e-06	3.043082e-09	2.225415e+01	2.003751e+02
1.830000e-06	3.069210e-06	3.061000e-09	2.250546e+01	2.016099e+02
1.840000e-06	3.102681e-06	3.080475e-09	2.275089e+01	2.028083e+02
1.850000e-06	3.135366e-06	3.100723e-09	2.299056e+01	2.039723e+02
1.860000e-06	3.167323e-06	3.119286e-09	2.322488e+01	2.051036e+02
1.870000e-06	3.198852e-06	3.136560e-09	2.345608e+01	2.062034e+02
1.880000e-06	3.230075e-06	3.154497e-09	2.368503e+01	2.072727e+02
1.890000e-06	3.260798e-06	3.173938e-09	2.391030e+01	2.083123e+02
1.900000e-06	3.290913e-06	3.192587e-09	2.413113e+01	2.093226e+02
1.910000e-06	3.320459e-06	3.207928e-09	2.434778e+01	2.103037e+02
1.920000e-06	3.349423e-06	3.221191e-09	2.456016e+01	2.112557e+02
1.930000e-06	3.377790e-06	3.234307e-09	2.476817e+01	2.121785e+02
1.940000e-06	3.405675e-06	3.247619e-09	2.497264e+01	2.130719e+02
1.950000e-06	3.433174e-06	3.260607e-09	2.517428e+01	2.139358e+02
1.960000e-06	3.460141e-06	3.274170e-09	2.537202e+01	2.147700e+02
1.970000e-06	3.486252e-06	3.289000e-09	2.556348e+01	2.155746e+02
1.980000e-06	3.511409e-06	3.304241e-09	2.574795e+01	2.163496e+02
1.990000e-06	3.535762e-06	3.318670e-09	2.592652e+01	2.170953e+02
2.000000e-06	3.559455e-06	3.329769e-09	2.610025e+01	2.178119e+02
2.010000e-06	3.582638e-06	3.340737e-09	2.627025e+01	2.185002e+02
2.020000e-06	3.605263e-06	3.352437e-09	2.643615e+01	2.191607e+02
2.030000e-06	3.627216e-06	3.362337e-09	2.659712e+01	2.197943e+02
2.040000e-06	3.648571e-06	3.371408e-09	2.675371e+01	2.204019e+02
2.050000e-06	3.669327e-06	3.380828e-09	2.690591e+01	2.209845e+02
2.060000e-06	3.689473e-06	3.390512e-09	2.705363e+01	2.215434e+02
2.070000e-06	3.709126e-06	3.399643e-09	2.719774e+01	2.220795e+02
2.080000e-06	3.728303e-06	3.409018e-09	2.733836e+01	2.225940e+02
2.090000e-06	3.746846e-06	3.418161e-09	2.747433e+01	2.230879e+02
2.100000e-06	3.764689e-06	3.427558e-09	2.760517e+01	2.235622e+02
2.110000e-06	3.781917e-06	3.437805e-09	2.773149e+01	2.240176e+02
2.120000e-06	3.798588e-06	3.446511e-09	2.785373e+01	2.244548e+02
2.130000e-06	3.814670e-06	3.452272e-09	2.797166e+01	2.248743e+02
2.140000e-06	3.829941e-06	3.458066e-09	2.808364e+01	2.252764e+02
2.150000e-06	3.844360e-06	3.465042e-09	2.818937e+01	2.256611e+02
2.160000e-06	3.858038e-06	3.471132e-09	2.828966e+01	2.260285e+02
2.170000e-06	3.871008e-06	3.476996e-09	2.838477e+01	2.263781e+02
2.180000e-06	3.883265e-06	3.483745e-09	2.847464e+01	2.267096e+02
2.190000e-06	3.894854e-06	3.490398e-09	2.855962e+01	2.270224e+02
2.200000e-06	3.905691e-06	3.497284e-09	2.863908e+01	2.273158e+02
2.210000e-06	3.915491e-06	3.502950e-09	2.871094e+01	2.275893e+02
2.220000e-06	3.924267e-06	3.507109e-09	2.877530e+01	2.278422e+02
2.230000e-06	3.932273e-06	3.510627e-09	2.883400e+01	2.280739e+02
2.240000e-06	3.939714e-06	3.513393e-09	2.888857e+01	2.282840e+02
2.250000e-06	3.946608e-06	3.516458e-09	2.893912e+01	2.284722e+02
2.260000e-06	3.952854e-06	3.519401e-09	2.898492e+01	2.286385e+02
2.270000e-06	3.958393e-06	3.522210e-09	2.902553e+01	2.287831e+02
2.280000e-06	3.963233e-06	3.524089e-09	2.906102e+01	2.289065e+02
2.290000e-06	3.967426e-06	3.527445e-09	2.909177e+01	2.290092e+02
2.300000e-06	3.971110e-06	3.531140e-09	2.911878e+01	2.290924e+02
2.310000e-06	3.974214e-06	3.532805e-09	2.914154e+01	2.291570e+02
2.320000e-06	3.976445e-06	3.533788e-09	2.915790e+01	2.292043e+02
2.330000e-06	3.977657e-06	3.535424e-09	2.916679e+01	2.292356e+02
2.340000e-06	3.977993e-06	3.536841e-09	2.916925e+01	2.292521e+02
2.350000e-06	3.977716e-06	3.537626e-09	2.916722e+01	2.292551e+02
2.360000e-06	3.976914e-06	3.539131e-09	2.916134e+01	2.292454e+02
2.370000e-06	3.975470e-06	3.538976e-09	2.915075e+01	2.292237e+02
2.380000e-06	3.973345e-06	3.537589e-09	2.913517e+01	2.291902e+02
2.390000e-06	3.970609e-06	3.536936e-09	2.911510e+01	2.291450e+02
2.400000e-06	3.967253e-06	3.536935e-09	2.909050e+01	2.290872e+02
2.410000e-06	3.963332e-06	3.533233e-09	2.906175e+01	2.290160e+02
2.420000e-06	3.958976e-06	3.535722e-09	2.902981e+01	2.289298e+02
2.430000e-06	3.954127e-06	3.551108e-09	2.899425e+01	2.288267e+02
2.440000e-06	3.948304e-06	3.531179e-09	2.895155e+01	2.287044e+02
2.450000e-06	3.941155e-06	3.474576e-09	2.889913e+01	2.285604e+02
2.460000e-06	3.933048e-06	3.523885e-09	2.883969e+01	2.283924e+02
2.470000e-06	3.924579e-06	3.584761e-09	2.877758e+01	2.281976e+02
2.480000e-06	3.915849e-06	3.539981e-09	2.871357e+01	2.279740e+02
2.490000e-06	3.906357e-06	3.430297e-09	2.864397e+01	2.277194e+02
2.500000e-06	3.895877e-06	3.459187e-09	2.856712e+01	2.274325e+02
2.510000e-06	3.885003e-06	3.479321e-09	2.848739e+01	2.271125e+02
2.520000e-06	3.873812e-06	3.435024e-09	2.840532e+01	2.267593e+02
2.530000e-06	3.861482e-06	3.468941e-09	2.831491e+01	2.263734e+02
2.540000e-06	3.848007e-06	3.433542e-09	2.821611e+01	2.259565e+02
2.550000e-06	3.834182e-06	3.379030e-09	2.811473e+01	2.255107e+02
2.560000e-06	3.819755e-06	3.474289e-09	2.800894e+01	2.250390e+02
2.570000e-06	3.804170e-06	3.545828e-09	2.789467e+01	2.245449e+02
2.580000e-06	3.787800e-06	3.328740e-09	2.777463e+01	2.240325e+02
2.590000e-06	3.770931e-06	3.272610e-09	2.765094e+01	2.235060e+02
2.600000e-06	3.753375e-06	3.453755e-09	2.752220e+01	2.229700e+02
2.610000e-06	3.735045e-06	3.383292e-09	2.738780e+01	2.224285e+02
2.620000e-06	3.716052e-06	3.241685e-09	2.724853e+01	2.218857e+02
2.630000e-06	3.696453e-06	3.350540e-09	2.710481e+01	2.213448e+02
2.640000e-06	3.676336e-06	3.379358e-09	2.695730e+01	2.208088e+02
2.650000e-06	3.655718e-06	3.301388e-09	2.680612e+01	2.202795e+02
2.660000e-06	3.634547e-06	3.375958e-09	2.665088e+01	2.197578e+02
2.670000e-06	3.612594e-06	3.369603e-09	2.648991e+01	2.192439e+02
2.680000e-06	3.589547e-06	3.250359e-09	2.632091e+01	2.187369e+02
2.690000e-06	3.565624e-06	3.290973e-09	2.614549e+01	2.182348e+02
2.700000e-06	3.541227e-06	3.378852e-09	2.596659e+01	2.177351e+02
2.710000e-06	3.516187e-06	3.346043e-09	2.578298e+01	2.172345e+02
2.720000e-06	3.490402e-06	3.236468e-09	2.559391e+01	2.167291e+02
2.730000e-06	3.464262e-06	3.229150e-09	2.540224e+01	2.162148e+02
2.740000e-06	3.437669e-06	3.348979e-09	2.520724e+01	2.156874e+02
2.750000e-06	3.410282e-06	3.313103e-09	2.500642e+01	2.151429e+02
2.760000e-06	3.382319e-06	3.192578e-09	2.480138e+01	2.145774e+02
2.770000e-06	3.354002e-06	3.242968e-09	2.459374e+01	2.139876e+02
2.780000e-06	3.325136e-06	3.281633e-09	2.438207e+01	2.133707e+02
2.790000e-06	3.295545e-06	3.224881e-09	2.416510e+01	2.127247e+02
2.800000e-06	3.265225e-06	3.220104e-09	2.394277e+01	2.120483e+02
2.810000e-06	3.234173e-06	3.222088e-09	2.371507e+01	2.113408e+02
2.820000e-06	3.202451e-06	3.198432e-09	2.348247e+01	2.106023e+02
2.830000e-06	3.170208e-06	3.182725e-09	2.324604e+01	2.098335e+02
2.840000e-06	3.137552e-06	3.187960e-09	2.300659e+01	2.090354e+02
2.850000e-06	3.104384e-06	3.185845e-09	2.276338e+01	2.082095e+02
2.860000e-06	3.070652e-06	3.142452e-09	2.251603e+01	2.073574e+02
2.870000e-06	3.036442e-06	3.128183e-09	2.226518e+01	2.064806e+02
2.880000e-06	3.001764e-06	3.151964e-09	2.201090e+01	2.055806e+02
2.890000e-06	2.966491e-06	3.126792e-09	2.175225e+01	2.046586e+02
2.900000e-06	2.930683e-06	3.081898e-09	2.148969e+01	2.037154e+02
2.910000e-06	2.894540e-06	3.084126e-09	2.122466e+01	2.027513e+02
2.920000e-06	2.858029e-06	3.091779e-09	2.095694e+01	2.017661e+02
2.930000e-06	2.821001e-06	3.054996e-09	2.068543e+01	2.007593e+02
2.940000e-06	2.783358e-06	3.024046e-09	2.040940e+01	1.997298e+02
2.950000e-06	2.745066e-06	3.041784e-09	2.012862e+01	1.986763e+02
