# Temperatura_=_20.0
# Concentracion g/m^3_=_9000.0
# C_Vs_to_Am_M_A/Vsm_=_65563218390.804596
# pendiente_HvsI_1/m_=_3716.3
# ordenada_HvsI_A/m_=_1297.0
# frecuencia_Hz_=_212899.87023836214

Tiempo_(s)	Campo_(V.s)	Magnetizacion_(V.s)	Campo_(kA/m)	Magnetizacion_(A/m)
0.000000e+00	-3.964417e-06	-3.374711e-09	-2.913088e+01	-2.299270e+02
1.000000e-08	-3.964412e-06	-3.375660e-09	-2.913085e+01	-2.299873e+02
2.000000e-08	-3.963797e-06	-3.373679e-09	-2.912633e+01	-2.300182e+02
3.000000e-08	-3.962236e-06	-3.373647e-09	-2.911485e+01	-2.300170e+02
4.000000e-08	-3.959667e-06	-3.373975e-09	-2.909598e+01	-2.299819e+02
5.000000e-08	-3.956360e-06	-3.372217e-09	-2.907168e+01	-2.299126e+02
6.000000e-08	-3.952486e-06	-3.372760e-09	-2.904321e+01	-2.298100e+02
7.000000e-08	-3.948087e-06	-3.386920e-09	-2.901088e+01	-2.296764e+02
8.000000e-08	-3.943001e-06	-3.383757e-09	-2.897351e+01	-2.295154e+02
9.000000e-08	-3.937069e-06	-3.325817e-09	-2.892993e+01	-2.293317e+02
1.000000e-07	-3.930386e-06	-3.287655e-09	-2.888082e+01	-2.291305e+02
1.100000e-07	-3.923067e-06	-3.407345e-09	-2.882704e+01	-2.289177e+02
1.200000e-07	-3.915279e-06	-3.481690e-09	-2.876981e+01	-2.286994e+02
1.300000e-07	-3.906986e-06	-3.339446e-09	-2.870888e+01	-2.284811e+02
1.400000e-07	-3.897945e-06	-3.235404e-09	-2.864244e+01	-2.282678e+02
1.500000e-07	-3.888051e-06	-3.384051e-09	-2.856974e+01	-2.280635e+02
1.600000e-07	-3.877311e-06	-3.441448e-09	-2.849082e+01	-2.278708e+02
1.700000e-07	-3.865644e-06	-3.379066e-09	-2.840509e+01	-2.276908e+02
1.800000e-07	-3.853089e-06	-3.406254e-09	-2.831283e+01	-2.275232e+02
1.900000e-07	-3.839899e-06	-3.350124e-09	-2.821591e+01	-2.273658e+02
2.000000e-07	-3.825958e-06	-3.321275e-09	-2.811347e+01	-2.272152e+02
2.100000e-07	-3.810857e-06	-3.511737e-09	-2.800251e+01	-2.270665e+02
2.200000e-07	-3.794801e-06	-3.549232e-09	-2.788453e+01	-2.269139e+02
2.300000e-07	-3.778277e-06	-3.293742e-09	-2.776311e+01	-2.267509e+02
2.400000e-07	-3.761207e-06	-3.391402e-09	-2.763767e+01	-2.265708e+02
2.500000e-07	-3.743434e-06	-3.705806e-09	-2.750708e+01	-2.263668e+02
2.600000e-07	-3.725036e-06	-3.611752e-09	-2.737189e+01	-2.261329e+02
2.700000e-07	-3.706026e-06	-3.393921e-09	-2.723220e+01	-2.258638e+02
2.800000e-07	-3.686455e-06	-3.512174e-09	-2.708839e+01	-2.255553e+02
2.900000e-07	-3.666413e-06	-3.635016e-09	-2.694113e+01	-2.252048e+02
3.000000e-07	-3.645896e-06	-3.582214e-09	-2.679036e+01	-2.248110e+02
3.100000e-07	-3.624679e-06	-3.534066e-09	-2.663446e+01	-2.243741e+02
3.200000e-07	-3.602744e-06	-3.503253e-09	-2.647328e+01	-2.238957e+02
3.300000e-07	-3.580215e-06	-3.502725e-09	-2.630773e+01	-2.233787e+02
3.400000e-07	-3.557048e-06	-3.520583e-09	-2.613750e+01	-2.228271e+02
3.500000e-07	-3.533356e-06	-3.557426e-09	-2.596341e+01	-2.222453e+02
3.600000e-07	-3.509140e-06	-3.523902e-09	-2.578547e+01	-2.216383e+02
3.700000e-07	-3.484280e-06	-3.383647e-09	-2.560279e+01	-2.210111e+02
3.800000e-07	-3.458628e-06	-3.426665e-09	-2.541430e+01	-2.203682e+02
3.900000e-07	-3.431981e-06	-3.618425e-09	-2.521849e+01	-2.197137e+02
4.000000e-07	-3.404554e-06	-3.494116e-09	-2.501696e+01	-2.190505e+02
4.100000e-07	-3.376727e-06	-3.287297e-09	-2.481249e+01	-2.183809e+02
4.200000e-07	-3.348465e-06	-3.449148e-09	-2.460482e+01	-2.177058e+02
4.300000e-07	-3.319557e-06	-3.565289e-09	-2.439239e+01	-2.170249e+02
4.400000e-07	-3.290037e-06	-3.386583e-09	-2.417548e+01	-2.163369e+02
4.500000e-07	-3.260068e-06	-3.328130e-09	-2.395526e+01	-2.156398e+02
4.600000e-07	-3.229586e-06	-3.420196e-09	-2.373128e+01	-2.149306e+02
4.700000e-07	-3.198531e-06	-3.405294e-09	-2.350308e+01	-2.142060e+02
4.800000e-07	-3.167019e-06	-3.361002e-09	-2.327153e+01	-2.134623e+02
4.900000e-07	-3.135200e-06	-3.360467e-09	-2.303772e+01	-2.126962e+02
5.000000e-07	-3.103012e-06	-3.327982e-09	-2.280120e+01	-2.119044e+02
5.100000e-07	-3.070164e-06	-3.305055e-09	-2.255983e+01	-2.110842e+02
5.200000e-07	-3.036438e-06	-3.334059e-09	-2.231201e+01	-2.102336e+02
5.300000e-07	-3.001833e-06	-3.326438e-09	-2.205773e+01	-2.093512e+02
5.400000e-07	-2.966606e-06	-3.264254e-09	-2.179888e+01	-2.084365e+02
5.500000e-07	-2.930978e-06	-3.237542e-09	-2.153708e+01	-2.074898e+02
5.600000e-07	-2.894987e-06	-3.270848e-09	-2.127262e+01	-2.065119e+02
5.700000e-07	-2.858583e-06	-3.281422e-09	-2.100512e+01	-2.055039e+02
5.800000e-07	-2.821679e-06	-3.210078e-09	-2.073395e+01	-2.044675e+02
5.900000e-07	-2.784266e-06	-3.160389e-09	-2.045903e+01	-2.034043e+02
6.000000e-07	-2.746340e-06	-3.203226e-09	-2.018034e+01	-2.023158e+02
6.100000e-07	-2.707933e-06	-3.207322e-09	-1.989813e+01	-2.012032e+02
6.200000e-07	-2.669047e-06	-3.130430e-09	-1.961239e+01	-2.000671e+02
6.300000e-07	-2.629714e-06	-3.107505e-09	-1.932337e+01	-1.989079e+02
6.400000e-07	-2.590065e-06	-3.133553e-09	-1.903203e+01	-1.977248e+02
6.500000e-07	-2.550104e-06	-3.104964e-09	-1.873839e+01	-1.965169e+02
6.600000e-07	-2.509670e-06	-3.061085e-09	-1.844128e+01	-1.952825e+02
6.700000e-07	-2.468678e-06	-3.056571e-09	-1.814006e+01	-1.940193e+02
6.800000e-07	-2.427051e-06	-3.038629e-09	-1.783418e+01	-1.927248e+02
6.900000e-07	-2.384681e-06	-3.005420e-09	-1.752284e+01	-1.913964e+02
7.000000e-07	-2.341697e-06	-2.997832e-09	-1.720700e+01	-1.900314e+02
7.100000e-07	-2.298318e-06	-2.978237e-09	-1.688824e+01	-1.886273e+02
7.200000e-07	-2.254652e-06	-2.934821e-09	-1.656738e+01	-1.871820e+02
7.300000e-07	-2.210701e-06	-2.917159e-09	-1.624443e+01	-1.856938e+02
7.400000e-07	-2.166380e-06	-2.911822e-09	-1.591875e+01	-1.841617e+02
7.500000e-07	-2.121615e-06	-2.873502e-09	-1.558981e+01	-1.825850e+02
7.600000e-07	-2.076469e-06	-2.829595e-09	-1.525807e+01	-1.809638e+02
7.700000e-07	-2.031012e-06	-2.819810e-09	-1.492405e+01	-1.792985e+02
7.800000e-07	-1.985254e-06	-2.811161e-09	-1.458782e+01	-1.775901e+02
7.900000e-07	-1.939159e-06	-2.767794e-09	-1.424911e+01	-1.758395e+02
8.000000e-07	-1.892695e-06	-2.720866e-09	-1.390769e+01	-1.740478e+02
8.100000e-07	-1.845854e-06	-2.704634e-09	-1.356349e+01	-1.722160e+02
8.200000e-07	-1.798697e-06	-2.693646e-09	-1.321698e+01	-1.703446e+02
8.300000e-07	-1.751333e-06	-2.654024e-09	-1.286895e+01	-1.684336e+02
8.400000e-07	-1.703761e-06	-2.605747e-09	-1.251939e+01	-1.664826e+02
8.500000e-07	-1.655949e-06	-2.577605e-09	-1.216806e+01	-1.644904e+02
8.600000e-07	-1.607945e-06	-2.555691e-09	-1.181532e+01	-1.624550e+02
8.700000e-07	-1.559665e-06	-2.521405e-09	-1.146055e+01	-1.603739e+02
8.800000e-07	-1.510987e-06	-2.481469e-09	-1.110286e+01	-1.582438e+02
8.900000e-07	-1.461954e-06	-2.443632e-09	-1.074256e+01	-1.560609e+02
9.000000e-07	-1.412563e-06	-2.410823e-09	-1.037963e+01	-1.538214e+02
9.100000e-07	-1.362756e-06	-2.383563e-09	-1.001365e+01	-1.515208e+02
9.200000e-07	-1.312496e-06	-2.347460e-09	-9.644338e+00	-1.491549e+02
9.300000e-07	-1.261794e-06	-2.292953e-09	-9.271772e+00	-1.467197e+02
9.400000e-07	-1.210755e-06	-2.246699e-09	-8.896737e+00	-1.442112e+02
9.500000e-07	-1.159454e-06	-2.219559e-09	-8.519766e+00	-1.416260e+02
9.600000e-07	-1.107911e-06	-2.183739e-09	-8.141024e+00	-1.389611e+02
9.700000e-07	-1.056176e-06	-2.129096e-09	-7.760870e+00	-1.362137e+02
9.800000e-07	-1.004288e-06	-2.078153e-09	-7.379593e+00	-1.333815e+02
9.900000e-07	-9.522792e-07	-2.045153e-09	-6.997431e+00	-1.304627e+02
1.000000e-06	-9.001440e-07	-2.007792e-09	-6.614336e+00	-1.274553e+02
1.010000e-06	-8.477887e-07	-1.953633e-09	-6.229626e+00	-1.243575e+02
1.020000e-06	-7.952140e-07	-1.897787e-09	-5.843302e+00	-1.211671e+02
1.030000e-06	-7.425440e-07	-1.847459e-09	-5.456278e+00	-1.178818e+02
1.040000e-06	-6.897471e-07	-1.796862e-09	-5.068322e+00	-1.144987e+02
1.050000e-06	-6.367092e-07	-1.742023e-09	-4.678594e+00	-1.110142e+02
1.060000e-06	-5.835122e-07	-1.683828e-09	-4.287699e+00	-1.074242e+02
1.070000e-06	-5.302875e-07	-1.624146e-09	-3.896599e+00	-1.037239e+02
1.080000e-06	-4.769810e-07	-1.565263e-09	-3.504898e+00	-9.990780e+01
1.090000e-06	-4.235769e-07	-1.506700e-09	-3.112480e+00	-9.597019e+01
1.100000e-06	-3.701142e-07	-1.443564e-09	-2.719631e+00	-9.190497e+01
1.110000e-06	-3.165906e-07	-1.374735e-09	-2.326335e+00	-8.770611e+01
1.120000e-06	-2.629941e-07	-1.305631e-09	-1.932504e+00	-8.336787e+01
1.130000e-06	-2.093229e-07	-1.240853e-09	-1.538123e+00	-7.888517e+01
1.140000e-06	-1.556608e-07	-1.170349e-09	-1.143809e+00	-7.425386e+01
1.150000e-06	-1.020300e-07	-1.089972e-09	-7.497254e-01	-6.947107e+01
1.160000e-06	-4.836432e-08	-1.012085e-09	-3.553853e-01	-6.453546e+01
1.170000e-06	5.278657e-09	-9.377377e-10	3.878803e-02	-5.944746e+01
1.180000e-06	5.890470e-08	-8.581033e-10	4.328369e-01	-5.420945e+01
1.190000e-06	1.125323e-07	-7.722963e-10	8.268970e-01	-4.882582e+01
1.200000e-06	1.661214e-07	-6.881869e-10	1.220674e+00	-4.330298e+01
1.210000e-06	2.197030e-07	-6.026305e-10	1.614397e+00	-3.764932e+01
1.220000e-06	2.731957e-07	-5.128358e-10	2.007466e+00	-3.187508e+01
1.230000e-06	3.266124e-07	-4.207009e-10	2.399976e+00	-2.599209e+01
1.240000e-06	3.799610e-07	-3.270530e-10	2.791987e+00	-2.001358e+01
1.250000e-06	4.331665e-07	-2.323237e-10	3.182945e+00	-1.395387e+01
1.260000e-06	4.863135e-07	-1.368587e-10	3.573474e+00	-7.828036e+00
1.270000e-06	5.394388e-07	-4.371625e-11	3.963843e+00	-1.651659e+00
1.280000e-06	5.924479e-07	5.252931e-11	4.353359e+00	4.559509e+00
1.290000e-06	6.453162e-07	1.501418e-10	4.741839e+00	1.078979e+01
1.300000e-06	6.980589e-07	2.434622e-10	5.129398e+00	1.702378e+01
1.310000e-06	7.506353e-07	3.367543e-10	5.515733e+00	2.324656e+01
1.320000e-06	8.030670e-07	4.346268e-10	5.901007e+00	2.944378e+01
1.330000e-06	8.553791e-07	5.315871e-10	6.285400e+00	3.560176e+01
1.340000e-06	9.075180e-07	6.246623e-10	6.668521e+00	4.170748e+01
1.350000e-06	9.594790e-07	7.185578e-10	7.050335e+00	4.774864e+01
1.360000e-06	1.011313e-06	8.120034e-10	7.431213e+00	5.371357e+01
1.370000e-06	1.063012e-06	9.023796e-10	7.811102e+00	5.959125e+01
1.380000e-06	1.114532e-06	9.884394e-10	8.189678e+00	6.537123e+01
1.390000e-06	1.165918e-06	1.073356e-09	8.567265e+00	7.104366e+01
1.400000e-06	1.217115e-06	1.158629e-09	8.943470e+00	7.659925e+01
1.410000e-06	1.267966e-06	1.241342e-09	9.317126e+00	8.202934e+01
1.420000e-06	1.318463e-06	1.322310e-09	9.688182e+00	8.732595e+01
1.430000e-06	1.368560e-06	1.402021e-09	1.005630e+01	9.248187e+01
1.440000e-06	1.418213e-06	1.479206e-09	1.042115e+01	9.749078e+01
1.450000e-06	1.467453e-06	1.553568e-09	1.078297e+01	1.023474e+02
1.460000e-06	1.516218e-06	1.624756e-09	1.114130e+01	1.070476e+02
1.470000e-06	1.564563e-06	1.693654e-09	1.149655e+01	1.115886e+02
1.480000e-06	1.612640e-06	1.759193e-09	1.184982e+01	1.159689e+02
1.490000e-06	1.660513e-06	1.821036e-09	1.220159e+01	1.201887e+02
1.500000e-06	1.708174e-06	1.881568e-09	1.255181e+01	1.242494e+02
1.510000e-06	1.755663e-06	1.940545e-09	1.290076e+01	1.281542e+02
1.520000e-06	1.802888e-06	1.996616e-09	1.324778e+01	1.319073e+02
1.530000e-06	1.849707e-06	2.051370e-09	1.359181e+01	1.355144e+02
1.540000e-06	1.896176e-06	2.106556e-09	1.393327e+01	1.389822e+02
1.550000e-06	1.942331e-06	2.158318e-09	1.427241e+01	1.423180e+02
1.560000e-06	1.988127e-06	2.206460e-09	1.460893e+01	1.455297e+02
1.570000e-06	2.033556e-06	2.253722e-09	1.494275e+01	1.486254e+02
1.580000e-06	2.078642e-06	2.298996e-09	1.527404e+01	1.516130e+02
1.590000e-06	2.123328e-06	2.343064e-09	1.560240e+01	1.545000e+02
1.600000e-06	2.167642e-06	2.386534e-09	1.592802e+01	1.572932e+02
1.610000e-06	2.211690e-06	2.427678e-09	1.625169e+01	1.599986e+02
1.620000e-06	2.255486e-06	2.466497e-09	1.657351e+01	1.626210e+02
1.630000e-06	2.299056e-06	2.505667e-09	1.689366e+01	1.651645e+02
1.640000e-06	2.342316e-06	2.545219e-09	1.721154e+01	1.676317e+02
1.650000e-06	2.385094e-06	2.581658e-09	1.752588e+01	1.700245e+02
1.660000e-06	2.427263e-06	2.615480e-09	1.783574e+01	1.723437e+02
1.670000e-06	2.468741e-06	2.650314e-09	1.814052e+01	1.745895e+02
1.680000e-06	2.509515e-06	2.684061e-09	1.844013e+01	1.767620e+02
1.690000e-06	2.549715e-06	2.714252e-09	1.873553e+01	1.788605e+02
1.700000e-06	2.589542e-06	2.744075e-09	1.902818e+01	1.808849e+02
1.710000e-06	2.629055e-06	2.774628e-09	1.931853e+01	1.828352e+02
1.720000e-06	2.668235e-06	2.803828e-09	1.960642e+01	1.847118e+02
1.730000e-06	2.707001e-06	2.831137e-09	1.989128e+01	1.865159e+02
1.740000e-06	2.745291e-06	2.856500e-09	2.017264e+01	1.882494e+02
1.750000e-06	2.783094e-06	2.881499e-09	2.045042e+01	1.899150e+02
1.760000e-06	2.820429e-06	2.908046e-09	2.072476e+01	1.915160e+02
1.770000e-06	2.857291e-06	2.936135e-09	2.099562e+01	1.930564e+02
1.780000e-06	2.893706e-06	2.963925e-09	2.126320e+01	1.945405e+02
1.790000e-06	2.929767e-06	2.990147e-09	2.152819e+01	1.959732e+02
1.800000e-06	2.965480e-06	3.015382e-09	2.179060e+01	1.973589e+02
1.810000e-06	3.000798e-06	3.039738e-09	2.205013e+01	1.987023e+02
1.820000e-06	3.035540e-06	3.063440e-09	2.230541e+01	2.000072e+02
1.830000e-06	3.069492e-06	3.082981e-09	2.255490e+01	2.012772e+02
1.840000e-06	3.102622e-06	3.100004e-09	2.279834e+01	2.025149e+02
1.850000e-06	3.135085e-06	3.118739e-09	2.303688e+01	2.037221e+02
1.860000e-06	3.167034e-06	3.140059e-09	2.327164e+01	2.048998e+02
1.870000e-06	3.198530e-06	3.161165e-09	2.350308e+01	2.060481e+02
1.880000e-06	3.229570e-06	3.179475e-09	2.373116e+01	2.071665e+02
1.890000e-06	3.260075e-06	3.198621e-09	2.395532e+01	2.082538e+02
1.900000e-06	3.289985e-06	3.217677e-09	2.417510e+01	2.093087e+02
1.910000e-06	3.319280e-06	3.235101e-09	2.439036e+01	2.103293e+02
1.920000e-06	3.347968e-06	3.250801e-09	2.460116e+01	2.113143e+02
1.930000e-06	3.376124e-06	3.264685e-09	2.480805e+01	2.122623e+02
1.940000e-06	3.403840e-06	3.277948e-09	2.501171e+01	2.131726e+02
1.950000e-06	3.431137e-06	3.292751e-09	2.521229e+01	2.140451e+02
1.960000e-06	3.457853e-06	3.309504e-09	2.540860e+01	2.148802e+02
1.970000e-06	3.483682e-06	3.324597e-09	2.559840e+01	2.156792e+02
1.980000e-06	3.508576e-06	3.339034e-09	2.578132e+01	2.164441e+02
1.990000e-06	3.532711e-06	3.354346e-09	2.595867e+01	2.171773e+02
2.000000e-06	3.556270e-06	3.367483e-09	2.613178e+01	2.178818e+02
2.010000e-06	3.579323e-06	3.379830e-09	2.630118e+01	2.185606e+02
2.020000e-06	3.601755e-06	3.392513e-09	2.646601e+01	2.192170e+02
2.030000e-06	3.623568e-06	3.403545e-09	2.662630e+01	2.198537e+02
2.040000e-06	3.644782e-06	3.413150e-09	2.678217e+01	2.204734e+02
2.050000e-06	3.665375e-06	3.424771e-09	2.693350e+01	2.210779e+02
2.060000e-06	3.685440e-06	3.436822e-09	2.708094e+01	2.216683e+02
2.070000e-06	3.705087e-06	3.446077e-09	2.722530e+01	2.222450e+02
2.080000e-06	3.724245e-06	3.455338e-09	2.736608e+01	2.228075e+02
2.090000e-06	3.742694e-06	3.467181e-09	2.750164e+01	2.233545e+02
2.100000e-06	3.760439e-06	3.480139e-09	2.763203e+01	2.238843e+02
2.110000e-06	3.777598e-06	3.490112e-09	2.775812e+01	2.243945e+02
2.120000e-06	3.794153e-06	3.497170e-09	2.787977e+01	2.248825e+02
2.130000e-06	3.810033e-06	3.504116e-09	2.799646e+01	2.253458e+02
2.140000e-06	3.825144e-06	3.511695e-09	2.810749e+01	2.257820e+02
2.150000e-06	3.839396e-06	3.519671e-09	2.821222e+01	2.261893e+02
2.160000e-06	3.852866e-06	3.527361e-09	2.831120e+01	2.265664e+02
2.170000e-06	3.865630e-06	3.535032e-09	2.840499e+01	2.269130e+02
2.180000e-06	3.877721e-06	3.544425e-09	2.849384e+01	2.272296e+02
2.190000e-06	3.889094e-06	3.554287e-09	2.857740e+01	2.275176e+02
2.200000e-06	3.899583e-06	3.562569e-09	2.865447e+01	2.277791e+02
2.210000e-06	3.909088e-06	3.567489e-09	2.872432e+01	2.280171e+02
2.220000e-06	3.917694e-06	3.571998e-09	2.878756e+01	2.282350e+02
2.230000e-06	3.925599e-06	3.576092e-09	2.884564e+01	2.284364e+02
2.240000e-06	3.932949e-06	3.579153e-09	2.889965e+01	2.286250e+02
2.250000e-06	3.939721e-06	3.581167e-09	2.894941e+01	2.288040e+02
2.260000e-06	3.945769e-06	3.583153e-09	2.899385e+01	2.289763e+02
2.270000e-06	3.951078e-06	3.586758e-09	2.903287e+01	2.291438e+02
2.280000e-06	3.955697e-06	3.590991e-09	2.906681e+01	2.293076e+02
2.290000e-06	3.959753e-06	3.596467e-09	2.909661e+01	2.294675e+02
2.300000e-06	3.963333e-06	3.600961e-09	2.912292e+01	2.296224e+02
2.310000e-06	3.966282e-06	3.605850e-09	2.914458e+01	2.297702e+02
2.320000e-06	3.968271e-06	3.608761e-09	2.915920e+01	2.299076e+02
2.330000e-06	3.969304e-06	3.610053e-09	2.916679e+01	2.300310e+02
2.340000e-06	3.969639e-06	3.611452e-09	2.916925e+01	2.301363e+02
2.350000e-06	3.969341e-06	3.613577e-09	2.916707e+01	2.302190e+02
2.360000e-06	3.968446e-06	3.617184e-09	2.916049e+01	2.302753e+02
2.370000e-06	3.966886e-06	3.620685e-09	2.914903e+01	2.303016e+02
2.380000e-06	3.964648e-06	3.620575e-09	2.913258e+01	2.302954e+02
2.390000e-06	3.961828e-06	3.620964e-09	2.911186e+01	2.302553e+02
2.400000e-06	3.958420e-06	3.623584e-09	2.908681e+01	2.301810e+02
2.410000e-06	3.954493e-06	3.610332e-09	2.905796e+01	2.300737e+02
2.420000e-06	3.950102e-06	3.591632e-09	2.902569e+01	2.299359e+02
2.430000e-06	3.945033e-06	3.645768e-09	2.898845e+01	2.297713e+02
2.440000e-06	3.938946e-06	3.709519e-09	2.894372e+01	2.295846e+02
2.450000e-06	3.931704e-06	3.588705e-09	2.889051e+01	2.293814e+02
2.460000e-06	3.923664e-06	3.495301e-09	2.883142e+01	2.291676e+02
2.470000e-06	3.915295e-06	3.607328e-09	2.876993e+01	2.289490e+02
2.480000e-06	3.906491e-06	3.721579e-09	2.870524e+01	2.287313e+02
2.490000e-06	3.896874e-06	3.573420e-09	2.863457e+01	2.285192e+02
2.500000e-06	3.886459e-06	3.503455e-09	2.855804e+01	2.283166e+02
2.510000e-06	3.875555e-06	3.569633e-09	2.847791e+01	2.281259e+02
2.520000e-06	3.863996e-06	3.506356e-09	2.839298e+01	2.279479e+02
2.530000e-06	3.851354e-06	3.548749e-09	2.830009e+01	2.277821e+02
2.540000e-06	3.837795e-06	3.647524e-09	2.820045e+01	2.276261e+02
2.550000e-06	3.823719e-06	3.462216e-09	2.809702e+01	2.274762e+02
2.560000e-06	3.809020e-06	3.368430e-09	2.798901e+01	2.273275e+02
2.570000e-06	3.793376e-06	3.688412e-09	2.787406e+01	2.271739e+02
2.580000e-06	3.776997e-06	3.626451e-09	2.775370e+01	2.270088e+02
2.590000e-06	3.760052e-06	3.238700e-09	2.762919e+01	2.268256e+02
2.600000e-06	3.742379e-06	3.388424e-09	2.749933e+01	2.266177e+02
2.610000e-06	3.723973e-06	3.633615e-09	2.736408e+01	2.263789e+02
2.620000e-06	3.704904e-06	3.361311e-09	2.722396e+01	2.261042e+02
2.630000e-06	3.685286e-06	3.281008e-09	2.707980e+01	2.257897e+02
2.640000e-06	3.665158e-06	3.443591e-09	2.693190e+01	2.254328e+02
2.650000e-06	3.644381e-06	3.321098e-09	2.677923e+01	2.250326e+02
2.660000e-06	3.622900e-06	3.287312e-09	2.662138e+01	2.245894e+02
2.670000e-06	3.600653e-06	3.405961e-09	2.645791e+01	2.241052e+02
2.680000e-06	3.577535e-06	3.319969e-09	2.628804e+01	2.235828e+02
2.690000e-06	3.553662e-06	3.230314e-09	2.611262e+01	2.230264e+02
2.700000e-06	3.529190e-06	3.284229e-09	2.593279e+01	2.224407e+02
2.710000e-06	3.504072e-06	3.379114e-09	2.574822e+01	2.218305e+02
2.720000e-06	3.478345e-06	3.351921e-09	2.555918e+01	2.212007e+02
2.730000e-06	3.452110e-06	3.149050e-09	2.536641e+01	2.205559e+02
2.740000e-06	3.425268e-06	3.207317e-09	2.516916e+01	2.199000e+02
2.750000e-06	3.397770e-06	3.428974e-09	2.496711e+01	2.192360e+02
2.760000e-06	3.369794e-06	3.254224e-09	2.476154e+01	2.185656e+02
2.770000e-06	3.341394e-06	3.100866e-09	2.455286e+01	2.178897e+02
2.780000e-06	3.312398e-06	3.271061e-09	2.433979e+01	2.172079e+02
2.790000e-06	3.282664e-06	3.293037e-09	2.412130e+01	2.165189e+02
2.800000e-06	3.252162e-06	3.180291e-09	2.389717e+01	2.158203e+02
2.810000e-06	3.221000e-06	3.178337e-09	2.366819e+01	2.151091e+02
2.820000e-06	3.189285e-06	3.213490e-09	2.343514e+01	2.143819e+02
2.830000e-06	3.157056e-06	3.192236e-09	2.319833e+01	2.136353e+02
2.840000e-06	3.124352e-06	3.147909e-09	2.295801e+01	2.128656e+02
2.850000e-06	3.091151e-06	3.168982e-09	2.271405e+01	2.120698e+02
2.860000e-06	3.057401e-06	3.173261e-09	2.246605e+01	2.112452e+02
2.870000e-06	3.023152e-06	3.104113e-09	2.221438e+01	2.103900e+02
2.880000e-06	2.988389e-06	3.109594e-09	2.195894e+01	2.095029e+02
2.890000e-06	2.953064e-06	3.152918e-09	2.169937e+01	2.085835e+02
2.900000e-06	2.917278e-06	3.099690e-09	2.143641e+01	2.076322e+02
2.910000e-06	2.881143e-06	3.036464e-09	2.117089e+01	2.066497e+02
2.920000e-06	2.844653e-06	3.069310e-09	2.090276e+01	2.056375e+02
2.930000e-06	2.807615e-06	3.093918e-09	2.063060e+01	2.045971e+02
2.940000e-06	2.769979e-06	3.015943e-09	2.035404e+01	2.035301e+02
2.950000e-06	2.731643e-06	2.986254e-09	2.007235e+01	2.024380e+02
