# Temperatura_=_20.0
# Concentracion g/m^3_=_9000.0
# C_Vs_to_Am_M_A/Vsm_=_65563218390.804596
# pendiente_HvsI_1/m_=_3716.3
# ordenada_HvsI_A/m_=_1297.0
# frecuencia_Hz_=_212896.02736497298

Tiempo_(s)	Campo_(V.s)	Magnetizacion_(V.s)	Campo_(kA/m)	Magnetizacion_(A/m)
0.000000e+00	-3.973043e-06	-3.388030e-09	-2.913045e+01	-2.303905e+02
1.000000e-08	-3.973123e-06	-3.388275e-09	-2.913104e+01	-2.304283e+02
2.000000e-08	-3.972532e-06	-3.390429e-09	-2.912670e+01	-2.304395e+02
3.000000e-08	-3.970945e-06	-3.388726e-09	-2.911507e+01	-2.304224e+02
4.000000e-08	-3.968357e-06	-3.386104e-09	-2.909609e+01	-2.303765e+02
5.000000e-08	-3.965007e-06	-3.384348e-09	-2.907153e+01	-2.303019e+02
6.000000e-08	-3.961207e-06	-3.379481e-09	-2.904366e+01	-2.301999e+02
7.000000e-08	-3.956975e-06	-3.369860e-09	-2.901264e+01	-2.300726e+02
8.000000e-08	-3.952064e-06	-3.365874e-09	-2.897663e+01	-2.299232e+02
9.000000e-08	-3.946272e-06	-3.402426e-09	-2.893417e+01	-2.297556e+02
1.000000e-07	-3.939625e-06	-3.440548e-09	-2.888543e+01	-2.295740e+02
1.100000e-07	-3.932309e-06	-3.361781e-09	-2.883179e+01	-2.293829e+02
1.200000e-07	-3.924587e-06	-3.291357e-09	-2.877517e+01	-2.291870e+02
1.300000e-07	-3.916384e-06	-3.326634e-09	-2.871503e+01	-2.289903e+02
1.400000e-07	-3.907391e-06	-3.462167e-09	-2.864909e+01	-2.287964e+02
1.500000e-07	-3.897570e-06	-3.392395e-09	-2.857708e+01	-2.286078e+02
1.600000e-07	-3.886986e-06	-3.383505e-09	-2.849948e+01	-2.284261e+02
1.700000e-07	-3.875361e-06	-3.398765e-09	-2.841424e+01	-2.282517e+02
1.800000e-07	-3.862775e-06	-3.367195e-09	-2.832196e+01	-2.280836e+02
1.900000e-07	-3.849833e-06	-3.457526e-09	-2.822707e+01	-2.279197e+02
2.000000e-07	-3.836227e-06	-3.440237e-09	-2.812731e+01	-2.277568e+02
2.100000e-07	-3.821212e-06	-3.348030e-09	-2.801722e+01	-2.275908e+02
2.200000e-07	-3.805190e-06	-3.291861e-09	-2.789975e+01	-2.274168e+02
2.300000e-07	-3.788794e-06	-3.516713e-09	-2.777953e+01	-2.272297e+02
2.400000e-07	-3.771784e-06	-3.529056e-09	-2.765481e+01	-2.270241e+02
2.500000e-07	-3.754076e-06	-3.400532e-09	-2.752497e+01	-2.267949e+02
2.600000e-07	-3.735804e-06	-3.474761e-09	-2.739101e+01	-2.265376e+02
2.700000e-07	-3.716860e-06	-3.619596e-09	-2.725210e+01	-2.262485e+02
2.800000e-07	-3.697332e-06	-3.589083e-09	-2.710893e+01	-2.259246e+02
2.900000e-07	-3.677368e-06	-3.477918e-09	-2.696255e+01	-2.255642e+02
3.000000e-07	-3.656814e-06	-3.535336e-09	-2.681185e+01	-2.251668e+02
3.100000e-07	-3.635550e-06	-3.559840e-09	-2.665594e+01	-2.247329e+02
3.200000e-07	-3.613591e-06	-3.548039e-09	-2.649494e+01	-2.242640e+02
3.300000e-07	-3.590990e-06	-3.541846e-09	-2.632922e+01	-2.237626e+02
3.400000e-07	-3.567842e-06	-3.532017e-09	-2.615950e+01	-2.232316e+02
3.500000e-07	-3.544149e-06	-3.478919e-09	-2.598579e+01	-2.226746e+02
3.600000e-07	-3.519956e-06	-3.465828e-09	-2.580840e+01	-2.220951e+02
3.700000e-07	-3.495275e-06	-3.564039e-09	-2.562744e+01	-2.214965e+02
3.800000e-07	-3.469637e-06	-3.529941e-09	-2.543946e+01	-2.208818e+02
3.900000e-07	-3.442774e-06	-3.366806e-09	-2.524251e+01	-2.202535e+02
4.000000e-07	-3.415237e-06	-3.449773e-09	-2.504060e+01	-2.196132e+02
4.100000e-07	-3.387447e-06	-3.582591e-09	-2.483684e+01	-2.189617e+02
4.200000e-07	-3.359128e-06	-3.428236e-09	-2.462921e+01	-2.182990e+02
4.300000e-07	-3.330111e-06	-3.345518e-09	-2.441646e+01	-2.176242e+02
4.400000e-07	-3.300633e-06	-3.456681e-09	-2.420032e+01	-2.169356e+02
4.500000e-07	-3.270701e-06	-3.465696e-09	-2.398086e+01	-2.162310e+02
4.600000e-07	-3.240092e-06	-3.370189e-09	-2.375644e+01	-2.155079e+02
4.700000e-07	-3.208919e-06	-3.361750e-09	-2.352787e+01	-2.147633e+02
4.800000e-07	-3.177417e-06	-3.385894e-09	-2.329690e+01	-2.139946e+02
4.900000e-07	-3.145626e-06	-3.358131e-09	-2.306381e+01	-2.131991e+02
5.000000e-07	-3.113415e-06	-3.356242e-09	-2.282763e+01	-2.123750e+02
5.100000e-07	-3.080471e-06	-3.344566e-09	-2.258609e+01	-2.115204e+02
5.200000e-07	-3.046579e-06	-3.296601e-09	-2.233759e+01	-2.106347e+02
5.300000e-07	-3.011803e-06	-3.287898e-09	-2.208261e+01	-2.097176e+02
5.400000e-07	-2.976464e-06	-3.307838e-09	-2.182350e+01	-2.087694e+02
5.500000e-07	-2.940800e-06	-3.299206e-09	-2.156201e+01	-2.077913e+02
5.600000e-07	-2.904819e-06	-3.240049e-09	-2.129821e+01	-2.067847e+02
5.700000e-07	-2.868361e-06	-3.212963e-09	-2.103090e+01	-2.057513e+02
5.800000e-07	-2.831359e-06	-3.247354e-09	-2.075959e+01	-2.046929e+02
5.900000e-07	-2.793868e-06	-3.235780e-09	-2.048471e+01	-2.036115e+02
6.000000e-07	-2.755899e-06	-3.171855e-09	-2.020632e+01	-2.025084e+02
6.100000e-07	-2.717342e-06	-3.141325e-09	-1.992361e+01	-2.013848e+02
6.200000e-07	-2.678254e-06	-3.166299e-09	-1.963702e+01	-2.002412e+02
6.300000e-07	-2.638833e-06	-3.154155e-09	-1.934799e+01	-1.990777e+02
6.400000e-07	-2.599140e-06	-3.098229e-09	-1.905696e+01	-1.978935e+02
6.500000e-07	-2.559183e-06	-3.085229e-09	-1.876399e+01	-1.966873e+02
6.600000e-07	-2.518786e-06	-3.082876e-09	-1.846780e+01	-1.954572e+02
6.700000e-07	-2.477761e-06	-3.058132e-09	-1.816700e+01	-1.942010e+02
6.800000e-07	-2.435992e-06	-3.036222e-09	-1.786076e+01	-1.929160e+02
6.900000e-07	-2.393529e-06	-3.014328e-09	-1.754941e+01	-1.915995e+02
7.000000e-07	-2.350522e-06	-2.985400e-09	-1.723408e+01	-1.902487e+02
7.100000e-07	-2.307071e-06	-2.961335e-09	-1.691550e+01	-1.888610e+02
7.200000e-07	-2.263327e-06	-2.954732e-09	-1.659477e+01	-1.874342e+02
7.300000e-07	-2.219359e-06	-2.926038e-09	-1.627239e+01	-1.859664e+02
7.400000e-07	-2.175002e-06	-2.880588e-09	-1.594717e+01	-1.844562e+02
7.500000e-07	-2.130092e-06	-2.866948e-09	-1.561789e+01	-1.829029e+02
7.600000e-07	-2.084804e-06	-2.857430e-09	-1.528583e+01	-1.813058e+02
7.700000e-07	-2.039289e-06	-2.824896e-09	-1.495212e+01	-1.796651e+02
7.800000e-07	-1.993450e-06	-2.783229e-09	-1.461602e+01	-1.779811e+02
7.900000e-07	-1.947291e-06	-2.762138e-09	-1.427758e+01	-1.762543e+02
8.000000e-07	-1.900757e-06	-2.748722e-09	-1.393640e+01	-1.744851e+02
8.100000e-07	-1.853820e-06	-2.709791e-09	-1.359225e+01	-1.726739e+02
8.200000e-07	-1.806598e-06	-2.671749e-09	-1.324602e+01	-1.708209e+02
8.300000e-07	-1.759108e-06	-2.647989e-09	-1.289783e+01	-1.689258e+02
8.400000e-07	-1.711415e-06	-2.622051e-09	-1.254813e+01	-1.669877e+02
8.500000e-07	-1.663577e-06	-2.586836e-09	-1.219739e+01	-1.650054e+02
8.600000e-07	-1.615473e-06	-2.548363e-09	-1.184469e+01	-1.629771e+02
8.700000e-07	-1.566973e-06	-2.518359e-09	-1.148908e+01	-1.609002e+02
8.800000e-07	-1.518100e-06	-2.485664e-09	-1.113075e+01	-1.587720e+02
8.900000e-07	-1.468856e-06	-2.451310e-09	-1.076969e+01	-1.565891e+02
9.000000e-07	-1.419205e-06	-2.418889e-09	-1.040564e+01	-1.543481e+02
9.100000e-07	-1.369101e-06	-2.379526e-09	-1.003828e+01	-1.520452e+02
9.200000e-07	-1.318536e-06	-2.342713e-09	-9.667540e+00	-1.496768e+02
9.300000e-07	-1.267615e-06	-2.306798e-09	-9.294185e+00	-1.472393e+02
9.400000e-07	-1.216478e-06	-2.267157e-09	-8.919243e+00	-1.447293e+02
9.500000e-07	-1.165207e-06	-2.220374e-09	-8.543325e+00	-1.421436e+02
9.600000e-07	-1.113701e-06	-2.173657e-09	-8.165682e+00	-1.394792e+02
9.700000e-07	-1.061959e-06	-2.137649e-09	-7.786310e+00	-1.367336e+02
9.800000e-07	-1.010067e-06	-2.095127e-09	-7.405836e+00	-1.339042e+02
9.900000e-07	-9.580578e-07	-2.046562e-09	-7.024503e+00	-1.309887e+02
1.000000e-06	-9.058801e-07	-1.999824e-09	-6.641935e+00	-1.279846e+02
1.010000e-06	-8.534230e-07	-1.955097e-09	-6.257318e+00	-1.248895e+02
1.020000e-06	-8.007122e-07	-1.907819e-09	-5.870842e+00	-1.217005e+02
1.030000e-06	-7.478754e-07	-1.850656e-09	-5.483441e+00	-1.184145e+02
1.040000e-06	-6.949837e-07	-1.796425e-09	-5.095637e+00	-1.150279e+02
1.050000e-06	-6.419172e-07	-1.744448e-09	-4.706553e+00	-1.115365e+02
1.060000e-06	-5.886455e-07	-1.686741e-09	-4.315963e+00	-1.079355e+02
1.070000e-06	-5.353069e-07	-1.629126e-09	-3.924883e+00	-1.042199e+02
1.080000e-06	-4.819295e-07	-1.569553e-09	-3.533519e+00	-1.003842e+02
1.090000e-06	-4.284641e-07	-1.508668e-09	-3.141509e+00	-9.642244e+01
1.100000e-06	-3.748672e-07	-1.445105e-09	-2.748535e+00	-9.232900e+01
1.110000e-06	-3.212346e-07	-1.380233e-09	-2.355300e+00	-8.809830e+01
1.120000e-06	-2.676052e-07	-1.313745e-09	-1.962088e+00	-8.372528e+01
1.130000e-06	-2.139540e-07	-1.239189e-09	-1.568716e+00	-7.920567e+01
1.140000e-06	-1.603072e-07	-1.165537e-09	-1.175377e+00	-7.453624e+01
1.150000e-06	-1.066302e-07	-1.091478e-09	-7.818149e-01	-6.971506e+01
1.160000e-06	-5.293387e-08	-1.012933e-09	-3.881124e-01	-6.474173e+01
1.170000e-06	7.508980e-10	-9.336325e-10	5.505602e-03	-5.961756e+01
1.180000e-06	5.440285e-08	-8.537785e-10	3.988831e-01	-5.434565e+01
1.190000e-06	1.080813e-07	-7.720222e-10	7.924546e-01	-4.893095e+01
1.200000e-06	1.617851e-07	-6.844578e-10	1.186212e+00	-4.338028e+01
1.210000e-06	2.154742e-07	-5.945762e-10	1.579862e+00	-3.770220e+01
1.220000e-06	2.691031e-07	-5.050034e-10	1.973071e+00	-3.190689e+01
1.230000e-06	3.226462e-07	-4.133485e-10	2.365650e+00	-2.600595e+01
1.240000e-06	3.761623e-07	-3.219377e-10	2.758031e+00	-2.001219e+01
1.250000e-06	4.296328e-07	-2.275342e-10	3.150078e+00	-1.393936e+01
1.260000e-06	4.830191e-07	-1.320536e-10	3.541508e+00	-7.801901e+00
1.270000e-06	5.362323e-07	-3.958667e-11	3.931668e+00	-1.614669e+00
1.280000e-06	5.893124e-07	5.615690e-11	4.320853e+00	4.607276e+00
1.290000e-06	6.423609e-07	1.512655e-10	4.709806e+00	1.084890e+01
1.300000e-06	6.951679e-07	2.487467e-10	5.096988e+00	1.709536e+01
1.310000e-06	7.477534e-07	3.452999e-10	5.482546e+00	2.333216e+01
1.320000e-06	8.003003e-07	4.402048e-10	5.867821e+00	2.954522e+01
1.330000e-06	8.527440e-07	5.345665e-10	6.252340e+00	3.572097e+01
1.340000e-06	9.050125e-07	6.288209e-10	6.635574e+00	4.184637e+01
1.350000e-06	9.571128e-07	7.263191e-10	7.017575e+00	4.790890e+01
1.360000e-06	1.009069e-06	8.194600e-10	7.398516e+00	5.389659e+01
1.370000e-06	1.060850e-06	9.119217e-10	7.778182e+00	5.979800e+01
1.380000e-06	1.112455e-06	1.002330e-09	8.156551e+00	6.560224e+01
1.390000e-06	1.163893e-06	1.090916e-09	8.533695e+00	7.129896e+01
1.400000e-06	1.215098e-06	1.178474e-09	8.909126e+00	7.687843e+01
1.410000e-06	1.266022e-06	1.260657e-09	9.282502e+00	8.233157e+01
1.420000e-06	1.316663e-06	1.340375e-09	9.653806e+00	8.765008e+01
1.430000e-06	1.366944e-06	1.418468e-09	1.002247e+01	9.282653e+01
1.440000e-06	1.416819e-06	1.494502e-09	1.038815e+01	9.785448e+01
1.450000e-06	1.466250e-06	1.567433e-09	1.075058e+01	1.027286e+02
1.460000e-06	1.515176e-06	1.636694e-09	1.110931e+01	1.074449e+02
1.470000e-06	1.563654e-06	1.706799e-09	1.146475e+01	1.120007e+02
1.480000e-06	1.611819e-06	1.774979e-09	1.181789e+01	1.163947e+02
1.490000e-06	1.659794e-06	1.839711e-09	1.216965e+01	1.206272e+02
1.500000e-06	1.707573e-06	1.902540e-09	1.251996e+01	1.246999e+02
1.510000e-06	1.755166e-06	1.961588e-09	1.286892e+01	1.286159e+02
1.520000e-06	1.802572e-06	2.018113e-09	1.321651e+01	1.323798e+02
1.530000e-06	1.849649e-06	2.073271e-09	1.356167e+01	1.359969e+02
1.540000e-06	1.896335e-06	2.126724e-09	1.390397e+01	1.394738e+02
1.550000e-06	1.942588e-06	2.179170e-09	1.424310e+01	1.428176e+02
1.560000e-06	1.988457e-06	2.230336e-09	1.457941e+01	1.460358e+02
1.570000e-06	2.034001e-06	2.279049e-09	1.491335e+01	1.491360e+02
1.580000e-06	2.079199e-06	2.324889e-09	1.524474e+01	1.521257e+02
1.590000e-06	2.124039e-06	2.369453e-09	1.557351e+01	1.550118e+02
1.600000e-06	2.168499e-06	2.412715e-09	1.589949e+01	1.578007e+02
1.610000e-06	2.212575e-06	2.454039e-09	1.622265e+01	1.604980e+02
1.620000e-06	2.256394e-06	2.493968e-09	1.654394e+01	1.631083e+02
1.630000e-06	2.300060e-06	2.532532e-09	1.686410e+01	1.656354e+02
1.640000e-06	2.343501e-06	2.570599e-09	1.718261e+01	1.680820e+02
1.650000e-06	2.386555e-06	2.607250e-09	1.749828e+01	1.704501e+02
1.660000e-06	2.429040e-06	2.641958e-09	1.780978e+01	1.727411e+02
1.670000e-06	2.470699e-06	2.676197e-09	1.811522e+01	1.749556e+02
1.680000e-06	2.511536e-06	2.709590e-09	1.841464e+01	1.770942e+02
1.690000e-06	2.551794e-06	2.741768e-09	1.870981e+01	1.791574e+02
1.700000e-06	2.591689e-06	2.772006e-09	1.900233e+01	1.811458e+02
1.710000e-06	2.631368e-06	2.800796e-09	1.929325e+01	1.830604e+02
1.720000e-06	2.670727e-06	2.829765e-09	1.958184e+01	1.849025e+02
1.730000e-06	2.709678e-06	2.857732e-09	1.986743e+01	1.866742e+02
1.740000e-06	2.748152e-06	2.884423e-09	2.014951e+01	1.883783e+02
1.750000e-06	2.786081e-06	2.909610e-09	2.042761e+01	1.900182e+02
1.760000e-06	2.823541e-06	2.934344e-09	2.070227e+01	1.915976e+02
1.770000e-06	2.860580e-06	2.960806e-09	2.097384e+01	1.931210e+02
1.780000e-06	2.897116e-06	2.986465e-09	2.124172e+01	1.945929e+02
1.790000e-06	2.933191e-06	3.010213e-09	2.150623e+01	1.960180e+02
1.800000e-06	2.968959e-06	3.034101e-09	2.176848e+01	1.974010e+02
1.810000e-06	3.004436e-06	3.058074e-09	2.202860e+01	1.987458e+02
1.820000e-06	3.039483e-06	3.079931e-09	2.228556e+01	2.000563e+02
1.830000e-06	3.073788e-06	3.099458e-09	2.253709e+01	2.013353e+02
1.840000e-06	3.107105e-06	3.119145e-09	2.278137e+01	2.025849e+02
1.850000e-06	3.139607e-06	3.138752e-09	2.301967e+01	2.038064e+02
1.860000e-06	3.171610e-06	3.159211e-09	2.325432e+01	2.050003e+02
1.870000e-06	3.203240e-06	3.180689e-09	2.348624e+01	2.061661e+02
1.880000e-06	3.234412e-06	3.199048e-09	2.371479e+01	2.073029e+02
1.890000e-06	3.264924e-06	3.216966e-09	2.393850e+01	2.084090e+02
1.900000e-06	3.294863e-06	3.236440e-09	2.415802e+01	2.094826e+02
1.910000e-06	3.324308e-06	3.254413e-09	2.437391e+01	2.105219e+02
1.920000e-06	3.353129e-06	3.270244e-09	2.458522e+01	2.115249e+02
1.930000e-06	3.381391e-06	3.285057e-09	2.479244e+01	2.124903e+02
1.940000e-06	3.409244e-06	3.300761e-09	2.499666e+01	2.134172e+02
1.950000e-06	3.436703e-06	3.317298e-09	2.519799e+01	2.143051e+02
1.960000e-06	3.463562e-06	3.333374e-09	2.539492e+01	2.151545e+02
1.970000e-06	3.489535e-06	3.348446e-09	2.558536e+01	2.159666e+02
1.980000e-06	3.514528e-06	3.362703e-09	2.576860e+01	2.167431e+02
1.990000e-06	3.538719e-06	3.376336e-09	2.594597e+01	2.174864e+02
2.000000e-06	3.562381e-06	3.388896e-09	2.611946e+01	2.181995e+02
2.010000e-06	3.585558e-06	3.400843e-09	2.628940e+01	2.188853e+02
2.020000e-06	3.608086e-06	3.413716e-09	2.645457e+01	2.195470e+02
2.030000e-06	3.629989e-06	3.426348e-09	2.661517e+01	2.201876e+02
2.040000e-06	3.651276e-06	3.437371e-09	2.677125e+01	2.208098e+02
2.050000e-06	3.671912e-06	3.447466e-09	2.692255e+01	2.214156e+02
2.060000e-06	3.692040e-06	3.457567e-09	2.707013e+01	2.220065e+02
2.070000e-06	3.711784e-06	3.466870e-09	2.721489e+01	2.225834e+02
2.080000e-06	3.731069e-06	3.476225e-09	2.735629e+01	2.231461e+02
2.090000e-06	3.749697e-06	3.486522e-09	2.749287e+01	2.236939e+02
2.100000e-06	3.767585e-06	3.496219e-09	2.762403e+01	2.242256e+02
2.110000e-06	3.784771e-06	3.506278e-09	2.775003e+01	2.247394e+02
2.120000e-06	3.801346e-06	3.515782e-09	2.787156e+01	2.252332e+02
2.130000e-06	3.817258e-06	3.523427e-09	2.798823e+01	2.257047e+02
2.140000e-06	3.832256e-06	3.531313e-09	2.809819e+01	2.261521e+02
2.150000e-06	3.846477e-06	3.539957e-09	2.820246e+01	2.265734e+02
2.160000e-06	3.860072e-06	3.547917e-09	2.830214e+01	2.269676e+02
2.170000e-06	3.872894e-06	3.554201e-09	2.839615e+01	2.273338e+02
2.180000e-06	3.885015e-06	3.561171e-09	2.848502e+01	2.276723e+02
2.190000e-06	3.896479e-06	3.568017e-09	2.856908e+01	2.279836e+02
2.200000e-06	3.907190e-06	3.574095e-09	2.864761e+01	2.282692e+02
2.210000e-06	3.916881e-06	3.579067e-09	2.871867e+01	2.285311e+02
2.220000e-06	3.925478e-06	3.583671e-09	2.878170e+01	2.287717e+02
2.230000e-06	3.933378e-06	3.589399e-09	2.883963e+01	2.289935e+02
2.240000e-06	3.940860e-06	3.595577e-09	2.889448e+01	2.291993e+02
2.250000e-06	3.947738e-06	3.601041e-09	2.894491e+01	2.293914e+02
2.260000e-06	3.953875e-06	3.604708e-09	2.898991e+01	2.295719e+02
2.270000e-06	3.959311e-06	3.608021e-09	2.902976e+01	2.297424e+02
2.280000e-06	3.964063e-06	3.611829e-09	2.906460e+01	2.299035e+02
2.290000e-06	3.968223e-06	3.615787e-09	2.909511e+01	2.300554e+02
2.300000e-06	3.971859e-06	3.618828e-09	2.912177e+01	2.301971e+02
2.310000e-06	3.974872e-06	3.621761e-09	2.914386e+01	2.303273e+02
2.320000e-06	3.976955e-06	3.626615e-09	2.915913e+01	2.304437e+02
2.330000e-06	3.978035e-06	3.631120e-09	2.916705e+01	2.305438e+02
2.340000e-06	3.978335e-06	3.633732e-09	2.916925e+01	2.306246e+02
2.350000e-06	3.978000e-06	3.635409e-09	2.916679e+01	2.306833e+02
2.360000e-06	3.977095e-06	3.636495e-09	2.916016e+01	2.307172e+02
2.370000e-06	3.975576e-06	3.634746e-09	2.914902e+01	2.307243e+02
2.380000e-06	3.973451e-06	3.633351e-09	2.913344e+01	2.307031e+02
2.390000e-06	3.970695e-06	3.633230e-09	2.911323e+01	2.306529e+02
2.400000e-06	3.967292e-06	3.634455e-09	2.908828e+01	2.305741e+02
2.410000e-06	3.963381e-06	3.639404e-09	2.905960e+01	2.304682e+02
2.420000e-06	3.959107e-06	3.652019e-09	2.902827e+01	2.303375e+02
2.430000e-06	3.954233e-06	3.610008e-09	2.899253e+01	2.301852e+02
2.440000e-06	3.948205e-06	3.556752e-09	2.894833e+01	2.300152e+02
2.450000e-06	3.940867e-06	3.623664e-09	2.889453e+01	2.298320e+02
2.460000e-06	3.932722e-06	3.703741e-09	2.883482e+01	2.296400e+02
2.470000e-06	3.924406e-06	3.685746e-09	2.877384e+01	2.294438e+02
2.480000e-06	3.915765e-06	3.533242e-09	2.871048e+01	2.292474e+02
2.490000e-06	3.906028e-06	3.570916e-09	2.863909e+01	2.290542e+02
2.500000e-06	3.895375e-06	3.573984e-09	2.856098e+01	2.288666e+02
2.510000e-06	3.884665e-06	3.567722e-09	2.848245e+01	2.286861e+02
2.520000e-06	3.873360e-06	3.579814e-09	2.839957e+01	2.285128e+02
2.530000e-06	3.860510e-06	3.520636e-09	2.830536e+01	2.283456e+02
2.540000e-06	3.846828e-06	3.474396e-09	2.820504e+01	2.281822e+02
2.550000e-06	3.833004e-06	3.559699e-09	2.810368e+01	2.280192e+02
2.560000e-06	3.818325e-06	3.667604e-09	2.799605e+01	2.278524e+02
2.570000e-06	3.802529e-06	3.418315e-09	2.788024e+01	2.276769e+02
2.580000e-06	3.786189e-06	3.394172e-09	2.776043e+01	2.274873e+02
2.590000e-06	3.769288e-06	3.583975e-09	2.763651e+01	2.272786e+02
2.600000e-06	3.751580e-06	3.502692e-09	2.750668e+01	2.270455e+02
2.610000e-06	3.733228e-06	3.278579e-09	2.737212e+01	2.267838e+02
2.620000e-06	3.714249e-06	3.392502e-09	2.723296e+01	2.264896e+02
2.630000e-06	3.694647e-06	3.453145e-09	2.708924e+01	2.261604e+02
2.640000e-06	3.674510e-06	3.262471e-09	2.694160e+01	2.257946e+02
2.650000e-06	3.653806e-06	3.309327e-09	2.678979e+01	2.253918e+02
2.660000e-06	3.632580e-06	3.349510e-09	2.663417e+01	2.249525e+02
2.670000e-06	3.610473e-06	3.276905e-09	2.647207e+01	2.244787e+02
2.680000e-06	3.587245e-06	3.287841e-09	2.630177e+01	2.239727e+02
2.690000e-06	3.563369e-06	3.323811e-09	2.612671e+01	2.234377e+02
2.700000e-06	3.539011e-06	3.335748e-09	2.594811e+01	2.228771e+02
2.710000e-06	3.513880e-06	3.227856e-09	2.576385e+01	2.222946e+02
2.720000e-06	3.488084e-06	3.216494e-09	2.557472e+01	2.216935e+02
2.730000e-06	3.461968e-06	3.380086e-09	2.538323e+01	2.210767e+02
2.740000e-06	3.435239e-06	3.304435e-09	2.518726e+01	2.204466e+02
2.750000e-06	3.407717e-06	3.120795e-09	2.498547e+01	2.198046e+02
2.760000e-06	3.379771e-06	3.254393e-09	2.478056e+01	2.191516e+02
2.770000e-06	3.351550e-06	3.351322e-09	2.457364e+01	2.184872e+02
2.780000e-06	3.322706e-06	3.188977e-09	2.436216e+01	2.178105e+02
2.790000e-06	3.292954e-06	3.156373e-09	2.414402e+01	2.171198e+02
2.800000e-06	3.262413e-06	3.245145e-09	2.392009e+01	2.164127e+02
2.810000e-06	3.231147e-06	3.225427e-09	2.369085e+01	2.156865e+02
2.820000e-06	3.199290e-06	3.167371e-09	2.345727e+01	2.149386e+02
2.830000e-06	3.166995e-06	3.160943e-09	2.322049e+01	2.141661e+02
2.840000e-06	3.134303e-06	3.175782e-09	2.298079e+01	2.133665e+02
2.850000e-06	3.101060e-06	3.150306e-09	2.273705e+01	2.125380e+02
2.860000e-06	3.067215e-06	3.119362e-09	2.248890e+01	2.116789e+02
2.870000e-06	3.033009e-06	3.150648e-09	2.223809e+01	2.107885e+02
2.880000e-06	2.998386e-06	3.120013e-09	2.198424e+01	2.098668e+02
2.890000e-06	2.963099e-06	3.061932e-09	2.172551e+01	2.089141e+02
2.900000e-06	2.927269e-06	3.092076e-09	2.146281e+01	2.079317e+02
2.910000e-06	2.891189e-06	3.101535e-09	2.119827e+01	2.069210e+02
2.920000e-06	2.854808e-06	3.043869e-09	2.093152e+01	2.058838e+02
2.930000e-06	2.817837e-06	3.001475e-09	2.066045e+01	2.048220e+02
2.940000e-06	2.780143e-06	3.037733e-09	2.038408e+01	2.037372e+02
2.950000e-06	2.741628e-06	3.042213e-09	2.010168e+01	2.026311e+02
