# Temperatura_=_20.0
# Concentracion g/m^3_=_9000.0
# C_Vs_to_Am_M_A/Vsm_=_65563218390.804596
# pendiente_HvsI_1/m_=_3716.3
# ordenada_HvsI_A/m_=_1297.0
# frecuencia_Hz_=_212895.1887088431

Tiempo_(s)	Campo_(V.s)	Magnetizacion_(V.s)	Campo_(kA/m)	Magnetizacion_(A/m)
0.000000e+00	-3.972467e-06	-3.440279e-09	-2.913587e+01	-2.307757e+02
1.000000e-08	-3.972289e-06	-3.440784e-09	-2.913457e+01	-2.307971e+02
2.000000e-08	-3.971446e-06	-3.439721e-09	-2.912839e+01	-2.308057e+02
3.000000e-08	-3.969676e-06	-3.439033e-09	-2.911541e+01	-2.308015e+02
4.000000e-08	-3.967000e-06	-3.438973e-09	-2.909578e+01	-2.307842e+02
5.000000e-08	-3.963612e-06	-3.440025e-09	-2.907093e+01	-2.307534e+02
6.000000e-08	-3.959685e-06	-3.447539e-09	-2.904213e+01	-2.307086e+02
7.000000e-08	-3.955231e-06	-3.452943e-09	-2.900946e+01	-2.306489e+02
8.000000e-08	-3.950057e-06	-3.427965e-09	-2.897151e+01	-2.305735e+02
9.000000e-08	-3.944078e-06	-3.383224e-09	-2.892766e+01	-2.304810e+02
1.000000e-07	-3.937248e-06	-3.425142e-09	-2.887757e+01	-2.303700e+02
1.100000e-07	-3.929712e-06	-3.499062e-09	-2.882229e+01	-2.302386e+02
1.200000e-07	-3.921773e-06	-3.477503e-09	-2.876407e+01	-2.300850e+02
1.300000e-07	-3.913302e-06	-3.350767e-09	-2.870193e+01	-2.299070e+02
1.400000e-07	-3.903967e-06	-3.378694e-09	-2.863346e+01	-2.297026e+02
1.500000e-07	-3.893858e-06	-3.483474e-09	-2.855933e+01	-2.294698e+02
1.600000e-07	-3.883012e-06	-3.471719e-09	-2.847977e+01	-2.292066e+02
1.700000e-07	-3.871100e-06	-3.474042e-09	-2.839240e+01	-2.289115e+02
1.800000e-07	-3.858272e-06	-3.435458e-09	-2.829832e+01	-2.285833e+02
1.900000e-07	-3.845046e-06	-3.429953e-09	-2.820131e+01	-2.282214e+02
2.000000e-07	-3.831071e-06	-3.477434e-09	-2.809881e+01	-2.278257e+02
2.100000e-07	-3.815819e-06	-3.559054e-09	-2.798695e+01	-2.273970e+02
2.200000e-07	-3.799695e-06	-3.448320e-09	-2.786869e+01	-2.269365e+02
2.300000e-07	-3.783136e-06	-3.342806e-09	-2.774724e+01	-2.264463e+02
2.400000e-07	-3.765945e-06	-3.518575e-09	-2.762115e+01	-2.259291e+02
2.500000e-07	-3.748015e-06	-3.594913e-09	-2.748964e+01	-2.253882e+02
2.600000e-07	-3.729495e-06	-3.464327e-09	-2.735381e+01	-2.248274e+02
2.700000e-07	-3.710348e-06	-3.395815e-09	-2.721338e+01	-2.242506e+02
2.800000e-07	-3.690646e-06	-3.507514e-09	-2.706887e+01	-2.236620e+02
2.900000e-07	-3.670503e-06	-3.523468e-09	-2.692113e+01	-2.230658e+02
3.000000e-07	-3.649798e-06	-3.464702e-09	-2.676928e+01	-2.224657e+02
3.100000e-07	-3.628383e-06	-3.435539e-09	-2.661221e+01	-2.218650e+02
3.200000e-07	-3.606229e-06	-3.412050e-09	-2.644972e+01	-2.212665e+02
3.300000e-07	-3.583466e-06	-3.443062e-09	-2.628277e+01	-2.206721e+02
3.400000e-07	-3.560216e-06	-3.466837e-09	-2.611224e+01	-2.200829e+02
3.500000e-07	-3.536434e-06	-3.433752e-09	-2.593781e+01	-2.194990e+02
3.600000e-07	-3.512101e-06	-3.368039e-09	-2.575935e+01	-2.189197e+02
3.700000e-07	-3.487194e-06	-3.360315e-09	-2.557667e+01	-2.183432e+02
3.800000e-07	-3.461321e-06	-3.443035e-09	-2.538690e+01	-2.177671e+02
3.900000e-07	-3.434296e-06	-3.445843e-09	-2.518869e+01	-2.171883e+02
4.000000e-07	-3.406647e-06	-3.320124e-09	-2.498589e+01	-2.166031e+02
4.100000e-07	-3.378705e-06	-3.315660e-09	-2.478095e+01	-2.160075e+02
4.200000e-07	-3.350236e-06	-3.414029e-09	-2.457215e+01	-2.153975e+02
4.300000e-07	-3.321078e-06	-3.396416e-09	-2.435829e+01	-2.147692e+02
4.400000e-07	-3.291408e-06	-3.295458e-09	-2.414068e+01	-2.141189e+02
4.500000e-07	-3.261288e-06	-3.289577e-09	-2.391977e+01	-2.134434e+02
4.600000e-07	-3.230567e-06	-3.339383e-09	-2.369445e+01	-2.127402e+02
4.700000e-07	-3.199290e-06	-3.324669e-09	-2.346504e+01	-2.120073e+02
4.800000e-07	-3.167635e-06	-3.288970e-09	-2.323287e+01	-2.112436e+02
4.900000e-07	-3.135710e-06	-3.256840e-09	-2.299872e+01	-2.104484e+02
5.000000e-07	-3.103354e-06	-3.248451e-09	-2.276140e+01	-2.096221e+02
5.100000e-07	-3.070260e-06	-3.270427e-09	-2.251868e+01	-2.087653e+02
5.200000e-07	-3.036172e-06	-3.258603e-09	-2.226866e+01	-2.078791e+02
5.300000e-07	-3.001229e-06	-3.215236e-09	-2.201238e+01	-2.069650e+02
5.400000e-07	-2.965846e-06	-3.188947e-09	-2.175286e+01	-2.060246e+02
5.500000e-07	-2.930132e-06	-3.200142e-09	-2.149092e+01	-2.050592e+02
5.600000e-07	-2.893993e-06	-3.212061e-09	-2.122586e+01	-2.040702e+02
5.700000e-07	-2.857410e-06	-3.174586e-09	-2.095754e+01	-2.030585e+02
5.800000e-07	-2.820336e-06	-3.127383e-09	-2.068562e+01	-2.020246e+02
5.900000e-07	-2.782734e-06	-3.121630e-09	-2.040983e+01	-2.009685e+02
6.000000e-07	-2.744625e-06	-3.140882e-09	-2.013032e+01	-1.998898e+02
6.100000e-07	-2.705953e-06	-3.113480e-09	-1.984669e+01	-1.987874e+02
6.200000e-07	-2.666807e-06	-3.057783e-09	-1.955958e+01	-1.976601e+02
6.300000e-07	-2.627349e-06	-3.052967e-09	-1.927017e+01	-1.965059e+02
6.400000e-07	-2.587642e-06	-3.055543e-09	-1.897894e+01	-1.953231e+02
6.500000e-07	-2.547622e-06	-3.030821e-09	-1.868541e+01	-1.941096e+02
6.600000e-07	-2.507102e-06	-3.004082e-09	-1.838822e+01	-1.928635e+02
6.700000e-07	-2.465935e-06	-2.983794e-09	-1.808628e+01	-1.915829e+02
6.800000e-07	-2.423982e-06	-2.967578e-09	-1.777859e+01	-1.902665e+02
6.900000e-07	-2.381339e-06	-2.946927e-09	-1.746582e+01	-1.889132e+02
7.000000e-07	-2.338168e-06	-2.925774e-09	-1.714919e+01	-1.875222e+02
7.100000e-07	-2.294562e-06	-2.894119e-09	-1.682936e+01	-1.860935e+02
7.200000e-07	-2.250730e-06	-2.866461e-09	-1.650787e+01	-1.846271e+02
7.300000e-07	-2.206619e-06	-2.856633e-09	-1.618434e+01	-1.831236e+02
7.400000e-07	-2.162127e-06	-2.831863e-09	-1.585802e+01	-1.815839e+02
7.500000e-07	-2.117246e-06	-2.799030e-09	-1.552884e+01	-1.800088e+02
7.600000e-07	-2.071967e-06	-2.777357e-09	-1.519674e+01	-1.783992e+02
7.700000e-07	-2.026318e-06	-2.761778e-09	-1.486194e+01	-1.767558e+02
7.800000e-07	-1.980350e-06	-2.736859e-09	-1.452479e+01	-1.750792e+02
7.900000e-07	-1.934089e-06	-2.696970e-09	-1.418549e+01	-1.733692e+02
8.000000e-07	-1.887498e-06	-2.668345e-09	-1.384377e+01	-1.716255e+02
8.100000e-07	-1.840552e-06	-2.649990e-09	-1.349944e+01	-1.698468e+02
8.200000e-07	-1.793306e-06	-2.623563e-09	-1.315292e+01	-1.680316e+02
8.300000e-07	-1.745802e-06	-2.585066e-09	-1.280450e+01	-1.661775e+02
8.400000e-07	-1.698099e-06	-2.545938e-09	-1.245463e+01	-1.642817e+02
8.500000e-07	-1.650242e-06	-2.522872e-09	-1.210362e+01	-1.623410e+02
8.600000e-07	-1.602140e-06	-2.498331e-09	-1.175082e+01	-1.603517e+02
8.700000e-07	-1.553752e-06	-2.460720e-09	-1.139592e+01	-1.583099e+02
8.800000e-07	-1.504948e-06	-2.421562e-09	-1.103797e+01	-1.562118e+02
8.900000e-07	-1.455689e-06	-2.388035e-09	-1.067669e+01	-1.540534e+02
9.000000e-07	-1.406075e-06	-2.362375e-09	-1.031279e+01	-1.518312e+02
9.100000e-07	-1.356045e-06	-2.328451e-09	-9.945848e+00	-1.495416e+02
9.200000e-07	-1.305526e-06	-2.281754e-09	-9.575318e+00	-1.471817e+02
9.300000e-07	-1.254547e-06	-2.237301e-09	-9.201420e+00	-1.447486e+02
9.400000e-07	-1.203300e-06	-2.204058e-09	-8.825546e+00	-1.422402e+02
9.500000e-07	-1.151872e-06	-2.174426e-09	-8.448353e+00	-1.396543e+02
9.600000e-07	-1.100205e-06	-2.128793e-09	-8.069405e+00	-1.369890e+02
9.700000e-07	-1.048359e-06	-2.077909e-09	-7.689140e+00	-1.342428e+02
9.800000e-07	-9.964212e-07	-2.037928e-09	-7.308205e+00	-1.314137e+02
9.900000e-07	-9.443743e-07	-2.002599e-09	-6.926470e+00	-1.284998e+02
1.000000e-06	-8.921626e-07	-1.960525e-09	-6.543526e+00	-1.254990e+02
1.010000e-06	-8.396125e-07	-1.906537e-09	-6.158099e+00	-1.224083e+02
1.020000e-06	-7.867781e-07	-1.853863e-09	-5.770588e+00	-1.192246e+02
1.030000e-06	-7.338946e-07	-1.805869e-09	-5.382716e+00	-1.159439e+02
1.040000e-06	-6.808915e-07	-1.754686e-09	-4.993967e+00	-1.125618e+02
1.050000e-06	-6.276973e-07	-1.699046e-09	-4.603817e+00	-1.090730e+02
1.060000e-06	-5.743731e-07	-1.638340e-09	-4.212713e+00	-1.054719e+02
1.070000e-06	-5.209761e-07	-1.581136e-09	-3.821075e+00	-1.017526e+02
1.080000e-06	-4.675222e-07	-1.526040e-09	-3.429020e+00	-9.790862e+01
1.090000e-06	-4.139812e-07	-1.465652e-09	-3.036326e+00	-9.393388e+01
1.100000e-06	-3.603523e-07	-1.400549e-09	-2.642987e+00	-8.982232e+01
1.110000e-06	-3.066474e-07	-1.331246e-09	-2.249091e+00	-8.556846e+01
1.120000e-06	-2.529362e-07	-1.266266e-09	-1.855149e+00	-8.116758e+01
1.130000e-06	-1.992542e-07	-1.200709e-09	-1.461421e+00	-7.661596e+01
1.140000e-06	-1.455597e-07	-1.126797e-09	-1.067601e+00	-7.191112e+01
1.150000e-06	-9.184548e-08	-1.047805e-09	-6.736364e-01	-6.705202e+01
1.160000e-06	-3.811691e-08	-9.696181e-10	-2.795667e-01	-6.203918e+01
1.170000e-06	1.561026e-08	-8.946089e-10	1.144928e-01	-5.687480e+01
1.180000e-06	6.932297e-08	-8.151217e-10	5.084461e-01	-5.156283e+01
1.190000e-06	1.229770e-07	-7.305467e-10	9.019695e-01	-4.610888e+01
1.200000e-06	1.766099e-07	-6.446011e-10	1.295338e+00	-4.052027e+01
1.210000e-06	2.302462e-07	-5.558039e-10	1.688730e+00	-3.480586e+01
1.220000e-06	2.838169e-07	-4.667243e-10	2.081642e+00	-2.897591e+01
1.230000e-06	3.373149e-07	-3.754327e-10	2.474020e+00	-2.304195e+01
1.240000e-06	3.907250e-07	-2.805501e-10	2.865755e+00	-1.701659e+01
1.250000e-06	4.440441e-07	-1.854372e-10	3.256821e+00	-1.091327e+01
1.260000e-06	4.973238e-07	-9.026716e-11	3.647599e+00	-4.746135e+00
1.270000e-06	5.505583e-07	4.367078e-12	4.038045e+00	1.470206e+00
1.280000e-06	6.036666e-07	1.018430e-10	4.427565e+00	7.720835e+00
1.290000e-06	6.566151e-07	1.972551e-10	4.815913e+00	1.399069e+01
1.300000e-06	7.094201e-07	2.910479e-10	5.203209e+00	2.026471e+01
1.310000e-06	7.620430e-07	3.895786e-10	5.589169e+00	2.652795e+01
1.320000e-06	8.144947e-07	4.862401e-10	5.973874e+00	3.276569e+01
1.330000e-06	8.668073e-07	5.792994e-10	6.357558e+00	3.896352e+01
1.340000e-06	9.189555e-07	6.720946e-10	6.740037e+00	4.510743e+01
1.350000e-06	9.709645e-07	7.685982e-10	7.121494e+00	5.118389e+01
1.360000e-06	1.022863e-06	8.634497e-10	7.502140e+00	5.717990e+01
1.370000e-06	1.074616e-06	9.520855e-10	7.881720e+00	6.308310e+01
1.380000e-06	1.126160e-06	1.039545e-09	8.259766e+00	6.888184e+01
1.390000e-06	1.177483e-06	1.127400e-09	8.636192e+00	7.456527e+01
1.400000e-06	1.228597e-06	1.215493e-09	9.011087e+00	8.012345e+01
1.410000e-06	1.279472e-06	1.297933e-09	9.384225e+00	8.554745e+01
1.420000e-06	1.330039e-06	1.374883e-09	9.755113e+00	9.082945e+01
1.430000e-06	1.380134e-06	1.452601e-09	1.012253e+01	9.596281e+01
1.440000e-06	1.429709e-06	1.530765e-09	1.048613e+01	1.009422e+02
1.450000e-06	1.478859e-06	1.606204e-09	1.084662e+01	1.057637e+02
1.460000e-06	1.527607e-06	1.675839e-09	1.120416e+01	1.104247e+02
1.470000e-06	1.575971e-06	1.742481e-09	1.155889e+01	1.149241e+02
1.480000e-06	1.624050e-06	1.809894e-09	1.191152e+01	1.192621e+02
1.490000e-06	1.671954e-06	1.874403e-09	1.226287e+01	1.234404e+02
1.500000e-06	1.719701e-06	1.933948e-09	1.261306e+01	1.274617e+02
1.510000e-06	1.767247e-06	1.989259e-09	1.296179e+01	1.313301e+02
1.520000e-06	1.814536e-06	2.044417e-09	1.330863e+01	1.350504e+02
1.530000e-06	1.861490e-06	2.100799e-09	1.365301e+01	1.386284e+02
1.540000e-06	1.908016e-06	2.154426e-09	1.399425e+01	1.420701e+02
1.550000e-06	1.954141e-06	2.203733e-09	1.433255e+01	1.453822e+02
1.560000e-06	1.999944e-06	2.251873e-09	1.466850e+01	1.485713e+02
1.570000e-06	2.045419e-06	2.299119e-09	1.500203e+01	1.516441e+02
1.580000e-06	2.090586e-06	2.345357e-09	1.533331e+01	1.546068e+02
1.590000e-06	2.135358e-06	2.389865e-09	1.566168e+01	1.574655e+02
1.600000e-06	2.179709e-06	2.431037e-09	1.598698e+01	1.602255e+02
1.610000e-06	2.223760e-06	2.470817e-09	1.631007e+01	1.628916e+02
1.620000e-06	2.267576e-06	2.510325e-09	1.663143e+01	1.654679e+02
1.630000e-06	2.311165e-06	2.548379e-09	1.695114e+01	1.679581e+02
1.640000e-06	2.354403e-06	2.583892e-09	1.726826e+01	1.703650e+02
1.650000e-06	2.397177e-06	2.617706e-09	1.758199e+01	1.726912e+02
1.660000e-06	2.439341e-06	2.651040e-09	1.789124e+01	1.749387e+02
1.670000e-06	2.480768e-06	2.685019e-09	1.819508e+01	1.771092e+02
1.680000e-06	2.521450e-06	2.717162e-09	1.849346e+01	1.792045e+02
1.690000e-06	2.561610e-06	2.746401e-09	1.878801e+01	1.812259e+02
1.700000e-06	2.601464e-06	2.774755e-09	1.908032e+01	1.831753e+02
1.710000e-06	2.641076e-06	2.803103e-09	1.937085e+01	1.850544e+02
1.720000e-06	2.680388e-06	2.830662e-09	1.965918e+01	1.868653e+02
1.730000e-06	2.719231e-06	2.856128e-09	1.994408e+01	1.886103e+02
1.740000e-06	2.757533e-06	2.881169e-09	2.022500e+01	1.902921e+02
1.750000e-06	2.795274e-06	2.907233e-09	2.050181e+01	1.919134e+02
1.760000e-06	2.832517e-06	2.933083e-09	2.077497e+01	1.934775e+02
1.770000e-06	2.869353e-06	2.959313e-09	2.104513e+01	1.949874e+02
1.780000e-06	2.905734e-06	2.985011e-09	2.131197e+01	1.964464e+02
1.790000e-06	2.941688e-06	3.008194e-09	2.157568e+01	1.978578e+02
1.800000e-06	2.977360e-06	3.031611e-09	2.183731e+01	1.992246e+02
1.810000e-06	3.012691e-06	3.054145e-09	2.209645e+01	2.005497e+02
1.820000e-06	3.047386e-06	3.075318e-09	2.235091e+01	2.018357e+02
1.830000e-06	3.081257e-06	3.094972e-09	2.259934e+01	2.030847e+02
1.840000e-06	3.114301e-06	3.113279e-09	2.284170e+01	2.042986e+02
1.850000e-06	3.146609e-06	3.131902e-09	2.307866e+01	2.054789e+02
1.860000e-06	3.178445e-06	3.151966e-09	2.331216e+01	2.066265e+02
1.870000e-06	3.209963e-06	3.173238e-09	2.354333e+01	2.077422e+02
1.880000e-06	3.241037e-06	3.191026e-09	2.377124e+01	2.088264e+02
1.890000e-06	3.271506e-06	3.207345e-09	2.399471e+01	2.098793e+02
1.900000e-06	3.301359e-06	3.224722e-09	2.421367e+01	2.109011e+02
1.910000e-06	3.330614e-06	3.242831e-09	2.442824e+01	2.118918e+02
1.920000e-06	3.359227e-06	3.259335e-09	2.463809e+01	2.128513e+02
1.930000e-06	3.387330e-06	3.273095e-09	2.484422e+01	2.137799e+02
1.940000e-06	3.415079e-06	3.286825e-09	2.504774e+01	2.146778e+02
1.950000e-06	3.442437e-06	3.301873e-09	2.524840e+01	2.155453e+02
1.960000e-06	3.469107e-06	3.317528e-09	2.544400e+01	2.163831e+02
1.970000e-06	3.494795e-06	3.331060e-09	2.563242e+01	2.171919e+02
1.980000e-06	3.519574e-06	3.344382e-09	2.581415e+01	2.179726e+02
1.990000e-06	3.543659e-06	3.358430e-09	2.599081e+01	2.187261e+02
2.000000e-06	3.567197e-06	3.371787e-09	2.616344e+01	2.194535e+02
2.010000e-06	3.590177e-06	3.384998e-09	2.633199e+01	2.201557e+02
2.020000e-06	3.612575e-06	3.397681e-09	2.649626e+01	2.208337e+02
2.030000e-06	3.634340e-06	3.408840e-09	2.665590e+01	2.214882e+02
2.040000e-06	3.655451e-06	3.419631e-09	2.681074e+01	2.221200e+02
2.050000e-06	3.675969e-06	3.431968e-09	2.696123e+01	2.227294e+02
2.060000e-06	3.695990e-06	3.442530e-09	2.710807e+01	2.233168e+02
2.070000e-06	3.715601e-06	3.450904e-09	2.725190e+01	2.238822e+02
2.080000e-06	3.734721e-06	3.460081e-09	2.739214e+01	2.244254e+02
2.090000e-06	3.753167e-06	3.469733e-09	2.752743e+01	2.249463e+02
2.100000e-06	3.770840e-06	3.479299e-09	2.765706e+01	2.254444e+02
2.110000e-06	3.787833e-06	3.488222e-09	2.778169e+01	2.259193e+02
2.120000e-06	3.804257e-06	3.494633e-09	2.790215e+01	2.263708e+02
2.130000e-06	3.819977e-06	3.500826e-09	2.801745e+01	2.267983e+02
2.140000e-06	3.834832e-06	3.509885e-09	2.812640e+01	2.272017e+02
2.150000e-06	3.848885e-06	3.519682e-09	2.822947e+01	2.275810e+02
2.160000e-06	3.862266e-06	3.526158e-09	2.832761e+01	2.279363e+02
2.170000e-06	3.874984e-06	3.531405e-09	2.842089e+01	2.282678e+02
2.180000e-06	3.887010e-06	3.538930e-09	2.850910e+01	2.285762e+02
2.190000e-06	3.898313e-06	3.546260e-09	2.859200e+01	2.288620e+02
2.200000e-06	3.908756e-06	3.550610e-09	2.866859e+01	2.291260e+02
2.210000e-06	3.918205e-06	3.553020e-09	2.873789e+01	2.293693e+02
2.220000e-06	3.926681e-06	3.557352e-09	2.880006e+01	2.295928e+02
2.230000e-06	3.934459e-06	3.562414e-09	2.885711e+01	2.297976e+02
2.240000e-06	3.941670e-06	3.568089e-09	2.890999e+01	2.299846e+02
2.250000e-06	3.948245e-06	3.571512e-09	2.895822e+01	2.301549e+02
2.260000e-06	3.954184e-06	3.572325e-09	2.900178e+01	2.303092e+02
2.270000e-06	3.959433e-06	3.574606e-09	2.904028e+01	2.304483e+02
2.280000e-06	3.964025e-06	3.577715e-09	2.907396e+01	2.305729e+02
2.290000e-06	3.968057e-06	3.580492e-09	2.910353e+01	2.306835e+02
2.300000e-06	3.971585e-06	3.580826e-09	2.912941e+01	2.307805e+02
2.310000e-06	3.974386e-06	3.581964e-09	2.914995e+01	2.308642e+02
2.320000e-06	3.976163e-06	3.585673e-09	2.916298e+01	2.309348e+02
2.330000e-06	3.976941e-06	3.590373e-09	2.916869e+01	2.309925e+02
2.340000e-06	3.977017e-06	3.593518e-09	2.916925e+01	2.310375e+02
2.350000e-06	3.976641e-06	3.593849e-09	2.916649e+01	2.310697e+02
2.360000e-06	3.975657e-06	3.596217e-09	2.915928e+01	2.310892e+02
2.370000e-06	3.973979e-06	3.598176e-09	2.914697e+01	2.310960e+02
2.380000e-06	3.971750e-06	3.595434e-09	2.913062e+01	2.310899e+02
2.390000e-06	3.968876e-06	3.594151e-09	2.910954e+01	2.310706e+02
2.400000e-06	3.965293e-06	3.590507e-09	2.908326e+01	2.310378e+02
2.410000e-06	3.961233e-06	3.575880e-09	2.905348e+01	2.309908e+02
2.420000e-06	3.956780e-06	3.594234e-09	2.902082e+01	2.309289e+02
2.430000e-06	3.951579e-06	3.644442e-09	2.898267e+01	2.308511e+02
2.440000e-06	3.945190e-06	3.612609e-09	2.893581e+01	2.307559e+02
2.450000e-06	3.937613e-06	3.532952e-09	2.888024e+01	2.306420e+02
2.460000e-06	3.929314e-06	3.529955e-09	2.881937e+01	2.305074e+02
2.470000e-06	3.920840e-06	3.649290e-09	2.875722e+01	2.303503e+02
2.480000e-06	3.912009e-06	3.615775e-09	2.869245e+01	2.301686e+02
2.490000e-06	3.902139e-06	3.512292e-09	2.862006e+01	2.299601e+02
2.500000e-06	3.891447e-06	3.503906e-09	2.854164e+01	2.297229e+02
2.510000e-06	3.880542e-06	3.505426e-09	2.846166e+01	2.294550e+02
2.520000e-06	3.868934e-06	3.508082e-09	2.837652e+01	2.291551e+02
2.530000e-06	3.855910e-06	3.532970e-09	2.828100e+01	2.288219e+02
2.540000e-06	3.842085e-06	3.528426e-09	2.817960e+01	2.284549e+02
2.550000e-06	3.828082e-06	3.416791e-09	2.807689e+01	2.280543e+02
2.560000e-06	3.813248e-06	3.529111e-09	2.796809e+01	2.276207e+02
2.570000e-06	3.797299e-06	3.626487e-09	2.785111e+01	2.271557e+02
2.580000e-06	3.780791e-06	3.418864e-09	2.773004e+01	2.266613e+02
2.590000e-06	3.763788e-06	3.304809e-09	2.760533e+01	2.261403e+02
2.600000e-06	3.746043e-06	3.466201e-09	2.747518e+01	2.255963e+02
2.610000e-06	3.727556e-06	3.469071e-09	2.733959e+01	2.250328e+02
2.620000e-06	3.708380e-06	3.301007e-09	2.719895e+01	2.244540e+02
2.630000e-06	3.688593e-06	3.361139e-09	2.705382e+01	2.238641e+02
2.640000e-06	3.668328e-06	3.390608e-09	2.690518e+01	2.232671e+02
2.650000e-06	3.647504e-06	3.325969e-09	2.675245e+01	2.226667e+02
2.660000e-06	3.626000e-06	3.356761e-09	2.659473e+01	2.220662e+02
2.670000e-06	3.603585e-06	3.339757e-09	2.643033e+01	2.214683e+02
2.680000e-06	3.580115e-06	3.285784e-09	2.625819e+01	2.208747e+02
2.690000e-06	3.556043e-06	3.286529e-09	2.608163e+01	2.202863e+02
2.700000e-06	3.531505e-06	3.342682e-09	2.590166e+01	2.197033e+02
2.710000e-06	3.506181e-06	3.340466e-09	2.571592e+01	2.191245e+02
2.720000e-06	3.480255e-06	3.239100e-09	2.552577e+01	2.185483e+02
2.730000e-06	3.453964e-06	3.221122e-09	2.533294e+01	2.179721e+02
2.740000e-06	3.427020e-06	3.320743e-09	2.513532e+01	2.173926e+02
2.750000e-06	3.399356e-06	3.324200e-09	2.493242e+01	2.168061e+02
2.760000e-06	3.371309e-06	3.203838e-09	2.472671e+01	2.162086e+02
2.770000e-06	3.342908e-06	3.198191e-09	2.451841e+01	2.155962e+02
2.780000e-06	3.313832e-06	3.280111e-09	2.430515e+01	2.149649e+02
2.790000e-06	3.283933e-06	3.256323e-09	2.408585e+01	2.143110e+02
2.800000e-06	3.253253e-06	3.197103e-09	2.386084e+01	2.136316e+02
2.810000e-06	3.221876e-06	3.191817e-09	2.363070e+01	2.129241e+02
2.820000e-06	3.189980e-06	3.202145e-09	2.339676e+01	2.121867e+02
2.830000e-06	3.157680e-06	3.201619e-09	2.315986e+01	2.114182e+02
2.840000e-06	3.124857e-06	3.177401e-09	2.291912e+01	2.106184e+02
2.850000e-06	3.091440e-06	3.160234e-09	2.267403e+01	2.097875e+02
2.860000e-06	3.057530e-06	3.140481e-09	2.242532e+01	2.089263e+02
2.870000e-06	3.023211e-06	3.130159e-09	2.217360e+01	2.080359e+02
2.880000e-06	2.988361e-06	3.144980e-09	2.191799e+01	2.071178e+02
2.890000e-06	2.952834e-06	3.119532e-09	2.165743e+01	2.061735e+02
2.900000e-06	2.916861e-06	3.076426e-09	2.139358e+01	2.052045e+02
2.910000e-06	2.880645e-06	3.067690e-09	2.112796e+01	2.042121e+02
2.920000e-06	2.844064e-06	3.081123e-09	2.085965e+01	2.031971e+02
2.930000e-06	2.806902e-06	3.062182e-09	2.058710e+01	2.021599e+02
2.940000e-06	2.768983e-06	3.013278e-09	2.030898e+01	2.011006e+02
2.950000e-06	2.730226e-06	3.014823e-09	2.002471e+01	2.000184e+02
