# Temperatura_=_20.0
# Concentracion g/m^3_=_9000.0
# C_Vs_to_Am_M_A/Vsm_=_65563218390.804596
# pendiente_HvsI_1/m_=_3716.3
# ordenada_HvsI_A/m_=_1297.0
# frecuencia_Hz_=_212896.53855311527

Tiempo_(s)	Campo_(V.s)	Magnetizacion_(V.s)	Campo_(kA/m)	Magnetizacion_(A/m)
0.000000e+00	-3.978567e-06	-3.395183e-09	-2.913790e+01	-2.299519e+02
1.000000e-08	-3.978434e-06	-3.395656e-09	-2.913692e+01	-2.299719e+02
2.000000e-08	-3.977696e-06	-3.395026e-09	-2.913152e+01	-2.299590e+02
3.000000e-08	-3.976038e-06	-3.392308e-09	-2.911938e+01	-2.299109e+02
4.000000e-08	-3.973412e-06	-3.389630e-09	-2.910014e+01	-2.298263e+02
5.000000e-08	-3.970028e-06	-3.386724e-09	-2.907536e+01	-2.297053e+02
6.000000e-08	-3.966112e-06	-3.385718e-09	-2.904668e+01	-2.295498e+02
7.000000e-08	-3.961673e-06	-3.388601e-09	-2.901417e+01	-2.293626e+02
8.000000e-08	-3.956576e-06	-3.388820e-09	-2.897684e+01	-2.291484e+02
9.000000e-08	-3.950705e-06	-3.384019e-09	-2.893384e+01	-2.289126e+02
1.000000e-07	-3.943917e-06	-3.386655e-09	-2.888413e+01	-2.286618e+02
1.100000e-07	-3.936402e-06	-3.391106e-09	-2.882909e+01	-2.284027e+02
1.200000e-07	-3.928511e-06	-3.377716e-09	-2.877130e+01	-2.281423e+02
1.300000e-07	-3.920119e-06	-3.345946e-09	-2.870984e+01	-2.278870e+02
1.400000e-07	-3.910888e-06	-3.355104e-09	-2.864223e+01	-2.276427e+02
1.500000e-07	-3.900854e-06	-3.388836e-09	-2.856875e+01	-2.274137e+02
1.600000e-07	-3.890031e-06	-3.375747e-09	-2.848948e+01	-2.272030e+02
1.700000e-07	-3.878177e-06	-3.359187e-09	-2.840267e+01	-2.270119e+02
1.800000e-07	-3.865502e-06	-3.366642e-09	-2.830984e+01	-2.268399e+02
1.900000e-07	-3.852406e-06	-3.382391e-09	-2.821393e+01	-2.266846e+02
2.000000e-07	-3.838552e-06	-3.392052e-09	-2.811247e+01	-2.265419e+02
2.100000e-07	-3.823405e-06	-3.441694e-09	-2.800153e+01	-2.264063e+02
2.200000e-07	-3.807344e-06	-3.475968e-09	-2.788391e+01	-2.262710e+02
2.300000e-07	-3.790833e-06	-3.466240e-09	-2.776299e+01	-2.261285e+02
2.400000e-07	-3.773685e-06	-3.498205e-09	-2.763740e+01	-2.259711e+02
2.500000e-07	-3.755779e-06	-3.536540e-09	-2.750626e+01	-2.257910e+02
2.600000e-07	-3.737242e-06	-3.522325e-09	-2.737050e+01	-2.255810e+02
2.700000e-07	-3.718145e-06	-3.497167e-09	-2.723064e+01	-2.253350e+02
2.800000e-07	-3.698541e-06	-3.534865e-09	-2.708706e+01	-2.250480e+02
2.900000e-07	-3.678434e-06	-3.547168e-09	-2.693981e+01	-2.247164e+02
3.000000e-07	-3.657694e-06	-3.511014e-09	-2.678791e+01	-2.243385e+02
3.100000e-07	-3.636239e-06	-3.498222e-09	-2.663078e+01	-2.239140e+02
3.200000e-07	-3.614092e-06	-3.506277e-09	-2.646858e+01	-2.234445e+02
3.300000e-07	-3.591361e-06	-3.504674e-09	-2.630211e+01	-2.229327e+02
3.400000e-07	-3.568129e-06	-3.478800e-09	-2.613197e+01	-2.223826e+02
3.500000e-07	-3.544335e-06	-3.465427e-09	-2.595770e+01	-2.217988e+02
3.600000e-07	-3.520020e-06	-3.466654e-09	-2.577962e+01	-2.211867e+02
3.700000e-07	-3.495096e-06	-3.445917e-09	-2.559709e+01	-2.205515e+02
3.800000e-07	-3.469221e-06	-3.436626e-09	-2.540759e+01	-2.198982e+02
3.900000e-07	-3.442359e-06	-3.450188e-09	-2.521086e+01	-2.192311e+02
4.000000e-07	-3.414849e-06	-3.424262e-09	-2.500939e+01	-2.185537e+02
4.100000e-07	-3.386924e-06	-3.398635e-09	-2.480487e+01	-2.178684e+02
4.200000e-07	-3.358449e-06	-3.418306e-09	-2.459633e+01	-2.171763e+02
4.300000e-07	-3.329348e-06	-3.415125e-09	-2.438320e+01	-2.164775e+02
4.400000e-07	-3.299754e-06	-3.372094e-09	-2.416646e+01	-2.157709e+02
4.500000e-07	-3.269697e-06	-3.360947e-09	-2.394633e+01	-2.150544e+02
4.600000e-07	-3.239073e-06	-3.373911e-09	-2.372206e+01	-2.143252e+02
4.700000e-07	-3.207900e-06	-3.357246e-09	-2.349375e+01	-2.135801e+02
4.800000e-07	-3.176295e-06	-3.331673e-09	-2.326229e+01	-2.128154e+02
4.900000e-07	-3.144316e-06	-3.317369e-09	-2.302808e+01	-2.120279e+02
5.000000e-07	-3.111904e-06	-3.310470e-09	-2.279070e+01	-2.112145e+02
5.100000e-07	-3.078846e-06	-3.301223e-09	-2.254859e+01	-2.103726e+02
5.200000e-07	-3.044868e-06	-3.280790e-09	-2.229975e+01	-2.095005e+02
5.300000e-07	-3.009990e-06	-3.263719e-09	-2.204431e+01	-2.085973e+02
5.400000e-07	-2.974559e-06	-3.252068e-09	-2.178483e+01	-2.076628e+02
5.500000e-07	-2.938811e-06	-3.235418e-09	-2.152302e+01	-2.066977e+02
5.600000e-07	-2.902715e-06	-3.220892e-09	-2.125866e+01	-2.057032e+02
5.700000e-07	-2.866149e-06	-3.208015e-09	-2.099086e+01	-2.046814e+02
5.800000e-07	-2.829088e-06	-3.184073e-09	-2.071944e+01	-2.036342e+02
5.900000e-07	-2.791540e-06	-3.160635e-09	-2.044445e+01	-2.025638e+02
6.000000e-07	-2.753519e-06	-3.155257e-09	-2.016599e+01	-2.014723e+02
6.100000e-07	-2.714893e-06	-3.140491e-09	-1.988311e+01	-2.003612e+02
6.200000e-07	-2.675749e-06	-3.107746e-09	-1.959642e+01	-1.992316e+02
6.300000e-07	-2.636288e-06	-3.091995e-09	-1.930743e+01	-1.980839e+02
6.400000e-07	-2.596517e-06	-3.084477e-09	-1.901615e+01	-1.969176e+02
6.500000e-07	-2.556471e-06	-3.062391e-09	-1.872287e+01	-1.957315e+02
6.600000e-07	-2.515948e-06	-3.037644e-09	-1.842609e+01	-1.945237e+02
6.700000e-07	-2.474747e-06	-3.021322e-09	-1.812434e+01	-1.932916e+02
6.800000e-07	-2.432855e-06	-3.004338e-09	-1.781754e+01	-1.920322e+02
6.900000e-07	-2.390231e-06	-2.979222e-09	-1.750538e+01	-1.907422e+02
7.000000e-07	-2.347019e-06	-2.954225e-09	-1.718890e+01	-1.894182e+02
7.100000e-07	-2.303435e-06	-2.932395e-09	-1.686971e+01	-1.880568e+02
7.200000e-07	-2.259583e-06	-2.910917e-09	-1.654854e+01	-1.866550e+02
7.300000e-07	-2.215467e-06	-2.888533e-09	-1.622545e+01	-1.852104e+02
7.400000e-07	-2.170965e-06	-2.864196e-09	-1.589953e+01	-1.837209e+02
7.500000e-07	-2.126074e-06	-2.840638e-09	-1.557076e+01	-1.821853e+02
7.600000e-07	-2.080868e-06	-2.817880e-09	-1.523969e+01	-1.806029e+02
7.700000e-07	-2.035301e-06	-2.794070e-09	-1.490597e+01	-1.789735e+02
7.800000e-07	-1.989349e-06	-2.767807e-09	-1.456943e+01	-1.772975e+02
7.900000e-07	-1.943050e-06	-2.736326e-09	-1.423035e+01	-1.755759e+02
8.000000e-07	-1.896407e-06	-2.704636e-09	-1.388875e+01	-1.738093e+02
8.100000e-07	-1.849482e-06	-2.677869e-09	-1.354508e+01	-1.719990e+02
8.200000e-07	-1.802297e-06	-2.651600e-09	-1.319951e+01	-1.701455e+02
8.300000e-07	-1.754845e-06	-2.619461e-09	-1.285199e+01	-1.682494e+02
8.400000e-07	-1.707175e-06	-2.584820e-09	-1.250286e+01	-1.663107e+02
8.500000e-07	-1.659270e-06	-2.557429e-09	-1.215203e+01	-1.643286e+02
8.600000e-07	-1.611083e-06	-2.529549e-09	-1.179912e+01	-1.623020e+02
8.700000e-07	-1.562550e-06	-2.493308e-09	-1.144367e+01	-1.602288e+02
8.800000e-07	-1.513595e-06	-2.456018e-09	-1.108514e+01	-1.581065e+02
8.900000e-07	-1.464269e-06	-2.422174e-09	-1.072389e+01	-1.559321e+02
9.000000e-07	-1.414608e-06	-2.389502e-09	-1.036019e+01	-1.537019e+02
9.100000e-07	-1.364549e-06	-2.353828e-09	-9.993571e+00	-1.514123e+02
9.200000e-07	-1.314009e-06	-2.315466e-09	-9.623427e+00	-1.490590e+02
9.300000e-07	-1.263003e-06	-2.275714e-09	-9.249879e+00	-1.466382e+02
9.400000e-07	-1.211699e-06	-2.237994e-09	-8.874138e+00	-1.441459e+02
9.500000e-07	-1.160255e-06	-2.201878e-09	-8.497379e+00	-1.415783e+02
9.600000e-07	-1.108629e-06	-2.161380e-09	-8.119287e+00	-1.389320e+02
9.700000e-07	-1.056777e-06	-2.115625e-09	-7.739538e+00	-1.362035e+02
9.800000e-07	-1.004736e-06	-2.069586e-09	-7.358401e+00	-1.333898e+02
9.900000e-07	-9.524953e-07	-2.027548e-09	-6.975805e+00	-1.304881e+02
1.000000e-06	-9.000821e-07	-1.984778e-09	-6.591946e+00	-1.274955e+02
1.010000e-06	-8.474339e-07	-1.935366e-09	-6.206365e+00	-1.244091e+02
1.020000e-06	-7.945950e-07	-1.882887e-09	-5.819388e+00	-1.212258e+02
1.030000e-06	-7.416773e-07	-1.831104e-09	-5.431834e+00	-1.179423e+02
1.040000e-06	-6.886010e-07	-1.778910e-09	-5.043118e+00	-1.145548e+02
1.050000e-06	-6.353171e-07	-1.724723e-09	-4.652882e+00	-1.110592e+02
1.060000e-06	-5.819212e-07	-1.667457e-09	-4.261826e+00	-1.074509e+02
1.070000e-06	-5.284878e-07	-1.609016e-09	-3.870495e+00	-1.037249e+02
1.080000e-06	-4.750105e-07	-1.549319e-09	-3.478842e+00	-9.987588e+01
1.090000e-06	-4.214577e-07	-1.486841e-09	-3.086637e+00	-9.589827e+01
1.100000e-06	-3.678216e-07	-1.421907e-09	-2.693821e+00	-9.178664e+01
1.110000e-06	-3.141617e-07	-1.353337e-09	-2.300831e+00	-8.753581e+01
1.120000e-06	-2.605132e-07	-1.282801e-09	-1.907925e+00	-8.314110e+01
1.130000e-06	-2.068111e-07	-1.211695e-09	-1.514626e+00	-7.859866e+01
1.140000e-06	-1.530370e-07	-1.137732e-09	-1.120799e+00	-7.390571e+01
1.150000e-06	-9.925451e-08	-1.060556e-09	-7.269119e-01	-6.906081e+01
1.160000e-06	-4.547726e-08	-9.823384e-10	-3.330626e-01	-6.406407e+01
1.170000e-06	8.301313e-09	-9.039383e-10	6.079646e-02	-5.891729e+01
1.180000e-06	6.203278e-08	-8.232605e-10	4.543105e-01	-5.362410e+01
1.190000e-06	1.157297e-07	-7.387824e-10	8.475718e-01	-4.818995e+01
1.200000e-06	1.694320e-07	-6.517114e-10	1.240872e+00	-4.262213e+01
1.210000e-06	2.231120e-07	-5.626758e-10	1.634009e+00	-3.692961e+01
1.220000e-06	2.767384e-07	-4.729247e-10	2.026754e+00	-3.112293e+01
1.230000e-06	3.303650e-07	-3.804159e-10	2.419500e+00	-2.521397e+01
1.240000e-06	3.839643e-07	-2.868272e-10	2.812045e+00	-1.921568e+01
1.250000e-06	4.374302e-07	-1.927053e-10	3.203615e+00	-1.314188e+01
1.260000e-06	4.907932e-07	-9.597441e-11	3.594430e+00	-7.006947e+00
1.270000e-06	5.440581e-07	7.207469e-14	3.984527e+00	-8.255530e-01
1.280000e-06	5.972265e-07	9.507516e-11	4.373918e+00	5.387532e+00
1.290000e-06	6.503007e-07	1.893151e-10	4.762618e+00	1.161766e+01
1.300000e-06	7.031917e-07	2.840020e-10	5.149976e+00	1.785044e+01
1.310000e-06	7.559606e-07	3.810881e-10	5.536441e+00	2.407188e+01
1.320000e-06	8.085838e-07	4.782826e-10	5.921838e+00	3.026841e+01
1.330000e-06	8.609434e-07	5.729316e-10	6.305305e+00	3.642695e+01
1.340000e-06	9.130855e-07	6.676059e-10	6.687179e+00	4.253487e+01
1.350000e-06	9.651039e-07	7.628250e-10	7.068147e+00	4.858002e+01
1.360000e-06	1.017045e-06	8.558912e-10	7.448546e+00	5.455064e+01
1.370000e-06	1.068868e-06	9.451450e-10	7.828084e+00	6.043539e+01
1.380000e-06	1.120554e-06	1.032308e-09	8.206621e+00	6.622334e+01
1.390000e-06	1.172065e-06	1.119025e-09	8.583868e+00	7.190396e+01
1.400000e-06	1.223314e-06	1.205159e-09	8.959202e+00	7.746721e+01
1.410000e-06	1.274311e-06	1.288444e-09	9.332692e+00	8.290364e+01
1.420000e-06	1.324953e-06	1.369420e-09	9.703583e+00	8.820449e+01
1.430000e-06	1.375137e-06	1.449408e-09	1.007111e+01	9.336183e+01
1.440000e-06	1.424915e-06	1.526580e-09	1.043568e+01	9.836878e+01
1.450000e-06	1.474242e-06	1.599809e-09	1.079693e+01	1.032197e+02
1.460000e-06	1.523154e-06	1.669744e-09	1.115515e+01	1.079102e+02
1.470000e-06	1.571757e-06	1.737019e-09	1.151110e+01	1.124376e+02
1.480000e-06	1.620077e-06	1.802471e-09	1.186498e+01	1.168007e+02
1.490000e-06	1.668105e-06	1.864474e-09	1.221673e+01	1.210000e+02
1.500000e-06	1.715900e-06	1.923215e-09	1.256676e+01	1.250377e+02
1.510000e-06	1.763521e-06	1.981138e-09	1.291553e+01	1.289177e+02
1.520000e-06	1.810929e-06	2.038220e-09	1.326273e+01	1.326453e+02
1.530000e-06	1.858011e-06	2.094758e-09	1.360755e+01	1.362269e+02
1.540000e-06	1.904715e-06	2.148227e-09	1.394960e+01	1.396701e+02
1.550000e-06	1.951007e-06	2.198246e-09	1.428862e+01	1.429830e+02
1.560000e-06	1.996866e-06	2.246620e-09	1.462448e+01	1.461741e+02
1.570000e-06	2.042406e-06	2.293068e-09	1.495801e+01	1.492520e+02
1.580000e-06	2.087623e-06	2.337593e-09	1.528916e+01	1.522246e+02
1.590000e-06	2.132446e-06	2.381512e-09	1.561743e+01	1.550996e+02
1.600000e-06	2.176892e-06	2.424841e-09	1.594294e+01	1.578834e+02
1.610000e-06	2.221008e-06	2.467197e-09	1.626603e+01	1.605814e+02
1.620000e-06	2.264842e-06	2.509154e-09	1.658706e+01	1.631980e+02
1.630000e-06	2.308472e-06	2.548519e-09	1.690659e+01	1.657361e+02
1.640000e-06	2.351917e-06	2.584845e-09	1.722477e+01	1.681975e+02
1.650000e-06	2.394923e-06	2.619415e-09	1.753974e+01	1.705832e+02
1.660000e-06	2.437268e-06	2.653961e-09	1.784986e+01	1.728931e+02
1.670000e-06	2.478867e-06	2.688729e-09	1.815452e+01	1.751266e+02
1.680000e-06	2.519694e-06	2.720735e-09	1.845352e+01	1.772830e+02
1.690000e-06	2.559973e-06	2.751703e-09	1.874851e+01	1.793615e+02
1.700000e-06	2.599917e-06	2.783062e-09	1.904105e+01	1.813615e+02
1.710000e-06	2.639611e-06	2.813357e-09	1.933176e+01	1.832832e+02
1.720000e-06	2.678992e-06	2.841543e-09	1.962018e+01	1.851274e+02
1.730000e-06	2.717913e-06	2.868600e-09	1.990523e+01	1.868959e+02
1.740000e-06	2.756348e-06	2.895902e-09	2.018671e+01	1.885915e+02
1.750000e-06	2.794319e-06	2.922082e-09	2.046480e+01	1.902177e+02
1.760000e-06	2.831809e-06	2.947571e-09	2.073937e+01	1.917789e+02
1.770000e-06	2.868737e-06	2.973600e-09	2.100981e+01	1.932804e+02
1.780000e-06	2.905153e-06	2.999997e-09	2.127651e+01	1.947276e+02
1.790000e-06	2.941198e-06	3.024746e-09	2.154050e+01	1.961261e+02
1.800000e-06	2.976954e-06	3.048157e-09	2.180237e+01	1.974816e+02
1.810000e-06	3.012374e-06	3.071650e-09	2.206177e+01	1.987990e+02
1.820000e-06	3.047259e-06	3.094558e-09	2.231726e+01	2.000829e+02
1.830000e-06	3.081432e-06	3.115190e-09	2.256753e+01	2.013367e+02
1.840000e-06	3.114704e-06	3.134920e-09	2.281121e+01	2.025631e+02
1.850000e-06	3.147152e-06	3.154668e-09	2.304885e+01	2.037633e+02
1.860000e-06	3.179118e-06	3.175163e-09	2.328296e+01	2.049379e+02
1.870000e-06	3.210735e-06	3.195748e-09	2.351451e+01	2.060860e+02
1.880000e-06	3.241880e-06	3.214297e-09	2.374261e+01	2.072062e+02
1.890000e-06	3.272462e-06	3.232658e-09	2.396658e+01	2.082964e+02
1.900000e-06	3.302452e-06	3.251520e-09	2.418622e+01	2.093542e+02
1.910000e-06	3.331837e-06	3.269530e-09	2.440143e+01	2.103769e+02
1.920000e-06	3.360568e-06	3.285220e-09	2.461185e+01	2.113622e+02
1.930000e-06	3.388725e-06	3.299378e-09	2.481806e+01	2.123083e+02
1.940000e-06	3.416562e-06	3.313674e-09	2.502193e+01	2.132140e+02
1.950000e-06	3.444059e-06	3.328942e-09	2.522331e+01	2.140790e+02
1.960000e-06	3.470853e-06	3.343341e-09	2.541954e+01	2.149039e+02
1.970000e-06	3.496650e-06	3.356319e-09	2.560847e+01	2.156903e+02
1.980000e-06	3.521541e-06	3.370153e-09	2.579077e+01	2.164406e+02
1.990000e-06	3.545750e-06	3.384998e-09	2.596806e+01	2.171582e+02
2.000000e-06	3.569417e-06	3.398574e-09	2.614140e+01	2.178468e+02
2.010000e-06	3.592549e-06	3.411098e-09	2.631081e+01	2.185104e+02
2.020000e-06	3.614997e-06	3.422980e-09	2.647522e+01	2.191531e+02
2.030000e-06	3.636807e-06	3.434221e-09	2.663494e+01	2.197788e+02
2.040000e-06	3.658043e-06	3.445858e-09	2.679047e+01	2.203907e+02
2.050000e-06	3.678626e-06	3.456684e-09	2.694122e+01	2.209913e+02
2.060000e-06	3.698677e-06	3.464935e-09	2.708806e+01	2.215823e+02
2.070000e-06	3.718361e-06	3.473128e-09	2.723222e+01	2.221643e+02
2.080000e-06	3.737596e-06	3.484160e-09	2.737309e+01	2.227367e+02
2.090000e-06	3.756154e-06	3.497107e-09	2.750901e+01	2.232982e+02
2.100000e-06	3.773882e-06	3.508641e-09	2.763884e+01	2.238465e+02
2.110000e-06	3.790904e-06	3.517415e-09	2.776351e+01	2.243787e+02
2.120000e-06	3.807538e-06	3.525261e-09	2.788533e+01	2.248914e+02
2.130000e-06	3.823496e-06	3.533059e-09	2.800220e+01	2.253813e+02
2.140000e-06	3.838435e-06	3.540787e-09	2.811161e+01	2.258452e+02
2.150000e-06	3.852594e-06	3.548216e-09	2.821531e+01	2.262803e+02
2.160000e-06	3.866125e-06	3.555821e-09	2.831441e+01	2.266846e+02
2.170000e-06	3.878915e-06	3.563326e-09	2.840807e+01	2.270568e+02
2.180000e-06	3.891011e-06	3.571538e-09	2.849666e+01	2.273968e+02
2.190000e-06	3.902466e-06	3.579841e-09	2.858055e+01	2.277054e+02
2.200000e-06	3.913106e-06	3.586240e-09	2.865848e+01	2.279843e+02
2.210000e-06	3.922663e-06	3.590936e-09	2.872847e+01	2.282362e+02
2.220000e-06	3.931200e-06	3.596211e-09	2.879099e+01	2.284643e+02
2.230000e-06	3.939102e-06	3.602645e-09	2.884887e+01	2.286720e+02
2.240000e-06	3.946505e-06	3.610130e-09	2.890309e+01	2.288631e+02
2.250000e-06	3.953289e-06	3.615978e-09	2.895277e+01	2.290408e+02
2.260000e-06	3.959338e-06	3.618704e-09	2.899706e+01	2.292081e+02
2.270000e-06	3.964683e-06	3.620718e-09	2.903621e+01	2.293669e+02
2.280000e-06	3.969340e-06	3.623933e-09	2.907032e+01	2.295184e+02
2.290000e-06	3.973439e-06	3.627806e-09	2.910034e+01	2.296625e+02
2.300000e-06	3.977026e-06	3.629909e-09	2.912661e+01	2.297981e+02
2.310000e-06	3.979890e-06	3.632223e-09	2.914758e+01	2.299229e+02
2.320000e-06	3.981757e-06	3.636706e-09	2.916126e+01	2.300338e+02
2.330000e-06	3.982653e-06	3.642845e-09	2.916782e+01	2.301271e+02
2.340000e-06	3.982848e-06	3.647996e-09	2.916925e+01	2.301985e+02
2.350000e-06	3.982522e-06	3.650313e-09	2.916686e+01	2.302437e+02
2.360000e-06	3.981629e-06	3.650689e-09	2.916032e+01	2.302590e+02
2.370000e-06	3.980058e-06	3.649905e-09	2.914882e+01	2.302410e+02
2.380000e-06	3.977807e-06	3.647955e-09	2.913233e+01	2.301875e+02
2.390000e-06	3.974876e-06	3.646700e-09	2.911086e+01	2.300975e+02
2.400000e-06	3.971325e-06	3.648005e-09	2.908486e+01	2.299713e+02
2.410000e-06	3.967316e-06	3.646966e-09	2.905550e+01	2.298108e+02
2.420000e-06	3.962927e-06	3.644166e-09	2.902336e+01	2.296194e+02
2.430000e-06	3.957871e-06	3.643319e-09	2.898632e+01	2.294016e+02
2.440000e-06	3.951761e-06	3.636091e-09	2.894158e+01	2.291632e+02
2.450000e-06	3.944395e-06	3.628350e-09	2.888763e+01	2.289107e+02
2.460000e-06	3.936195e-06	3.641893e-09	2.882757e+01	2.286510e+02
2.470000e-06	3.927807e-06	3.668368e-09	2.876615e+01	2.283911e+02
2.480000e-06	3.919044e-06	3.644955e-09	2.870196e+01	2.281372e+02
2.490000e-06	3.909293e-06	3.592565e-09	2.863055e+01	2.278949e+02
2.500000e-06	3.898683e-06	3.582511e-09	2.855285e+01	2.276686e+02
2.510000e-06	3.887828e-06	3.588539e-09	2.847335e+01	2.274609e+02
2.520000e-06	3.876340e-06	3.566034e-09	2.838922e+01	2.272728e+02
2.530000e-06	3.863503e-06	3.544627e-09	2.829520e+01	2.271036e+02
2.540000e-06	3.849947e-06	3.551401e-09	2.819592e+01	2.269505e+02
2.550000e-06	3.836135e-06	3.521879e-09	2.809477e+01	2.268093e+02
2.560000e-06	3.821367e-06	3.507927e-09	2.798661e+01	2.266742e+02
2.570000e-06	3.805485e-06	3.522009e-09	2.787029e+01	2.265384e+02
2.580000e-06	3.789016e-06	3.460496e-09	2.774968e+01	2.263943e+02
2.590000e-06	3.772031e-06	3.387252e-09	2.762528e+01	2.262340e+02
2.600000e-06	3.754294e-06	3.403613e-09	2.749538e+01	2.260499e+02
2.610000e-06	3.735780e-06	3.407734e-09	2.735979e+01	2.258350e+02
2.620000e-06	3.716589e-06	3.339326e-09	2.721925e+01	2.255831e+02
2.630000e-06	3.696919e-06	3.331927e-09	2.707519e+01	2.252896e+02
2.640000e-06	3.676767e-06	3.352804e-09	2.692760e+01	2.249512e+02
2.650000e-06	3.656011e-06	3.327160e-09	2.677559e+01	2.245664e+02
2.660000e-06	3.634608e-06	3.308955e-09	2.661884e+01	2.241351e+02
2.670000e-06	3.612318e-06	3.302844e-09	2.645559e+01	2.236591e+02
2.680000e-06	3.588996e-06	3.299864e-09	2.628479e+01	2.231413e+02
2.690000e-06	3.565019e-06	3.298116e-09	2.610919e+01	2.225859e+02
2.700000e-06	3.540563e-06	3.280338e-09	2.593008e+01	2.219976e+02
2.710000e-06	3.515373e-06	3.268111e-09	2.574559e+01	2.213818e+02
2.720000e-06	3.489550e-06	3.267575e-09	2.555647e+01	2.207436e+02
2.730000e-06	3.463369e-06	3.242611e-09	2.536473e+01	2.200880e+02
2.740000e-06	3.436563e-06	3.232191e-09	2.516842e+01	2.194193e+02
2.750000e-06	3.409011e-06	3.249971e-09	2.496663e+01	2.187406e+02
2.760000e-06	3.381077e-06	3.217412e-09	2.476205e+01	2.180543e+02
2.770000e-06	3.352707e-06	3.187345e-09	2.455428e+01	2.173613e+02
2.780000e-06	3.323583e-06	3.214116e-09	2.434098e+01	2.166615e+02
2.790000e-06	3.293652e-06	3.209796e-09	2.412177e+01	2.159536e+02
2.800000e-06	3.263053e-06	3.175707e-09	2.389768e+01	2.152354e+02
2.810000e-06	3.231819e-06	3.164606e-09	2.366893e+01	2.145041e+02
2.820000e-06	3.199975e-06	3.166161e-09	2.343571e+01	2.137563e+02
2.830000e-06	3.167646e-06	3.160347e-09	2.319894e+01	2.129885e+02
2.840000e-06	3.134850e-06	3.132152e-09	2.295875e+01	2.121973e+02
2.850000e-06	3.101501e-06	3.117828e-09	2.271451e+01	2.113798e+02
2.860000e-06	3.067635e-06	3.118625e-09	2.246649e+01	2.105336e+02
2.870000e-06	3.033342e-06	3.097534e-09	2.221534e+01	2.096569e+02
2.880000e-06	2.998538e-06	3.080002e-09	2.196045e+01	2.087491e+02
2.890000e-06	2.963163e-06	3.073152e-09	2.170137e+01	2.078100e+02
2.900000e-06	2.927304e-06	3.055919e-09	2.143875e+01	2.068404e+02
2.910000e-06	2.891076e-06	3.033894e-09	2.117342e+01	2.058418e+02
2.920000e-06	2.854461e-06	3.023997e-09	2.090526e+01	2.048161e+02
2.930000e-06	2.817318e-06	3.018549e-09	2.063324e+01	2.037653e+02
2.940000e-06	2.779436e-06	2.994902e-09	2.035580e+01	2.026917e+02
2.950000e-06	2.740708e-06	2.976194e-09	2.007217e+01	2.015972e+02
