# Temperatura_=_20.0
# Concentracion g/m^3_=_9000.0
# C_Vs_to_Am_M_A/Vsm_=_65563218390.804596
# pendiente_HvsI_1/m_=_3716.3
# ordenada_HvsI_A/m_=_1297.0
# frecuencia_Hz_=_212895.7319463536

Tiempo_(s)	Campo_(V.s)	Magnetizacion_(V.s)	Campo_(kA/m)	Magnetizacion_(A/m)
0.000000e+00	-3.971863e-06	-3.405893e-09	-2.913637e+01	-2.288229e+02
1.000000e-08	-3.971660e-06	-3.406138e-09	-2.913489e+01	-2.288394e+02
2.000000e-08	-3.970724e-06	-3.404361e-09	-2.912802e+01	-2.288418e+02
3.000000e-08	-3.968770e-06	-3.401979e-09	-2.911369e+01	-2.288282e+02
4.000000e-08	-3.965868e-06	-3.401288e-09	-2.909239e+01	-2.287968e+02
5.000000e-08	-3.962331e-06	-3.399488e-09	-2.906645e+01	-2.287453e+02
6.000000e-08	-3.958310e-06	-3.394605e-09	-2.903696e+01	-2.286716e+02
7.000000e-08	-3.953705e-06	-3.391372e-09	-2.900317e+01	-2.285735e+02
8.000000e-08	-3.948361e-06	-3.411936e-09	-2.896397e+01	-2.284490e+02
9.000000e-08	-3.942136e-06	-3.426720e-09	-2.891830e+01	-2.282964e+02
1.000000e-07	-3.935054e-06	-3.389724e-09	-2.886635e+01	-2.281143e+02
1.100000e-07	-3.927450e-06	-3.336898e-09	-2.881057e+01	-2.279019e+02
1.200000e-07	-3.919513e-06	-3.369052e-09	-2.875235e+01	-2.276590e+02
1.300000e-07	-3.910939e-06	-3.422963e-09	-2.868945e+01	-2.273857e+02
1.400000e-07	-3.901566e-06	-3.376770e-09	-2.862070e+01	-2.270829e+02
1.500000e-07	-3.891449e-06	-3.387212e-09	-2.854648e+01	-2.267522e+02
1.600000e-07	-3.880375e-06	-3.393097e-09	-2.846525e+01	-2.263954e+02
1.700000e-07	-3.868171e-06	-3.391191e-09	-2.837572e+01	-2.260153e+02
1.800000e-07	-3.855318e-06	-3.403637e-09	-2.828143e+01	-2.256145e+02
1.900000e-07	-3.842110e-06	-3.461055e-09	-2.818454e+01	-2.251962e+02
2.000000e-07	-3.827754e-06	-3.410337e-09	-2.807923e+01	-2.247638e+02
2.100000e-07	-3.812044e-06	-3.367603e-09	-2.796399e+01	-2.243206e+02
2.200000e-07	-3.795768e-06	-3.497417e-09	-2.784459e+01	-2.238696e+02
2.300000e-07	-3.779019e-06	-3.479864e-09	-2.772173e+01	-2.234138e+02
2.400000e-07	-3.761572e-06	-3.406384e-09	-2.759375e+01	-2.229557e+02
2.500000e-07	-3.743547e-06	-3.434412e-09	-2.746152e+01	-2.224973e+02
2.600000e-07	-3.724910e-06	-3.534270e-09	-2.732480e+01	-2.220399e+02
2.700000e-07	-3.705660e-06	-3.464094e-09	-2.718359e+01	-2.215843e+02
2.800000e-07	-3.685903e-06	-3.432303e-09	-2.703866e+01	-2.211306e+02
2.900000e-07	-3.665653e-06	-3.481661e-09	-2.689011e+01	-2.206783e+02
3.000000e-07	-3.644741e-06	-3.442636e-09	-2.673671e+01	-2.202260e+02
3.100000e-07	-3.623122e-06	-3.410042e-09	-2.657811e+01	-2.197721e+02
3.200000e-07	-3.600864e-06	-3.422850e-09	-2.641484e+01	-2.193142e+02
3.300000e-07	-3.578011e-06	-3.454876e-09	-2.624719e+01	-2.188498e+02
3.400000e-07	-3.554612e-06	-3.397995e-09	-2.607555e+01	-2.183758e+02
3.500000e-07	-3.530658e-06	-3.346142e-09	-2.589983e+01	-2.178893e+02
3.600000e-07	-3.506285e-06	-3.418081e-09	-2.572104e+01	-2.173872e+02
3.700000e-07	-3.481247e-06	-3.438036e-09	-2.553736e+01	-2.168668e+02
3.800000e-07	-3.454985e-06	-3.323733e-09	-2.534472e+01	-2.163255e+02
3.900000e-07	-3.427724e-06	-3.348111e-09	-2.514473e+01	-2.157609e+02
4.000000e-07	-3.400092e-06	-3.429417e-09	-2.494204e+01	-2.151714e+02
4.100000e-07	-3.372127e-06	-3.348453e-09	-2.473689e+01	-2.145556e+02
4.200000e-07	-3.343475e-06	-3.297110e-09	-2.452671e+01	-2.139128e+02
4.300000e-07	-3.314229e-06	-3.371313e-09	-2.431217e+01	-2.132427e+02
4.400000e-07	-3.284585e-06	-3.342687e-09	-2.409471e+01	-2.125456e+02
4.500000e-07	-3.254339e-06	-3.260526e-09	-2.387284e+01	-2.118221e+02
4.600000e-07	-3.223433e-06	-3.301645e-09	-2.364612e+01	-2.110731e+02
4.700000e-07	-3.192049e-06	-3.318853e-09	-2.341589e+01	-2.102998e+02
4.800000e-07	-3.160379e-06	-3.257659e-09	-2.318357e+01	-2.095035e+02
4.900000e-07	-3.128494e-06	-3.238164e-09	-2.294968e+01	-2.086856e+02
5.000000e-07	-3.096088e-06	-3.260483e-09	-2.271196e+01	-2.078473e+02
5.100000e-07	-3.062807e-06	-3.248021e-09	-2.246782e+01	-2.069895e+02
5.200000e-07	-3.028547e-06	-3.205585e-09	-2.221649e+01	-2.061130e+02
5.300000e-07	-2.993488e-06	-3.199075e-09	-2.195931e+01	-2.052182e+02
5.400000e-07	-2.957954e-06	-3.208156e-09	-2.169865e+01	-2.043049e+02
5.500000e-07	-2.922108e-06	-3.180348e-09	-2.143569e+01	-2.033726e+02
5.600000e-07	-2.885914e-06	-3.153519e-09	-2.117018e+01	-2.024206e+02
5.700000e-07	-2.849245e-06	-3.152385e-09	-2.090119e+01	-2.014476e+02
5.800000e-07	-2.812055e-06	-3.144139e-09	-2.062838e+01	-2.004520e+02
5.900000e-07	-2.774399e-06	-3.106575e-09	-2.035215e+01	-1.994320e+02
6.000000e-07	-2.736241e-06	-3.089658e-09	-2.007223e+01	-1.983856e+02
6.100000e-07	-2.697489e-06	-3.095880e-09	-1.978796e+01	-1.973110e+02
6.200000e-07	-2.658233e-06	-3.061135e-09	-1.949998e+01	-1.962061e+02
6.300000e-07	-2.618671e-06	-3.027131e-09	-1.920977e+01	-1.950691e+02
6.400000e-07	-2.578890e-06	-3.026797e-09	-1.891795e+01	-1.938985e+02
6.500000e-07	-2.538781e-06	-3.014994e-09	-1.862372e+01	-1.926931e+02
6.600000e-07	-2.498127e-06	-2.980661e-09	-1.832549e+01	-1.914518e+02
6.700000e-07	-2.456791e-06	-2.960269e-09	-1.802227e+01	-1.901742e+02
6.800000e-07	-2.414707e-06	-2.955830e-09	-1.771356e+01	-1.888599e+02
6.900000e-07	-2.371904e-06	-2.924738e-09	-1.739957e+01	-1.875091e+02
7.000000e-07	-2.328573e-06	-2.889844e-09	-1.708170e+01	-1.861221e+02
7.100000e-07	-2.284913e-06	-2.881065e-09	-1.676142e+01	-1.846995e+02
7.200000e-07	-2.241064e-06	-2.863978e-09	-1.643976e+01	-1.832419e+02
7.300000e-07	-2.196937e-06	-2.829537e-09	-1.611606e+01	-1.817499e+02
7.400000e-07	-2.152318e-06	-2.798856e-09	-1.578875e+01	-1.802241e+02
7.500000e-07	-2.107255e-06	-2.783426e-09	-1.545818e+01	-1.786650e+02
7.600000e-07	-2.061854e-06	-2.761691e-09	-1.512513e+01	-1.770726e+02
7.700000e-07	-2.016138e-06	-2.727547e-09	-1.478978e+01	-1.754467e+02
7.800000e-07	-1.970127e-06	-2.705357e-09	-1.445225e+01	-1.737866e+02
7.900000e-07	-1.923794e-06	-2.684117e-09	-1.411236e+01	-1.720915e+02
8.000000e-07	-1.877055e-06	-2.654808e-09	-1.376950e+01	-1.703597e+02
8.100000e-07	-1.829977e-06	-2.627647e-09	-1.342415e+01	-1.685894e+02
8.200000e-07	-1.782741e-06	-2.601986e-09	-1.307765e+01	-1.667785e+02
8.300000e-07	-1.735303e-06	-2.568794e-09	-1.272965e+01	-1.649243e+02
8.400000e-07	-1.687617e-06	-2.530269e-09	-1.237984e+01	-1.630241e+02
8.500000e-07	-1.639735e-06	-2.504628e-09	-1.202859e+01	-1.610750e+02
8.600000e-07	-1.591575e-06	-2.479996e-09	-1.167531e+01	-1.590740e+02
8.700000e-07	-1.543049e-06	-2.438991e-09	-1.131933e+01	-1.570181e+02
8.800000e-07	-1.494141e-06	-2.401308e-09	-1.096056e+01	-1.549044e+02
8.900000e-07	-1.444822e-06	-2.375366e-09	-1.059877e+01	-1.527302e+02
9.000000e-07	-1.395041e-06	-2.346200e-09	-1.023359e+01	-1.504928e+02
9.100000e-07	-1.344861e-06	-2.304640e-09	-9.865489e+00	-1.481900e+02
9.200000e-07	-1.294286e-06	-2.262396e-09	-9.494489e+00	-1.458193e+02
9.300000e-07	-1.243299e-06	-2.227108e-09	-9.120462e+00	-1.433788e+02
9.400000e-07	-1.192057e-06	-2.189333e-09	-8.744566e+00	-1.408665e+02
9.500000e-07	-1.140631e-06	-2.149078e-09	-8.367320e+00	-1.382802e+02
9.600000e-07	-1.088984e-06	-2.106203e-09	-7.988457e+00	-1.356181e+02
9.700000e-07	-1.037099e-06	-2.062319e-09	-7.607842e+00	-1.328778e+02
9.800000e-07	-9.850792e-07	-2.021341e-09	-7.226240e+00	-1.300568e+02
9.900000e-07	-9.329242e-07	-1.981233e-09	-6.843647e+00	-1.271524e+02
1.000000e-06	-8.805257e-07	-1.939411e-09	-6.459267e+00	-1.241613e+02
1.010000e-06	-8.278463e-07	-1.888194e-09	-6.072827e+00	-1.210798e+02
1.020000e-06	-7.750559e-07	-1.835655e-09	-5.685573e+00	-1.179039e+02
1.030000e-06	-7.221890e-07	-1.789781e-09	-5.297758e+00	-1.146288e+02
1.040000e-06	-6.691301e-07	-1.737744e-09	-4.908534e+00	-1.112496e+02
1.050000e-06	-6.159581e-07	-1.677065e-09	-4.518480e+00	-1.077608e+02
1.060000e-06	-5.626680e-07	-1.616825e-09	-4.127561e+00	-1.041568e+02
1.070000e-06	-5.092880e-07	-1.562125e-09	-3.735981e+00	-1.004319e+02
1.080000e-06	-4.558342e-07	-1.504165e-09	-3.343860e+00	-9.658026e+01
1.090000e-06	-4.023014e-07	-1.438942e-09	-2.951160e+00	-9.259644e+01
1.100000e-06	-3.486952e-07	-1.375594e-09	-2.557922e+00	-8.847531e+01
1.110000e-06	-2.950674e-07	-1.310867e-09	-2.164524e+00	-8.421233e+01
1.120000e-06	-2.413985e-07	-1.242300e-09	-1.770825e+00	-7.980373e+01
1.130000e-06	-1.876850e-07	-1.171352e-09	-1.376800e+00	-7.524669e+01
1.140000e-06	-1.339954e-07	-1.097128e-09	-9.829491e-01	-7.053951e+01
1.150000e-06	-8.028651e-08	-1.021521e-09	-5.889573e-01	-6.568169e+01
1.160000e-06	-2.655972e-08	-9.442491e-10	-1.948340e-01	-6.067411e+01
1.170000e-06	2.715421e-08	-8.669862e-10	1.991950e-01	-5.551905e+01
1.180000e-06	8.084711e-08	-7.855812e-10	5.930697e-01	-5.022029e+01
1.190000e-06	1.344800e-07	-6.983865e-10	9.865044e-01	-4.478305e+01
1.200000e-06	1.880720e-07	-6.136757e-10	1.379638e+00	-3.921405e+01
1.210000e-06	2.416717e-07	-5.282656e-10	1.772830e+00	-3.352141e+01
1.220000e-06	2.952398e-07	-4.393083e-10	2.165789e+00	-2.771458e+01
1.230000e-06	3.487772e-07	-3.453143e-10	2.558523e+00	-2.180429e+01
1.240000e-06	4.022446e-07	-2.505700e-10	2.950743e+00	-1.580235e+01
1.250000e-06	4.556006e-07	-1.585386e-10	3.342147e+00	-9.721618e+00
1.260000e-06	5.088922e-07	-6.285108e-11	3.733078e+00	-3.575772e+00
1.270000e-06	5.620554e-07	3.323640e-11	4.123067e+00	2.620782e+00
1.280000e-06	6.150591e-07	1.284760e-10	4.511885e+00	8.853089e+00
1.290000e-06	6.679853e-07	2.227838e-10	4.900136e+00	1.510580e+01
1.300000e-06	7.208056e-07	3.161002e-10	5.287609e+00	2.136330e+01
1.310000e-06	7.735062e-07	4.121873e-10	5.674206e+00	2.760993e+01
1.320000e-06	8.260699e-07	5.086882e-10	6.059797e+00	3.383006e+01
1.330000e-06	8.783859e-07	6.040981e-10	6.443571e+00	4.000830e+01
1.340000e-06	9.305224e-07	6.989018e-10	6.826028e+00	4.612962e+01
1.350000e-06	9.824959e-07	7.932603e-10	7.207290e+00	5.217953e+01
1.360000e-06	1.034286e-06	8.865319e-10	7.587207e+00	5.814420e+01
1.370000e-06	1.085958e-06	9.763829e-10	7.966257e+00	6.401060e+01
1.380000e-06	1.137446e-06	1.063856e-09	8.343957e+00	6.976665e+01
1.390000e-06	1.188721e-06	1.149191e-09	8.720092e+00	7.540133e+01
1.400000e-06	1.239803e-06	1.232508e-09	9.094815e+00	8.090483e+01
1.410000e-06	1.290630e-06	1.313334e-09	9.467665e+00	8.626860e+01
1.420000e-06	1.341109e-06	1.391265e-09	9.837966e+00	9.148548e+01
1.430000e-06	1.391149e-06	1.468473e-09	1.020505e+01	9.654972e+01
1.440000e-06	1.440747e-06	1.544371e-09	1.056888e+01	1.014571e+02
1.450000e-06	1.489849e-06	1.616115e-09	1.092908e+01	1.062047e+02
1.460000e-06	1.538523e-06	1.683992e-09	1.128614e+01	1.107914e+02
1.470000e-06	1.586852e-06	1.750308e-09	1.164066e+01	1.152171e+02
1.480000e-06	1.634885e-06	1.816014e-09	1.199302e+01	1.194833e+02
1.490000e-06	1.682730e-06	1.877822e-09	1.234399e+01	1.235925e+02
1.500000e-06	1.730412e-06	1.935998e-09	1.269377e+01	1.275485e+02
1.510000e-06	1.777894e-06	1.993594e-09	1.304209e+01	1.313559e+02
1.520000e-06	1.825093e-06	2.049290e-09	1.338833e+01	1.350199e+02
1.530000e-06	1.871988e-06	2.102496e-09	1.373233e+01	1.385464e+02
1.540000e-06	1.918511e-06	2.153188e-09	1.407361e+01	1.419416e+02
1.550000e-06	1.964615e-06	2.202089e-09	1.441182e+01	1.452119e+02
1.560000e-06	2.010354e-06	2.249702e-09	1.474734e+01	1.483634e+02
1.570000e-06	2.055759e-06	2.295874e-09	1.508042e+01	1.514024e+02
1.580000e-06	2.100796e-06	2.340016e-09	1.541080e+01	1.543346e+02
1.590000e-06	2.145470e-06	2.381924e-09	1.573851e+01	1.571653e+02
1.600000e-06	2.189792e-06	2.423708e-09	1.606365e+01	1.598992e+02
1.610000e-06	2.233784e-06	2.464659e-09	1.638636e+01	1.625406e+02
1.620000e-06	2.277530e-06	2.503007e-09	1.670726e+01	1.650930e+02
1.630000e-06	2.321054e-06	2.539998e-09	1.702654e+01	1.675596e+02
1.640000e-06	2.364253e-06	2.574584e-09	1.734344e+01	1.699428e+02
1.650000e-06	2.406956e-06	2.607143e-09	1.765669e+01	1.722448e+02
1.660000e-06	2.448921e-06	2.640705e-09	1.796454e+01	1.744674e+02
1.670000e-06	2.490054e-06	2.675499e-09	1.826628e+01	1.766122e+02
1.680000e-06	2.530537e-06	2.708084e-09	1.856325e+01	1.786807e+02
1.690000e-06	2.570587e-06	2.737442e-09	1.885704e+01	1.806743e+02
1.700000e-06	2.610338e-06	2.767586e-09	1.914864e+01	1.825947e+02
1.710000e-06	2.649825e-06	2.797431e-09	1.943831e+01	1.844437e+02
1.720000e-06	2.688969e-06	2.824204e-09	1.972546e+01	1.862233e+02
1.730000e-06	2.727695e-06	2.849471e-09	2.000954e+01	1.879359e+02
1.740000e-06	2.765937e-06	2.874029e-09	2.029007e+01	1.895841e+02
1.750000e-06	2.803661e-06	2.898684e-09	2.056680e+01	1.911709e+02
1.760000e-06	2.840848e-06	2.924350e-09	2.083959e+01	1.926994e+02
1.770000e-06	2.877526e-06	2.950346e-09	2.110865e+01	1.941730e+02
1.780000e-06	2.913773e-06	2.976083e-09	2.137455e+01	1.955952e+02
1.790000e-06	2.949699e-06	3.000544e-09	2.163809e+01	1.969693e+02
1.800000e-06	2.985345e-06	3.024004e-09	2.189958e+01	1.982988e+02
1.810000e-06	3.020646e-06	3.045761e-09	2.215854e+01	1.995868e+02
1.820000e-06	3.055313e-06	3.065504e-09	2.241284e+01	2.008362e+02
1.830000e-06	3.089075e-06	3.082748e-09	2.266051e+01	2.020495e+02
1.840000e-06	3.121917e-06	3.099947e-09	2.290143e+01	2.032288e+02
1.850000e-06	3.154008e-06	3.119703e-09	2.313684e+01	2.043758e+02
1.860000e-06	3.185697e-06	3.140623e-09	2.336930e+01	2.054916e+02
1.870000e-06	3.217070e-06	3.159821e-09	2.359945e+01	2.065772e+02
1.880000e-06	3.247924e-06	3.176870e-09	2.382578e+01	2.076327e+02
1.890000e-06	3.278179e-06	3.195642e-09	2.404772e+01	2.086584e+02
1.900000e-06	3.307886e-06	3.214570e-09	2.426564e+01	2.096540e+02
1.910000e-06	3.336996e-06	3.229627e-09	2.447918e+01	2.106190e+02
1.920000e-06	3.365521e-06	3.241647e-09	2.468843e+01	2.115531e+02
1.930000e-06	3.393594e-06	3.254745e-09	2.489437e+01	2.124557e+02
1.940000e-06	3.421281e-06	3.268783e-09	2.509747e+01	2.133266e+02
1.950000e-06	3.448447e-06	3.282516e-09	2.529675e+01	2.141655e+02
1.960000e-06	3.474894e-06	3.296956e-09	2.549076e+01	2.149726e+02
1.970000e-06	3.500367e-06	3.311756e-09	2.567762e+01	2.157482e+02
1.980000e-06	3.524907e-06	3.326351e-09	2.585764e+01	2.164929e+02
1.990000e-06	3.548877e-06	3.340019e-09	2.603347e+01	2.172078e+02
2.000000e-06	3.572296e-06	3.351486e-09	2.620527e+01	2.178939e+02
2.010000e-06	3.595048e-06	3.362312e-09	2.637217e+01	2.185527e+02
2.020000e-06	3.617214e-06	3.372653e-09	2.653478e+01	2.191859e+02
2.030000e-06	3.638852e-06	3.381165e-09	2.669351e+01	2.197949e+02
2.040000e-06	3.659879e-06	3.390288e-09	2.684775e+01	2.203816e+02
2.050000e-06	3.680251e-06	3.399685e-09	2.699720e+01	2.209474e+02
2.060000e-06	3.700176e-06	3.408046e-09	2.714336e+01	2.214938e+02
2.070000e-06	3.719735e-06	3.416365e-09	2.728684e+01	2.220218e+02
2.080000e-06	3.738751e-06	3.426019e-09	2.742634e+01	2.225324e+02
2.090000e-06	3.757049e-06	3.436678e-09	2.756056e+01	2.230262e+02
2.100000e-06	3.774536e-06	3.447130e-09	2.768884e+01	2.235033e+02
2.110000e-06	3.791429e-06	3.455518e-09	2.781276e+01	2.239636e+02
2.120000e-06	3.807772e-06	3.461411e-09	2.793265e+01	2.244069e+02
2.130000e-06	3.823309e-06	3.466926e-09	2.804663e+01	2.248323e+02
2.140000e-06	3.837959e-06	3.473894e-09	2.815410e+01	2.252391e+02
2.150000e-06	3.851810e-06	3.482200e-09	2.825570e+01	2.256262e+02
2.160000e-06	3.865010e-06	3.488404e-09	2.835253e+01	2.259928e+02
2.170000e-06	3.877530e-06	3.494360e-09	2.844438e+01	2.263379e+02
2.180000e-06	3.889310e-06	3.502219e-09	2.853079e+01	2.266607e+02
2.190000e-06	3.900404e-06	3.509836e-09	2.861217e+01	2.269606e+02
2.200000e-06	3.910593e-06	3.514592e-09	2.868692e+01	2.272373e+02
2.210000e-06	3.919747e-06	3.517823e-09	2.875407e+01	2.274907e+02
2.220000e-06	3.928059e-06	3.523087e-09	2.881504e+01	2.277211e+02
2.230000e-06	3.935716e-06	3.527200e-09	2.887121e+01	2.279292e+02
2.240000e-06	3.942790e-06	3.530048e-09	2.892310e+01	2.281158e+02
2.250000e-06	3.949222e-06	3.532191e-09	2.897029e+01	2.282822e+02
2.260000e-06	3.954922e-06	3.533959e-09	2.901210e+01	2.284297e+02
2.270000e-06	3.959903e-06	3.537155e-09	2.904864e+01	2.285597e+02
2.280000e-06	3.964261e-06	3.540519e-09	2.908061e+01	2.286738e+02
2.290000e-06	3.968163e-06	3.543612e-09	2.910923e+01	2.287734e+02
2.300000e-06	3.971621e-06	3.546664e-09	2.913460e+01	2.288597e+02
2.310000e-06	3.974259e-06	3.549957e-09	2.915395e+01	2.289337e+02
2.320000e-06	3.975794e-06	3.552976e-09	2.916521e+01	2.289961e+02
2.330000e-06	3.976345e-06	3.555742e-09	2.916925e+01	2.290472e+02
2.340000e-06	3.976290e-06	3.558204e-09	2.916885e+01	2.290868e+02
2.350000e-06	3.975742e-06	3.559644e-09	2.916483e+01	2.291144e+02
2.360000e-06	3.974567e-06	3.559498e-09	2.915621e+01	2.291289e+02
2.370000e-06	3.972738e-06	3.559186e-09	2.914280e+01	2.291290e+02
2.380000e-06	3.970315e-06	3.557795e-09	2.912502e+01	2.291129e+02
2.390000e-06	3.967274e-06	3.558102e-09	2.910271e+01	2.290787e+02
2.400000e-06	3.963591e-06	3.560703e-09	2.907569e+01	2.290240e+02
2.410000e-06	3.959483e-06	3.566543e-09	2.904556e+01	2.289468e+02
2.420000e-06	3.954953e-06	3.547719e-09	2.901233e+01	2.288449e+02
2.430000e-06	3.949591e-06	3.518701e-09	2.897299e+01	2.287164e+02
2.440000e-06	3.942929e-06	3.546552e-09	2.892412e+01	2.285594e+02
2.450000e-06	3.935099e-06	3.603853e-09	2.886668e+01	2.283729e+02
2.460000e-06	3.926792e-06	3.572127e-09	2.880575e+01	2.281560e+02
2.470000e-06	3.918373e-06	3.515690e-09	2.874399e+01	2.279085e+02
2.480000e-06	3.909327e-06	3.529858e-09	2.867763e+01	2.276307e+02
2.490000e-06	3.899144e-06	3.517494e-09	2.860293e+01	2.273237e+02
2.500000e-06	3.888452e-06	3.482774e-09	2.852450e+01	2.269889e+02
2.510000e-06	3.877621e-06	3.494437e-09	2.844504e+01	2.266286e+02
2.520000e-06	3.865669e-06	3.496724e-09	2.835737e+01	2.262451e+02
2.530000e-06	3.852340e-06	3.405644e-09	2.825959e+01	2.258415e+02
2.540000e-06	3.838688e-06	3.464752e-09	2.815944e+01	2.254210e+02
2.550000e-06	3.824621e-06	3.530065e-09	2.805625e+01	2.249868e+02
2.560000e-06	3.809369e-06	3.402143e-09	2.794437e+01	2.245422e+02
2.570000e-06	3.793231e-06	3.362127e-09	2.782598e+01	2.240904e+02
2.580000e-06	3.776640e-06	3.453412e-09	2.770428e+01	2.236342e+02
2.590000e-06	3.759413e-06	3.376066e-09	2.757791e+01	2.231759e+02
2.600000e-06	3.741395e-06	3.223248e-09	2.744573e+01	2.227176e+02
2.610000e-06	3.722722e-06	3.343436e-09	2.730875e+01	2.222605e+02
2.620000e-06	3.703443e-06	3.367210e-09	2.716733e+01	2.218052e+02
2.630000e-06	3.683590e-06	3.251752e-09	2.702169e+01	2.213518e+02
2.640000e-06	3.663230e-06	3.315348e-09	2.687234e+01	2.208996e+02
2.650000e-06	3.642305e-06	3.376510e-09	2.671884e+01	2.204473e+02
2.660000e-06	3.620688e-06	3.294087e-09	2.656026e+01	2.199930e+02
2.670000e-06	3.598023e-06	3.238224e-09	2.639400e+01	2.195343e+02
2.680000e-06	3.574354e-06	3.306123e-09	2.622037e+01	2.190687e+02
2.690000e-06	3.550183e-06	3.339826e-09	2.604305e+01	2.185930e+02
2.700000e-06	3.525454e-06	3.255495e-09	2.586165e+01	2.181044e+02
2.710000e-06	3.499976e-06	3.213431e-09	2.567475e+01	2.175998e+02
2.720000e-06	3.473999e-06	3.312327e-09	2.548420e+01	2.170765e+02
2.730000e-06	3.447544e-06	3.300014e-09	2.529013e+01	2.165318e+02
2.740000e-06	3.420342e-06	3.165213e-09	2.509058e+01	2.159636e+02
2.750000e-06	3.392517e-06	3.247826e-09	2.488647e+01	2.153703e+02
2.760000e-06	3.364405e-06	3.300100e-09	2.468025e+01	2.147505e+02
2.770000e-06	3.335905e-06	3.160658e-09	2.447118e+01	2.141037e+02
2.780000e-06	3.306662e-06	3.183947e-09	2.425666e+01	2.134295e+02
2.790000e-06	3.276648e-06	3.259274e-09	2.403649e+01	2.127284e+02
2.800000e-06	3.245889e-06	3.190155e-09	2.381085e+01	2.120011e+02
2.810000e-06	3.214370e-06	3.145519e-09	2.357963e+01	2.112484e+02
2.820000e-06	3.182268e-06	3.171348e-09	2.334415e+01	2.104716e+02
2.830000e-06	3.149830e-06	3.197162e-09	2.310619e+01	2.096720e+02
2.840000e-06	3.116953e-06	3.142503e-09	2.286502e+01	2.088510e+02
2.850000e-06	3.083454e-06	3.094864e-09	2.261928e+01	2.080098e+02
2.860000e-06	3.049457e-06	3.141265e-09	2.236988e+01	2.071492e+02
2.870000e-06	3.015002e-06	3.127183e-09	2.211713e+01	2.062700e+02
2.880000e-06	2.979998e-06	3.069662e-09	2.186035e+01	2.053724e+02
2.890000e-06	2.944449e-06	3.074197e-09	2.159958e+01	2.044563e+02
2.900000e-06	2.908525e-06	3.086023e-09	2.133605e+01	2.035212e+02
2.910000e-06	2.872301e-06	3.050217e-09	2.107032e+01	2.025662e+02
2.920000e-06	2.835593e-06	3.018062e-09	2.080105e+01	2.015899e+02
2.930000e-06	2.798312e-06	3.040153e-09	2.052756e+01	2.005908e+02
2.940000e-06	2.760344e-06	3.027865e-09	2.024904e+01	1.995670e+02
2.950000e-06	2.721509e-06	2.974162e-09	1.996416e+01	1.985166e+02
