# Temperatura_=_20.0
# Concentracion g/m^3_=_9000.0
# C_Vs_to_Am_M_A/Vsm_=_65563218390.804596
# pendiente_HvsI_1/m_=_3716.3
# ordenada_HvsI_A/m_=_1297.0
# frecuencia_Hz_=_212898.66494037988

Tiempo_(s)	Campo_(V.s)	Magnetizacion_(V.s)	Campo_(kA/m)	Magnetizacion_(A/m)
0.000000e+00	-3.972619e-06	-3.393757e-09	-2.913297e+01	-2.303014e+02
1.000000e-08	-3.972663e-06	-3.393212e-09	-2.913329e+01	-2.303430e+02
2.000000e-08	-3.972046e-06	-3.390569e-09	-2.912877e+01	-2.303552e+02
3.000000e-08	-3.970498e-06	-3.388626e-09	-2.911742e+01	-2.303368e+02
4.000000e-08	-3.968025e-06	-3.386071e-09	-2.909928e+01	-2.302875e+02
5.000000e-08	-3.964818e-06	-3.382259e-09	-2.907576e+01	-2.302084e+02
6.000000e-08	-3.961049e-06	-3.379374e-09	-2.904812e+01	-2.301014e+02
7.000000e-08	-3.956808e-06	-3.380628e-09	-2.901702e+01	-2.299698e+02
8.000000e-08	-3.951901e-06	-3.379569e-09	-2.898103e+01	-2.298173e+02
9.000000e-08	-3.946141e-06	-3.366744e-09	-2.893879e+01	-2.296488e+02
1.000000e-07	-3.939579e-06	-3.362806e-09	-2.889067e+01	-2.294691e+02
1.100000e-07	-3.932338e-06	-3.402713e-09	-2.883757e+01	-2.292833e+02
1.200000e-07	-3.924624e-06	-3.376924e-09	-2.878100e+01	-2.290963e+02
1.300000e-07	-3.916472e-06	-3.329237e-09	-2.872122e+01	-2.289121e+02
1.400000e-07	-3.907539e-06	-3.317834e-09	-2.865571e+01	-2.287342e+02
1.500000e-07	-3.897680e-06	-3.414522e-09	-2.858341e+01	-2.285647e+02
1.600000e-07	-3.887054e-06	-3.389867e-09	-2.850548e+01	-2.284045e+02
1.700000e-07	-3.875487e-06	-3.358013e-09	-2.842066e+01	-2.282534e+02
1.800000e-07	-3.862944e-06	-3.411332e-09	-2.832868e+01	-2.281093e+02
1.900000e-07	-3.849889e-06	-3.351587e-09	-2.823294e+01	-2.279694e+02
2.000000e-07	-3.836222e-06	-3.358016e-09	-2.813271e+01	-2.278294e+02
2.100000e-07	-3.821312e-06	-3.416898e-09	-2.802337e+01	-2.276842e+02
2.200000e-07	-3.805304e-06	-3.445536e-09	-2.790597e+01	-2.275282e+02
2.300000e-07	-3.788792e-06	-3.367047e-09	-2.778489e+01	-2.273555e+02
2.400000e-07	-3.771774e-06	-3.472245e-09	-2.766008e+01	-2.271604e+02
2.500000e-07	-3.754070e-06	-3.569356e-09	-2.753026e+01	-2.269373e+02
2.600000e-07	-3.735775e-06	-3.492585e-09	-2.739609e+01	-2.266818e+02
2.700000e-07	-3.716924e-06	-3.493656e-09	-2.725784e+01	-2.263900e+02
2.800000e-07	-3.697493e-06	-3.562405e-09	-2.711535e+01	-2.260595e+02
2.900000e-07	-3.677548e-06	-3.563039e-09	-2.696908e+01	-2.256889e+02
3.000000e-07	-3.657027e-06	-3.524062e-09	-2.681859e+01	-2.252782e+02
3.100000e-07	-3.635782e-06	-3.568081e-09	-2.666280e+01	-2.248286e+02
3.200000e-07	-3.613872e-06	-3.539160e-09	-2.650212e+01	-2.243424e+02
3.300000e-07	-3.591336e-06	-3.500884e-09	-2.633685e+01	-2.238225e+02
3.400000e-07	-3.568213e-06	-3.526061e-09	-2.616728e+01	-2.232728e+02
3.500000e-07	-3.544586e-06	-3.522956e-09	-2.599402e+01	-2.226973e+02
3.600000e-07	-3.520445e-06	-3.492754e-09	-2.581698e+01	-2.221000e+02
3.700000e-07	-3.495720e-06	-3.469062e-09	-2.563566e+01	-2.214848e+02
3.800000e-07	-3.470142e-06	-3.481691e-09	-2.544808e+01	-2.208548e+02
3.900000e-07	-3.443471e-06	-3.497600e-09	-2.525250e+01	-2.202129e+02
4.000000e-07	-3.416034e-06	-3.457330e-09	-2.505129e+01	-2.195606e+02
4.100000e-07	-3.388236e-06	-3.430539e-09	-2.484743e+01	-2.188990e+02
4.200000e-07	-3.359967e-06	-3.466028e-09	-2.464012e+01	-2.182278e+02
4.300000e-07	-3.331016e-06	-3.447160e-09	-2.442781e+01	-2.175463e+02
4.400000e-07	-3.301508e-06	-3.405780e-09	-2.421142e+01	-2.168526e+02
4.500000e-07	-3.271586e-06	-3.410506e-09	-2.399198e+01	-2.161446e+02
4.600000e-07	-3.241137e-06	-3.414274e-09	-2.376869e+01	-2.154197e+02
4.700000e-07	-3.210098e-06	-3.385704e-09	-2.354106e+01	-2.146750e+02
4.800000e-07	-3.178610e-06	-3.363543e-09	-2.331015e+01	-2.139080e+02
4.900000e-07	-3.146799e-06	-3.365730e-09	-2.307687e+01	-2.131161e+02
5.000000e-07	-3.114611e-06	-3.351287e-09	-2.284081e+01	-2.122974e+02
5.100000e-07	-3.081782e-06	-3.333832e-09	-2.260006e+01	-2.114504e+02
5.200000e-07	-3.048017e-06	-3.321131e-09	-2.235245e+01	-2.105743e+02
5.300000e-07	-3.013350e-06	-3.300029e-09	-2.209822e+01	-2.096687e+02
5.400000e-07	-2.978078e-06	-3.292795e-09	-2.183956e+01	-2.087342e+02
5.500000e-07	-2.942440e-06	-3.278740e-09	-2.157821e+01	-2.077714e+02
5.600000e-07	-2.906450e-06	-3.257769e-09	-2.131428e+01	-2.067816e+02
5.700000e-07	-2.870024e-06	-3.244390e-09	-2.104715e+01	-2.057662e+02
5.800000e-07	-2.833084e-06	-3.221628e-09	-2.077626e+01	-2.047264e+02
5.900000e-07	-2.795648e-06	-3.205374e-09	-2.050172e+01	-2.036636e+02
6.000000e-07	-2.757711e-06	-3.197814e-09	-2.022351e+01	-2.025787e+02
6.100000e-07	-2.719257e-06	-3.180139e-09	-1.994151e+01	-2.014721e+02
6.200000e-07	-2.680309e-06	-3.144930e-09	-1.965589e+01	-2.003438e+02
6.300000e-07	-2.640968e-06	-3.129834e-09	-1.936738e+01	-1.991932e+02
6.400000e-07	-2.601351e-06	-3.128602e-09	-1.907685e+01	-1.980192e+02
6.500000e-07	-2.561453e-06	-3.096151e-09	-1.878426e+01	-1.968201e+02
6.600000e-07	-2.521129e-06	-3.066269e-09	-1.848855e+01	-1.955939e+02
6.700000e-07	-2.480208e-06	-3.054990e-09	-1.818846e+01	-1.943382e+02
6.800000e-07	-2.438542e-06	-3.035699e-09	-1.788291e+01	-1.930506e+02
6.900000e-07	-2.396104e-06	-3.011347e-09	-1.757169e+01	-1.917287e+02
7.000000e-07	-2.353098e-06	-2.988305e-09	-1.725631e+01	-1.903702e+02
7.100000e-07	-2.309667e-06	-2.964618e-09	-1.693781e+01	-1.889732e+02
7.200000e-07	-2.265930e-06	-2.936430e-09	-1.661707e+01	-1.875362e+02
7.300000e-07	-2.221923e-06	-2.916570e-09	-1.629435e+01	-1.860580e+02
7.400000e-07	-2.177578e-06	-2.898297e-09	-1.596914e+01	-1.845382e+02
7.500000e-07	-2.132794e-06	-2.864460e-09	-1.564072e+01	-1.829767e+02
7.600000e-07	-2.087591e-06	-2.835441e-09	-1.530923e+01	-1.813736e+02
7.700000e-07	-2.042082e-06	-2.814735e-09	-1.497549e+01	-1.797297e+02
7.800000e-07	-1.996334e-06	-2.792971e-09	-1.464000e+01	-1.780455e+02
7.900000e-07	-1.950284e-06	-2.762684e-09	-1.430229e+01	-1.763219e+02
8.000000e-07	-1.903831e-06	-2.726653e-09	-1.396163e+01	-1.745594e+02
8.100000e-07	-1.856957e-06	-2.701258e-09	-1.361788e+01	-1.727581e+02
8.200000e-07	-1.809754e-06	-2.676897e-09	-1.327173e+01	-1.709179e+02
8.300000e-07	-1.762343e-06	-2.644530e-09	-1.292404e+01	-1.690380e+02
8.400000e-07	-1.714751e-06	-2.609222e-09	-1.257503e+01	-1.671171e+02
8.500000e-07	-1.666955e-06	-2.575236e-09	-1.222452e+01	-1.651531e+02
8.600000e-07	-1.618895e-06	-2.544210e-09	-1.187207e+01	-1.631435e+02
8.700000e-07	-1.570495e-06	-2.510789e-09	-1.151713e+01	-1.610851e+02
8.800000e-07	-1.521668e-06	-2.480295e-09	-1.115907e+01	-1.589744e+02
8.900000e-07	-1.472407e-06	-2.448528e-09	-1.079781e+01	-1.568076e+02
9.000000e-07	-1.422765e-06	-2.410466e-09	-1.043376e+01	-1.545807e+02
9.100000e-07	-1.372786e-06	-2.376538e-09	-1.006724e+01	-1.522896e+02
9.200000e-07	-1.322366e-06	-2.341909e-09	-9.697495e+00	-1.499305e+02
9.300000e-07	-1.271503e-06	-2.301132e-09	-9.324492e+00	-1.474997e+02
9.400000e-07	-1.220380e-06	-2.256686e-09	-8.949588e+00	-1.449938e+02
9.500000e-07	-1.169067e-06	-2.214854e-09	-8.573285e+00	-1.424098e+02
9.600000e-07	-1.117512e-06	-2.175631e-09	-8.195212e+00	-1.397450e+02
9.700000e-07	-1.065699e-06	-2.130046e-09	-7.815241e+00	-1.369970e+02
9.800000e-07	-1.013730e-06	-2.085208e-09	-7.434129e+00	-1.341637e+02
9.900000e-07	-9.616944e-07	-2.042523e-09	-7.052530e+00	-1.312428e+02
1.000000e-06	-9.094874e-07	-1.998421e-09	-6.669672e+00	-1.282322e+02
1.010000e-06	-8.570165e-07	-1.953955e-09	-6.284881e+00	-1.251295e+02
1.020000e-06	-8.042826e-07	-1.904512e-09	-5.898160e+00	-1.219322e+02
1.030000e-06	-7.513925e-07	-1.852316e-09	-5.510293e+00	-1.186370e+02
1.040000e-06	-6.984250e-07	-1.796626e-09	-5.121859e+00	-1.152403e+02
1.050000e-06	-6.452615e-07	-1.740517e-09	-4.731988e+00	-1.117379e+02
1.060000e-06	-5.919893e-07	-1.685876e-09	-4.341319e+00	-1.081252e+02
1.070000e-06	-5.387378e-07	-1.627576e-09	-3.950802e+00	-1.043968e+02
1.080000e-06	-4.853866e-07	-1.567970e-09	-3.559554e+00	-1.005474e+02
1.090000e-06	-4.319108e-07	-1.507003e-09	-3.167393e+00	-9.657118e+01
1.100000e-06	-3.783497e-07	-1.444408e-09	-2.774605e+00	-9.246263e+01
1.110000e-06	-3.247119e-07	-1.378194e-09	-2.381256e+00	-8.821650e+01
1.120000e-06	-2.710942e-07	-1.308302e-09	-1.988054e+00	-8.382816e+01
1.130000e-06	-2.174876e-07	-1.238339e-09	-1.594933e+00	-7.929386e+01
1.140000e-06	-1.638188e-07	-1.164547e-09	-1.201356e+00	-7.461100e+01
1.150000e-06	-1.101230e-07	-1.087970e-09	-8.075804e-01	-6.977834e+01
1.160000e-06	-5.642743e-08	-1.010588e-09	-4.138073e-01	-6.479620e+01
1.170000e-06	-2.754075e-09	-9.316159e-10	-2.019685e-02	-5.966658e+01
1.180000e-06	5.091294e-08	-8.510976e-10	3.733670e-01	-5.439324e+01
1.190000e-06	1.045869e-07	-7.665829e-10	7.669821e-01	-4.898166e+01
1.200000e-06	1.582375e-07	-6.822078e-10	1.160426e+00	-4.343905e+01
1.210000e-06	2.118717e-07	-5.961825e-10	1.553749e+00	-3.777415e+01
1.220000e-06	2.654669e-07	-5.059745e-10	1.946786e+00	-3.199712e+01
1.230000e-06	3.189910e-07	-4.150450e-10	2.339302e+00	-2.611930e+01
1.240000e-06	3.724662e-07	-3.224350e-10	2.731459e+00	-2.015300e+01
1.250000e-06	4.258624e-07	-2.291131e-10	3.123037e+00	-1.411125e+01
1.260000e-06	4.791774e-07	-1.337580e-10	3.514019e+00	-8.007581e+00
1.270000e-06	5.324490e-07	-3.711149e-11	3.904684e+00	-1.855804e+00
1.280000e-06	5.855514e-07	5.889265e-11	4.294107e+00	4.330180e+00
1.290000e-06	6.385110e-07	1.555710e-10	4.682483e+00	1.053652e+01
1.300000e-06	6.914216e-07	2.504583e-10	5.070500e+00	1.674955e+01
1.310000e-06	7.441792e-07	3.455972e-10	5.457395e+00	2.295581e+01
1.320000e-06	7.967652e-07	4.418427e-10	5.843031e+00	2.914214e+01
1.330000e-06	8.492221e-07	5.369049e-10	6.227721e+00	3.529566e+01
1.340000e-06	9.015082e-07	6.317009e-10	6.611157e+00	4.140377e+01
1.350000e-06	9.536209e-07	7.267000e-10	6.993323e+00	4.745415e+01
1.360000e-06	1.005581e-06	8.220011e-10	7.374372e+00	5.343472e+01
1.370000e-06	1.057380e-06	9.147063e-10	7.754234e+00	5.933368e+01
1.380000e-06	1.109018e-06	1.003173e-09	8.132918e+00	6.513954e+01
1.390000e-06	1.160485e-06	1.090271e-09	8.510346e+00	7.084114e+01
1.400000e-06	1.211753e-06	1.176418e-09	8.886318e+00	7.642782e+01
1.410000e-06	1.262736e-06	1.260753e-09	9.260203e+00	8.188950e+01
1.420000e-06	1.313418e-06	1.342080e-09	9.631876e+00	8.721685e+01
1.430000e-06	1.363783e-06	1.421508e-09	1.000122e+01	9.240148e+01
1.440000e-06	1.413673e-06	1.500283e-09	1.036709e+01	9.743614e+01
1.450000e-06	1.463091e-06	1.575512e-09	1.072949e+01	1.023149e+02
1.460000e-06	1.512044e-06	1.645870e-09	1.108849e+01	1.070332e+02
1.470000e-06	1.560540e-06	1.713389e-09	1.144413e+01	1.115884e+02
1.480000e-06	1.608735e-06	1.779558e-09	1.179756e+01	1.159792e+02
1.490000e-06	1.656694e-06	1.842413e-09	1.214927e+01	1.202063e+02
1.500000e-06	1.704480e-06	1.902359e-09	1.249970e+01	1.242719e+02
1.510000e-06	1.752112e-06	1.960565e-09	1.284901e+01	1.281801e+02
1.520000e-06	1.799530e-06	2.016766e-09	1.319675e+01	1.319361e+02
1.530000e-06	1.846631e-06	2.071261e-09	1.354216e+01	1.355466e+02
1.540000e-06	1.893326e-06	2.125207e-09	1.388459e+01	1.390190e+02
1.550000e-06	1.939616e-06	2.176408e-09	1.422406e+01	1.423616e+02
1.560000e-06	1.985490e-06	2.224370e-09	1.456048e+01	1.455825e+02
1.570000e-06	2.030995e-06	2.272121e-09	1.489418e+01	1.486903e+02
1.580000e-06	2.076220e-06	2.319045e-09	1.522584e+01	1.516928e+02
1.590000e-06	2.121101e-06	2.363387e-09	1.555497e+01	1.545975e+02
1.600000e-06	2.165608e-06	2.405703e-09	1.588136e+01	1.574106e+02
1.610000e-06	2.209762e-06	2.447653e-09	1.620516e+01	1.601376e+02
1.620000e-06	2.253619e-06	2.487762e-09	1.652679e+01	1.627829e+02
1.630000e-06	2.297283e-06	2.525840e-09	1.684699e+01	1.653494e+02
1.640000e-06	2.340704e-06	2.562258e-09	1.716541e+01	1.678394e+02
1.650000e-06	2.383725e-06	2.596556e-09	1.748090e+01	1.702540e+02
1.660000e-06	2.426155e-06	2.631385e-09	1.779206e+01	1.725936e+02
1.670000e-06	2.467870e-06	2.665525e-09	1.809798e+01	1.748583e+02
1.680000e-06	2.508858e-06	2.698587e-09	1.839857e+01	1.770477e+02
1.690000e-06	2.549170e-06	2.729799e-09	1.869419e+01	1.791615e+02
1.700000e-06	2.589036e-06	2.759386e-09	1.898655e+01	1.811999e+02
1.710000e-06	2.628644e-06	2.789078e-09	1.927701e+01	1.831633e+02
1.720000e-06	2.667977e-06	2.817241e-09	1.956546e+01	1.850528e+02
1.730000e-06	2.706931e-06	2.844669e-09	1.985112e+01	1.868705e+02
1.740000e-06	2.745370e-06	2.870962e-09	2.013301e+01	1.886188e+02
1.750000e-06	2.783310e-06	2.896820e-09	2.041124e+01	1.903012e+02
1.760000e-06	2.820811e-06	2.923268e-09	2.068626e+01	1.919218e+02
1.770000e-06	2.857801e-06	2.949544e-09	2.095752e+01	1.934848e+02
1.780000e-06	2.894273e-06	2.976479e-09	2.122499e+01	1.949952e+02
1.790000e-06	2.930328e-06	3.002794e-09	2.148939e+01	1.964575e+02
1.800000e-06	2.966072e-06	3.027947e-09	2.175152e+01	1.978764e+02
1.810000e-06	3.001532e-06	3.051086e-09	2.201156e+01	1.992559e+02
1.820000e-06	3.036531e-06	3.072716e-09	2.226823e+01	2.005995e+02
1.830000e-06	3.070793e-06	3.093522e-09	2.251948e+01	2.019099e+02
1.840000e-06	3.104176e-06	3.112521e-09	2.276429e+01	2.031887e+02
1.850000e-06	3.136757e-06	3.132125e-09	2.300322e+01	2.044369e+02
1.860000e-06	3.168760e-06	3.153357e-09	2.323792e+01	2.056544e+02
1.870000e-06	3.200388e-06	3.175778e-09	2.346986e+01	2.068404e+02
1.880000e-06	3.231572e-06	3.197414e-09	2.369854e+01	2.079933e+02
1.890000e-06	3.262223e-06	3.217631e-09	2.392332e+01	2.091113e+02
1.900000e-06	3.292303e-06	3.235931e-09	2.414391e+01	2.101922e+02
1.910000e-06	3.321749e-06	3.253107e-09	2.435985e+01	2.112338e+02
1.920000e-06	3.350558e-06	3.270222e-09	2.457112e+01	2.122342e+02
1.930000e-06	3.378825e-06	3.285225e-09	2.477842e+01	2.131921e+02
1.940000e-06	3.406684e-06	3.298967e-09	2.498272e+01	2.141066e+02
1.950000e-06	3.434184e-06	3.313596e-09	2.518439e+01	2.149777e+02
1.960000e-06	3.461139e-06	3.330015e-09	2.538206e+01	2.158061e+02
1.970000e-06	3.487262e-06	3.346515e-09	2.557364e+01	2.165934e+02
1.980000e-06	3.512405e-06	3.361508e-09	2.575802e+01	2.173418e+02
1.990000e-06	3.536670e-06	3.375247e-09	2.593596e+01	2.180542e+02
2.000000e-06	3.560340e-06	3.389010e-09	2.610954e+01	2.187339e+02
2.010000e-06	3.583492e-06	3.402417e-09	2.627933e+01	2.193843e+02
2.020000e-06	3.606028e-06	3.414085e-09	2.644460e+01	2.200091e+02
2.030000e-06	3.627989e-06	3.424356e-09	2.660564e+01	2.206115e+02
2.040000e-06	3.649395e-06	3.434907e-09	2.676263e+01	2.211944e+02
2.050000e-06	3.670141e-06	3.446208e-09	2.691476e+01	2.217601e+02
2.060000e-06	3.690294e-06	3.456142e-09	2.706255e+01	2.223102e+02
2.070000e-06	3.710014e-06	3.464296e-09	2.720717e+01	2.228456e+02
2.080000e-06	3.729252e-06	3.473391e-09	2.734825e+01	2.233664e+02
2.090000e-06	3.747873e-06	3.484376e-09	2.748481e+01	2.238722e+02
2.100000e-06	3.765747e-06	3.495183e-09	2.761589e+01	2.243616e+02
2.110000e-06	3.782909e-06	3.503956e-09	2.774174e+01	2.248333e+02
2.120000e-06	3.799530e-06	3.510712e-09	2.786363e+01	2.252855e+02
2.130000e-06	3.815533e-06	3.516849e-09	2.798099e+01	2.257164e+02
2.140000e-06	3.830715e-06	3.524080e-09	2.809233e+01	2.261245e+02
2.150000e-06	3.844997e-06	3.532203e-09	2.819706e+01	2.265087e+02
2.160000e-06	3.858518e-06	3.539734e-09	2.829622e+01	2.268682e+02
2.170000e-06	3.871355e-06	3.546892e-09	2.839035e+01	2.272030e+02
2.180000e-06	3.883515e-06	3.555272e-09	2.847953e+01	2.275137e+02
2.190000e-06	3.895032e-06	3.563692e-09	2.856399e+01	2.278017e+02
2.200000e-06	3.905786e-06	3.570072e-09	2.864286e+01	2.280688e+02
2.210000e-06	3.915535e-06	3.574354e-09	2.871435e+01	2.283171e+02
2.220000e-06	3.924262e-06	3.579160e-09	2.877835e+01	2.285493e+02
2.230000e-06	3.932247e-06	3.583587e-09	2.883690e+01	2.287679e+02
2.240000e-06	3.939712e-06	3.587410e-09	2.889165e+01	2.289753e+02
2.250000e-06	3.946586e-06	3.591300e-09	2.894206e+01	2.291734e+02
2.260000e-06	3.952742e-06	3.593541e-09	2.898721e+01	2.293638e+02
2.270000e-06	3.958224e-06	3.596936e-09	2.902741e+01	2.295471e+02
2.280000e-06	3.963026e-06	3.601219e-09	2.906262e+01	2.297233e+02
2.290000e-06	3.967198e-06	3.606054e-09	2.909321e+01	2.298914e+02
2.300000e-06	3.970860e-06	3.611002e-09	2.912007e+01	2.300496e+02
2.310000e-06	3.973914e-06	3.615380e-09	2.914247e+01	2.301955e+02
2.320000e-06	3.976079e-06	3.619792e-09	2.915834e+01	2.303262e+02
2.330000e-06	3.977234e-06	3.623995e-09	2.916682e+01	2.304384e+02
2.340000e-06	3.977566e-06	3.626348e-09	2.916925e+01	2.305286e+02
2.350000e-06	3.977280e-06	3.627905e-09	2.916715e+01	2.305938e+02
2.360000e-06	3.976466e-06	3.628576e-09	2.916118e+01	2.306312e+02
2.370000e-06	3.975028e-06	3.628623e-09	2.915064e+01	2.306390e+02
2.380000e-06	3.972895e-06	3.626931e-09	2.913500e+01	2.306160e+02
2.390000e-06	3.970152e-06	3.627905e-09	2.911488e+01	2.305622e+02
2.400000e-06	3.966804e-06	3.631087e-09	2.909033e+01	2.304788e+02
2.410000e-06	3.962872e-06	3.629498e-09	2.906149e+01	2.303680e+02
2.420000e-06	3.958479e-06	3.622667e-09	2.902928e+01	2.302331e+02
2.430000e-06	3.953560e-06	3.639504e-09	2.899320e+01	2.300780e+02
2.440000e-06	3.947662e-06	3.642370e-09	2.894995e+01	2.299075e+02
2.450000e-06	3.940469e-06	3.590547e-09	2.889720e+01	2.297267e+02
2.460000e-06	3.932347e-06	3.609119e-09	2.883764e+01	2.295405e+02
2.470000e-06	3.923941e-06	3.652250e-09	2.877599e+01	2.293537e+02
2.480000e-06	3.915206e-06	3.673193e-09	2.871194e+01	2.291704e+02
2.490000e-06	3.905627e-06	3.561242e-09	2.864169e+01	2.289937e+02
2.500000e-06	3.895146e-06	3.574291e-09	2.856482e+01	2.288257e+02
2.510000e-06	3.884255e-06	3.591536e-09	2.848496e+01	2.286670e+02
2.520000e-06	3.872846e-06	3.544657e-09	2.840129e+01	2.285172e+02
2.530000e-06	3.860225e-06	3.575683e-09	2.830873e+01	2.283741e+02
2.540000e-06	3.846612e-06	3.579151e-09	2.820890e+01	2.282345e+02
2.550000e-06	3.832732e-06	3.515680e-09	2.810712e+01	2.280941e+02
2.560000e-06	3.818299e-06	3.491932e-09	2.800128e+01	2.279478e+02
2.570000e-06	3.802725e-06	3.643157e-09	2.788706e+01	2.277897e+02
2.580000e-06	3.786343e-06	3.543499e-09	2.776693e+01	2.276141e+02
2.590000e-06	3.769484e-06	3.407874e-09	2.764329e+01	2.274152e+02
2.600000e-06	3.751912e-06	3.488446e-09	2.751443e+01	2.271876e+02
2.610000e-06	3.733574e-06	3.489300e-09	2.737995e+01	2.269269e+02
2.620000e-06	3.714585e-06	3.321162e-09	2.724070e+01	2.266296e+02
2.630000e-06	3.694985e-06	3.345838e-09	2.709696e+01	2.262931e+02
2.640000e-06	3.674875e-06	3.421505e-09	2.694948e+01	2.259166e+02
2.650000e-06	3.654237e-06	3.271948e-09	2.679814e+01	2.255001e+02
2.660000e-06	3.633005e-06	3.288134e-09	2.664243e+01	2.250449e+02
2.670000e-06	3.610993e-06	3.377023e-09	2.648101e+01	2.245535e+02
2.680000e-06	3.587950e-06	3.303958e-09	2.631202e+01	2.240290e+02
2.690000e-06	3.564055e-06	3.276222e-09	2.613679e+01	2.234753e+02
2.700000e-06	3.539611e-06	3.293587e-09	2.595753e+01	2.228963e+02
2.710000e-06	3.514539e-06	3.311527e-09	2.577367e+01	2.222962e+02
2.720000e-06	3.488845e-06	3.285130e-09	2.558524e+01	2.216786e+02
2.730000e-06	3.462698e-06	3.231608e-09	2.539350e+01	2.210468e+02
2.740000e-06	3.435985e-06	3.268503e-09	2.519759e+01	2.204033e+02
2.750000e-06	3.408542e-06	3.284121e-09	2.499634e+01	2.197497e+02
2.760000e-06	3.380604e-06	3.208374e-09	2.479146e+01	2.190867e+02
2.770000e-06	3.352344e-06	3.212810e-09	2.458422e+01	2.184142e+02
2.780000e-06	3.323489e-06	3.252234e-09	2.437262e+01	2.177310e+02
2.790000e-06	3.293854e-06	3.203634e-09	2.415528e+01	2.170354e+02
2.800000e-06	3.263458e-06	3.176262e-09	2.393238e+01	2.163252e+02
2.810000e-06	3.232345e-06	3.195782e-09	2.370421e+01	2.155975e+02
2.820000e-06	3.200578e-06	3.196778e-09	2.347125e+01	2.148498e+02
2.830000e-06	3.168298e-06	3.170885e-09	2.323452e+01	2.140792e+02
2.840000e-06	3.135615e-06	3.147316e-09	2.299485e+01	2.132835e+02
2.850000e-06	3.102445e-06	3.150909e-09	2.275160e+01	2.124607e+02
2.860000e-06	3.068686e-06	3.148915e-09	2.250403e+01	2.116095e+02
2.870000e-06	3.034427e-06	3.114590e-09	2.225279e+01	2.107290e+02
2.880000e-06	2.999686e-06	3.104229e-09	2.199803e+01	2.098192e+02
2.890000e-06	2.964393e-06	3.102486e-09	2.173920e+01	2.088804e+02
2.900000e-06	2.928632e-06	3.075167e-09	2.147695e+01	2.079136e+02
2.910000e-06	2.892519e-06	3.060561e-09	2.121212e+01	2.069199e+02
2.920000e-06	2.856076e-06	3.056833e-09	2.094486e+01	2.059008e+02
2.930000e-06	2.819155e-06	3.044994e-09	2.067411e+01	2.048577e+02
2.940000e-06	2.781626e-06	3.012290e-09	2.039889e+01	2.037916e+02
2.950000e-06	2.743371e-06	2.999737e-09	2.011835e+01	2.027035e+02
