# Temperatura_=_20.0
# Concentracion g/m^3_=_12600.0
# C_Vs_to_Am_M_A/Vsm_=_65563218390.804596
# pendiente_HvsI_1/m_=_3716.3
# ordenada_HvsI_A/m_=_1297.0
# frecuencia_Hz_=_213008.2887466277

Tiempo_(s)	Campo_(V.s)	Magnetizacion_(V.s)	Campo_(kA/m)	Magnetizacion_(A/m)
0.000000e+00	-4.002965e-06	-2.622980e-09	-2.910429e+01	-1.705364e+02
1.000000e-08	-4.003088e-06	-2.623077e-09	-2.910518e+01	-1.705473e+02
2.000000e-08	-4.002570e-06	-2.620166e-09	-2.910142e+01	-1.705310e+02
3.000000e-08	-4.001167e-06	-2.617744e-09	-2.909122e+01	-1.704860e+02
4.000000e-08	-3.998790e-06	-2.616974e-09	-2.907394e+01	-1.704109e+02
5.000000e-08	-3.995629e-06	-2.616263e-09	-2.905095e+01	-1.703045e+02
6.000000e-08	-3.991946e-06	-2.611663e-09	-2.902418e+01	-1.701662e+02
7.000000e-08	-3.987690e-06	-2.606179e-09	-2.899323e+01	-1.699959e+02
8.000000e-08	-3.982693e-06	-2.608829e-09	-2.895690e+01	-1.697944e+02
9.000000e-08	-3.976894e-06	-2.629020e-09	-2.891474e+01	-1.695634e+02
1.000000e-07	-3.970255e-06	-2.634698e-09	-2.886646e+01	-1.693055e+02
1.100000e-07	-3.962954e-06	-2.590678e-09	-2.881338e+01	-1.690243e+02
1.200000e-07	-3.955214e-06	-2.550619e-09	-2.875711e+01	-1.687240e+02
1.300000e-07	-3.946878e-06	-2.564819e-09	-2.869650e+01	-1.684099e+02
1.400000e-07	-3.937621e-06	-2.620441e-09	-2.862919e+01	-1.680872e+02
1.500000e-07	-3.927430e-06	-2.632121e-09	-2.855510e+01	-1.677617e+02
1.600000e-07	-3.916503e-06	-2.625607e-09	-2.847565e+01	-1.674389e+02
1.700000e-07	-3.904695e-06	-2.614281e-09	-2.838980e+01	-1.671240e+02
1.800000e-07	-3.892005e-06	-2.585794e-09	-2.829754e+01	-1.668211e+02
1.900000e-07	-3.878801e-06	-2.609389e-09	-2.820154e+01	-1.665337e+02
2.000000e-07	-3.864896e-06	-2.623710e-09	-2.810043e+01	-1.662637e+02
2.100000e-07	-3.849774e-06	-2.571314e-09	-2.799049e+01	-1.660117e+02
2.200000e-07	-3.833576e-06	-2.524502e-09	-2.787271e+01	-1.657766e+02
2.300000e-07	-3.816852e-06	-2.579509e-09	-2.775112e+01	-1.655560e+02
2.400000e-07	-3.799695e-06	-2.606958e-09	-2.762638e+01	-1.653456e+02
2.500000e-07	-3.781853e-06	-2.533699e-09	-2.749665e+01	-1.651402e+02
2.600000e-07	-3.763299e-06	-2.527080e-09	-2.736175e+01	-1.649331e+02
2.700000e-07	-3.744143e-06	-2.595344e-09	-2.722248e+01	-1.647172e+02
2.800000e-07	-3.724486e-06	-2.592337e-09	-2.707956e+01	-1.644848e+02
2.900000e-07	-3.704305e-06	-2.503969e-09	-2.693283e+01	-1.642280e+02
3.000000e-07	-3.683500e-06	-2.479590e-09	-2.678156e+01	-1.639394e+02
3.100000e-07	-3.662122e-06	-2.559994e-09	-2.662613e+01	-1.636122e+02
3.200000e-07	-3.640125e-06	-2.566435e-09	-2.646620e+01	-1.632406e+02
3.300000e-07	-3.617460e-06	-2.464300e-09	-2.630140e+01	-1.628201e+02
3.400000e-07	-3.594254e-06	-2.432918e-09	-2.613269e+01	-1.623476e+02
3.500000e-07	-3.570560e-06	-2.518361e-09	-2.596041e+01	-1.618214e+02
3.600000e-07	-3.546259e-06	-2.530749e-09	-2.578373e+01	-1.612415e+02
3.700000e-07	-3.521140e-06	-2.422543e-09	-2.560109e+01	-1.606091e+02
3.800000e-07	-3.495101e-06	-2.394326e-09	-2.541178e+01	-1.599268e+02
3.900000e-07	-3.468265e-06	-2.440940e-09	-2.521665e+01	-1.591981e+02
4.000000e-07	-3.440841e-06	-2.456581e-09	-2.501726e+01	-1.584274e+02
4.100000e-07	-3.412954e-06	-2.432328e-09	-2.481451e+01	-1.576192e+02
4.200000e-07	-3.384626e-06	-2.364787e-09	-2.460854e+01	-1.567785e+02
4.300000e-07	-3.355721e-06	-2.333025e-09	-2.439838e+01	-1.559097e+02
4.400000e-07	-3.326167e-06	-2.377871e-09	-2.418350e+01	-1.550169e+02
4.500000e-07	-3.296077e-06	-2.401301e-09	-2.396473e+01	-1.541035e+02
4.600000e-07	-3.265473e-06	-2.341061e-09	-2.374222e+01	-1.531718e+02
4.700000e-07	-3.234324e-06	-2.278848e-09	-2.351575e+01	-1.522233e+02
4.800000e-07	-3.202800e-06	-2.289864e-09	-2.328654e+01	-1.512586e+02
4.900000e-07	-3.170857e-06	-2.318079e-09	-2.305430e+01	-1.502774e+02
5.000000e-07	-3.138184e-06	-2.307683e-09	-2.281674e+01	-1.492783e+02
5.100000e-07	-3.104646e-06	-2.256402e-09	-2.257290e+01	-1.482598e+02
5.200000e-07	-3.070260e-06	-2.210773e-09	-2.232289e+01	-1.472196e+02
5.300000e-07	-3.035237e-06	-2.216225e-09	-2.206825e+01	-1.461557e+02
5.400000e-07	-2.999814e-06	-2.229039e-09	-2.181070e+01	-1.450658e+02
5.500000e-07	-2.963987e-06	-2.215589e-09	-2.155021e+01	-1.439482e+02
5.600000e-07	-2.927711e-06	-2.169199e-09	-2.128646e+01	-1.428015e+02
5.700000e-07	-2.890965e-06	-2.116137e-09	-2.101929e+01	-1.416252e+02
5.800000e-07	-2.853689e-06	-2.118444e-09	-2.074827e+01	-1.404193e+02
5.900000e-07	-2.815879e-06	-2.149236e-09	-2.047337e+01	-1.391845e+02
6.000000e-07	-2.777506e-06	-2.130655e-09	-2.019437e+01	-1.379224e+02
6.100000e-07	-2.738627e-06	-2.054764e-09	-1.991169e+01	-1.366348e+02
6.200000e-07	-2.699374e-06	-2.011253e-09	-1.962629e+01	-1.353243e+02
6.300000e-07	-2.659850e-06	-2.041636e-09	-1.933893e+01	-1.339934e+02
6.400000e-07	-2.620060e-06	-2.059171e-09	-1.904963e+01	-1.326448e+02
6.500000e-07	-2.579796e-06	-2.006676e-09	-1.875688e+01	-1.312808e+02
6.600000e-07	-2.538842e-06	-1.930183e-09	-1.845912e+01	-1.299034e+02
6.700000e-07	-2.497163e-06	-1.920285e-09	-1.815608e+01	-1.285142e+02
6.800000e-07	-2.454824e-06	-1.961421e-09	-1.784825e+01	-1.271138e+02
6.900000e-07	-2.411944e-06	-1.943995e-09	-1.753648e+01	-1.257023e+02
7.000000e-07	-2.368642e-06	-1.866414e-09	-1.722165e+01	-1.242791e+02
7.100000e-07	-2.325040e-06	-1.820280e-09	-1.690463e+01	-1.228428e+02
7.200000e-07	-2.281200e-06	-1.840206e-09	-1.658588e+01	-1.213913e+02
7.300000e-07	-2.237005e-06	-1.852700e-09	-1.626456e+01	-1.199224e+02
7.400000e-07	-2.192334e-06	-1.801335e-09	-1.593977e+01	-1.184333e+02
7.500000e-07	-2.147231e-06	-1.744530e-09	-1.561183e+01	-1.169213e+02
7.600000e-07	-2.101773e-06	-1.731681e-09	-1.528133e+01	-1.153839e+02
7.700000e-07	-2.056004e-06	-1.735316e-09	-1.494855e+01	-1.138189e+02
7.800000e-07	-2.009881e-06	-1.713261e-09	-1.461321e+01	-1.122245e+02
7.900000e-07	-1.963345e-06	-1.667882e-09	-1.427486e+01	-1.105996e+02
8.000000e-07	-1.916441e-06	-1.634277e-09	-1.393384e+01	-1.089438e+02
8.100000e-07	-1.869313e-06	-1.616117e-09	-1.359118e+01	-1.072573e+02
8.200000e-07	-1.821988e-06	-1.602649e-09	-1.324710e+01	-1.055411e+02
8.300000e-07	-1.774382e-06	-1.581546e-09	-1.290097e+01	-1.037967e+02
8.400000e-07	-1.726424e-06	-1.546260e-09	-1.255228e+01	-1.020261e+02
8.500000e-07	-1.678076e-06	-1.509213e-09	-1.220076e+01	-1.002314e+02
8.600000e-07	-1.629372e-06	-1.480539e-09	-1.184665e+01	-9.841496e+01
8.700000e-07	-1.580203e-06	-1.466087e-09	-1.148915e+01	-9.657911e+01
8.800000e-07	-1.530526e-06	-1.448801e-09	-1.112797e+01	-9.472579e+01
8.900000e-07	-1.480395e-06	-1.409702e-09	-1.076349e+01	-9.285657e+01
9.000000e-07	-1.429823e-06	-1.364141e-09	-1.039579e+01	-9.097252e+01
9.100000e-07	-1.378954e-06	-1.338218e-09	-1.002594e+01	-8.907410e+01
9.200000e-07	-1.327845e-06	-1.332876e-09	-9.654342e+00	-8.716117e+01
9.300000e-07	-1.276391e-06	-1.308923e-09	-9.280234e+00	-8.523302e+01
9.400000e-07	-1.224645e-06	-1.254327e-09	-8.904008e+00	-8.328845e+01
9.500000e-07	-1.172740e-06	-1.211924e-09	-8.526621e+00	-8.132589e+01
9.600000e-07	-1.120691e-06	-1.204016e-09	-8.148192e+00	-7.934355e+01
9.700000e-07	-1.068401e-06	-1.197449e-09	-7.768007e+00	-7.733958e+01
9.800000e-07	-1.015845e-06	-1.154201e-09	-7.385886e+00	-7.531229e+01
9.900000e-07	-9.631200e-07	-1.096846e-09	-7.002540e+00	-7.326024e+01
1.000000e-06	-9.102346e-07	-1.071534e-09	-6.618027e+00	-7.118245e+01
1.010000e-06	-8.571734e-07	-1.066179e-09	-6.232236e+00	-6.907845e+01
1.020000e-06	-8.040011e-07	-1.037571e-09	-5.845637e+00	-6.694836e+01
1.030000e-06	-7.507175e-07	-9.815058e-10	-5.458229e+00	-6.479293e+01
1.040000e-06	-6.972932e-07	-9.376264e-10	-5.069798e+00	-6.261344e+01
1.050000e-06	-6.437687e-07	-9.206047e-10	-4.680638e+00	-6.041167e+01
1.060000e-06	-5.901847e-07	-8.997308e-10	-4.291046e+00	-5.818976e+01
1.070000e-06	-5.365167e-07	-8.582334e-10	-3.900843e+00	-5.595004e+01
1.080000e-06	-4.827934e-07	-8.107138e-10	-3.510238e+00	-5.369488e+01
1.090000e-06	-4.289951e-07	-7.779899e-10	-3.119088e+00	-5.142650e+01
1.100000e-06	-3.751227e-07	-7.538278e-10	-2.727398e+00	-4.914683e+01
1.110000e-06	-3.212232e-07	-7.212406e-10	-2.335512e+00	-4.685733e+01
1.120000e-06	-2.672367e-07	-6.831821e-10	-1.942994e+00	-4.455893e+01
1.130000e-06	-2.131745e-07	-6.444406e-10	-1.549924e+00	-4.225196e+01
1.140000e-06	-1.590593e-07	-6.083319e-10	-1.156470e+00	-3.993611e+01
1.150000e-06	-1.049100e-07	-5.761659e-10	-7.627671e-01	-3.761049e+01
1.160000e-06	-5.087996e-08	-5.446852e-10	-3.699321e-01	-3.527374e+01
1.170000e-06	3.137106e-09	-5.083131e-10	2.280891e-02	-3.292410e+01
1.180000e-06	5.727847e-08	-4.641912e-10	4.164536e-01	-3.055964e+01
1.190000e-06	1.114390e-07	-4.255036e-10	8.102379e-01	-2.817835e+01
1.200000e-06	1.655192e-07	-3.965813e-10	1.203438e+00	-2.577840e+01
1.210000e-06	2.195222e-07	-3.657457e-10	1.596077e+00	-2.335826e+01
1.220000e-06	2.735251e-07	-3.237665e-10	1.988714e+00	-2.091687e+01
1.230000e-06	3.274637e-07	-2.737370e-10	2.380885e+00	-1.845374e+01
1.240000e-06	3.813238e-07	-2.349124e-10	2.772484e+00	-1.596902e+01
1.250000e-06	4.351193e-07	-2.068700e-10	3.163615e+00	-1.346352e+01
1.260000e-06	4.888152e-07	-1.683897e-10	3.554021e+00	-1.093867e+01
1.270000e-06	5.424534e-07	-1.171722e-10	3.944007e+00	-8.396447e+00
1.280000e-06	5.960635e-07	-6.958821e-11	4.333789e+00	-5.839227e+00
1.290000e-06	6.495959e-07	-3.701841e-11	4.723006e+00	-3.269649e+00
1.300000e-06	7.029982e-07	-5.039245e-12	5.111277e+00	-6.904221e-01
1.310000e-06	7.563085e-07	4.052644e-11	5.498879e+00	1.895859e+00
1.320000e-06	8.095348e-07	8.862359e-11	5.885871e+00	4.486893e+00
1.330000e-06	8.625819e-07	1.270932e-10	6.271560e+00	7.080831e+00
1.340000e-06	9.153848e-07	1.587640e-10	6.655473e+00	9.676395e+00
1.350000e-06	9.679859e-07	1.973332e-10	7.037919e+00	1.227296e+01
1.360000e-06	1.020393e-06	2.440866e-10	7.418954e+00	1.487059e+01
1.370000e-06	1.072584e-06	2.885440e-10	7.798421e+00	1.746998e+01
1.380000e-06	1.124640e-06	3.280429e-10	8.176898e+00	2.007241e+01
1.390000e-06	1.176486e-06	3.667940e-10	8.553855e+00	2.267962e+01
1.400000e-06	1.228110e-06	4.092779e-10	8.929198e+00	2.529361e+01
1.410000e-06	1.279558e-06	4.532731e-10	9.303260e+00	2.791650e+01
1.420000e-06	1.330773e-06	4.953320e-10	9.675627e+00	3.055030e+01
1.430000e-06	1.381720e-06	5.355579e-10	1.004605e+01	3.319671e+01
1.440000e-06	1.432295e-06	5.740050e-10	1.041377e+01	3.585695e+01
1.450000e-06	1.482407e-06	6.135050e-10	1.077811e+01	3.853161e+01
1.460000e-06	1.532022e-06	6.562132e-10	1.113885e+01	4.122053e+01
1.470000e-06	1.581182e-06	7.001327e-10	1.149628e+01	4.392276e+01
1.480000e-06	1.629879e-06	7.416375e-10	1.185033e+01	4.663655e+01
1.490000e-06	1.678211e-06	7.792251e-10	1.220174e+01	4.935938e+01
1.500000e-06	1.726240e-06	8.192296e-10	1.255094e+01	5.208808e+01
1.510000e-06	1.773942e-06	8.655166e-10	1.289777e+01	5.481897e+01
1.520000e-06	1.821465e-06	9.129364e-10	1.324330e+01	5.754800e+01
1.530000e-06	1.868841e-06	9.541853e-10	1.358775e+01	6.027098e+01
1.540000e-06	1.915922e-06	9.906886e-10	1.393006e+01	6.298376e+01
1.550000e-06	1.962596e-06	1.031778e-09	1.426941e+01	6.568242e+01
1.560000e-06	2.008916e-06	1.076821e-09	1.460619e+01	6.836340e+01
1.570000e-06	2.054853e-06	1.117377e-09	1.494018e+01	7.102367e+01
1.580000e-06	2.100450e-06	1.151014e-09	1.527171e+01	7.366080e+01
1.590000e-06	2.145728e-06	1.186201e-09	1.560091e+01	7.627300e+01
1.600000e-06	2.190609e-06	1.227827e-09	1.592723e+01	7.885907e+01
1.610000e-06	2.235087e-06	1.268323e-09	1.625061e+01	8.141840e+01
1.620000e-06	2.279155e-06	1.302781e-09	1.657101e+01	8.395083e+01
1.630000e-06	2.322917e-06	1.335976e-09	1.688919e+01	8.645653e+01
1.640000e-06	2.366455e-06	1.373665e-09	1.720574e+01	8.893585e+01
1.650000e-06	2.409772e-06	1.412030e-09	1.752069e+01	9.138916e+01
1.660000e-06	2.452695e-06	1.446467e-09	1.783277e+01	9.381669e+01
1.670000e-06	2.495034e-06	1.479335e-09	1.814060e+01	9.621838e+01
1.680000e-06	2.536659e-06	1.512485e-09	1.844324e+01	9.859381e+01
1.690000e-06	2.577534e-06	1.544277e-09	1.874043e+01	1.009421e+02
1.700000e-06	2.617778e-06	1.575429e-09	1.903304e+01	1.032619e+02
1.710000e-06	2.657559e-06	1.610126e-09	1.932227e+01	1.055514e+02
1.720000e-06	2.697023e-06	1.645617e-09	1.960920e+01	1.078084e+02
1.730000e-06	2.736227e-06	1.675499e-09	1.989424e+01	1.100303e+02
1.740000e-06	2.775001e-06	1.703788e-09	2.017615e+01	1.122144e+02
1.750000e-06	2.813271e-06	1.737661e-09	2.045440e+01	1.143580e+02
1.760000e-06	2.851073e-06	1.773964e-09	2.072925e+01	1.164584e+02
1.770000e-06	2.888288e-06	1.805637e-09	2.099983e+01	1.185132e+02
1.780000e-06	2.924940e-06	1.831357e-09	2.126631e+01	1.205205e+02
1.790000e-06	2.961129e-06	1.857380e-09	2.152943e+01	1.224788e+02
1.800000e-06	2.996935e-06	1.886698e-09	2.178977e+01	1.243870e+02
1.810000e-06	3.032422e-06	1.915886e-09	2.204778e+01	1.262449e+02
1.820000e-06	3.067549e-06	1.941219e-09	2.230318e+01	1.280526e+02
1.830000e-06	3.102074e-06	1.962594e-09	2.255420e+01	1.298110e+02
1.840000e-06	3.135790e-06	1.987812e-09	2.279934e+01	1.315211e+02
1.850000e-06	3.168697e-06	2.015469e-09	2.303859e+01	1.331845e+02
1.860000e-06	3.200897e-06	2.038585e-09	2.327271e+01	1.348028e+02
1.870000e-06	3.232601e-06	2.058651e-09	2.350321e+01	1.363780e+02
1.880000e-06	3.263906e-06	2.079964e-09	2.373082e+01	1.379117e+02
1.890000e-06	3.294675e-06	2.103084e-09	2.395454e+01	1.394053e+02
1.900000e-06	3.324882e-06	2.123810e-09	2.417416e+01	1.408601e+02
1.910000e-06	3.354568e-06	2.141454e-09	2.439000e+01	1.422769e+02
1.920000e-06	3.383647e-06	2.159086e-09	2.460143e+01	1.436564e+02
1.930000e-06	3.412071e-06	2.177866e-09	2.480809e+01	1.449985e+02
1.940000e-06	3.440001e-06	2.196890e-09	2.501116e+01	1.463031e+02
1.950000e-06	3.467565e-06	2.214023e-09	2.521157e+01	1.475697e+02
1.960000e-06	3.494688e-06	2.230904e-09	2.540877e+01	1.487977e+02
1.970000e-06	3.521032e-06	2.250876e-09	2.560031e+01	1.499865e+02
1.980000e-06	3.546390e-06	2.270249e-09	2.578468e+01	1.511355e+02
1.990000e-06	3.570869e-06	2.286197e-09	2.596266e+01	1.522443e+02
2.000000e-06	3.594672e-06	2.301715e-09	2.613572e+01	1.533128e+02
2.010000e-06	3.617957e-06	2.317570e-09	2.630502e+01	1.543411e+02
2.020000e-06	3.640639e-06	2.332257e-09	2.646993e+01	1.553298e+02
2.030000e-06	3.662688e-06	2.345901e-09	2.663024e+01	1.562798e+02
2.040000e-06	3.684159e-06	2.358935e-09	2.678635e+01	1.571925e+02
2.050000e-06	3.704991e-06	2.371144e-09	2.693782e+01	1.580694e+02
2.060000e-06	3.725177e-06	2.383864e-09	2.708458e+01	1.589122e+02
2.070000e-06	3.744870e-06	2.397305e-09	2.722776e+01	1.597228e+02
2.080000e-06	3.764119e-06	2.411248e-09	2.736771e+01	1.605028e+02
2.090000e-06	3.782798e-06	2.423829e-09	2.750353e+01	1.612541e+02
2.100000e-06	3.800790e-06	2.432455e-09	2.763434e+01	1.619779e+02
2.110000e-06	3.818046e-06	2.439792e-09	2.775981e+01	1.626753e+02
2.120000e-06	3.834653e-06	2.448548e-09	2.788055e+01	1.633468e+02
2.130000e-06	3.850611e-06	2.459174e-09	2.799658e+01	1.639927e+02
2.140000e-06	3.865867e-06	2.468154e-09	2.810749e+01	1.646127e+02
2.150000e-06	3.880327e-06	2.475552e-09	2.821263e+01	1.652064e+02
2.160000e-06	3.893936e-06	2.483249e-09	2.831158e+01	1.657727e+02
2.170000e-06	3.906781e-06	2.491288e-09	2.840497e+01	1.663107e+02
2.180000e-06	3.918950e-06	2.500137e-09	2.849345e+01	1.668192e+02
2.190000e-06	3.930483e-06	2.508534e-09	2.857730e+01	1.672971e+02
2.200000e-06	3.941257e-06	2.514119e-09	2.865563e+01	1.677435e+02
2.210000e-06	3.951016e-06	2.518083e-09	2.872659e+01	1.681578e+02
2.220000e-06	3.959673e-06	2.522897e-09	2.878953e+01	1.685397e+02
2.230000e-06	3.967531e-06	2.527734e-09	2.884666e+01	1.688892e+02
2.240000e-06	3.974840e-06	2.532786e-09	2.889981e+01	1.692068e+02
2.250000e-06	3.981544e-06	2.537021e-09	2.894855e+01	1.694934e+02
2.260000e-06	3.987579e-06	2.541214e-09	2.899242e+01	1.697500e+02
2.270000e-06	3.992971e-06	2.544068e-09	2.903163e+01	1.699780e+02
2.280000e-06	3.997747e-06	2.546557e-09	2.906636e+01	1.701788e+02
2.290000e-06	4.001907e-06	2.549553e-09	2.909660e+01	1.703536e+02
2.300000e-06	4.005451e-06	2.551917e-09	2.912236e+01	1.705037e+02
2.310000e-06	4.008366e-06	2.552439e-09	2.914356e+01	1.706299e+02
2.320000e-06	4.010492e-06	2.551339e-09	2.915902e+01	1.707325e+02
2.330000e-06	4.011650e-06	2.552937e-09	2.916744e+01	1.708117e+02
2.340000e-06	4.011899e-06	2.555983e-09	2.916925e+01	1.708669e+02
2.350000e-06	4.011436e-06	2.555786e-09	2.916588e+01	1.708972e+02
2.360000e-06	4.010401e-06	2.552657e-09	2.915835e+01	1.709015e+02
2.370000e-06	4.008812e-06	2.550287e-09	2.914680e+01	1.708782e+02
2.380000e-06	4.006638e-06	2.550970e-09	2.913100e+01	1.708259e+02
2.390000e-06	4.003866e-06	2.550352e-09	2.911084e+01	1.707431e+02
2.400000e-06	4.000495e-06	2.548725e-09	2.908633e+01	1.706289e+02
2.410000e-06	3.996540e-06	2.550280e-09	2.905758e+01	1.704826e+02
2.420000e-06	3.992071e-06	2.547549e-09	2.902508e+01	1.703045e+02
2.430000e-06	3.986995e-06	2.519370e-09	2.898818e+01	1.700955e+02
2.440000e-06	3.980870e-06	2.501209e-09	2.894365e+01	1.698576e+02
2.450000e-06	3.973512e-06	2.540447e-09	2.889015e+01	1.695935e+02
2.460000e-06	3.965350e-06	2.575878e-09	2.883080e+01	1.693071e+02
2.470000e-06	3.956886e-06	2.556082e-09	2.876926e+01	1.690030e+02
2.480000e-06	3.947974e-06	2.492522e-09	2.870447e+01	1.686862e+02
2.490000e-06	3.938157e-06	2.463920e-09	2.863309e+01	1.683624e+02
2.500000e-06	3.927591e-06	2.457674e-09	2.855627e+01	1.680371e+02
2.510000e-06	3.916623e-06	2.465119e-09	2.847652e+01	1.677159e+02
2.520000e-06	3.904931e-06	2.492898e-09	2.839152e+01	1.674037e+02
2.530000e-06	3.892171e-06	2.476308e-09	2.829875e+01	1.671045e+02
2.540000e-06	3.878572e-06	2.457585e-09	2.819987e+01	1.668214e+02
2.550000e-06	3.864318e-06	2.494772e-09	2.809623e+01	1.665560e+02
2.560000e-06	3.849236e-06	2.522048e-09	2.798658e+01	1.663084e+02
2.570000e-06	3.833220e-06	2.441238e-09	2.787013e+01	1.660773e+02
2.580000e-06	3.816517e-06	2.398151e-09	2.774869e+01	1.658597e+02
2.590000e-06	3.799238e-06	2.475918e-09	2.762306e+01	1.656512e+02
2.600000e-06	3.781289e-06	2.471886e-09	2.749255e+01	1.654461e+02
2.610000e-06	3.762610e-06	2.399001e-09	2.735674e+01	1.652376e+02
2.620000e-06	3.743215e-06	2.479025e-09	2.721573e+01	1.650183e+02
2.630000e-06	3.723340e-06	2.632554e-09	2.707122e+01	1.647806e+02
2.640000e-06	3.703002e-06	2.591215e-09	2.692335e+01	1.645166e+02
2.650000e-06	3.681926e-06	2.435835e-09	2.677012e+01	1.642190e+02
2.660000e-06	3.660189e-06	2.441009e-09	2.661208e+01	1.638813e+02
2.670000e-06	3.637756e-06	2.571731e-09	2.644897e+01	1.634979e+02
2.680000e-06	3.614374e-06	2.577128e-09	2.627897e+01	1.630647e+02
2.690000e-06	3.590226e-06	2.415520e-09	2.610339e+01	1.625789e+02
2.700000e-06	3.565585e-06	2.386977e-09	2.592424e+01	1.620394e+02
2.710000e-06	3.540366e-06	2.512997e-09	2.574088e+01	1.614462e+02
2.720000e-06	3.514518e-06	2.515858e-09	2.555295e+01	1.608011e+02
2.730000e-06	3.488086e-06	2.453935e-09	2.536077e+01	1.601069e+02
2.740000e-06	3.461072e-06	2.437631e-09	2.516436e+01	1.593673e+02
2.750000e-06	3.433526e-06	2.433678e-09	2.496408e+01	1.585869e+02
2.760000e-06	3.405481e-06	2.459473e-09	2.476017e+01	1.577702e+02
2.770000e-06	3.376999e-06	2.470424e-09	2.455309e+01	1.569221e+02
2.780000e-06	3.348004e-06	2.414074e-09	2.434228e+01	1.560471e+02
2.790000e-06	3.318141e-06	2.363291e-09	2.412515e+01	1.551489e+02
2.800000e-06	3.287261e-06	2.376932e-09	2.390063e+01	1.542307e+02
2.810000e-06	3.255664e-06	2.389738e-09	2.367090e+01	1.532948e+02
2.820000e-06	3.223521e-06	2.376312e-09	2.343720e+01	1.523423e+02
2.830000e-06	3.190855e-06	2.342929e-09	2.319970e+01	1.513736e+02
2.840000e-06	3.157714e-06	2.294053e-09	2.295874e+01	1.503881e+02
2.850000e-06	3.124115e-06	2.298065e-09	2.271445e+01	1.493844e+02
2.860000e-06	3.089988e-06	2.320969e-09	2.246633e+01	1.483608e+02
2.870000e-06	3.055291e-06	2.304428e-09	2.221406e+01	1.473150e+02
2.880000e-06	3.020081e-06	2.262191e-09	2.195805e+01	1.462448e+02
2.890000e-06	2.984404e-06	2.210767e-09	2.169866e+01	1.451482e+02
2.900000e-06	2.948372e-06	2.216412e-09	2.143668e+01	1.440234e+02
2.910000e-06	2.911997e-06	2.251897e-09	2.117221e+01	1.428695e+02
2.920000e-06	2.875155e-06	2.219043e-09	2.090434e+01	1.416858e+02
2.930000e-06	2.837676e-06	2.137257e-09	2.063184e+01	1.404726e+02
2.940000e-06	2.799370e-06	2.105475e-09	2.035334e+01	1.392309e+02
