# Temperatura_=_20.0
# Concentracion g/m^3_=_12600.0
# C_Vs_to_Am_M_A/Vsm_=_65563218390.804596
# pendiente_HvsI_1/m_=_3716.3
# ordenada_HvsI_A/m_=_1297.0
# frecuencia_Hz_=_213006.67113039398

Tiempo_(s)	Campo_(V.s)	Magnetizacion_(V.s)	Campo_(kA/m)	Magnetizacion_(A/m)
0.000000e+00	-3.996656e-06	-2.592303e-09	-2.910331e+01	-1.691217e+02
1.000000e-08	-3.996821e-06	-2.594311e-09	-2.910451e+01	-1.691015e+02
2.000000e-08	-3.996365e-06	-2.593683e-09	-2.910119e+01	-1.690615e+02
3.000000e-08	-3.994993e-06	-2.590750e-09	-2.909120e+01	-1.690008e+02
4.000000e-08	-3.992587e-06	-2.589480e-09	-2.907368e+01	-1.689180e+02
5.000000e-08	-3.989398e-06	-2.588621e-09	-2.905046e+01	-1.688114e+02
6.000000e-08	-3.985705e-06	-2.582664e-09	-2.902357e+01	-1.686794e+02
7.000000e-08	-3.981516e-06	-2.569834e-09	-2.899307e+01	-1.685206e+02
8.000000e-08	-3.976594e-06	-2.584487e-09	-2.895722e+01	-1.683338e+02
9.000000e-08	-3.970826e-06	-2.630154e-09	-2.891522e+01	-1.681185e+02
1.000000e-07	-3.964261e-06	-2.630323e-09	-2.886742e+01	-1.678748e+02
1.100000e-07	-3.957057e-06	-2.503596e-09	-2.881495e+01	-1.676038e+02
1.200000e-07	-3.949384e-06	-2.482256e-09	-2.875908e+01	-1.673071e+02
1.300000e-07	-3.941124e-06	-2.591225e-09	-2.869893e+01	-1.669877e+02
1.400000e-07	-3.931979e-06	-2.625524e-09	-2.863234e+01	-1.666488e+02
1.500000e-07	-3.921957e-06	-2.554392e-09	-2.855936e+01	-1.662947e+02
1.600000e-07	-3.911125e-06	-2.550954e-09	-2.848048e+01	-1.659301e+02
1.700000e-07	-3.899278e-06	-2.599569e-09	-2.839421e+01	-1.655598e+02
1.800000e-07	-3.886517e-06	-2.519279e-09	-2.830129e+01	-1.651886e+02
1.900000e-07	-3.873308e-06	-2.615816e-09	-2.820510e+01	-1.648212e+02
2.000000e-07	-3.859340e-06	-2.645103e-09	-2.810339e+01	-1.644615e+02
2.100000e-07	-3.844139e-06	-2.416237e-09	-2.799269e+01	-1.641125e+02
2.200000e-07	-3.828001e-06	-2.434673e-09	-2.787518e+01	-1.637762e+02
2.300000e-07	-3.811295e-06	-2.665805e-09	-2.775353e+01	-1.634534e+02
2.400000e-07	-3.794076e-06	-2.611209e-09	-2.762814e+01	-1.631435e+02
2.500000e-07	-3.776212e-06	-2.378956e-09	-2.749805e+01	-1.628442e+02
2.600000e-07	-3.757585e-06	-2.480409e-09	-2.736242e+01	-1.625523e+02
2.700000e-07	-3.738366e-06	-2.650177e-09	-2.722247e+01	-1.622630e+02
2.800000e-07	-3.718817e-06	-2.572389e-09	-2.708011e+01	-1.619706e+02
2.900000e-07	-3.698796e-06	-2.482033e-09	-2.693432e+01	-1.616686e+02
3.000000e-07	-3.678070e-06	-2.426420e-09	-2.678340e+01	-1.613500e+02
3.100000e-07	-3.656700e-06	-2.473011e-09	-2.662778e+01	-1.610077e+02
3.200000e-07	-3.634723e-06	-2.567198e-09	-2.646774e+01	-1.606348e+02
3.300000e-07	-3.612049e-06	-2.515550e-09	-2.630263e+01	-1.602250e+02
3.400000e-07	-3.588827e-06	-2.412151e-09	-2.613353e+01	-1.597725e+02
3.500000e-07	-3.565179e-06	-2.389880e-09	-2.596133e+01	-1.592731e+02
3.600000e-07	-3.540965e-06	-2.476039e-09	-2.578501e+01	-1.587235e+02
3.700000e-07	-3.515949e-06	-2.512982e-09	-2.560284e+01	-1.581218e+02
3.800000e-07	-3.489984e-06	-2.417981e-09	-2.541377e+01	-1.574678e+02
3.900000e-07	-3.463218e-06	-2.326590e-09	-2.521886e+01	-1.567624e+02
4.000000e-07	-3.435886e-06	-2.370979e-09	-2.501983e+01	-1.560078e+02
4.100000e-07	-3.408103e-06	-2.484915e-09	-2.481751e+01	-1.552073e+02
4.200000e-07	-3.379778e-06	-2.414216e-09	-2.461126e+01	-1.543651e+02
4.300000e-07	-3.350841e-06	-2.282642e-09	-2.440054e+01	-1.534856e+02
4.400000e-07	-3.321364e-06	-2.294145e-09	-2.418589e+01	-1.525738e+02
4.500000e-07	-3.291333e-06	-2.359466e-09	-2.396721e+01	-1.516345e+02
4.600000e-07	-3.260741e-06	-2.382860e-09	-2.374444e+01	-1.506722e+02
4.700000e-07	-3.229672e-06	-2.287865e-09	-2.351820e+01	-1.496907e+02
4.800000e-07	-3.198220e-06	-2.210099e-09	-2.328916e+01	-1.486932e+02
4.900000e-07	-3.166353e-06	-2.246963e-09	-2.305712e+01	-1.476820e+02
5.000000e-07	-3.133825e-06	-2.288326e-09	-2.282025e+01	-1.466583e+02
5.100000e-07	-3.100433e-06	-2.275589e-09	-2.257709e+01	-1.456226e+02
5.200000e-07	-3.066165e-06	-2.194902e-09	-2.232756e+01	-1.445743e+02
5.300000e-07	-3.031158e-06	-2.146959e-09	-2.207263e+01	-1.435123e+02
5.400000e-07	-2.995716e-06	-2.176914e-09	-2.181455e+01	-1.424348e+02
5.500000e-07	-2.959976e-06	-2.206543e-09	-2.155429e+01	-1.413397e+02
5.600000e-07	-2.923820e-06	-2.178460e-09	-2.129101e+01	-1.402246e+02
5.700000e-07	-2.887116e-06	-2.080437e-09	-2.102373e+01	-1.390874e+02
5.800000e-07	-2.849890e-06	-2.057251e-09	-2.075266e+01	-1.379260e+02
5.900000e-07	-2.812230e-06	-2.113218e-09	-2.047842e+01	-1.367388e+02
6.000000e-07	-2.774098e-06	-2.117683e-09	-2.020075e+01	-1.355248e+02
6.100000e-07	-2.735376e-06	-2.055186e-09	-1.991878e+01	-1.342836e+02
6.200000e-07	-2.696141e-06	-1.982004e-09	-1.963307e+01	-1.330153e+02
6.300000e-07	-2.656646e-06	-1.991007e-09	-1.934547e+01	-1.317206e+02
6.400000e-07	-2.616899e-06	-2.028728e-09	-1.905604e+01	-1.304008e+02
6.500000e-07	-2.576692e-06	-2.005127e-09	-1.876325e+01	-1.290576e+02
6.600000e-07	-2.535850e-06	-1.936629e-09	-1.846584e+01	-1.276929e+02
6.700000e-07	-2.494299e-06	-1.883349e-09	-1.816328e+01	-1.263086e+02
6.800000e-07	-2.452098e-06	-1.909840e-09	-1.785597e+01	-1.249067e+02
6.900000e-07	-2.409263e-06	-1.930146e-09	-1.754405e+01	-1.234889e+02
7.000000e-07	-2.365961e-06	-1.876735e-09	-1.722873e+01	-1.220566e+02
7.100000e-07	-2.322411e-06	-1.815213e-09	-1.691160e+01	-1.206107e+02
7.200000e-07	-2.278594e-06	-1.796514e-09	-1.659253e+01	-1.191515e+02
7.300000e-07	-2.234435e-06	-1.815854e-09	-1.627096e+01	-1.176790e+02
7.400000e-07	-2.189906e-06	-1.797282e-09	-1.594671e+01	-1.161925e+02
7.500000e-07	-2.144999e-06	-1.743001e-09	-1.561970e+01	-1.146911e+02
7.600000e-07	-2.099646e-06	-1.705939e-09	-1.528945e+01	-1.131731e+02
7.700000e-07	-2.053964e-06	-1.691008e-09	-1.495679e+01	-1.116370e+02
7.800000e-07	-2.007929e-06	-1.693008e-09	-1.462157e+01	-1.100810e+02
7.900000e-07	-1.961456e-06	-1.666933e-09	-1.428316e+01	-1.085032e+02
8.000000e-07	-1.914681e-06	-1.620122e-09	-1.394255e+01	-1.069022e+02
8.100000e-07	-1.867657e-06	-1.590800e-09	-1.360012e+01	-1.052765e+02
8.200000e-07	-1.820384e-06	-1.578614e-09	-1.325588e+01	-1.036250e+02
8.300000e-07	-1.772846e-06	-1.571936e-09	-1.290971e+01	-1.019472e+02
8.400000e-07	-1.724944e-06	-1.536840e-09	-1.256090e+01	-1.002427e+02
8.500000e-07	-1.676693e-06	-1.494671e-09	-1.220953e+01	-9.851178e+01
8.600000e-07	-1.628057e-06	-1.468741e-09	-1.185537e+01	-9.675488e+01
8.700000e-07	-1.579018e-06	-1.450935e-09	-1.149828e+01	-9.497277e+01
8.800000e-07	-1.529546e-06	-1.437935e-09	-1.113803e+01	-9.316641e+01
8.900000e-07	-1.479459e-06	-1.402712e-09	-1.077330e+01	-9.133685e+01
9.000000e-07	-1.428892e-06	-1.359890e-09	-1.040507e+01	-8.948513e+01
9.100000e-07	-1.378049e-06	-1.329680e-09	-1.003484e+01	-8.761218e+01
9.200000e-07	-1.327005e-06	-1.312510e-09	-9.663138e+00	-8.571875e+01
9.300000e-07	-1.275720e-06	-1.295297e-09	-9.289683e+00	-8.380536e+01
9.400000e-07	-1.224151e-06	-1.249389e-09	-8.914162e+00	-8.187225e+01
9.500000e-07	-1.172397e-06	-1.205312e-09	-8.537294e+00	-7.991942e+01
9.600000e-07	-1.120482e-06	-1.185757e-09	-8.159256e+00	-7.794664e+01
9.700000e-07	-1.068311e-06	-1.172026e-09	-7.779354e+00	-7.595348e+01
9.800000e-07	-1.015882e-06	-1.142829e-09	-7.397567e+00	-7.393942e+01
9.900000e-07	-9.632047e-07	-1.092998e-09	-7.013976e+00	-7.190391e+01
1.000000e-06	-9.103245e-07	-1.060029e-09	-6.628906e+00	-6.984649e+01
1.010000e-06	-8.573529e-07	-1.044465e-09	-6.243171e+00	-6.776683e+01
1.020000e-06	-8.042737e-07	-1.019963e-09	-5.856653e+00	-6.566487e+01
1.030000e-06	-7.511060e-07	-9.785180e-10	-5.469490e+00	-6.354081e+01
1.040000e-06	-6.978262e-07	-9.308567e-10	-5.081511e+00	-6.139516e+01
1.050000e-06	-6.444066e-07	-9.036420e-10	-4.692514e+00	-5.922879e+01
1.060000e-06	-5.908927e-07	-8.818367e-10	-4.302831e+00	-5.704282e+01
1.070000e-06	-5.372820e-07	-8.467911e-10	-3.912442e+00	-5.483865e+01
1.080000e-06	-4.835949e-07	-8.040382e-10	-3.521497e+00	-5.261781e+01
1.090000e-06	-4.298547e-07	-7.625314e-10	-3.130166e+00	-5.038192e+01
1.100000e-06	-3.761019e-07	-7.351080e-10	-2.738742e+00	-4.813256e+01
1.110000e-06	-3.222990e-07	-7.079997e-10	-2.346954e+00	-4.587114e+01
1.120000e-06	-2.684024e-07	-6.723257e-10	-1.954484e+00	-4.359887e+01
1.130000e-06	-2.144210e-07	-6.317585e-10	-1.561395e+00	-4.131658e+01
1.140000e-06	-1.603533e-07	-5.920523e-10	-1.167679e+00	-3.902475e+01
1.150000e-06	-1.062914e-07	-5.629936e-10	-7.740051e-01	-3.672342e+01
1.160000e-06	-5.226261e-08	-5.296029e-10	-3.805719e-01	-3.441219e+01
1.170000e-06	1.752266e-09	-4.894881e-10	1.275985e-02	-3.209029e+01
1.180000e-06	5.578982e-08	-4.473037e-10	4.062568e-01	-2.975660e+01
1.190000e-06	1.098116e-07	-4.083625e-10	7.996384e-01	-2.740976e+01
1.200000e-06	1.637598e-07	-3.783605e-10	1.192485e+00	-2.504827e+01
1.210000e-06	2.176662e-07	-3.438848e-10	1.585027e+00	-2.267061e+01
1.220000e-06	2.715251e-07	-3.046313e-10	1.977223e+00	-2.027537e+01
1.230000e-06	3.254058e-07	-2.621766e-10	2.369578e+00	-1.786136e+01
1.240000e-06	3.792940e-07	-2.242939e-10	2.761987e+00	-1.542771e+01
1.250000e-06	4.331031e-07	-1.930323e-10	3.153820e+00	-1.297395e+01
1.260000e-06	4.868057e-07	-1.524869e-10	3.544878e+00	-1.050007e+01
1.270000e-06	5.404123e-07	-1.083037e-10	3.935237e+00	-8.006529e+00
1.280000e-06	5.939667e-07	-6.707578e-11	4.325215e+00	-5.494225e+00
1.290000e-06	6.474418e-07	-3.172715e-11	4.714616e+00	-2.964463e+00
1.300000e-06	7.008186e-07	1.945142e-12	5.103302e+00	-4.188649e-01
1.310000e-06	7.540759e-07	4.403737e-11	5.491117e+00	2.140725e+00
1.320000e-06	8.071934e-07	8.622717e-11	5.877914e+00	4.712363e+00
1.330000e-06	8.601290e-07	1.244082e-10	6.263386e+00	7.294122e+00
1.340000e-06	9.128554e-07	1.599476e-10	6.647336e+00	9.884213e+00
1.350000e-06	9.653686e-07	1.973195e-10	7.029732e+00	1.248109e+01
1.360000e-06	1.017649e-06	2.412225e-10	7.410436e+00	1.508352e+01
1.370000e-06	1.069802e-06	2.834646e-10	7.790208e+00	1.769066e+01
1.380000e-06	1.121777e-06	3.234922e-10	8.168688e+00	2.030204e+01
1.390000e-06	1.173513e-06	3.635201e-10	8.545425e+00	2.291762e+01
1.400000e-06	1.225091e-06	4.053428e-10	8.921010e+00	2.553763e+01
1.410000e-06	1.276467e-06	4.483981e-10	9.295123e+00	2.816262e+01
1.420000e-06	1.327617e-06	4.874298e-10	9.667592e+00	3.079325e+01
1.430000e-06	1.378472e-06	5.271332e-10	1.003791e+01	3.343023e+01
1.440000e-06	1.428938e-06	5.668101e-10	1.040541e+01	3.607418e+01
1.450000e-06	1.478999e-06	6.049420e-10	1.076994e+01	3.872552e+01
1.460000e-06	1.528596e-06	6.451353e-10	1.113111e+01	4.138429e+01
1.470000e-06	1.577665e-06	6.864283e-10	1.148842e+01	4.405016e+01
1.480000e-06	1.626265e-06	7.281664e-10	1.184233e+01	4.672228e+01
1.490000e-06	1.674487e-06	7.659742e-10	1.219348e+01	4.939929e+01
1.500000e-06	1.722411e-06	8.042195e-10	1.254245e+01	5.207929e+01
1.510000e-06	1.770136e-06	8.479283e-10	1.288998e+01	5.475991e+01
1.520000e-06	1.817639e-06	8.905713e-10	1.323589e+01	5.743837e+01
1.530000e-06	1.864938e-06	9.311940e-10	1.358032e+01	6.011156e+01
1.540000e-06	1.911957e-06	9.705882e-10	1.392271e+01	6.277618e+01
1.550000e-06	1.958580e-06	1.013385e-09	1.426222e+01	6.542886e+01
1.560000e-06	2.004798e-06	1.056205e-09	1.459877e+01	6.806628e+01
1.570000e-06	2.050628e-06	1.094729e-09	1.493250e+01	7.068531e+01
1.580000e-06	2.096105e-06	1.132985e-09	1.526366e+01	7.328314e+01
1.590000e-06	2.141246e-06	1.170054e-09	1.559237e+01	7.585732e+01
1.600000e-06	2.185990e-06	1.207746e-09	1.591820e+01	7.840585e+01
1.610000e-06	2.230318e-06	1.244986e-09	1.624099e+01	8.092720e+01
1.620000e-06	2.274323e-06	1.279630e-09	1.656143e+01	8.342030e+01
1.630000e-06	2.318078e-06	1.314082e-09	1.688005e+01	8.588450e+01
1.640000e-06	2.361622e-06	1.350370e-09	1.719713e+01	8.831950e+01
1.650000e-06	2.404923e-06	1.387519e-09	1.751245e+01	9.072529e+01
1.660000e-06	2.447834e-06	1.422644e-09	1.782492e+01	9.310199e+01
1.670000e-06	2.490112e-06	1.456701e-09	1.813278e+01	9.544981e+01
1.680000e-06	2.531641e-06	1.491233e-09	1.843520e+01	9.776891e+01
1.690000e-06	2.572426e-06	1.523798e-09	1.873219e+01	1.000593e+02
1.700000e-06	2.612538e-06	1.555984e-09	1.902428e+01	1.023207e+02
1.710000e-06	2.652232e-06	1.589477e-09	1.931333e+01	1.045527e+02
1.720000e-06	2.691688e-06	1.621525e-09	1.960065e+01	1.067546e+02
1.730000e-06	2.730890e-06	1.651090e-09	1.988611e+01	1.089252e+02
1.740000e-06	2.769685e-06	1.679176e-09	2.016861e+01	1.110631e+02
1.750000e-06	2.807957e-06	1.710225e-09	2.044730e+01	1.131669e+02
1.760000e-06	2.845667e-06	1.742767e-09	2.072191e+01	1.152349e+02
1.770000e-06	2.882816e-06	1.773001e-09	2.099242e+01	1.172653e+02
1.780000e-06	2.919460e-06	1.799124e-09	2.125926e+01	1.192564e+02
1.790000e-06	2.955648e-06	1.824115e-09	2.152278e+01	1.212065e+02
1.800000e-06	2.991475e-06	1.854403e-09	2.178367e+01	1.231144e+02
1.810000e-06	3.027000e-06	1.885227e-09	2.204236e+01	1.249788e+02
1.820000e-06	3.062145e-06	1.910780e-09	2.229828e+01	1.267990e+02
1.830000e-06	3.096670e-06	1.933042e-09	2.254969e+01	1.285743e+02
1.840000e-06	3.130363e-06	1.957609e-09	2.279504e+01	1.303047e+02
1.850000e-06	3.163187e-06	1.983982e-09	2.303406e+01	1.319903e+02
1.860000e-06	3.195280e-06	2.005572e-09	2.326776e+01	1.336314e+02
1.870000e-06	3.226922e-06	2.025763e-09	2.349817e+01	1.352286e+02
1.880000e-06	3.258150e-06	2.047767e-09	2.372557e+01	1.367826e+02
1.890000e-06	3.288849e-06	2.068657e-09	2.394912e+01	1.382942e+02
1.900000e-06	3.318993e-06	2.088378e-09	2.416863e+01	1.397641e+02
1.910000e-06	3.348603e-06	2.108179e-09	2.438424e+01	1.411930e+02
1.920000e-06	3.377665e-06	2.127424e-09	2.459587e+01	1.425815e+02
1.930000e-06	3.406132e-06	2.145711e-09	2.480316e+01	1.439301e+02
1.940000e-06	3.434066e-06	2.164524e-09	2.500658e+01	1.452391e+02
1.950000e-06	3.461610e-06	2.183806e-09	2.520715e+01	1.465088e+02
1.960000e-06	3.488669e-06	2.202532e-09	2.540419e+01	1.477393e+02
1.970000e-06	3.514933e-06	2.221254e-09	2.559544e+01	1.489307e+02
1.980000e-06	3.540199e-06	2.237814e-09	2.577943e+01	1.500831e+02
1.990000e-06	3.564583e-06	2.251642e-09	2.595699e+01	1.511969e+02
2.000000e-06	3.588389e-06	2.267876e-09	2.613034e+01	1.522723e+02
2.010000e-06	3.611665e-06	2.283394e-09	2.629984e+01	1.533098e+02
2.020000e-06	3.634328e-06	2.296310e-09	2.646487e+01	1.543101e+02
2.030000e-06	3.656335e-06	2.309492e-09	2.662512e+01	1.552741e+02
2.040000e-06	3.677678e-06	2.323397e-09	2.678054e+01	1.562029e+02
2.050000e-06	3.698443e-06	2.337853e-09	2.693175e+01	1.570975e+02
2.060000e-06	3.718671e-06	2.351518e-09	2.707904e+01	1.579594e+02
2.070000e-06	3.738396e-06	2.364555e-09	2.722268e+01	1.587898e+02
2.080000e-06	3.757675e-06	2.376575e-09	2.736307e+01	1.595899e+02
2.090000e-06	3.776422e-06	2.388088e-09	2.749958e+01	1.603607e+02
2.100000e-06	3.794436e-06	2.398625e-09	2.763076e+01	1.611030e+02
2.110000e-06	3.811630e-06	2.407945e-09	2.775597e+01	1.618175e+02
2.120000e-06	3.828273e-06	2.418422e-09	2.787716e+01	1.625042e+02
2.130000e-06	3.844362e-06	2.428535e-09	2.799432e+01	1.631629e+02
2.140000e-06	3.859532e-06	2.438507e-09	2.810478e+01	1.637931e+02
2.150000e-06	3.873836e-06	2.447572e-09	2.820894e+01	1.643940e+02
2.160000e-06	3.887431e-06	2.455373e-09	2.830795e+01	1.649643e+02
2.170000e-06	3.900297e-06	2.462714e-09	2.840163e+01	1.655027e+02
2.180000e-06	3.912469e-06	2.469557e-09	2.849027e+01	1.660078e+02
2.190000e-06	3.923993e-06	2.477582e-09	2.857419e+01	1.664783e+02
2.200000e-06	3.934712e-06	2.484052e-09	2.865224e+01	1.669131e+02
2.210000e-06	3.944345e-06	2.488780e-09	2.872238e+01	1.673111e+02
2.220000e-06	3.952938e-06	2.494401e-09	2.878496e+01	1.676720e+02
2.230000e-06	3.960856e-06	2.499942e-09	2.884262e+01	1.679956e+02
2.240000e-06	3.968265e-06	2.504025e-09	2.889657e+01	1.682825e+02
2.250000e-06	3.975049e-06	2.508168e-09	2.894597e+01	1.685335e+02
2.260000e-06	3.981152e-06	2.514252e-09	2.899041e+01	1.687500e+02
2.270000e-06	3.986575e-06	2.520267e-09	2.902990e+01	1.689339e+02
2.280000e-06	3.991293e-06	2.524359e-09	2.906426e+01	1.690873e+02
2.290000e-06	3.995403e-06	2.527774e-09	2.909419e+01	1.692123e+02
2.300000e-06	3.999029e-06	2.528689e-09	2.912059e+01	1.693114e+02
2.310000e-06	4.002044e-06	2.527526e-09	2.914254e+01	1.693867e+02
2.320000e-06	4.004213e-06	2.527905e-09	2.915834e+01	1.694399e+02
2.330000e-06	4.005406e-06	2.530084e-09	2.916703e+01	1.694727e+02
2.340000e-06	4.005711e-06	2.532776e-09	2.916925e+01	1.694860e+02
2.350000e-06	4.005410e-06	2.532966e-09	2.916706e+01	1.694801e+02
2.360000e-06	4.004542e-06	2.529813e-09	2.916074e+01	1.694550e+02
2.370000e-06	4.002994e-06	2.529334e-09	2.914946e+01	1.694100e+02
2.380000e-06	4.000786e-06	2.532029e-09	2.913339e+01	1.693439e+02
2.390000e-06	3.997952e-06	2.532375e-09	2.911275e+01	1.692553e+02
2.400000e-06	3.994498e-06	2.531000e-09	2.908759e+01	1.691424e+02
2.410000e-06	3.990526e-06	2.540020e-09	2.905868e+01	1.690039e+02
2.420000e-06	3.986127e-06	2.530500e-09	2.902664e+01	1.688381e+02
2.430000e-06	3.981031e-06	2.464052e-09	2.898953e+01	1.686442e+02
2.440000e-06	3.974756e-06	2.442696e-09	2.894384e+01	1.684218e+02
2.450000e-06	3.967259e-06	2.577285e-09	2.888925e+01	1.681711e+02
2.460000e-06	3.959074e-06	2.602071e-09	2.882964e+01	1.678934e+02
2.470000e-06	3.950646e-06	2.485694e-09	2.876827e+01	1.675908e+02
2.480000e-06	3.941764e-06	2.427661e-09	2.870359e+01	1.672661e+02
2.490000e-06	3.931939e-06	2.503653e-09	2.863205e+01	1.669230e+02
2.500000e-06	3.921414e-06	2.484184e-09	2.855541e+01	1.665659e+02
2.510000e-06	3.910541e-06	2.444275e-09	2.847623e+01	1.661993e+02
2.520000e-06	3.898891e-06	2.542607e-09	2.839139e+01	1.658283e+02
2.530000e-06	3.886094e-06	2.446126e-09	2.829821e+01	1.654577e+02
2.540000e-06	3.872519e-06	2.395559e-09	2.819936e+01	1.650919e+02
2.550000e-06	3.858285e-06	2.605871e-09	2.809570e+01	1.647345e+02
2.560000e-06	3.843159e-06	2.619815e-09	2.798556e+01	1.643886e+02
2.570000e-06	3.827196e-06	2.341232e-09	2.786932e+01	1.640557e+02
2.580000e-06	3.810496e-06	2.368789e-09	2.774771e+01	1.637362e+02
2.590000e-06	3.793194e-06	2.596450e-09	2.762172e+01	1.634291e+02
2.600000e-06	3.775325e-06	2.447799e-09	2.749160e+01	1.631321e+02
2.610000e-06	3.756710e-06	2.308144e-09	2.735604e+01	1.628413e+02
2.620000e-06	3.737302e-06	2.483759e-09	2.721472e+01	1.625518e+02
2.630000e-06	3.717394e-06	2.595788e-09	2.706975e+01	1.622576e+02
2.640000e-06	3.697050e-06	2.579214e-09	2.692160e+01	1.619521e+02
2.650000e-06	3.676186e-06	2.491041e-09	2.676968e+01	1.616282e+02
2.660000e-06	3.654738e-06	2.410847e-09	2.661349e+01	1.612789e+02
2.670000e-06	3.632381e-06	2.433005e-09	2.645069e+01	1.608974e+02
2.680000e-06	3.609019e-06	2.530641e-09	2.628057e+01	1.604773e+02
2.690000e-06	3.584974e-06	2.515096e-09	2.610548e+01	1.600135e+02
2.700000e-06	3.560423e-06	2.398530e-09	2.592670e+01	1.595017e+02
2.710000e-06	3.535275e-06	2.354143e-09	2.574357e+01	1.589392e+02
2.720000e-06	3.509513e-06	2.399666e-09	2.555598e+01	1.583245e+02
2.730000e-06	3.483185e-06	2.535114e-09	2.536426e+01	1.576574e+02
2.740000e-06	3.456271e-06	2.481869e-09	2.516828e+01	1.569395e+02
2.750000e-06	3.428734e-06	2.298070e-09	2.496775e+01	1.561730e+02
2.760000e-06	3.400663e-06	2.368473e-09	2.476334e+01	1.553617e+02
2.770000e-06	3.372252e-06	2.462341e-09	2.455646e+01	1.545096e+02
2.780000e-06	3.343403e-06	2.430935e-09	2.434638e+01	1.536216e+02
2.790000e-06	3.313655e-06	2.355224e-09	2.412975e+01	1.527025e+02
2.800000e-06	3.282844e-06	2.273618e-09	2.390539e+01	1.517571e+02
2.810000e-06	3.251277e-06	2.337128e-09	2.367553e+01	1.507896e+02
2.820000e-06	3.219240e-06	2.381456e-09	2.344223e+01	1.498038e+02
2.830000e-06	3.186784e-06	2.328866e-09	2.320589e+01	1.488027e+02
2.840000e-06	3.153804e-06	2.271107e-09	2.296574e+01	1.477883e+02
2.850000e-06	3.120239e-06	2.230281e-09	2.272132e+01	1.467615e+02
2.860000e-06	3.086151e-06	2.264925e-09	2.247309e+01	1.457227e+02
2.870000e-06	3.051583e-06	2.296181e-09	2.222137e+01	1.446712e+02
2.880000e-06	3.016476e-06	2.254749e-09	2.196572e+01	1.436055e+02
2.890000e-06	2.980825e-06	2.178434e-09	2.170612e+01	1.425238e+02
2.900000e-06	2.944777e-06	2.158986e-09	2.144361e+01	1.414239e+02
2.910000e-06	2.908440e-06	2.222724e-09	2.117902e+01	1.403035e+02
2.920000e-06	2.871713e-06	2.218752e-09	2.091157e+01	1.391603e+02
2.930000e-06	2.834352e-06	2.131865e-09	2.063951e+01	1.379926e+02
2.940000e-06	2.796133e-06	2.075998e-09	2.036120e+01	1.367988e+02
