# Temperatura_=_20.0
# Concentracion g/m^3_=_12600.0
# C_Vs_to_Am_M_A/Vsm_=_65563218390.804596
# pendiente_HvsI_1/m_=_3716.3
# ordenada_HvsI_A/m_=_1297.0
# frecuencia_Hz_=_213004.51020978027

Tiempo_(s)	Campo_(V.s)	Magnetizacion_(V.s)	Campo_(kA/m)	Magnetizacion_(A/m)
0.000000e+00	-4.003417e-06	-2.373866e-09	-2.911162e+01	-1.543802e+02
1.000000e-08	-4.003438e-06	-2.375073e-09	-2.911177e+01	-1.543777e+02
2.000000e-08	-4.002759e-06	-2.376132e-09	-2.910683e+01	-1.543686e+02
3.000000e-08	-4.001146e-06	-2.374190e-09	-2.909511e+01	-1.543540e+02
4.000000e-08	-3.998575e-06	-2.371239e-09	-2.907641e+01	-1.543336e+02
5.000000e-08	-3.995255e-06	-2.368933e-09	-2.905227e+01	-1.543058e+02
6.000000e-08	-3.991446e-06	-2.359804e-09	-2.902457e+01	-1.542678e+02
7.000000e-08	-3.987075e-06	-2.340073e-09	-2.899279e+01	-1.542156e+02
8.000000e-08	-3.981941e-06	-2.342494e-09	-2.895545e+01	-1.541441e+02
9.000000e-08	-3.975984e-06	-2.422984e-09	-2.891214e+01	-1.540479e+02
1.000000e-07	-3.969193e-06	-2.470430e-09	-2.886276e+01	-1.539211e+02
1.100000e-07	-3.961760e-06	-2.330799e-09	-2.880871e+01	-1.537581e+02
1.200000e-07	-3.953923e-06	-2.182510e-09	-2.875171e+01	-1.535537e+02
1.300000e-07	-3.945493e-06	-2.312148e-09	-2.869042e+01	-1.533039e+02
1.400000e-07	-3.936122e-06	-2.498847e-09	-2.862227e+01	-1.530058e+02
1.500000e-07	-3.925888e-06	-2.400077e-09	-2.854785e+01	-1.526580e+02
1.600000e-07	-3.914919e-06	-2.326433e-09	-2.846809e+01	-1.522611e+02
1.700000e-07	-3.902958e-06	-2.361930e-09	-2.838111e+01	-1.518172e+02
1.800000e-07	-3.890059e-06	-2.282163e-09	-2.828731e+01	-1.513304e+02
1.900000e-07	-3.876726e-06	-2.308392e-09	-2.819037e+01	-1.508062e+02
2.000000e-07	-3.862714e-06	-2.485544e-09	-2.808847e+01	-1.502516e+02
2.100000e-07	-3.847333e-06	-2.294734e-09	-2.797663e+01	-1.496745e+02
2.200000e-07	-3.830973e-06	-2.031159e-09	-2.785766e+01	-1.490834e+02
2.300000e-07	-3.814212e-06	-2.344204e-09	-2.773578e+01	-1.484868e+02
2.400000e-07	-3.796909e-06	-2.523556e-09	-2.760995e+01	-1.478929e+02
2.500000e-07	-3.778904e-06	-2.179415e-09	-2.747903e+01	-1.473090e+02
2.600000e-07	-3.760238e-06	-2.083195e-09	-2.734330e+01	-1.467412e+02
2.700000e-07	-3.740998e-06	-2.340353e-09	-2.720339e+01	-1.461939e+02
2.800000e-07	-3.721313e-06	-2.342550e-09	-2.706025e+01	-1.456697e+02
2.900000e-07	-3.701147e-06	-2.217639e-09	-2.691361e+01	-1.451691e+02
3.000000e-07	-3.680315e-06	-2.232908e-09	-2.676212e+01	-1.446907e+02
3.100000e-07	-3.658827e-06	-2.215590e-09	-2.660587e+01	-1.442310e+02
3.200000e-07	-3.636726e-06	-2.205287e-09	-2.644515e+01	-1.437850e+02
3.300000e-07	-3.613934e-06	-2.227478e-09	-2.627942e+01	-1.433461e+02
3.400000e-07	-3.590564e-06	-2.224467e-09	-2.610948e+01	-1.429068e+02
3.500000e-07	-3.566751e-06	-2.238615e-09	-2.593632e+01	-1.424589e+02
3.600000e-07	-3.542356e-06	-2.153054e-09	-2.575893e+01	-1.419942e+02
3.700000e-07	-3.517204e-06	-2.086557e-09	-2.557603e+01	-1.415048e+02
3.800000e-07	-3.491126e-06	-2.224001e-09	-2.538640e+01	-1.409835e+02
3.900000e-07	-3.464140e-06	-2.241582e-09	-2.519016e+01	-1.404243e+02
4.000000e-07	-3.436598e-06	-2.081634e-09	-2.498989e+01	-1.398226e+02
4.100000e-07	-3.408685e-06	-2.067594e-09	-2.478691e+01	-1.391753e+02
4.200000e-07	-3.380331e-06	-2.155873e-09	-2.458073e+01	-1.384811e+02
4.300000e-07	-3.351352e-06	-2.134650e-09	-2.437000e+01	-1.377403e+02
4.400000e-07	-3.321731e-06	-2.085361e-09	-2.415461e+01	-1.369547e+02
4.500000e-07	-3.291551e-06	-2.072033e-09	-2.393515e+01	-1.361276e+02
4.600000e-07	-3.260773e-06	-2.049415e-09	-2.371134e+01	-1.352631e+02
4.700000e-07	-3.229482e-06	-2.058636e-09	-2.348380e+01	-1.343662e+02
4.800000e-07	-3.197836e-06	-2.067977e-09	-2.325368e+01	-1.334421e+02
4.900000e-07	-3.165865e-06	-2.037237e-09	-2.302120e+01	-1.324960e+02
5.000000e-07	-3.133286e-06	-1.999790e-09	-2.278429e+01	-1.315329e+02
5.100000e-07	-3.099758e-06	-1.981030e-09	-2.254049e+01	-1.305570e+02
5.200000e-07	-3.065289e-06	-1.993592e-09	-2.228984e+01	-1.295718e+02
5.300000e-07	-3.030149e-06	-1.985794e-09	-2.203431e+01	-1.285795e+02
5.400000e-07	-2.994601e-06	-1.943825e-09	-2.177582e+01	-1.275815e+02
5.500000e-07	-2.958735e-06	-1.930413e-09	-2.151501e+01	-1.265780e+02
5.600000e-07	-2.922469e-06	-1.928385e-09	-2.125130e+01	-1.255682e+02
5.700000e-07	-2.885666e-06	-1.898419e-09	-2.098367e+01	-1.245504e+02
5.800000e-07	-2.848296e-06	-1.871051e-09	-2.071193e+01	-1.235223e+02
5.900000e-07	-2.810430e-06	-1.889718e-09	-2.043658e+01	-1.224811e+02
6.000000e-07	-2.772013e-06	-1.882036e-09	-2.015723e+01	-1.214240e+02
6.100000e-07	-2.733009e-06	-1.814596e-09	-1.987360e+01	-1.203481e+02
6.200000e-07	-2.693638e-06	-1.795572e-09	-1.958731e+01	-1.192508e+02
6.300000e-07	-2.654093e-06	-1.828364e-09	-1.929975e+01	-1.181301e+02
6.400000e-07	-2.614285e-06	-1.822310e-09	-1.901028e+01	-1.169845e+02
6.500000e-07	-2.574011e-06	-1.759342e-09	-1.871741e+01	-1.158131e+02
6.600000e-07	-2.533099e-06	-1.710680e-09	-1.841992e+01	-1.146159e+02
6.700000e-07	-2.491434e-06	-1.728953e-09	-1.811695e+01	-1.133934e+02
6.800000e-07	-2.449033e-06	-1.748737e-09	-1.780862e+01	-1.121465e+02
6.900000e-07	-2.406027e-06	-1.705483e-09	-1.749589e+01	-1.108769e+02
7.000000e-07	-2.362569e-06	-1.634152e-09	-1.717988e+01	-1.095863e+02
7.100000e-07	-2.318874e-06	-1.614935e-09	-1.686214e+01	-1.082765e+02
7.200000e-07	-2.274972e-06	-1.648513e-09	-1.654290e+01	-1.069493e+02
7.300000e-07	-2.230726e-06	-1.637048e-09	-1.622115e+01	-1.056063e+02
7.400000e-07	-2.186045e-06	-1.572196e-09	-1.589624e+01	-1.042485e+02
7.500000e-07	-2.140924e-06	-1.533162e-09	-1.556814e+01	-1.028767e+02
7.600000e-07	-2.095455e-06	-1.540850e-09	-1.523750e+01	-1.014911e+02
7.700000e-07	-2.049602e-06	-1.543015e-09	-1.490407e+01	-1.000914e+02
7.800000e-07	-2.003335e-06	-1.503002e-09	-1.456764e+01	-9.867690e+01
7.900000e-07	-1.956693e-06	-1.459233e-09	-1.422847e+01	-9.724643e+01
8.000000e-07	-1.909687e-06	-1.436380e-09	-1.388665e+01	-9.579857e+01
8.100000e-07	-1.862422e-06	-1.424258e-09	-1.354296e+01	-9.433179e+01
8.200000e-07	-1.814941e-06	-1.412948e-09	-1.319769e+01	-9.284452e+01
8.300000e-07	-1.767266e-06	-1.387532e-09	-1.285102e+01	-9.133530e+01
8.400000e-07	-1.719373e-06	-1.349939e-09	-1.250276e+01	-8.980292e+01
8.500000e-07	-1.671089e-06	-1.315023e-09	-1.215165e+01	-8.824648e+01
8.600000e-07	-1.622312e-06	-1.300457e-09	-1.179695e+01	-8.666546e+01
8.700000e-07	-1.573012e-06	-1.295888e-09	-1.143846e+01	-8.505975e+01
8.800000e-07	-1.523179e-06	-1.269191e-09	-1.107609e+01	-8.342962e+01
8.900000e-07	-1.472825e-06	-1.225562e-09	-1.070993e+01	-8.177569e+01
9.000000e-07	-1.422091e-06	-1.191794e-09	-1.034101e+01	-8.009884e+01
9.100000e-07	-1.371098e-06	-1.182633e-09	-9.970204e+00	-7.840013e+01
9.200000e-07	-1.319792e-06	-1.175560e-09	-9.597120e+00	-7.668069e+01
9.300000e-07	-1.268276e-06	-1.138235e-09	-9.222510e+00	-7.494159e+01
9.400000e-07	-1.216646e-06	-1.087260e-09	-8.847076e+00	-7.318378e+01
9.500000e-07	-1.164799e-06	-1.057817e-09	-8.470059e+00	-7.140798e+01
9.600000e-07	-1.112722e-06	-1.057630e-09	-8.091370e+00	-6.961464e+01
9.700000e-07	-1.060440e-06	-1.046749e-09	-7.711192e+00	-6.780390e+01
9.800000e-07	-1.007909e-06	-9.972378e-10	-7.329208e+00	-6.597559e+01
9.900000e-07	-9.551849e-07	-9.473614e-10	-6.945811e+00	-6.412931e+01
1.000000e-06	-9.022904e-07	-9.311245e-10	-6.561178e+00	-6.226444e+01
1.010000e-06	-8.492210e-07	-9.280483e-10	-6.175274e+00	-6.038025e+01
1.020000e-06	-7.960043e-07	-8.966822e-10	-5.788299e+00	-5.847601e+01
1.030000e-06	-7.426786e-07	-8.404223e-10	-5.400531e+00	-5.655108e+01
1.040000e-06	-6.892955e-07	-8.023761e-10	-5.012345e+00	-5.460500e+01
1.050000e-06	-6.358584e-07	-7.898605e-10	-4.623767e+00	-5.263760e+01
1.060000e-06	-5.823341e-07	-7.744028e-10	-4.234555e+00	-5.064904e+01
1.070000e-06	-5.286891e-07	-7.354622e-10	-3.844465e+00	-4.863987e+01
1.080000e-06	-4.749517e-07	-6.891883e-10	-3.453703e+00	-4.661100e+01
1.090000e-06	-4.211307e-07	-6.599210e-10	-3.062333e+00	-4.456368e+01
1.100000e-06	-3.672279e-07	-6.409911e-10	-2.670369e+00	-4.249946e+01
1.110000e-06	-3.133115e-07	-6.181493e-10	-2.278305e+00	-4.042009e+01
1.120000e-06	-2.593805e-07	-5.808903e-10	-1.886135e+00	-3.832740e+01
1.130000e-06	-2.053811e-07	-5.358496e-10	-1.493469e+00	-3.622321e+01
1.140000e-06	-1.513256e-07	-5.013245e-10	-1.100393e+00	-3.410918e+01
1.150000e-06	-9.724034e-08	-4.800563e-10	-7.071019e-01	-3.198675e+01
1.160000e-06	-4.316791e-08	-4.581589e-10	-3.139038e-01	-2.985699e+01
1.170000e-06	1.092128e-08	-4.182948e-10	7.941619e-02	-2.772057e+01
1.180000e-06	6.509836e-08	-3.720249e-10	4.733753e-01	-2.557775e+01
1.190000e-06	1.193185e-07	-3.413709e-10	8.676473e-01	-2.342830e+01
1.200000e-06	1.734649e-07	-3.220657e-10	1.261383e+00	-2.127163e+01
1.210000e-06	2.275189e-07	-2.952367e-10	1.654447e+00	-1.910677e+01
1.220000e-06	2.815681e-07	-2.500977e-10	2.047477e+00	-1.693251e+01
1.230000e-06	3.356337e-07	-2.038646e-10	2.440625e+00	-1.474749e+01
1.240000e-06	3.895848e-07	-1.746769e-10	2.832941e+00	-1.255034e+01
1.250000e-06	4.433990e-07	-1.536419e-10	3.224262e+00	-1.033975e+01
1.260000e-06	4.971108e-07	-1.192148e-10	3.614837e+00	-8.114649e+00
1.270000e-06	5.507453e-07	-7.038408e-11	4.004850e+00	-5.874227e+00
1.280000e-06	6.043905e-07	-2.924986e-11	4.394942e+00	-3.618043e+00
1.290000e-06	6.579560e-07	-4.063056e-12	4.784454e+00	-1.346040e+00
1.300000e-06	7.113565e-07	2.397954e-11	5.172766e+00	9.414469e-01
1.310000e-06	7.646712e-07	6.641098e-11	5.560454e+00	3.243728e+00
1.320000e-06	8.178791e-07	1.118797e-10	5.947366e+00	5.559820e+00
1.330000e-06	8.708981e-07	1.453326e-10	6.332904e+00	7.888529e+00
1.340000e-06	9.237291e-07	1.719486e-10	6.717074e+00	1.022856e+01
1.350000e-06	9.762951e-07	2.068383e-10	7.099318e+00	1.257860e+01
1.360000e-06	1.028626e-06	2.486996e-10	7.479850e+00	1.493747e+01
1.370000e-06	1.080807e-06	2.906675e-10	7.859299e+00	1.730416e+01
1.380000e-06	1.132756e-06	3.264577e-10	8.237057e+00	1.967794e+01
1.390000e-06	1.184494e-06	3.579019e-10	8.613278e+00	2.205836e+01
1.400000e-06	1.236061e-06	3.935089e-10	8.988259e+00	2.444532e+01
1.410000e-06	1.287466e-06	4.361778e-10	9.362057e+00	2.683896e+01
1.420000e-06	1.338716e-06	4.782503e-10	9.734730e+00	2.923966e+01
1.430000e-06	1.389666e-06	5.131365e-10	1.010522e+01	3.164792e+01
1.440000e-06	1.440212e-06	5.444857e-10	1.047278e+01	3.406426e+01
1.450000e-06	1.490298e-06	5.795207e-10	1.083699e+01	3.648908e+01
1.460000e-06	1.539852e-06	6.207589e-10	1.119733e+01	3.892254e+01
1.470000e-06	1.588886e-06	6.639121e-10	1.155389e+01	4.136445e+01
1.480000e-06	1.637480e-06	6.995930e-10	1.190725e+01	4.381416e+01
1.490000e-06	1.685697e-06	7.296239e-10	1.225787e+01	4.627048e+01
1.500000e-06	1.733625e-06	7.674298e-10	1.260639e+01	4.873166e+01
1.510000e-06	1.781335e-06	8.150031e-10	1.295332e+01	5.119538e+01
1.520000e-06	1.828862e-06	8.600244e-10	1.329892e+01	5.365881e+01
1.530000e-06	1.876180e-06	8.932013e-10	1.364301e+01	5.611869e+01
1.540000e-06	1.923164e-06	9.242141e-10	1.398466e+01	5.857142e+01
1.550000e-06	1.969795e-06	9.629321e-10	1.432374e+01	6.101326e+01
1.560000e-06	2.016061e-06	1.004654e-09	1.466018e+01	6.344044e+01
1.570000e-06	2.061929e-06	1.039858e-09	1.499371e+01	6.584935e+01
1.580000e-06	2.107447e-06	1.068702e-09	1.532470e+01	6.823669e+01
1.590000e-06	2.152591e-06	1.099952e-09	1.565298e+01	7.059960e+01
1.600000e-06	2.197325e-06	1.138016e-09	1.597827e+01	7.293577e+01
1.610000e-06	2.241725e-06	1.177391e-09	1.630114e+01	7.524348e+01
1.620000e-06	2.285812e-06	1.210430e-09	1.662172e+01	7.752167e+01
1.630000e-06	2.329573e-06	1.238650e-09	1.693994e+01	7.976987e+01
1.640000e-06	2.373070e-06	1.270482e-09	1.725624e+01	8.198814e+01
1.650000e-06	2.416319e-06	1.306391e-09	1.757073e+01	8.417697e+01
1.660000e-06	2.459260e-06	1.340590e-09	1.788298e+01	8.633713e+01
1.670000e-06	2.501582e-06	1.370489e-09	1.819074e+01	8.846951e+01
1.680000e-06	2.543120e-06	1.398727e-09	1.849279e+01	9.057497e+01
1.690000e-06	2.583863e-06	1.428794e-09	1.878906e+01	9.265414e+01
1.700000e-06	2.623943e-06	1.459573e-09	1.908051e+01	9.470734e+01
1.710000e-06	2.663694e-06	1.491179e-09	1.936957e+01	9.673440e+01
1.720000e-06	2.703184e-06	1.520483e-09	1.965673e+01	9.873465e+01
1.730000e-06	2.742284e-06	1.544967e-09	1.994105e+01	1.007069e+02
1.740000e-06	2.780914e-06	1.570129e-09	2.022196e+01	1.026493e+02
1.750000e-06	2.819119e-06	1.600420e-09	2.049977e+01	1.045597e+02
1.760000e-06	2.856819e-06	1.632125e-09	2.077391e+01	1.064357e+02
1.770000e-06	2.893907e-06	1.658260e-09	2.104361e+01	1.082743e+02
1.780000e-06	2.930486e-06	1.678724e-09	2.130959e+01	1.100731e+02
1.790000e-06	2.966629e-06	1.701602e-09	2.157242e+01	1.118292e+02
1.800000e-06	3.002395e-06	1.729416e-09	2.183249e+01	1.135406e+02
1.810000e-06	3.037899e-06	1.756893e-09	2.209067e+01	1.152055e+02
1.820000e-06	3.073009e-06	1.778349e-09	2.234598e+01	1.168226e+02
1.830000e-06	3.107472e-06	1.797075e-09	2.259658e+01	1.183917e+02
1.840000e-06	3.141001e-06	1.820667e-09	2.284040e+01	1.199130e+02
1.850000e-06	3.173613e-06	1.846029e-09	2.307754e+01	1.213874e+02
1.860000e-06	3.205653e-06	1.866028e-09	2.331052e+01	1.228166e+02
1.870000e-06	3.237295e-06	1.880959e-09	2.354062e+01	1.242028e+02
1.880000e-06	3.268541e-06	1.897657e-09	2.376783e+01	1.255484e+02
1.890000e-06	3.299228e-06	1.917918e-09	2.399098e+01	1.268561e+02
1.900000e-06	3.329278e-06	1.938075e-09	2.420948e+01	1.281286e+02
1.910000e-06	3.358715e-06	1.956432e-09	2.442355e+01	1.293685e+02
1.920000e-06	3.387619e-06	1.972766e-09	2.463372e+01	1.305777e+02
1.930000e-06	3.416003e-06	1.990150e-09	2.484012e+01	1.317579e+02
1.940000e-06	3.443870e-06	2.009323e-09	2.504277e+01	1.329101e+02
1.950000e-06	3.471365e-06	2.027774e-09	2.524270e+01	1.340348e+02
1.960000e-06	3.498362e-06	2.044810e-09	2.543902e+01	1.351315e+02
1.970000e-06	3.524628e-06	2.060621e-09	2.563001e+01	1.361994e+02
1.980000e-06	3.549946e-06	2.075651e-09	2.581412e+01	1.372373e+02
1.990000e-06	3.574283e-06	2.090151e-09	2.599109e+01	1.382434e+02
2.000000e-06	3.597943e-06	2.106165e-09	2.616314e+01	1.392161e+02
2.010000e-06	3.621154e-06	2.120515e-09	2.633192e+01	1.401536e+02
2.020000e-06	3.643765e-06	2.132100e-09	2.649634e+01	1.410544e+02
2.030000e-06	3.665721e-06	2.144411e-09	2.665600e+01	1.419175e+02
2.040000e-06	3.687102e-06	2.157665e-09	2.681147e+01	1.427423e+02
2.050000e-06	3.707852e-06	2.170611e-09	2.696236e+01	1.435291e+02
2.060000e-06	3.727976e-06	2.182136e-09	2.710870e+01	1.442787e+02
2.070000e-06	3.747623e-06	2.191987e-09	2.725157e+01	1.449925e+02
2.080000e-06	3.766848e-06	2.202143e-09	2.739136e+01	1.456727e+02
2.090000e-06	3.785443e-06	2.214726e-09	2.752658e+01	1.463217e+02
2.100000e-06	3.803270e-06	2.226402e-09	2.765622e+01	1.469424e+02
2.110000e-06	3.820362e-06	2.234823e-09	2.778050e+01	1.475378e+02
2.120000e-06	3.836864e-06	2.242528e-09	2.790049e+01	1.481105e+02
2.130000e-06	3.852686e-06	2.251928e-09	2.801555e+01	1.486631e+02
2.140000e-06	3.867596e-06	2.259949e-09	2.812397e+01	1.491974e+02
2.150000e-06	3.881699e-06	2.266185e-09	2.822653e+01	1.497148e+02
2.160000e-06	3.895164e-06	2.271374e-09	2.832444e+01	1.502156e+02
2.170000e-06	3.907940e-06	2.277166e-09	2.841734e+01	1.506994e+02
2.180000e-06	3.919986e-06	2.285846e-09	2.850494e+01	1.511652e+02
2.190000e-06	3.931342e-06	2.295483e-09	2.858751e+01	1.516109e+02
2.200000e-06	3.941898e-06	2.301999e-09	2.866427e+01	1.520342e+02
2.210000e-06	3.951431e-06	2.305176e-09	2.873359e+01	1.524323e+02
2.220000e-06	3.959953e-06	2.309300e-09	2.879556e+01	1.528022e+02
2.230000e-06	3.967802e-06	2.314359e-09	2.885264e+01	1.531411e+02
2.240000e-06	3.975155e-06	2.318484e-09	2.890611e+01	1.534466e+02
2.250000e-06	3.981875e-06	2.321188e-09	2.895497e+01	1.537169e+02
2.260000e-06	3.987873e-06	2.325202e-09	2.899859e+01	1.539511e+02
2.270000e-06	3.993207e-06	2.329733e-09	2.903737e+01	1.541490e+02
2.280000e-06	3.997871e-06	2.332527e-09	2.907129e+01	1.543116e+02
2.290000e-06	4.001911e-06	2.334169e-09	2.910067e+01	1.544409e+02
2.300000e-06	4.005479e-06	2.335714e-09	2.912661e+01	1.545395e+02
2.310000e-06	4.008376e-06	2.336559e-09	2.914768e+01	1.546111e+02
2.320000e-06	4.010336e-06	2.338168e-09	2.916193e+01	1.546597e+02
2.330000e-06	4.011263e-06	2.341587e-09	2.916868e+01	1.546894e+02
2.340000e-06	4.011342e-06	2.343395e-09	2.916925e+01	1.547044e+02
2.350000e-06	4.010916e-06	2.342835e-09	2.916615e+01	1.547083e+02
2.360000e-06	4.009979e-06	2.340223e-09	2.915934e+01	1.547040e+02
2.370000e-06	4.008427e-06	2.337868e-09	2.914805e+01	1.546935e+02
2.380000e-06	4.006229e-06	2.339272e-09	2.913206e+01	1.546775e+02
2.390000e-06	4.003370e-06	2.340296e-09	2.911127e+01	1.546554e+02
2.400000e-06	3.999830e-06	2.343009e-09	2.908554e+01	1.546254e+02
2.410000e-06	3.995748e-06	2.358832e-09	2.905586e+01	1.545843e+02
2.420000e-06	3.991241e-06	2.367320e-09	2.902308e+01	1.545277e+02
2.430000e-06	3.986052e-06	2.282085e-09	2.898535e+01	1.544506e+02
2.440000e-06	3.979710e-06	2.199534e-09	2.893923e+01	1.543473e+02
2.450000e-06	3.972096e-06	2.336764e-09	2.888386e+01	1.542120e+02
2.460000e-06	3.963814e-06	2.500220e-09	2.882364e+01	1.540391e+02
2.470000e-06	3.955373e-06	2.369469e-09	2.876226e+01	1.538237e+02
2.480000e-06	3.946467e-06	2.159970e-09	2.869750e+01	1.535621e+02
2.490000e-06	3.936511e-06	2.235992e-09	2.862510e+01	1.532516e+02
2.500000e-06	3.925738e-06	2.320254e-09	2.854676e+01	1.528914e+02
2.510000e-06	3.914732e-06	2.261694e-09	2.846673e+01	1.524825e+02
2.520000e-06	3.903019e-06	2.356613e-09	2.838156e+01	1.520274e+02
2.530000e-06	3.890073e-06	2.360877e-09	2.828742e+01	1.515307e+02
2.540000e-06	3.876236e-06	2.136038e-09	2.818680e+01	1.509982e+02
2.550000e-06	3.861823e-06	2.259967e-09	2.808199e+01	1.504372e+02
2.560000e-06	3.846553e-06	2.515983e-09	2.797095e+01	1.498558e+02
2.570000e-06	3.830374e-06	2.188210e-09	2.785331e+01	1.492625e+02
2.580000e-06	3.813644e-06	1.947874e-09	2.773165e+01	1.486659e+02
2.590000e-06	3.796293e-06	2.325272e-09	2.760548e+01	1.480739e+02
2.600000e-06	3.778241e-06	2.376817e-09	2.747421e+01	1.474935e+02
2.610000e-06	3.759515e-06	2.005564e-09	2.733804e+01	1.469305e+02
2.620000e-06	3.740071e-06	2.142594e-09	2.719664e+01	1.463888e+02
2.630000e-06	3.720123e-06	2.366813e-09	2.705159e+01	1.458705e+02
2.640000e-06	3.699770e-06	2.161852e-09	2.690359e+01	1.453757e+02
2.650000e-06	3.678680e-06	2.129796e-09	2.675023e+01	1.449024e+02
2.660000e-06	3.656912e-06	2.244963e-09	2.659194e+01	1.444467e+02
2.670000e-06	3.634482e-06	2.214463e-09	2.642883e+01	1.440031e+02
2.680000e-06	3.611024e-06	2.140976e-09	2.625826e+01	1.435648e+02
2.690000e-06	3.586838e-06	2.075412e-09	2.608239e+01	1.431241e+02
2.700000e-06	3.562236e-06	2.177434e-09	2.590349e+01	1.426728e+02
2.710000e-06	3.536969e-06	2.277076e-09	2.571975e+01	1.422027e+02
2.720000e-06	3.511004e-06	2.078711e-09	2.553094e+01	1.417060e+02
2.730000e-06	3.484518e-06	2.023740e-09	2.533835e+01	1.411757e+02
2.740000e-06	3.457485e-06	2.243800e-09	2.514177e+01	1.406062e+02
2.750000e-06	3.429872e-06	2.209841e-09	2.494097e+01	1.399933e+02
2.760000e-06	3.401787e-06	2.060088e-09	2.473675e+01	1.393344e+02
2.770000e-06	3.373269e-06	2.092240e-09	2.452938e+01	1.386285e+02
2.780000e-06	3.344202e-06	2.109489e-09	2.431801e+01	1.378763e+02
2.790000e-06	3.314272e-06	2.106317e-09	2.410037e+01	1.370800e+02
2.800000e-06	3.283294e-06	2.088591e-09	2.387511e+01	1.362431e+02
2.810000e-06	3.251552e-06	2.031989e-09	2.364429e+01	1.353700e+02
2.820000e-06	3.219372e-06	2.049605e-09	2.341029e+01	1.344658e+02
2.830000e-06	3.186760e-06	2.033793e-09	2.317314e+01	1.335357e+02
2.840000e-06	3.153631e-06	2.010856e-09	2.293223e+01	1.325850e+02
2.850000e-06	3.119963e-06	2.029265e-09	2.268742e+01	1.316183e+02
2.860000e-06	3.085780e-06	1.987324e-09	2.243884e+01	1.306398e+02
2.870000e-06	3.051104e-06	1.967339e-09	2.218669e+01	1.296526e+02
2.880000e-06	3.015934e-06	1.971494e-09	2.193094e+01	1.286589e+02
2.890000e-06	2.980247e-06	1.947095e-09	2.167144e+01	1.276596e+02
2.900000e-06	2.944176e-06	1.935042e-09	2.140914e+01	1.266546e+02
2.910000e-06	2.907750e-06	1.933722e-09	2.114427e+01	1.256430e+02
2.920000e-06	2.870832e-06	1.922189e-09	2.087581e+01	1.246228e+02
2.930000e-06	2.833255e-06	1.859017e-09	2.060256e+01	1.235917e+02
2.940000e-06	2.794858e-06	1.837142e-09	2.032335e+01	1.225468e+02
