# Temperatura_=_20.0
# Concentracion g/m^3_=_12600.0
# C_Vs_to_Am_M_A/Vsm_=_65563218390.804596
# pendiente_HvsI_1/m_=_3716.3
# ordenada_HvsI_A/m_=_1297.0
# frecuencia_Hz_=_213007.15992748362

Tiempo_(s)	Campo_(V.s)	Magnetizacion_(V.s)	Campo_(kA/m)	Magnetizacion_(A/m)
0.000000e+00	-4.002249e-06	-2.425001e-09	-2.910383e+01	-1.594857e+02
1.000000e-08	-4.002363e-06	-2.422742e-09	-2.910466e+01	-1.595006e+02
2.000000e-08	-4.001870e-06	-2.418120e-09	-2.910107e+01	-1.594952e+02
3.000000e-08	-4.000527e-06	-2.415345e-09	-2.909131e+01	-1.594681e+02
4.000000e-08	-3.998201e-06	-2.415290e-09	-2.907439e+01	-1.594176e+02
5.000000e-08	-3.995070e-06	-2.415338e-09	-2.905163e+01	-1.593420e+02
6.000000e-08	-3.991378e-06	-2.414365e-09	-2.902477e+01	-1.592396e+02
7.000000e-08	-3.987114e-06	-2.407075e-09	-2.899377e+01	-1.591087e+02
8.000000e-08	-3.982163e-06	-2.406200e-09	-2.895777e+01	-1.589483e+02
9.000000e-08	-3.976386e-06	-2.421638e-09	-2.891576e+01	-1.587576e+02
1.000000e-07	-3.969727e-06	-2.451825e-09	-2.886733e+01	-1.585366e+02
1.100000e-07	-3.962410e-06	-2.387388e-09	-2.881412e+01	-1.582859e+02
1.200000e-07	-3.954661e-06	-2.360112e-09	-2.875777e+01	-1.580071e+02
1.300000e-07	-3.946319e-06	-2.380907e-09	-2.869711e+01	-1.577023e+02
1.400000e-07	-3.937068e-06	-2.433084e-09	-2.862984e+01	-1.573742e+02
1.500000e-07	-3.927043e-06	-2.418107e-09	-2.855694e+01	-1.570264e+02
1.600000e-07	-3.916302e-06	-2.401028e-09	-2.847884e+01	-1.566625e+02
1.700000e-07	-3.904534e-06	-2.454461e-09	-2.839326e+01	-1.562866e+02
1.800000e-07	-3.891840e-06	-2.363430e-09	-2.830095e+01	-1.559028e+02
1.900000e-07	-3.878582e-06	-2.405466e-09	-2.820454e+01	-1.555149e+02
2.000000e-07	-3.864451e-06	-2.468195e-09	-2.810178e+01	-1.551263e+02
2.100000e-07	-3.849098e-06	-2.375870e-09	-2.799013e+01	-1.547397e+02
2.200000e-07	-3.832892e-06	-2.314092e-09	-2.787229e+01	-1.543571e+02
2.300000e-07	-3.816195e-06	-2.396287e-09	-2.775087e+01	-1.539796e+02
2.400000e-07	-3.798988e-06	-2.442792e-09	-2.762574e+01	-1.536071e+02
2.500000e-07	-3.781128e-06	-2.331031e-09	-2.749587e+01	-1.532387e+02
2.600000e-07	-3.762508e-06	-2.342442e-09	-2.736046e+01	-1.528722e+02
2.700000e-07	-3.743278e-06	-2.407706e-09	-2.722063e+01	-1.525048e+02
2.800000e-07	-3.723656e-06	-2.355685e-09	-2.707794e+01	-1.521328e+02
2.900000e-07	-3.703508e-06	-2.333094e-09	-2.693143e+01	-1.517518e+02
3.000000e-07	-3.682715e-06	-2.330097e-09	-2.678022e+01	-1.513572e+02
3.100000e-07	-3.661285e-06	-2.358929e-09	-2.662439e+01	-1.509441e+02
3.200000e-07	-3.639231e-06	-2.338795e-09	-2.646401e+01	-1.505078e+02
3.300000e-07	-3.616536e-06	-2.271367e-09	-2.629897e+01	-1.500438e+02
3.400000e-07	-3.593289e-06	-2.292563e-09	-2.612992e+01	-1.495483e+02
3.500000e-07	-3.569537e-06	-2.326171e-09	-2.595721e+01	-1.490180e+02
3.600000e-07	-3.545128e-06	-2.310061e-09	-2.577970e+01	-1.484505e+02
3.700000e-07	-3.519945e-06	-2.232852e-09	-2.559658e+01	-1.478444e+02
3.800000e-07	-3.493891e-06	-2.230659e-09	-2.540712e+01	-1.471990e+02
3.900000e-07	-3.467028e-06	-2.283924e-09	-2.521178e+01	-1.465145e+02
4.000000e-07	-3.439591e-06	-2.265957e-09	-2.501225e+01	-1.457922e+02
4.100000e-07	-3.411733e-06	-2.234431e-09	-2.480967e+01	-1.450337e+02
4.200000e-07	-3.383417e-06	-2.178177e-09	-2.460376e+01	-1.442414e+02
4.300000e-07	-3.354474e-06	-2.182749e-09	-2.439330e+01	-1.434180e+02
4.400000e-07	-3.324937e-06	-2.219561e-09	-2.417850e+01	-1.425663e+02
4.500000e-07	-3.294844e-06	-2.184924e-09	-2.395968e+01	-1.416892e+02
4.600000e-07	-3.264167e-06	-2.152281e-09	-2.373659e+01	-1.407895e+02
4.700000e-07	-3.232969e-06	-2.115815e-09	-2.350973e+01	-1.398698e+02
4.800000e-07	-3.201364e-06	-2.125652e-09	-2.327990e+01	-1.389319e+02
4.900000e-07	-3.169389e-06	-2.146551e-09	-2.304738e+01	-1.379777e+02
5.000000e-07	-3.136768e-06	-2.111553e-09	-2.281017e+01	-1.370083e+02
5.100000e-07	-3.103267e-06	-2.078107e-09	-2.256655e+01	-1.360244e+02
5.200000e-07	-3.068916e-06	-2.047716e-09	-2.231675e+01	-1.350262e+02
5.300000e-07	-3.033861e-06	-2.054922e-09	-2.206184e+01	-1.340135e+02
5.400000e-07	-2.998342e-06	-2.057588e-09	-2.180355e+01	-1.329861e+02
5.500000e-07	-2.962553e-06	-2.024738e-09	-2.154330e+01	-1.319432e+02
5.600000e-07	-2.926362e-06	-1.996582e-09	-2.128012e+01	-1.308842e+02
5.700000e-07	-2.889591e-06	-1.954752e-09	-2.101273e+01	-1.298084e+02
5.800000e-07	-2.852298e-06	-1.964786e-09	-2.074154e+01	-1.287151e+02
5.900000e-07	-2.814473e-06	-1.982278e-09	-2.046648e+01	-1.276039e+02
6.000000e-07	-2.776069e-06	-1.946722e-09	-2.018721e+01	-1.264744e+02
6.100000e-07	-2.737140e-06	-1.895363e-09	-1.990412e+01	-1.253266e+02
6.200000e-07	-2.697859e-06	-1.863043e-09	-1.961847e+01	-1.241603e+02
6.300000e-07	-2.658339e-06	-1.893636e-09	-1.933110e+01	-1.229759e+02
6.400000e-07	-2.618511e-06	-1.898073e-09	-1.904147e+01	-1.217736e+02
6.500000e-07	-2.578256e-06	-1.838296e-09	-1.874874e+01	-1.205537e+02
6.600000e-07	-2.537403e-06	-1.785018e-09	-1.845166e+01	-1.193165e+02
6.700000e-07	-2.495776e-06	-1.779855e-09	-1.814896e+01	-1.180621e+02
6.800000e-07	-2.453409e-06	-1.817992e-09	-1.784087e+01	-1.167905e+02
6.900000e-07	-2.410502e-06	-1.792148e-09	-1.752886e+01	-1.155015e+02
7.000000e-07	-2.367212e-06	-1.717191e-09	-1.721405e+01	-1.141948e+02
7.100000e-07	-2.323608e-06	-1.690140e-09	-1.689698e+01	-1.128698e+02
7.200000e-07	-2.279744e-06	-1.707243e-09	-1.657800e+01	-1.115256e+02
7.300000e-07	-2.235583e-06	-1.716351e-09	-1.625687e+01	-1.101614e+02
7.400000e-07	-2.190982e-06	-1.659960e-09	-1.593253e+01	-1.087762e+02
7.500000e-07	-2.145949e-06	-1.607910e-09	-1.560506e+01	-1.073689e+02
7.600000e-07	-2.100528e-06	-1.606510e-09	-1.527476e+01	-1.059386e+02
7.700000e-07	-2.054738e-06	-1.606893e-09	-1.494178e+01	-1.044844e+02
7.800000e-07	-2.008587e-06	-1.587800e-09	-1.460618e+01	-1.030058e+02
7.900000e-07	-1.962054e-06	-1.538759e-09	-1.426780e+01	-1.015025e+02
8.000000e-07	-1.915199e-06	-1.505427e-09	-1.392708e+01	-9.997441e+01
8.100000e-07	-1.868050e-06	-1.498053e-09	-1.358421e+01	-9.842176e+01
8.200000e-07	-1.820658e-06	-1.486565e-09	-1.323959e+01	-9.684513e+01
8.300000e-07	-1.773036e-06	-1.465198e-09	-1.289329e+01	-9.524535e+01
8.400000e-07	-1.725099e-06	-1.421029e-09	-1.254469e+01	-9.362344e+01
8.500000e-07	-1.676828e-06	-1.389901e-09	-1.219367e+01	-9.198056e+01
8.600000e-07	-1.628191e-06	-1.377231e-09	-1.183999e+01	-9.031790e+01
8.700000e-07	-1.579150e-06	-1.365351e-09	-1.148337e+01	-8.863662e+01
8.800000e-07	-1.529647e-06	-1.346482e-09	-1.112339e+01	-8.693774e+01
8.900000e-07	-1.479555e-06	-1.301711e-09	-1.075913e+01	-8.522208e+01
9.000000e-07	-1.428993e-06	-1.266870e-09	-1.039145e+01	-8.349019e+01
9.100000e-07	-1.378119e-06	-1.252763e-09	-1.002150e+01	-8.174229e+01
9.200000e-07	-1.327038e-06	-1.240926e-09	-9.650047e+00	-7.997830e+01
9.300000e-07	-1.275718e-06	-1.211144e-09	-9.276856e+00	-7.819780e+01
9.400000e-07	-1.224057e-06	-1.154598e-09	-8.901180e+00	-7.640010e+01
9.500000e-07	-1.172163e-06	-1.123159e-09	-8.523817e+00	-7.458428e+01
9.600000e-07	-1.120140e-06	-1.119628e-09	-8.145514e+00	-7.274928e+01
9.700000e-07	-1.067956e-06	-1.105471e-09	-7.766033e+00	-7.089399e+01
9.800000e-07	-1.015545e-06	-1.063285e-09	-7.384912e+00	-6.901734e+01
9.900000e-07	-9.628947e-07	-1.010165e-09	-7.002044e+00	-6.711840e+01
1.000000e-06	-9.100383e-07	-9.944513e-10	-6.617679e+00	-6.519646e+01
1.010000e-06	-8.570647e-07	-9.898530e-10	-6.232462e+00	-6.325114e+01
1.020000e-06	-8.039478e-07	-9.565450e-10	-5.846203e+00	-6.128238e+01
1.030000e-06	-7.506863e-07	-9.027501e-10	-5.458892e+00	-5.929052e+01
1.040000e-06	-6.973105e-07	-8.594955e-10	-5.070751e+00	-5.727626e+01
1.050000e-06	-6.438372e-07	-8.473851e-10	-4.681900e+00	-5.524067e+01
1.060000e-06	-5.903144e-07	-8.271732e-10	-4.292689e+00	-5.318508e+01
1.070000e-06	-5.367003e-07	-7.841423e-10	-3.902814e+00	-5.111107e+01
1.080000e-06	-4.829484e-07	-7.394825e-10	-3.511938e+00	-4.902032e+01
1.090000e-06	-4.290670e-07	-7.091874e-10	-3.120119e+00	-4.691456e+01
1.100000e-06	-3.751675e-07	-6.928258e-10	-2.728169e+00	-4.479541e+01
1.110000e-06	-3.212532e-07	-6.613384e-10	-2.336111e+00	-4.266435e+01
1.120000e-06	-2.672513e-07	-6.180874e-10	-1.943417e+00	-4.052260e+01
1.130000e-06	-2.131230e-07	-5.758022e-10	-1.549803e+00	-3.837103e+01
1.140000e-06	-1.589132e-07	-5.413940e-10	-1.155596e+00	-3.621019e+01
1.150000e-06	-1.047694e-07	-5.183759e-10	-7.618693e-01	-3.404025e+01
1.160000e-06	-5.063790e-08	-4.854894e-10	-3.682322e-01	-3.186101e+01
1.170000e-06	3.519846e-09	-4.454087e-10	2.559586e-02	-2.967198e+01
1.180000e-06	5.771029e-08	-4.062394e-10	4.196616e-01	-2.747240e+01
1.190000e-06	1.119437e-07	-3.749566e-10	8.140400e-01	-2.526135e+01
1.200000e-06	1.661033e-07	-3.518789e-10	1.207881e+00	-2.303780e+01
1.210000e-06	2.201618e-07	-3.174022e-10	1.600987e+00	-2.080077e+01
1.220000e-06	2.741927e-07	-2.741844e-10	1.993893e+00	-1.854935e+01
1.230000e-06	3.282005e-07	-2.289122e-10	2.386631e+00	-1.628283e+01
1.240000e-06	3.821043e-07	-1.938581e-10	2.778613e+00	-1.400072e+01
1.250000e-06	4.358999e-07	-1.665944e-10	3.169807e+00	-1.170283e+01
1.260000e-06	4.896345e-07	-1.277582e-10	3.560558e+00	-9.389245e+00
1.270000e-06	5.433141e-07	-8.490496e-11	3.950909e+00	-7.060365e+00
1.280000e-06	5.969286e-07	-4.599492e-11	4.340786e+00	-4.716823e+00
1.290000e-06	6.504906e-07	-1.626633e-11	4.730282e+00	-2.359463e+00
1.300000e-06	7.039313e-07	1.398561e-11	5.118896e+00	1.074416e-02
1.310000e-06	7.572605e-07	5.879835e-11	5.506699e+00	2.392771e+00
1.320000e-06	8.104438e-07	1.046382e-10	5.893441e+00	4.785621e+00
1.330000e-06	8.634048e-07	1.421190e-10	6.278567e+00	7.188401e+00
1.340000e-06	9.162354e-07	1.733677e-10	6.662743e+00	9.600390e+00
1.350000e-06	9.688899e-07	2.075020e-10	7.045640e+00	1.202109e+01
1.360000e-06	1.021341e-06	2.500805e-10	7.427055e+00	1.445023e+01
1.370000e-06	1.073594e-06	2.901850e-10	7.807031e+00	1.688782e+01
1.380000e-06	1.125610e-06	3.261885e-10	8.185285e+00	1.933406e+01
1.390000e-06	1.177426e-06	3.587557e-10	8.562084e+00	2.178935e+01
1.400000e-06	1.229053e-06	3.957805e-10	8.937513e+00	2.425418e+01
1.410000e-06	1.280427e-06	4.392236e-10	9.311097e+00	2.672907e+01
1.420000e-06	1.331544e-06	4.796412e-10	9.682813e+00	2.921447e+01
1.430000e-06	1.382460e-06	5.172225e-10	1.005307e+01	3.171066e+01
1.440000e-06	1.433032e-06	5.521940e-10	1.042082e+01	3.421767e+01
1.450000e-06	1.483096e-06	5.890503e-10	1.078488e+01	3.673519e+01
1.460000e-06	1.532645e-06	6.294901e-10	1.114520e+01	3.926248e+01
1.470000e-06	1.581677e-06	6.679749e-10	1.150175e+01	4.179842e+01
1.480000e-06	1.630234e-06	7.050084e-10	1.185485e+01	4.434138e+01
1.490000e-06	1.678418e-06	7.410178e-10	1.220524e+01	4.688935e+01
1.500000e-06	1.726310e-06	7.791944e-10	1.255350e+01	4.943991e+01
1.510000e-06	1.774004e-06	8.215790e-10	1.290032e+01	5.199030e+01
1.520000e-06	1.821517e-06	8.641964e-10	1.324583e+01	5.453756e+01
1.530000e-06	1.868818e-06	9.033774e-10	1.358980e+01	5.707858e+01
1.540000e-06	1.915880e-06	9.388100e-10	1.393203e+01	5.961021e+01
1.550000e-06	1.962626e-06	9.783761e-10	1.427196e+01	6.212940e+01
1.560000e-06	2.008939e-06	1.019574e-09	1.460874e+01	6.463325e+01
1.570000e-06	2.054805e-06	1.055810e-09	1.494227e+01	6.711914e+01
1.580000e-06	2.100324e-06	1.088517e-09	1.527328e+01	6.958473e+01
1.590000e-06	2.145528e-06	1.121339e-09	1.560200e+01	7.202807e+01
1.600000e-06	2.190362e-06	1.157977e-09	1.592803e+01	7.444755e+01
1.610000e-06	2.234783e-06	1.195225e-09	1.625105e+01	7.684190e+01
1.620000e-06	2.278873e-06	1.228888e-09	1.657166e+01	7.921018e+01
1.630000e-06	2.322649e-06	1.261525e-09	1.689000e+01	8.155169e+01
1.640000e-06	2.366159e-06	1.295386e-09	1.720640e+01	8.386591e+01
1.650000e-06	2.409421e-06	1.331091e-09	1.752100e+01	8.615243e+01
1.660000e-06	2.452305e-06	1.365784e-09	1.783284e+01	8.841084e+01
1.670000e-06	2.494725e-06	1.397517e-09	1.814131e+01	9.064068e+01
1.680000e-06	2.536416e-06	1.427704e-09	1.844448e+01	9.284137e+01
1.690000e-06	2.577269e-06	1.457049e-09	1.874157e+01	9.501217e+01
1.700000e-06	2.617503e-06	1.487528e-09	1.903414e+01	9.715214e+01
1.710000e-06	2.657289e-06	1.518533e-09	1.932346e+01	9.926017e+01
1.720000e-06	2.696805e-06	1.548348e-09	1.961081e+01	1.013349e+02
1.730000e-06	2.735968e-06	1.576792e-09	1.989560e+01	1.033751e+02
1.740000e-06	2.774686e-06	1.605227e-09	2.017715e+01	1.053790e+02
1.750000e-06	2.812956e-06	1.638141e-09	2.045544e+01	1.073453e+02
1.760000e-06	2.850727e-06	1.671407e-09	2.073011e+01	1.092724e+02
1.770000e-06	2.887966e-06	1.699197e-09	2.100091e+01	1.111592e+02
1.780000e-06	2.924608e-06	1.722267e-09	2.126737e+01	1.130046e+02
1.790000e-06	2.960782e-06	1.746929e-09	2.153042e+01	1.148078e+02
1.800000e-06	2.996630e-06	1.776157e-09	2.179110e+01	1.165682e+02
1.810000e-06	3.032164e-06	1.803275e-09	2.204950e+01	1.182858e+02
1.820000e-06	3.067347e-06	1.826305e-09	2.230535e+01	1.199608e+02
1.830000e-06	3.101880e-06	1.848062e-09	2.255647e+01	1.215936e+02
1.840000e-06	3.135500e-06	1.873160e-09	2.280094e+01	1.231849e+02
1.850000e-06	3.168272e-06	1.899455e-09	2.303926e+01	1.247356e+02
1.860000e-06	3.200366e-06	1.919830e-09	2.327264e+01	1.262468e+02
1.870000e-06	3.232016e-06	1.937546e-09	2.350280e+01	1.277195e+02
1.880000e-06	3.263315e-06	1.958067e-09	2.373040e+01	1.291547e+02
1.890000e-06	3.294121e-06	1.980584e-09	2.395442e+01	1.305532e+02
1.900000e-06	3.324365e-06	2.001681e-09	2.417435e+01	1.319160e+02
1.910000e-06	3.354065e-06	2.019322e-09	2.439032e+01	1.332433e+02
1.920000e-06	3.383168e-06	2.036288e-09	2.460195e+01	1.345356e+02
1.930000e-06	3.411654e-06	2.054722e-09	2.480910e+01	1.357928e+02
1.940000e-06	3.439646e-06	2.073811e-09	2.501265e+01	1.370150e+02
1.950000e-06	3.467249e-06	2.091250e-09	2.521338e+01	1.382017e+02
1.960000e-06	3.494315e-06	2.105836e-09	2.541020e+01	1.393526e+02
1.970000e-06	3.520590e-06	2.121502e-09	2.560127e+01	1.404674e+02
1.980000e-06	3.546018e-06	2.137843e-09	2.578618e+01	1.415456e+02
1.990000e-06	3.570566e-06	2.152719e-09	2.596468e+01	1.425871e+02
2.000000e-06	3.594369e-06	2.168011e-09	2.613778e+01	1.435918e+02
2.010000e-06	3.617651e-06	2.183084e-09	2.630709e+01	1.445599e+02
2.020000e-06	3.640342e-06	2.198082e-09	2.647209e+01	1.454918e+02
2.030000e-06	3.662399e-06	2.212709e-09	2.663248e+01	1.463882e+02
2.040000e-06	3.683863e-06	2.226364e-09	2.678857e+01	1.472500e+02
2.050000e-06	3.704672e-06	2.239156e-09	2.693989e+01	1.480784e+02
2.060000e-06	3.724867e-06	2.251696e-09	2.708674e+01	1.488744e+02
2.070000e-06	3.744635e-06	2.263604e-09	2.723049e+01	1.496395e+02
2.080000e-06	3.763951e-06	2.275332e-09	2.737096e+01	1.503749e+02
2.090000e-06	3.782624e-06	2.286645e-09	2.750675e+01	1.510817e+02
2.100000e-06	3.800533e-06	2.296129e-09	2.763698e+01	1.517611e+02
2.110000e-06	3.817743e-06	2.304658e-09	2.776213e+01	1.524137e+02
2.120000e-06	3.834320e-06	2.313796e-09	2.788267e+01	1.530400e+02
2.130000e-06	3.850265e-06	2.324425e-09	2.799862e+01	1.536402e+02
2.140000e-06	3.865435e-06	2.334232e-09	2.810894e+01	1.542141e+02
2.150000e-06	3.879790e-06	2.341749e-09	2.821332e+01	1.547614e+02
2.160000e-06	3.893436e-06	2.347033e-09	2.831256e+01	1.552814e+02
2.170000e-06	3.906343e-06	2.353149e-09	2.840641e+01	1.557733e+02
2.180000e-06	3.918534e-06	2.361012e-09	2.849506e+01	1.562363e+02
2.190000e-06	3.930038e-06	2.369559e-09	2.857872e+01	1.566697e+02
2.200000e-06	3.940676e-06	2.375714e-09	2.865608e+01	1.570726e+02
2.210000e-06	3.950331e-06	2.379765e-09	2.872629e+01	1.574448e+02
2.220000e-06	3.959047e-06	2.386590e-09	2.878967e+01	1.577859e+02
2.230000e-06	3.966958e-06	2.394429e-09	2.884719e+01	1.580963e+02
2.240000e-06	3.974298e-06	2.398698e-09	2.890057e+01	1.583764e+02
2.250000e-06	3.981048e-06	2.401498e-09	2.894966e+01	1.586272e+02
2.260000e-06	3.987128e-06	2.405759e-09	2.899387e+01	1.588497e+02
2.270000e-06	3.992484e-06	2.409411e-09	2.903282e+01	1.590456e+02
2.280000e-06	3.997139e-06	2.411288e-09	2.906667e+01	1.592163e+02
2.290000e-06	4.001233e-06	2.412918e-09	2.909644e+01	1.593636e+02
2.300000e-06	4.004804e-06	2.414466e-09	2.912241e+01	1.594890e+02
2.310000e-06	4.007736e-06	2.415045e-09	2.914373e+01	1.595938e+02
2.320000e-06	4.009813e-06	2.417870e-09	2.915883e+01	1.596792e+02
2.330000e-06	4.010951e-06	2.421536e-09	2.916711e+01	1.597459e+02
2.340000e-06	4.011245e-06	2.424019e-09	2.916925e+01	1.597941e+02
2.350000e-06	4.010900e-06	2.424491e-09	2.916674e+01	1.598236e+02
2.360000e-06	4.010005e-06	2.424170e-09	2.916023e+01	1.598335e+02
2.370000e-06	4.008477e-06	2.424895e-09	2.914912e+01	1.598229e+02
2.380000e-06	4.006262e-06	2.424102e-09	2.913301e+01	1.597902e+02
2.390000e-06	4.003412e-06	2.421714e-09	2.911229e+01	1.597337e+02
2.400000e-06	3.999953e-06	2.418067e-09	2.908714e+01	1.596516e+02
2.410000e-06	3.995985e-06	2.419224e-09	2.905828e+01	1.595423e+02
2.420000e-06	3.991579e-06	2.427865e-09	2.902624e+01	1.594042e+02
2.430000e-06	3.986527e-06	2.403578e-09	2.898950e+01	1.592363e+02
2.440000e-06	3.980446e-06	2.352836e-09	2.894528e+01	1.590380e+02
2.450000e-06	3.973110e-06	2.414099e-09	2.889194e+01	1.588096e+02
2.460000e-06	3.964914e-06	2.438363e-09	2.883233e+01	1.585518e+02
2.470000e-06	3.956406e-06	2.416441e-09	2.877047e+01	1.582663e+02
2.480000e-06	3.947500e-06	2.344781e-09	2.870571e+01	1.579555e+02
2.490000e-06	3.937724e-06	2.360011e-09	2.863461e+01	1.576222e+02
2.500000e-06	3.927162e-06	2.349951e-09	2.855781e+01	1.572700e+02
2.510000e-06	3.916210e-06	2.310314e-09	2.847817e+01	1.569028e+02
2.520000e-06	3.904543e-06	2.397841e-09	2.839333e+01	1.565246e+02
2.530000e-06	3.891686e-06	2.354224e-09	2.829983e+01	1.561395e+02
2.540000e-06	3.878076e-06	2.282717e-09	2.820086e+01	1.557512e+02
2.550000e-06	3.863874e-06	2.333261e-09	2.809759e+01	1.553629e+02
2.560000e-06	3.848733e-06	2.410583e-09	2.798748e+01	1.549773e+02
2.570000e-06	3.832720e-06	2.303494e-09	2.787104e+01	1.545959e+02
2.580000e-06	3.816045e-06	2.244352e-09	2.774978e+01	1.542198e+02
2.590000e-06	3.798758e-06	2.342773e-09	2.762407e+01	1.538485e+02
2.600000e-06	3.780838e-06	2.293962e-09	2.749376e+01	1.534809e+02
2.610000e-06	3.762236e-06	2.227342e-09	2.735849e+01	1.531145e+02
2.620000e-06	3.742939e-06	2.331484e-09	2.721816e+01	1.527464e+02
2.630000e-06	3.723100e-06	2.395020e-09	2.707390e+01	1.523727e+02
2.640000e-06	3.702754e-06	2.320687e-09	2.692594e+01	1.519888e+02
2.650000e-06	3.681749e-06	2.229073e-09	2.677319e+01	1.515901e+02
2.660000e-06	3.660072e-06	2.297653e-09	2.661556e+01	1.511716e+02
2.670000e-06	3.637591e-06	2.360031e-09	2.645208e+01	1.507289e+02
2.680000e-06	3.614196e-06	2.313315e-09	2.628196e+01	1.502574e+02
2.690000e-06	3.590135e-06	2.200351e-09	2.610699e+01	1.497535e+02
2.700000e-06	3.565555e-06	2.207939e-09	2.592825e+01	1.492142e+02
2.710000e-06	3.540380e-06	2.328352e-09	2.574518e+01	1.486372e+02
2.720000e-06	3.514555e-06	2.274262e-09	2.555738e+01	1.480214e+02
2.730000e-06	3.488140e-06	2.222135e-09	2.536530e+01	1.473662e+02
2.740000e-06	3.461132e-06	2.218590e-09	2.516890e+01	1.466722e+02
2.750000e-06	3.433566e-06	2.208519e-09	2.496844e+01	1.459407e+02
2.760000e-06	3.405529e-06	2.266993e-09	2.476456e+01	1.451736e+02
2.770000e-06	3.377047e-06	2.214048e-09	2.455744e+01	1.443733e+02
2.780000e-06	3.348035e-06	2.155424e-09	2.434647e+01	1.435426e+02
2.790000e-06	3.318132e-06	2.170722e-09	2.412902e+01	1.426844e+02
2.800000e-06	3.287241e-06	2.155775e-09	2.390438e+01	1.418015e+02
2.810000e-06	3.255682e-06	2.175037e-09	2.367489e+01	1.408966e+02
2.820000e-06	3.223623e-06	2.144044e-09	2.344176e+01	1.399722e+02
2.830000e-06	3.191081e-06	2.101569e-09	2.320512e+01	1.390302e+02
2.840000e-06	3.157982e-06	2.093601e-09	2.296443e+01	1.380722e+02
2.850000e-06	3.124326e-06	2.094132e-09	2.271969e+01	1.370991e+02
2.860000e-06	3.090231e-06	2.107242e-09	2.247175e+01	1.361117e+02
2.870000e-06	3.055613e-06	2.075326e-09	2.222002e+01	1.351100e+02
2.880000e-06	3.020400e-06	2.037078e-09	2.196395e+01	1.340937e+02
2.890000e-06	2.984735e-06	2.012966e-09	2.170460e+01	1.330626e+02
2.900000e-06	2.948689e-06	2.019099e-09	2.144248e+01	1.320158e+02
2.910000e-06	2.912268e-06	2.041416e-09	2.117763e+01	1.309527e+02
2.920000e-06	2.875363e-06	1.991978e-09	2.090926e+01	1.298727e+02
2.930000e-06	2.837762e-06	1.930716e-09	2.063583e+01	1.287750e+02
2.940000e-06	2.799380e-06	1.920113e-09	2.035673e+01	1.276593e+02
