# Temperatura_=_20.0
# Concentracion g/m^3_=_12600.0
# C_Vs_to_Am_M_A/Vsm_=_65563218390.804596
# pendiente_HvsI_1/m_=_3716.3
# ordenada_HvsI_A/m_=_1297.0
# frecuencia_Hz_=_213005.9630476716

Tiempo_(s)	Campo_(V.s)	Magnetizacion_(V.s)	Campo_(kA/m)	Magnetizacion_(A/m)
0.000000e+00	-3.999073e-06	-2.615788e-09	-2.910677e+01	-1.712842e+02
1.000000e-08	-3.999239e-06	-2.618698e-09	-2.910798e+01	-1.713265e+02
2.000000e-08	-3.998805e-06	-2.618152e-09	-2.910482e+01	-1.713419e+02
3.000000e-08	-3.997465e-06	-2.615103e-09	-2.909507e+01	-1.713285e+02
4.000000e-08	-3.995101e-06	-2.613623e-09	-2.907786e+01	-1.712845e+02
5.000000e-08	-3.991969e-06	-2.612380e-09	-2.905507e+01	-1.712089e+02
6.000000e-08	-3.988299e-06	-2.607911e-09	-2.902836e+01	-1.711010e+02
7.000000e-08	-3.984078e-06	-2.599337e-09	-2.899764e+01	-1.709605e+02
8.000000e-08	-3.979188e-06	-2.602386e-09	-2.896204e+01	-1.707883e+02
9.000000e-08	-3.973493e-06	-2.641171e-09	-2.892059e+01	-1.705856e+02
1.000000e-07	-3.966900e-06	-2.653199e-09	-2.887261e+01	-1.703546e+02
1.100000e-07	-3.959627e-06	-2.550816e-09	-2.881967e+01	-1.700979e+02
1.200000e-07	-3.952007e-06	-2.515052e-09	-2.876421e+01	-1.698187e+02
1.300000e-07	-3.943837e-06	-2.595236e-09	-2.870474e+01	-1.695208e+02
1.400000e-07	-3.934711e-06	-2.671662e-09	-2.863832e+01	-1.692077e+02
1.500000e-07	-3.924651e-06	-2.566219e-09	-2.856510e+01	-1.688834e+02
1.600000e-07	-3.913825e-06	-2.566291e-09	-2.848631e+01	-1.685514e+02
1.700000e-07	-3.902077e-06	-2.610588e-09	-2.840080e+01	-1.682147e+02
1.800000e-07	-3.889428e-06	-2.521950e-09	-2.830873e+01	-1.678759e+02
1.900000e-07	-3.876295e-06	-2.617277e-09	-2.821315e+01	-1.675367e+02
2.000000e-07	-3.862511e-06	-2.679326e-09	-2.811282e+01	-1.671980e+02
2.100000e-07	-3.847425e-06	-2.502734e-09	-2.800302e+01	-1.668598e+02
2.200000e-07	-3.831299e-06	-2.433523e-09	-2.788565e+01	-1.665210e+02
2.300000e-07	-3.814667e-06	-2.672485e-09	-2.776460e+01	-1.661797e+02
2.400000e-07	-3.797484e-06	-2.663211e-09	-2.763953e+01	-1.658332e+02
2.500000e-07	-3.779648e-06	-2.439902e-09	-2.750972e+01	-1.654779e+02
2.600000e-07	-3.761133e-06	-2.515126e-09	-2.737496e+01	-1.651100e+02
2.700000e-07	-3.742021e-06	-2.645696e-09	-2.723585e+01	-1.647251e+02
2.800000e-07	-3.722495e-06	-2.540645e-09	-2.709373e+01	-1.643188e+02
2.900000e-07	-3.702498e-06	-2.478481e-09	-2.694819e+01	-1.638869e+02
3.000000e-07	-3.681801e-06	-2.519395e-09	-2.679755e+01	-1.634255e+02
3.100000e-07	-3.660431e-06	-2.540198e-09	-2.664201e+01	-1.629309e+02
3.200000e-07	-3.638453e-06	-2.499035e-09	-2.648204e+01	-1.624006e+02
3.300000e-07	-3.615847e-06	-2.440217e-09	-2.631751e+01	-1.618323e+02
3.400000e-07	-3.592688e-06	-2.469279e-09	-2.614895e+01	-1.612249e+02
3.500000e-07	-3.569064e-06	-2.539393e-09	-2.597701e+01	-1.605781e+02
3.600000e-07	-3.544799e-06	-2.468067e-09	-2.580040e+01	-1.598922e+02
3.700000e-07	-3.519711e-06	-2.362400e-09	-2.561780e+01	-1.591684e+02
3.800000e-07	-3.493725e-06	-2.446979e-09	-2.542866e+01	-1.584085e+02
3.900000e-07	-3.466900e-06	-2.488833e-09	-2.523342e+01	-1.576148e+02
4.000000e-07	-3.439533e-06	-2.421533e-09	-2.503423e+01	-1.567897e+02
4.100000e-07	-3.411749e-06	-2.383113e-09	-2.483200e+01	-1.559360e+02
4.200000e-07	-3.383420e-06	-2.349395e-09	-2.462582e+01	-1.550563e+02
4.300000e-07	-3.354446e-06	-2.375694e-09	-2.441493e+01	-1.541531e+02
4.400000e-07	-3.324906e-06	-2.421518e-09	-2.419993e+01	-1.532286e+02
4.500000e-07	-3.294851e-06	-2.365782e-09	-2.398118e+01	-1.522846e+02
4.600000e-07	-3.264205e-06	-2.277871e-09	-2.375813e+01	-1.513224e+02
4.700000e-07	-3.233044e-06	-2.280427e-09	-2.353132e+01	-1.503428e+02
4.800000e-07	-3.201539e-06	-2.348680e-09	-2.330202e+01	-1.493463e+02
4.900000e-07	-3.169701e-06	-2.334736e-09	-2.307029e+01	-1.483328e+02
5.000000e-07	-3.137248e-06	-2.246003e-09	-2.283409e+01	-1.473018e+02
5.100000e-07	-3.103884e-06	-2.203383e-09	-2.259125e+01	-1.462528e+02
5.200000e-07	-3.069557e-06	-2.238881e-09	-2.234140e+01	-1.451848e+02
5.300000e-07	-3.034498e-06	-2.268447e-09	-2.208623e+01	-1.440971e+02
5.400000e-07	-2.999047e-06	-2.208146e-09	-2.182820e+01	-1.429888e+02
5.500000e-07	-2.963295e-06	-2.154610e-09	-2.156798e+01	-1.418592e+02
5.600000e-07	-2.927098e-06	-2.156042e-09	-2.130453e+01	-1.407079e+02
5.700000e-07	-2.890337e-06	-2.150428e-09	-2.103697e+01	-1.395348e+02
5.800000e-07	-2.853119e-06	-2.140790e-09	-2.076608e+01	-1.383398e+02
5.900000e-07	-2.815419e-06	-2.122337e-09	-2.049169e+01	-1.371234e+02
6.000000e-07	-2.777087e-06	-2.089421e-09	-2.021269e+01	-1.358862e+02
6.100000e-07	-2.738237e-06	-2.050084e-09	-1.992993e+01	-1.346289e+02
6.200000e-07	-2.699008e-06	-2.038550e-09	-1.964440e+01	-1.333524e+02
6.300000e-07	-2.659529e-06	-2.054436e-09	-1.935706e+01	-1.320576e+02
6.400000e-07	-2.619798e-06	-2.033278e-09	-1.906789e+01	-1.307453e+02
6.500000e-07	-2.579570e-06	-1.980163e-09	-1.877509e+01	-1.294164e+02
6.600000e-07	-2.538726e-06	-1.937254e-09	-1.847781e+01	-1.280712e+02
6.700000e-07	-2.497203e-06	-1.941876e-09	-1.817559e+01	-1.267101e+02
6.800000e-07	-2.454965e-06	-1.963954e-09	-1.786817e+01	-1.253331e+02
6.900000e-07	-2.412108e-06	-1.921936e-09	-1.755624e+01	-1.239397e+02
7.000000e-07	-2.368780e-06	-1.851107e-09	-1.724088e+01	-1.225294e+02
7.100000e-07	-2.325202e-06	-1.828415e-09	-1.692370e+01	-1.211014e+02
7.200000e-07	-2.281402e-06	-1.855032e-09	-1.660491e+01	-1.196547e+02
7.300000e-07	-2.237200e-06	-1.850508e-09	-1.628319e+01	-1.181880e+02
7.400000e-07	-2.192547e-06	-1.779773e-09	-1.595819e+01	-1.167002e+02
7.500000e-07	-2.147481e-06	-1.730075e-09	-1.563019e+01	-1.151901e+02
7.600000e-07	-2.102077e-06	-1.734720e-09	-1.529972e+01	-1.136568e+02
7.700000e-07	-2.056369e-06	-1.744312e-09	-1.496703e+01	-1.120994e+02
7.800000e-07	-2.010290e-06	-1.712001e-09	-1.463165e+01	-1.105173e+02
7.900000e-07	-1.963817e-06	-1.651492e-09	-1.429341e+01	-1.089100e+02
8.000000e-07	-1.917001e-06	-1.618501e-09	-1.395266e+01	-1.072777e+02
8.100000e-07	-1.869890e-06	-1.614568e-09	-1.360977e+01	-1.056204e+02
8.200000e-07	-1.822529e-06	-1.608053e-09	-1.326506e+01	-1.039386e+02
8.300000e-07	-1.774966e-06	-1.571574e-09	-1.291888e+01	-1.022329e+02
8.400000e-07	-1.727115e-06	-1.517940e-09	-1.257060e+01	-1.005042e+02
8.500000e-07	-1.678868e-06	-1.491292e-09	-1.221944e+01	-9.875316e+01
8.600000e-07	-1.630220e-06	-1.484406e-09	-1.186536e+01	-9.698077e+01
8.700000e-07	-1.581157e-06	-1.469687e-09	-1.150826e+01	-9.518774e+01
8.800000e-07	-1.531633e-06	-1.431664e-09	-1.114781e+01	-9.337471e+01
8.900000e-07	-1.481544e-06	-1.384562e-09	-1.078324e+01	-9.154213e+01
9.000000e-07	-1.431102e-06	-1.356415e-09	-1.041610e+01	-8.969027e+01
9.100000e-07	-1.380356e-06	-1.340742e-09	-1.004675e+01	-8.781914e+01
9.200000e-07	-1.329184e-06	-1.323764e-09	-9.674308e+00	-8.592857e+01
9.300000e-07	-1.277763e-06	-1.284976e-09	-9.300047e+00	-8.401818e+01
9.400000e-07	-1.226172e-06	-1.231545e-09	-8.924547e+00	-8.208746e+01
9.500000e-07	-1.174387e-06	-1.202092e-09	-8.547633e+00	-8.013578e+01
9.600000e-07	-1.122399e-06	-1.196885e-09	-8.169246e+00	-7.816248e+01
9.700000e-07	-1.070203e-06	-1.181934e-09	-7.789342e+00	-7.616694e+01
9.800000e-07	-1.017771e-06	-1.133726e-09	-7.407724e+00	-7.414858e+01
9.900000e-07	-9.650850e-07	-1.081900e-09	-7.024256e+00	-7.210701e+01
1.000000e-06	-9.122138e-07	-1.062894e-09	-6.639439e+00	-7.004199e+01
1.010000e-06	-8.593033e-07	-1.055323e-09	-6.254336e+00	-6.795349e+01
1.020000e-06	-8.063138e-07	-1.022737e-09	-5.868658e+00	-6.584171e+01
1.030000e-06	-7.531602e-07	-9.625276e-10	-5.481786e+00	-6.370708e+01
1.040000e-06	-6.998715e-07	-9.164202e-10	-5.093931e+00	-6.155020e+01
1.050000e-06	-6.464488e-07	-9.037781e-10	-4.705100e+00	-5.937186e+01
1.060000e-06	-5.929075e-07	-8.882560e-10	-4.315406e+00	-5.717296e+01
1.070000e-06	-5.393027e-07	-8.458438e-10	-3.925250e+00	-5.495449e+01
1.080000e-06	-4.855423e-07	-7.911853e-10	-3.533961e+00	-5.271744e+01
1.090000e-06	-4.316887e-07	-7.568717e-10	-3.141994e+00	-5.046278e+01
1.100000e-06	-3.778220e-07	-7.420117e-10	-2.749932e+00	-4.819140e+01
1.110000e-06	-3.238983e-07	-7.140855e-10	-2.357455e+00	-4.590409e+01
1.120000e-06	-2.699723e-07	-6.664160e-10	-1.964961e+00	-4.360148e+01
1.130000e-06	-2.159611e-07	-6.150170e-10	-1.571847e+00	-4.128407e+01
1.140000e-06	-1.618635e-07	-5.830398e-10	-1.178104e+00	-3.895222e+01
1.150000e-06	-1.077701e-07	-5.645450e-10	-7.843916e-01	-3.660614e+01
1.160000e-06	-5.365594e-08	-5.333529e-10	-3.905283e-01	-3.424597e+01
1.170000e-06	4.855646e-10	-4.860874e-10	3.534124e-03	-3.187175e+01
1.180000e-06	5.472634e-08	-4.379623e-10	3.983191e-01	-2.948352e+01
1.190000e-06	1.089818e-07	-4.068372e-10	7.932111e-01	-2.708132e+01
1.200000e-06	1.630873e-07	-3.817763e-10	1.187012e+00	-2.466524e+01
1.210000e-06	2.171289e-07	-3.428211e-10	1.580346e+00	-2.223545e+01
1.220000e-06	2.711212e-07	-2.923359e-10	1.973323e+00	-1.979220e+01
1.230000e-06	3.251081e-07	-2.426860e-10	2.366260e+00	-1.733588e+01
1.240000e-06	3.790788e-07	-2.093321e-10	2.759079e+00	-1.486695e+01
1.250000e-06	4.329168e-07	-1.821237e-10	3.150933e+00	-1.238598e+01
1.260000e-06	4.866190e-07	-1.407823e-10	3.541798e+00	-9.893566e+00
1.270000e-06	5.402071e-07	-9.140233e-11	3.931833e+00	-7.390360e+00
1.280000e-06	5.937967e-07	-4.898871e-11	4.321878e+00	-4.876977e+00
1.290000e-06	6.473471e-07	-2.030946e-11	4.711638e+00	-2.353978e+00
1.300000e-06	7.007285e-07	1.169771e-11	5.100168e+00	1.781763e-01
1.310000e-06	7.539694e-07	5.844644e-11	5.487676e+00	2.719157e+00
1.320000e-06	8.070734e-07	1.082204e-10	5.874187e+00	5.268789e+00
1.330000e-06	8.600196e-07	1.482021e-10	6.259549e+00	7.827061e+00
1.340000e-06	9.127843e-07	1.771469e-10	6.643591e+00	1.039412e+01
1.350000e-06	9.653083e-07	2.122128e-10	7.025880e+00	1.297026e+01
1.360000e-06	1.017616e-06	2.602518e-10	7.406598e+00	1.555586e+01
1.370000e-06	1.069759e-06	3.074496e-10	7.786111e+00	1.815139e+01
1.380000e-06	1.121730e-06	3.442711e-10	8.164379e+00	2.075730e+01
1.390000e-06	1.173513e-06	3.762760e-10	8.541274e+00	2.337398e+01
1.400000e-06	1.225059e-06	4.187966e-10	8.916447e+00	2.600171e+01
1.410000e-06	1.276364e-06	4.696347e-10	9.289865e+00	2.864058e+01
1.420000e-06	1.327525e-06	5.144510e-10	9.662231e+00	3.129044e+01
1.430000e-06	1.378436e-06	5.508349e-10	1.003278e+01	3.395086e+01
1.440000e-06	1.428924e-06	5.865342e-10	1.040025e+01	3.662112e+01
1.450000e-06	1.478938e-06	6.301284e-10	1.076427e+01	3.930013e+01
1.460000e-06	1.528460e-06	6.758653e-10	1.112471e+01	4.198654e+01
1.470000e-06	1.577594e-06	7.167465e-10	1.148233e+01	4.467867e+01
1.480000e-06	1.626279e-06	7.542412e-10	1.183668e+01	4.737459e+01
1.490000e-06	1.674500e-06	7.922393e-10	1.218765e+01	5.007216e+01
1.500000e-06	1.722385e-06	8.363796e-10	1.253617e+01	5.276909e+01
1.510000e-06	1.770023e-06	8.826148e-10	1.288290e+01	5.546301e+01
1.520000e-06	1.817491e-06	9.264495e-10	1.322839e+01	5.815151e+01
1.530000e-06	1.864785e-06	9.668407e-10	1.357261e+01	6.083223e+01
1.540000e-06	1.911828e-06	1.005904e-09	1.391501e+01	6.350292e+01
1.550000e-06	1.958564e-06	1.049538e-09	1.425517e+01	6.616142e+01
1.560000e-06	2.004903e-06	1.092201e-09	1.459244e+01	6.880578e+01
1.570000e-06	2.050782e-06	1.129805e-09	1.492637e+01	7.143417e+01
1.580000e-06	2.096287e-06	1.164883e-09	1.525757e+01	7.404499e+01
1.590000e-06	2.141442e-06	1.202234e-09	1.558623e+01	7.663675e+01
1.600000e-06	2.186233e-06	1.244070e-09	1.591224e+01	7.920813e+01
1.610000e-06	2.230638e-06	1.284385e-09	1.623543e+01	8.175789e+01
1.620000e-06	2.274676e-06	1.319688e-09	1.655596e+01	8.428484e+01
1.630000e-06	2.318399e-06	1.352737e-09	1.687419e+01	8.678785e+01
1.640000e-06	2.361867e-06	1.389282e-09	1.719057e+01	8.926572e+01
1.650000e-06	2.405128e-06	1.428723e-09	1.750544e+01	9.171726e+01
1.660000e-06	2.448114e-06	1.464780e-09	1.781830e+01	9.414116e+01
1.670000e-06	2.490523e-06	1.497281e-09	1.812697e+01	9.653607e+01
1.680000e-06	2.532089e-06	1.529860e-09	1.842951e+01	9.890057e+01
1.690000e-06	2.572901e-06	1.564073e-09	1.872655e+01	1.012331e+02
1.700000e-06	2.613115e-06	1.598380e-09	1.901924e+01	1.035323e+02
1.710000e-06	2.652910e-06	1.632697e-09	1.930888e+01	1.057965e+02
1.720000e-06	2.692393e-06	1.664135e-09	1.959626e+01	1.080243e+02
1.730000e-06	2.731494e-06	1.692425e-09	1.988085e+01	1.102143e+02
1.740000e-06	2.770173e-06	1.723656e-09	2.016237e+01	1.123652e+02
1.750000e-06	2.808440e-06	1.758363e-09	2.044089e+01	1.144760e+02
1.760000e-06	2.846240e-06	1.790870e-09	2.071602e+01	1.165457e+02
1.770000e-06	2.883503e-06	1.819468e-09	2.098723e+01	1.185738e+02
1.780000e-06	2.920249e-06	1.845359e-09	2.125468e+01	1.205596e+02
1.790000e-06	2.956495e-06	1.871660e-09	2.151850e+01	1.225030e+02
1.800000e-06	2.992294e-06	1.900832e-09	2.177905e+01	1.244038e+02
1.810000e-06	3.027778e-06	1.928865e-09	2.203732e+01	1.262622e+02
1.820000e-06	3.062927e-06	1.953737e-09	2.229315e+01	1.280784e+02
1.830000e-06	3.097527e-06	1.976889e-09	2.254498e+01	1.298526e+02
1.840000e-06	3.131269e-06	2.002149e-09	2.279056e+01	1.315853e+02
1.850000e-06	3.164077e-06	2.028338e-09	2.302935e+01	1.332767e+02
1.860000e-06	3.196200e-06	2.050924e-09	2.326316e+01	1.349272e+02
1.870000e-06	3.227857e-06	2.071046e-09	2.349357e+01	1.365370e+02
1.880000e-06	3.259099e-06	2.092928e-09	2.372096e+01	1.381062e+02
1.890000e-06	3.289867e-06	2.115990e-09	2.394491e+01	1.396351e+02
1.900000e-06	3.320111e-06	2.137218e-09	2.416503e+01	1.411235e+02
1.910000e-06	3.349748e-06	2.156695e-09	2.438074e+01	1.425716e+02
1.920000e-06	3.378751e-06	2.176074e-09	2.459184e+01	1.439793e+02
1.930000e-06	3.407186e-06	2.196026e-09	2.479880e+01	1.453466e+02
1.940000e-06	3.435123e-06	2.215936e-09	2.500213e+01	1.466735e+02
1.950000e-06	3.462656e-06	2.233741e-09	2.520252e+01	1.479602e+02
1.960000e-06	3.489757e-06	2.250884e-09	2.539978e+01	1.492069e+02
1.970000e-06	3.516177e-06	2.270042e-09	2.559208e+01	1.504140e+02
1.980000e-06	3.541606e-06	2.287948e-09	2.577715e+01	1.515821e+02
1.990000e-06	3.566054e-06	2.303085e-09	2.595509e+01	1.527119e+02
2.000000e-06	3.589803e-06	2.319824e-09	2.612795e+01	1.538040e+02
2.010000e-06	3.613029e-06	2.336747e-09	2.629699e+01	1.548594e+02
2.020000e-06	3.635674e-06	2.351745e-09	2.646182e+01	1.558789e+02
2.030000e-06	3.657689e-06	2.365318e-09	2.662205e+01	1.568636e+02
2.040000e-06	3.679123e-06	2.377909e-09	2.677806e+01	1.578142e+02
2.050000e-06	3.699990e-06	2.391268e-09	2.692993e+01	1.587314e+02
2.060000e-06	3.720275e-06	2.405173e-09	2.707758e+01	1.596158e+02
2.070000e-06	3.740019e-06	2.418998e-09	2.722128e+01	1.604679e+02
2.080000e-06	3.759336e-06	2.431232e-09	2.736188e+01	1.612877e+02
2.090000e-06	3.778075e-06	2.443558e-09	2.749827e+01	1.620751e+02
2.100000e-06	3.796017e-06	2.456735e-09	2.762885e+01	1.628301e+02
2.110000e-06	3.813197e-06	2.468999e-09	2.775390e+01	1.635521e+02
2.120000e-06	3.829788e-06	2.479154e-09	2.787466e+01	1.642405e+02
2.130000e-06	3.845799e-06	2.487474e-09	2.799119e+01	1.648949e+02
2.140000e-06	3.861014e-06	2.494903e-09	2.810192e+01	1.655147e+02
2.150000e-06	3.875349e-06	2.501692e-09	2.820626e+01	1.660993e+02
2.160000e-06	3.888998e-06	2.508088e-09	2.830561e+01	1.666486e+02
2.170000e-06	3.902001e-06	2.514997e-09	2.840025e+01	1.671625e+02
2.180000e-06	3.914248e-06	2.523020e-09	2.848938e+01	1.676413e+02
2.190000e-06	3.925808e-06	2.532547e-09	2.857352e+01	1.680856e+02
2.200000e-06	3.936617e-06	2.540772e-09	2.865220e+01	1.684965e+02
2.210000e-06	3.946317e-06	2.546813e-09	2.872279e+01	1.688751e+02
2.220000e-06	3.954958e-06	2.553427e-09	2.878569e+01	1.692231e+02
2.230000e-06	3.962926e-06	2.559506e-09	2.884368e+01	1.695423e+02
2.240000e-06	3.970307e-06	2.564127e-09	2.889741e+01	1.698346e+02
2.250000e-06	3.977089e-06	2.567440e-09	2.894677e+01	1.701019e+02
2.260000e-06	3.983247e-06	2.570118e-09	2.899159e+01	1.703462e+02
2.270000e-06	3.988708e-06	2.573152e-09	2.903133e+01	1.705691e+02
2.280000e-06	3.993458e-06	2.576668e-09	2.906591e+01	1.707719e+02
2.290000e-06	3.997560e-06	2.578504e-09	2.909576e+01	1.709555e+02
2.300000e-06	4.001129e-06	2.579300e-09	2.912174e+01	1.711205e+02
2.310000e-06	4.004095e-06	2.582019e-09	2.914333e+01	1.712667e+02
2.320000e-06	4.006211e-06	2.586613e-09	2.915873e+01	1.713937e+02
2.330000e-06	4.007364e-06	2.589662e-09	2.916712e+01	1.715004e+02
2.340000e-06	4.007657e-06	2.590683e-09	2.916925e+01	1.715853e+02
2.350000e-06	4.007349e-06	2.591237e-09	2.916701e+01	1.716466e+02
2.360000e-06	4.006518e-06	2.591164e-09	2.916096e+01	1.716825e+02
2.370000e-06	4.005043e-06	2.590544e-09	2.915023e+01	1.716910e+02
2.380000e-06	4.002932e-06	2.591109e-09	2.913486e+01	1.716702e+02
2.390000e-06	4.000192e-06	2.590805e-09	2.911492e+01	1.716186e+02
2.400000e-06	3.996773e-06	2.590786e-09	2.909003e+01	1.715351e+02
2.410000e-06	3.992785e-06	2.598250e-09	2.906101e+01	1.714191e+02
2.420000e-06	3.988381e-06	2.601092e-09	2.902895e+01	1.712708e+02
2.430000e-06	3.983375e-06	2.545773e-09	2.899252e+01	1.710909e+02
2.440000e-06	3.977309e-06	2.513046e-09	2.894837e+01	1.708810e+02
2.450000e-06	3.969993e-06	2.624512e-09	2.889512e+01	1.706434e+02
2.460000e-06	3.961855e-06	2.657635e-09	2.883588e+01	1.703809e+02
2.470000e-06	3.953444e-06	2.569822e-09	2.877467e+01	1.700969e+02
2.480000e-06	3.944606e-06	2.473894e-09	2.871034e+01	1.697949e+02
2.490000e-06	3.934796e-06	2.565512e-09	2.863894e+01	1.694789e+02
2.500000e-06	3.924201e-06	2.561523e-09	2.856183e+01	1.691524e+02
2.510000e-06	3.913311e-06	2.520260e-09	2.848257e+01	1.688191e+02
2.520000e-06	3.901724e-06	2.610506e-09	2.839823e+01	1.684818e+02
2.530000e-06	3.888985e-06	2.523889e-09	2.830551e+01	1.681429e+02
2.540000e-06	3.875503e-06	2.430745e-09	2.820739e+01	1.678039e+02
2.550000e-06	3.861421e-06	2.586197e-09	2.810489e+01	1.674655e+02
2.560000e-06	3.846318e-06	2.679896e-09	2.799497e+01	1.671274e+02
2.570000e-06	3.830274e-06	2.412224e-09	2.787819e+01	1.667883e+02
2.580000e-06	3.813609e-06	2.390604e-09	2.775690e+01	1.664461e+02
2.590000e-06	3.796386e-06	2.624991e-09	2.763154e+01	1.660979e+02
2.600000e-06	3.778559e-06	2.508524e-09	2.750179e+01	1.657400e+02
2.610000e-06	3.760024e-06	2.347459e-09	2.736688e+01	1.653683e+02
2.620000e-06	3.740737e-06	2.567731e-09	2.722650e+01	1.649787e+02
2.630000e-06	3.720885e-06	2.649884e-09	2.708202e+01	1.645665e+02
2.640000e-06	3.700529e-06	2.437595e-09	2.693385e+01	1.641277e+02
2.650000e-06	3.679516e-06	2.399927e-09	2.678092e+01	1.636584e+02
2.660000e-06	3.657934e-06	2.523868e-09	2.662383e+01	1.631553e+02
2.670000e-06	3.635616e-06	2.559376e-09	2.646139e+01	1.626158e+02
2.680000e-06	3.612262e-06	2.467836e-09	2.629142e+01	1.620379e+02
2.690000e-06	3.588184e-06	2.321537e-09	2.611617e+01	1.614208e+02
2.700000e-06	3.563657e-06	2.429914e-09	2.593765e+01	1.607643e+02
2.710000e-06	3.538532e-06	2.559922e-09	2.575478e+01	1.600689e+02
2.720000e-06	3.512738e-06	2.397340e-09	2.556704e+01	1.593361e+02
2.730000e-06	3.486323e-06	2.351405e-09	2.537478e+01	1.585676e+02
2.740000e-06	3.459341e-06	2.417732e-09	2.517840e+01	1.577659e+02
2.750000e-06	3.431868e-06	2.398784e-09	2.497844e+01	1.569335e+02
2.760000e-06	3.403876e-06	2.412273e-09	2.477470e+01	1.560732e+02
2.770000e-06	3.375424e-06	2.360385e-09	2.456762e+01	1.551875e+02
2.780000e-06	3.346462e-06	2.284310e-09	2.435682e+01	1.542789e+02
2.790000e-06	3.316646e-06	2.323355e-09	2.413981e+01	1.533496e+02
2.800000e-06	3.285895e-06	2.359434e-09	2.391599e+01	1.524010e+02
2.810000e-06	3.254401e-06	2.323031e-09	2.368677e+01	1.514346e+02
2.820000e-06	3.222363e-06	2.263197e-09	2.345358e+01	1.504509e+02
2.830000e-06	3.189868e-06	2.234104e-09	2.321707e+01	1.494503e+02
2.840000e-06	3.156851e-06	2.268396e-09	2.297676e+01	1.484326e+02
2.850000e-06	3.123357e-06	2.286249e-09	2.273298e+01	1.473973e+02
2.860000e-06	3.089361e-06	2.219043e-09	2.248555e+01	1.463437e+02
2.870000e-06	3.054812e-06	2.184880e-09	2.223408e+01	1.452710e+02
2.880000e-06	3.019730e-06	2.201186e-09	2.197874e+01	1.441784e+02
2.890000e-06	2.984113e-06	2.182573e-09	2.171951e+01	1.430649e+02
2.900000e-06	2.948058e-06	2.160748e-09	2.145708e+01	1.419301e+02
2.910000e-06	2.911632e-06	2.150545e-09	2.119197e+01	1.407735e+02
2.920000e-06	2.874775e-06	2.131485e-09	2.092370e+01	1.395950e+02
2.930000e-06	2.837323e-06	2.085294e-09	2.065111e+01	1.383947e+02
2.940000e-06	2.799027e-06	2.060991e-09	2.037238e+01	1.371732e+02
