# Temperatura_=_20.0
# Concentracion g/m^3_=_12600.0
# C_Vs_to_Am_M_A/Vsm_=_65563218390.804596
# pendiente_HvsI_1/m_=_3716.3
# ordenada_HvsI_A/m_=_1297.0
# frecuencia_Hz_=_213006.82732795647

Tiempo_(s)	Campo_(V.s)	Magnetizacion_(V.s)	Campo_(kA/m)	Magnetizacion_(A/m)
0.000000e+00	-4.003972e-06	-2.709978e-09	-2.910568e+01	-1.775326e+02
1.000000e-08	-4.004057e-06	-2.710268e-09	-2.910630e+01	-1.775243e+02
2.000000e-08	-4.003484e-06	-2.710292e-09	-2.910213e+01	-1.774865e+02
3.000000e-08	-4.002092e-06	-2.708794e-09	-2.909201e+01	-1.774198e+02
4.000000e-08	-3.999743e-06	-2.708158e-09	-2.907494e+01	-1.773253e+02
5.000000e-08	-3.996522e-06	-2.706682e-09	-2.905152e+01	-1.772043e+02
6.000000e-08	-3.992747e-06	-2.696938e-09	-2.902408e+01	-1.770583e+02
7.000000e-08	-3.988421e-06	-2.676612e-09	-2.899263e+01	-1.768890e+02
8.000000e-08	-3.983377e-06	-2.684644e-09	-2.895597e+01	-1.766983e+02
9.000000e-08	-3.977521e-06	-2.759594e-09	-2.891340e+01	-1.764885e+02
1.000000e-07	-3.970816e-06	-2.797040e-09	-2.886466e+01	-1.762617e+02
1.100000e-07	-3.963465e-06	-2.661230e-09	-2.881123e+01	-1.760202e+02
1.200000e-07	-3.955716e-06	-2.530005e-09	-2.875489e+01	-1.757664e+02
1.300000e-07	-3.947373e-06	-2.650553e-09	-2.869425e+01	-1.755026e+02
1.400000e-07	-3.938044e-06	-2.792531e-09	-2.862643e+01	-1.752305e+02
1.500000e-07	-3.927837e-06	-2.718627e-09	-2.855224e+01	-1.749521e+02
1.600000e-07	-3.916907e-06	-2.633526e-09	-2.847278e+01	-1.746687e+02
1.700000e-07	-3.904962e-06	-2.653176e-09	-2.838595e+01	-1.743811e+02
1.800000e-07	-3.892095e-06	-2.610776e-09	-2.829242e+01	-1.740897e+02
1.900000e-07	-3.878796e-06	-2.680849e-09	-2.819575e+01	-1.737945e+02
2.000000e-07	-3.864839e-06	-2.836545e-09	-2.809429e+01	-1.734945e+02
2.100000e-07	-3.849569e-06	-2.636904e-09	-2.798329e+01	-1.731884e+02
2.200000e-07	-3.833183e-06	-2.471409e-09	-2.786418e+01	-1.728745e+02
2.300000e-07	-3.816385e-06	-2.759033e-09	-2.774207e+01	-1.725502e+02
2.400000e-07	-3.799186e-06	-2.880172e-09	-2.761705e+01	-1.722128e+02
2.500000e-07	-3.781282e-06	-2.559449e-09	-2.748690e+01	-1.718591e+02
2.600000e-07	-3.762614e-06	-2.476813e-09	-2.735120e+01	-1.714858e+02
2.700000e-07	-3.743343e-06	-2.720765e-09	-2.721111e+01	-1.710895e+02
2.800000e-07	-3.723701e-06	-2.751515e-09	-2.706833e+01	-1.706669e+02
2.900000e-07	-3.703613e-06	-2.636304e-09	-2.692231e+01	-1.702148e+02
3.000000e-07	-3.682817e-06	-2.582964e-09	-2.677114e+01	-1.697305e+02
3.100000e-07	-3.661316e-06	-2.555729e-09	-2.661484e+01	-1.692116e+02
3.200000e-07	-3.639203e-06	-2.609622e-09	-2.645410e+01	-1.686562e+02
3.300000e-07	-3.616429e-06	-2.648113e-09	-2.628855e+01	-1.680631e+02
3.400000e-07	-3.593105e-06	-2.597439e-09	-2.611900e+01	-1.674314e+02
3.500000e-07	-3.569327e-06	-2.540234e-09	-2.594615e+01	-1.667613e+02
3.600000e-07	-3.544912e-06	-2.500984e-09	-2.576868e+01	-1.660531e+02
3.700000e-07	-3.519709e-06	-2.535141e-09	-2.558548e+01	-1.653080e+02
3.800000e-07	-3.493653e-06	-2.609509e-09	-2.539607e+01	-1.645274e+02
3.900000e-07	-3.466705e-06	-2.544113e-09	-2.520017e+01	-1.637132e+02
4.000000e-07	-3.439140e-06	-2.420009e-09	-2.499980e+01	-1.628674e+02
4.100000e-07	-3.411226e-06	-2.478305e-09	-2.479689e+01	-1.619922e+02
4.200000e-07	-3.382854e-06	-2.565279e-09	-2.459064e+01	-1.610900e+02
4.300000e-07	-3.353828e-06	-2.492371e-09	-2.437965e+01	-1.601627e+02
4.400000e-07	-3.324204e-06	-2.413757e-09	-2.416431e+01	-1.592123e+02
4.500000e-07	-3.293975e-06	-2.412036e-09	-2.394457e+01	-1.582406e+02
4.600000e-07	-3.263127e-06	-2.441009e-09	-2.372033e+01	-1.572488e+02
4.700000e-07	-3.231847e-06	-2.445622e-09	-2.349294e+01	-1.562381e+02
4.800000e-07	-3.200247e-06	-2.394939e-09	-2.326324e+01	-1.552091e+02
4.900000e-07	-3.168252e-06	-2.350742e-09	-2.303066e+01	-1.541622e+02
5.000000e-07	-3.135603e-06	-2.344477e-09	-2.279333e+01	-1.530975e+02
5.100000e-07	-3.102005e-06	-2.361299e-09	-2.254910e+01	-1.520147e+02
5.200000e-07	-3.067521e-06	-2.358822e-09	-2.229843e+01	-1.509135e+02
5.300000e-07	-3.032437e-06	-2.307197e-09	-2.204340e+01	-1.497936e+02
5.400000e-07	-2.996899e-06	-2.259448e-09	-2.178506e+01	-1.486542e+02
5.500000e-07	-2.961020e-06	-2.267238e-09	-2.152425e+01	-1.474950e+02
5.600000e-07	-2.924759e-06	-2.291414e-09	-2.126066e+01	-1.463156e+02
5.700000e-07	-2.887950e-06	-2.246207e-09	-2.099309e+01	-1.451155e+02
5.800000e-07	-2.850558e-06	-2.178675e-09	-2.072128e+01	-1.438947e+02
5.900000e-07	-2.812637e-06	-2.185723e-09	-2.044563e+01	-1.426530e+02
6.000000e-07	-2.774238e-06	-2.204974e-09	-2.016649e+01	-1.413906e+02
6.100000e-07	-2.735337e-06	-2.171046e-09	-1.988372e+01	-1.401076e+02
6.200000e-07	-2.696006e-06	-2.121794e-09	-1.959781e+01	-1.388043e+02
6.300000e-07	-2.656405e-06	-2.105814e-09	-1.930994e+01	-1.374809e+02
6.400000e-07	-2.616552e-06	-2.109181e-09	-1.902025e+01	-1.361377e+02
6.500000e-07	-2.576330e-06	-2.086248e-09	-1.872786e+01	-1.347749e+02
6.600000e-07	-2.535435e-06	-2.046418e-09	-1.843059e+01	-1.333925e+02
6.700000e-07	-2.493734e-06	-2.018690e-09	-1.812745e+01	-1.319906e+02
6.800000e-07	-2.451310e-06	-2.009970e-09	-1.781907e+01	-1.305688e+02
6.900000e-07	-2.408315e-06	-1.996116e-09	-1.750653e+01	-1.291268e+02
7.000000e-07	-2.364931e-06	-1.956753e-09	-1.719116e+01	-1.276641e+02
7.100000e-07	-2.321273e-06	-1.927392e-09	-1.687380e+01	-1.261801e+02
7.200000e-07	-2.277348e-06	-1.919068e-09	-1.655450e+01	-1.246741e+02
7.300000e-07	-2.233047e-06	-1.900957e-09	-1.623247e+01	-1.231452e+02
7.400000e-07	-2.188306e-06	-1.864131e-09	-1.590724e+01	-1.215927e+02
7.500000e-07	-2.143161e-06	-1.833143e-09	-1.557907e+01	-1.200160e+02
7.600000e-07	-2.097704e-06	-1.822301e-09	-1.524863e+01	-1.184143e+02
7.700000e-07	-2.051910e-06	-1.799716e-09	-1.491574e+01	-1.167873e+02
7.800000e-07	-2.005745e-06	-1.761711e-09	-1.458016e+01	-1.151346e+02
7.900000e-07	-1.959252e-06	-1.732155e-09	-1.424220e+01	-1.134562e+02
8.000000e-07	-1.912436e-06	-1.710224e-09	-1.390188e+01	-1.117523e+02
8.100000e-07	-1.865256e-06	-1.688655e-09	-1.355892e+01	-1.100232e+02
8.200000e-07	-1.817775e-06	-1.659604e-09	-1.321377e+01	-1.082694e+02
8.300000e-07	-1.770093e-06	-1.629764e-09	-1.286716e+01	-1.064915e+02
8.400000e-07	-1.722158e-06	-1.602524e-09	-1.251872e+01	-1.046903e+02
8.500000e-07	-1.673852e-06	-1.574835e-09	-1.216757e+01	-1.028665e+02
8.600000e-07	-1.625174e-06	-1.549685e-09	-1.181372e+01	-1.010210e+02
8.700000e-07	-1.576087e-06	-1.519161e-09	-1.145689e+01	-9.915444e+01
8.800000e-07	-1.526420e-06	-1.487826e-09	-1.109585e+01	-9.726736e+01
8.900000e-07	-1.476213e-06	-1.459686e-09	-1.073089e+01	-9.536019e+01
9.000000e-07	-1.425563e-06	-1.429454e-09	-1.036271e+01	-9.343317e+01
9.100000e-07	-1.374559e-06	-1.399729e-09	-9.991943e+00	-9.148634e+01
9.200000e-07	-1.323295e-06	-1.371018e-09	-9.619295e+00	-8.951956e+01
9.300000e-07	-1.271813e-06	-1.342788e-09	-9.245063e+00	-8.753251e+01
9.400000e-07	-1.220115e-06	-1.307698e-09	-8.869262e+00	-8.552473e+01
9.500000e-07	-1.168226e-06	-1.272476e-09	-8.492072e+00	-8.349570e+01
9.600000e-07	-1.116215e-06	-1.248601e-09	-8.113989e+00	-8.144482e+01
9.700000e-07	-1.063977e-06	-1.222706e-09	-7.734261e+00	-7.937153e+01
9.800000e-07	-1.011410e-06	-1.184814e-09	-7.352141e+00	-7.727534e+01
9.900000e-07	-9.586038e-07	-1.141863e-09	-6.968284e+00	-7.515586e+01
1.000000e-06	-9.056844e-07	-1.110990e-09	-6.583602e+00	-7.301288e+01
1.010000e-06	-8.526616e-07	-1.090910e-09	-6.198169e+00	-7.084638e+01
1.020000e-06	-7.994936e-07	-1.057931e-09	-5.811680e+00	-6.865654e+01
1.030000e-06	-7.461624e-07	-1.012111e-09	-5.424004e+00	-6.644373e+01
1.040000e-06	-6.927255e-07	-9.732676e-10	-5.035561e+00	-6.420855e+01
1.050000e-06	-6.391711e-07	-9.502840e-10	-4.646264e+00	-6.195175e+01
1.060000e-06	-5.854840e-07	-9.252549e-10	-4.256001e+00	-5.967419e+01
1.070000e-06	-5.317371e-07	-8.809511e-10	-3.865304e+00	-5.737683e+01
1.080000e-06	-4.779479e-07	-8.340603e-10	-3.474300e+00	-5.506066e+01
1.090000e-06	-4.241311e-07	-8.006695e-10	-3.083094e+00	-5.272663e+01
1.100000e-06	-3.702618e-07	-7.749209e-10	-2.691508e+00	-5.037564e+01
1.110000e-06	-3.163669e-07	-7.412019e-10	-2.299734e+00	-4.800846e+01
1.120000e-06	-2.624394e-07	-6.972707e-10	-1.907725e+00	-4.562572e+01
1.130000e-06	-2.084024e-07	-6.563528e-10	-1.514919e+00	-4.322789e+01
1.140000e-06	-1.542328e-07	-6.239079e-10	-1.121149e+00	-4.081527e+01
1.150000e-06	-1.000518e-07	-5.932199e-10	-7.272969e-01	-3.838799e+01
1.160000e-06	-4.595129e-08	-5.547102e-10	-3.340292e-01	-3.594607e+01
1.170000e-06	8.186625e-09	-5.080590e-10	5.951022e-02	-3.348939e+01
1.180000e-06	6.240484e-08	-4.663461e-10	4.536333e-01	-3.101779e+01
1.190000e-06	1.165500e-07	-4.331622e-10	8.472254e-01	-2.853109e+01
1.200000e-06	1.705527e-07	-3.999150e-10	1.239782e+00	-2.602912e+01
1.210000e-06	2.245590e-07	-3.601306e-10	1.632365e+00	-2.351179e+01
1.220000e-06	2.786104e-07	-3.160106e-10	2.025275e+00	-2.097912e+01
1.230000e-06	3.326543e-07	-2.739621e-10	2.418131e+00	-1.843123e+01
1.240000e-06	3.866044e-07	-2.356720e-10	2.810305e+00	-1.586841e+01
1.250000e-06	4.404155e-07	-1.996482e-10	3.201469e+00	-1.329108e+01
1.260000e-06	4.941608e-07	-1.579133e-10	3.592154e+00	-1.069980e+01
1.270000e-06	5.478381e-07	-1.111284e-10	3.982345e+00	-8.095226e+00
1.280000e-06	6.014428e-07	-6.971383e-11	4.372009e+00	-5.478094e+00
1.290000e-06	6.549748e-07	-3.517074e-11	4.761144e+00	-2.849163e+00
1.300000e-06	7.083965e-07	1.531540e-12	5.149477e+00	-2.091815e-01
1.310000e-06	7.616843e-07	4.700736e-11	5.536836e+00	2.441160e+00
1.320000e-06	8.147896e-07	9.374494e-11	5.922869e+00	5.101267e+00
1.330000e-06	8.677808e-07	1.309422e-10	6.308073e+00	7.770674e+00
1.340000e-06	9.206085e-07	1.645885e-10	6.692088e+00	1.044906e+01
1.350000e-06	9.732244e-07	2.060687e-10	7.074564e+00	1.313627e+01
1.360000e-06	1.025730e-06	2.558080e-10	7.456238e+00	1.583226e+01
1.370000e-06	1.078004e-06	3.033681e-10	7.836227e+00	1.853714e+01
1.380000e-06	1.130026e-06	3.429261e-10	8.214386e+00	2.125110e+01
1.390000e-06	1.181844e-06	3.819088e-10	8.591059e+00	2.397432e+01
1.400000e-06	1.233424e-06	4.257669e-10	8.966004e+00	2.670702e+01
1.410000e-06	1.284842e-06	4.719850e-10	9.339772e+00	2.944928e+01
1.420000e-06	1.336032e-06	5.137490e-10	9.711885e+00	3.220106e+01
1.430000e-06	1.386889e-06	5.520963e-10	1.008157e+01	3.496210e+01
1.440000e-06	1.437329e-06	5.948280e-10	1.044823e+01	3.773191e+01
1.450000e-06	1.487304e-06	6.402064e-10	1.081151e+01	4.050969e+01
1.460000e-06	1.536861e-06	6.827321e-10	1.117175e+01	4.329434e+01
1.470000e-06	1.586008e-06	7.231647e-10	1.152901e+01	4.608444e+01
1.480000e-06	1.634721e-06	7.653150e-10	1.188311e+01	4.887828e+01
1.490000e-06	1.682983e-06	8.100607e-10	1.223394e+01	5.167387e+01
1.500000e-06	1.730891e-06	8.541738e-10	1.258220e+01	5.446902e+01
1.510000e-06	1.778570e-06	8.988286e-10	1.292878e+01	5.726135e+01
1.520000e-06	1.826102e-06	9.436584e-10	1.327430e+01	6.004839e+01
1.530000e-06	1.873413e-06	9.855721e-10	1.361821e+01	6.282764e+01
1.540000e-06	1.920421e-06	1.026517e-09	1.395993e+01	6.559665e+01
1.550000e-06	1.967092e-06	1.069803e-09	1.429919e+01	6.835304e+01
1.560000e-06	2.013371e-06	1.113768e-09	1.463560e+01	7.109461e+01
1.570000e-06	2.059261e-06	1.153569e-09	1.496918e+01	7.381934e+01
1.580000e-06	2.104792e-06	1.190366e-09	1.530016e+01	7.652543e+01
1.590000e-06	2.149940e-06	1.229500e-09	1.562835e+01	7.921131e+01
1.600000e-06	2.194725e-06	1.272351e-09	1.595390e+01	8.187560e+01
1.610000e-06	2.239142e-06	1.313799e-09	1.627677e+01	8.451715e+01
1.620000e-06	2.283183e-06	1.349183e-09	1.659692e+01	8.713491e+01
1.630000e-06	2.326956e-06	1.383730e-09	1.691511e+01	8.972797e+01
1.640000e-06	2.370532e-06	1.423937e-09	1.723188e+01	9.229545e+01
1.650000e-06	2.413900e-06	1.465383e-09	1.754713e+01	9.483647e+01
1.660000e-06	2.456820e-06	1.502868e-09	1.785912e+01	9.735009e+01
1.670000e-06	2.499049e-06	1.536637e-09	1.816609e+01	9.983526e+01
1.680000e-06	2.540549e-06	1.572381e-09	1.846776e+01	1.022908e+02
1.690000e-06	2.581300e-06	1.609593e-09	1.876399e+01	1.047154e+02
1.700000e-06	2.621417e-06	1.644170e-09	1.905560e+01	1.071075e+02
1.710000e-06	2.661162e-06	1.677518e-09	1.934452e+01	1.094655e+02
1.720000e-06	2.700627e-06	1.709977e-09	1.963140e+01	1.117877e+02
1.730000e-06	2.739714e-06	1.743263e-09	1.991553e+01	1.140723e+02
1.740000e-06	2.778370e-06	1.776371e-09	2.019653e+01	1.163174e+02
1.750000e-06	2.816595e-06	1.808756e-09	2.047439e+01	1.185212e+02
1.760000e-06	2.854328e-06	1.840383e-09	2.074868e+01	1.206821e+02
1.770000e-06	2.891535e-06	1.871157e-09	2.101915e+01	1.227986e+02
1.780000e-06	2.928236e-06	1.901514e-09	2.128594e+01	1.248693e+02
1.790000e-06	2.964444e-06	1.930737e-09	2.154914e+01	1.268934e+02
1.800000e-06	3.000236e-06	1.960208e-09	2.180932e+01	1.288700e+02
1.810000e-06	3.035746e-06	1.988825e-09	2.206744e+01	1.307989e+02
1.820000e-06	3.070867e-06	2.014653e-09	2.232275e+01	1.326800e+02
1.830000e-06	3.105356e-06	2.039740e-09	2.257346e+01	1.345136e+02
1.840000e-06	3.139033e-06	2.066454e-09	2.281827e+01	1.363002e+02
1.850000e-06	3.171790e-06	2.092905e-09	2.305638e+01	1.380407e+02
1.860000e-06	3.203838e-06	2.116074e-09	2.328934e+01	1.397359e+02
1.870000e-06	3.235488e-06	2.137235e-09	2.351941e+01	1.413870e+02
1.880000e-06	3.266780e-06	2.161280e-09	2.374688e+01	1.429950e+02
1.890000e-06	3.297604e-06	2.186987e-09	2.397095e+01	1.445611e+02
1.900000e-06	3.327806e-06	2.210268e-09	2.419049e+01	1.460864e+02
1.910000e-06	3.357416e-06	2.229899e-09	2.440573e+01	1.475717e+02
1.920000e-06	3.386436e-06	2.248105e-09	2.461669e+01	1.490178e+02
1.930000e-06	3.414833e-06	2.268501e-09	2.482311e+01	1.504253e+02
1.940000e-06	3.442732e-06	2.289672e-09	2.502591e+01	1.517946e+02
1.950000e-06	3.470250e-06	2.309265e-09	2.522594e+01	1.531260e+02
1.960000e-06	3.497363e-06	2.328294e-09	2.542304e+01	1.544194e+02
1.970000e-06	3.523781e-06	2.348406e-09	2.561507e+01	1.556750e+02
1.980000e-06	3.549130e-06	2.367746e-09	2.579934e+01	1.568924e+02
1.990000e-06	3.573501e-06	2.384830e-09	2.597650e+01	1.580716e+02
2.000000e-06	3.597227e-06	2.402456e-09	2.614897e+01	1.592123e+02
2.010000e-06	3.620394e-06	2.420148e-09	2.631737e+01	1.603145e+02
2.020000e-06	3.643020e-06	2.436092e-09	2.648184e+01	1.613780e+02
2.030000e-06	3.665094e-06	2.450887e-09	2.664231e+01	1.624030e+02
2.040000e-06	3.686532e-06	2.464805e-09	2.679814e+01	1.633897e+02
2.050000e-06	3.707301e-06	2.480337e-09	2.694912e+01	1.643383e+02
2.060000e-06	3.727494e-06	2.495696e-09	2.709590e+01	1.652494e+02
2.070000e-06	3.747219e-06	2.507408e-09	2.723929e+01	1.661237e+02
2.080000e-06	3.766518e-06	2.518775e-09	2.737958e+01	1.669618e+02
2.090000e-06	3.785199e-06	2.532861e-09	2.751537e+01	1.677646e+02
2.100000e-06	3.803089e-06	2.547279e-09	2.764542e+01	1.685330e+02
2.110000e-06	3.820286e-06	2.559467e-09	2.777043e+01	1.692680e+02
2.120000e-06	3.836846e-06	2.570685e-09	2.789081e+01	1.699703e+02
2.130000e-06	3.852719e-06	2.581701e-09	2.800619e+01	1.706409e+02
2.140000e-06	3.867806e-06	2.591270e-09	2.811586e+01	1.712805e+02
2.150000e-06	3.882044e-06	2.598782e-09	2.821936e+01	1.718898e+02
2.160000e-06	3.895559e-06	2.604806e-09	2.831760e+01	1.724694e+02
2.170000e-06	3.908425e-06	2.612778e-09	2.841113e+01	1.730197e+02
2.180000e-06	3.920592e-06	2.622573e-09	2.849957e+01	1.735410e+02
2.190000e-06	3.932077e-06	2.632186e-09	2.858306e+01	1.740336e+02
2.200000e-06	3.942738e-06	2.638447e-09	2.866056e+01	1.744976e+02
2.210000e-06	3.952311e-06	2.642305e-09	2.873014e+01	1.749328e+02
2.220000e-06	3.960845e-06	2.648379e-09	2.879218e+01	1.753393e+02
2.230000e-06	3.968672e-06	2.654643e-09	2.884908e+01	1.757169e+02
2.240000e-06	3.976029e-06	2.658525e-09	2.890255e+01	1.760653e+02
2.250000e-06	3.982800e-06	2.660337e-09	2.895178e+01	1.763843e+02
2.260000e-06	3.988827e-06	2.664909e-09	2.899559e+01	1.766737e+02
2.270000e-06	3.994173e-06	2.671767e-09	2.903444e+01	1.769331e+02
2.280000e-06	3.998819e-06	2.675907e-09	2.906822e+01	1.771624e+02
2.290000e-06	4.002851e-06	2.678515e-09	2.909753e+01	1.773612e+02
2.300000e-06	4.006443e-06	2.680935e-09	2.912364e+01	1.775293e+02
2.310000e-06	4.009486e-06	2.682805e-09	2.914576e+01	1.776667e+02
2.320000e-06	4.011583e-06	2.684887e-09	2.916100e+01	1.777731e+02
2.330000e-06	4.012565e-06	2.686142e-09	2.916814e+01	1.778487e+02
2.340000e-06	4.012717e-06	2.685720e-09	2.916925e+01	1.778936e+02
2.350000e-06	4.012357e-06	2.686114e-09	2.916663e+01	1.779079e+02
2.360000e-06	4.011493e-06	2.684627e-09	2.916035e+01	1.778922e+02
2.370000e-06	4.009935e-06	2.681041e-09	2.914903e+01	1.778471e+02
2.380000e-06	4.007720e-06	2.680310e-09	2.913292e+01	1.777734e+02
2.390000e-06	4.004893e-06	2.681986e-09	2.911237e+01	1.776722e+02
2.400000e-06	4.001359e-06	2.686913e-09	2.908668e+01	1.775448e+02
2.410000e-06	3.997253e-06	2.704106e-09	2.905683e+01	1.773928e+02
2.420000e-06	3.992797e-06	2.702901e-09	2.902445e+01	1.772180e+02
2.430000e-06	3.987781e-06	2.619228e-09	2.898798e+01	1.770224e+02
2.440000e-06	3.981639e-06	2.549819e-09	2.894333e+01	1.768081e+02
2.450000e-06	3.974153e-06	2.675458e-09	2.888892e+01	1.765774e+02
2.460000e-06	3.965906e-06	2.818749e-09	2.882897e+01	1.763327e+02
2.470000e-06	3.957521e-06	2.701153e-09	2.876802e+01	1.760763e+02
2.480000e-06	3.948657e-06	2.537762e-09	2.870358e+01	1.758102e+02
2.490000e-06	3.938722e-06	2.594944e-09	2.863137e+01	1.755365e+02
2.500000e-06	3.928045e-06	2.675573e-09	2.855375e+01	1.752567e+02
2.510000e-06	3.917142e-06	2.644883e-09	2.847449e+01	1.749722e+02
2.520000e-06	3.905465e-06	2.703497e-09	2.838961e+01	1.746837e+02
2.530000e-06	3.892496e-06	2.646144e-09	2.829534e+01	1.743914e+02
2.540000e-06	3.878770e-06	2.469542e-09	2.819556e+01	1.740951e+02
2.550000e-06	3.864523e-06	2.647334e-09	2.809199e+01	1.737938e+02
2.560000e-06	3.849302e-06	2.846043e-09	2.798135e+01	1.734860e+02
2.570000e-06	3.833159e-06	2.556868e-09	2.786400e+01	1.731697e+02
2.580000e-06	3.816492e-06	2.395342e-09	2.774285e+01	1.728425e+02
2.590000e-06	3.799212e-06	2.724135e-09	2.761724e+01	1.725013e+02
2.600000e-06	3.781213e-06	2.738983e-09	2.748640e+01	1.721430e+02
2.610000e-06	3.762492e-06	2.432214e-09	2.735031e+01	1.717643e+02
2.620000e-06	3.743041e-06	2.517627e-09	2.720891e+01	1.713618e+02
2.630000e-06	3.723097e-06	2.702047e-09	2.706394e+01	1.709322e+02
2.640000e-06	3.702701e-06	2.626562e-09	2.691568e+01	1.704723e+02
2.650000e-06	3.681633e-06	2.584298e-09	2.676253e+01	1.699796e+02
2.660000e-06	3.659879e-06	2.591999e-09	2.660440e+01	1.694518e+02
2.670000e-06	3.637340e-06	2.556308e-09	2.644055e+01	1.688871e+02
2.680000e-06	3.613839e-06	2.539731e-09	2.626972e+01	1.682843e+02
2.690000e-06	3.589672e-06	2.541452e-09	2.609405e+01	1.676431e+02
2.700000e-06	3.565091e-06	2.580607e-09	2.591536e+01	1.669634e+02
2.710000e-06	3.539906e-06	2.566943e-09	2.573229e+01	1.662460e+02
2.720000e-06	3.513971e-06	2.421635e-09	2.554376e+01	1.654918e+02
2.730000e-06	3.487437e-06	2.464538e-09	2.535088e+01	1.647027e+02
2.740000e-06	3.460386e-06	2.627613e-09	2.515424e+01	1.638804e+02
2.750000e-06	3.432754e-06	2.506685e-09	2.495338e+01	1.630271e+02
2.760000e-06	3.404668e-06	2.385705e-09	2.474922e+01	1.621449e+02
2.770000e-06	3.376237e-06	2.457928e-09	2.454255e+01	1.612362e+02
2.780000e-06	3.347211e-06	2.491441e-09	2.433155e+01	1.603030e+02
2.790000e-06	3.317257e-06	2.475175e-09	2.411381e+01	1.593472e+02
2.800000e-06	3.286275e-06	2.409161e-09	2.388859e+01	1.583704e+02
2.810000e-06	3.254520e-06	2.365914e-09	2.365776e+01	1.573739e+02
2.820000e-06	3.222333e-06	2.404390e-09	2.342379e+01	1.563586e+02
2.830000e-06	3.189751e-06	2.397181e-09	2.318694e+01	1.553251e+02
2.840000e-06	3.156671e-06	2.371945e-09	2.294648e+01	1.542738e+02
2.850000e-06	3.122999e-06	2.345940e-09	2.270171e+01	1.532046e+02
2.860000e-06	3.088807e-06	2.303645e-09	2.245316e+01	1.521173e+02
2.870000e-06	3.054109e-06	2.311451e-09	2.220094e+01	1.510115e+02
2.880000e-06	3.018885e-06	2.330572e-09	2.194488e+01	1.498867e+02
2.890000e-06	2.983202e-06	2.292027e-09	2.168550e+01	1.487425e+02
2.900000e-06	2.947115e-06	2.235083e-09	2.142317e+01	1.475783e+02
2.910000e-06	2.910699e-06	2.238256e-09	2.115846e+01	1.463938e+02
2.920000e-06	2.873907e-06	2.260015e-09	2.089100e+01	1.451886e+02
2.930000e-06	2.836421e-06	2.212719e-09	2.061852e+01	1.439626e+02
2.940000e-06	2.797994e-06	2.159408e-09	2.033918e+01	1.427157e+02
