# Temperatura_=_20.0
# Concentracion g/m^3_=_12600.0
# C_Vs_to_Am_M_A/Vsm_=_65563218390.804596
# pendiente_HvsI_1/m_=_3716.3
# ordenada_HvsI_A/m_=_1297.0
# frecuencia_Hz_=_213007.08558175655

Tiempo_(s)	Campo_(V.s)	Magnetizacion_(V.s)	Campo_(kA/m)	Magnetizacion_(A/m)
0.000000e+00	-3.991295e-06	-2.497002e-09	-2.911095e+01	-1.617782e+02
1.000000e-08	-3.991326e-06	-2.498721e-09	-2.911118e+01	-1.617785e+02
2.000000e-08	-3.990719e-06	-2.497823e-09	-2.910675e+01	-1.617575e+02
3.000000e-08	-3.989215e-06	-2.495808e-09	-2.909578e+01	-1.617155e+02
4.000000e-08	-3.986695e-06	-2.494002e-09	-2.907740e+01	-1.616528e+02
5.000000e-08	-3.983455e-06	-2.492675e-09	-2.905377e+01	-1.615693e+02
6.000000e-08	-3.979677e-06	-2.487654e-09	-2.902621e+01	-1.614646e+02
7.000000e-08	-3.975324e-06	-2.477478e-09	-2.899446e+01	-1.613382e+02
8.000000e-08	-3.970325e-06	-2.484646e-09	-2.895800e+01	-1.611893e+02
9.000000e-08	-3.964563e-06	-2.515620e-09	-2.891598e+01	-1.610173e+02
1.000000e-07	-3.957932e-06	-2.519235e-09	-2.886761e+01	-1.608217e+02
1.100000e-07	-3.950599e-06	-2.466639e-09	-2.881413e+01	-1.606022e+02
1.200000e-07	-3.942831e-06	-2.415292e-09	-2.875747e+01	-1.603589e+02
1.300000e-07	-3.934446e-06	-2.464186e-09	-2.869632e+01	-1.600923e+02
1.400000e-07	-3.925107e-06	-2.512127e-09	-2.862820e+01	-1.598033e+02
1.500000e-07	-3.914890e-06	-2.526144e-09	-2.855368e+01	-1.594936e+02
1.600000e-07	-3.903909e-06	-2.480041e-09	-2.847359e+01	-1.591651e+02
1.700000e-07	-3.892026e-06	-2.475982e-09	-2.838692e+01	-1.588203e+02
1.800000e-07	-3.879302e-06	-2.483309e-09	-2.829412e+01	-1.584618e+02
1.900000e-07	-3.866021e-06	-2.483141e-09	-2.819725e+01	-1.580927e+02
2.000000e-07	-3.851989e-06	-2.508657e-09	-2.809491e+01	-1.577158e+02
2.100000e-07	-3.836786e-06	-2.415621e-09	-2.798403e+01	-1.573338e+02
2.200000e-07	-3.820543e-06	-2.358775e-09	-2.786555e+01	-1.569493e+02
2.300000e-07	-3.803753e-06	-2.421093e-09	-2.774309e+01	-1.565640e+02
2.400000e-07	-3.786555e-06	-2.477520e-09	-2.761766e+01	-1.561793e+02
2.500000e-07	-3.768701e-06	-2.383328e-09	-2.748744e+01	-1.557955e+02
2.600000e-07	-3.750172e-06	-2.311238e-09	-2.735230e+01	-1.554122e+02
2.700000e-07	-3.731084e-06	-2.367745e-09	-2.721307e+01	-1.550281e+02
2.800000e-07	-3.711489e-06	-2.404811e-09	-2.707015e+01	-1.546410e+02
2.900000e-07	-3.691379e-06	-2.389804e-09	-2.692348e+01	-1.542480e+02
3.000000e-07	-3.670618e-06	-2.360177e-09	-2.677206e+01	-1.538454e+02
3.100000e-07	-3.649192e-06	-2.309059e-09	-2.661579e+01	-1.534291e+02
3.200000e-07	-3.627208e-06	-2.296948e-09	-2.645544e+01	-1.529946e+02
3.300000e-07	-3.604585e-06	-2.339441e-09	-2.629044e+01	-1.525375e+02
3.400000e-07	-3.581359e-06	-2.371935e-09	-2.612104e+01	-1.520534e+02
3.500000e-07	-3.557644e-06	-2.309866e-09	-2.594807e+01	-1.515380e+02
3.600000e-07	-3.533349e-06	-2.226568e-09	-2.577087e+01	-1.509881e+02
3.700000e-07	-3.508290e-06	-2.255812e-09	-2.558810e+01	-1.504006e+02
3.800000e-07	-3.482343e-06	-2.328428e-09	-2.539885e+01	-1.497737e+02
3.900000e-07	-3.455560e-06	-2.312848e-09	-2.520351e+01	-1.491062e+02
4.000000e-07	-3.428153e-06	-2.196434e-09	-2.500361e+01	-1.483980e+02
4.100000e-07	-3.400352e-06	-2.176621e-09	-2.480084e+01	-1.476496e+02
4.200000e-07	-3.372094e-06	-2.260889e-09	-2.459474e+01	-1.468626e+02
4.300000e-07	-3.343217e-06	-2.265344e-09	-2.438412e+01	-1.460392e+02
4.400000e-07	-3.313721e-06	-2.191131e-09	-2.416899e+01	-1.451821e+02
4.500000e-07	-3.283657e-06	-2.128049e-09	-2.394971e+01	-1.442943e+02
4.600000e-07	-3.253043e-06	-2.147973e-09	-2.372643e+01	-1.433790e+02
4.700000e-07	-3.221929e-06	-2.202244e-09	-2.349949e+01	-1.424395e+02
4.800000e-07	-3.190459e-06	-2.182148e-09	-2.326997e+01	-1.414788e+02
4.900000e-07	-3.158634e-06	-2.107858e-09	-2.303785e+01	-1.404994e+02
5.000000e-07	-3.126206e-06	-2.062661e-09	-2.280133e+01	-1.395037e+02
5.100000e-07	-3.092863e-06	-2.097106e-09	-2.255814e+01	-1.384933e+02
5.200000e-07	-3.058589e-06	-2.129167e-09	-2.230816e+01	-1.374692e+02
5.300000e-07	-3.023636e-06	-2.080435e-09	-2.205322e+01	-1.364321e+02
5.400000e-07	-2.988220e-06	-2.014804e-09	-2.179491e+01	-1.353820e+02
5.500000e-07	-2.952478e-06	-2.002189e-09	-2.153422e+01	-1.343183e+02
5.600000e-07	-2.916374e-06	-2.038612e-09	-2.127090e+01	-1.332403e+02
5.700000e-07	-2.879743e-06	-2.032093e-09	-2.100373e+01	-1.321468e+02
5.800000e-07	-2.842552e-06	-1.971756e-09	-2.073247e+01	-1.310369e+02
5.900000e-07	-2.804857e-06	-1.939411e-09	-2.045753e+01	-1.299092e+02
6.000000e-07	-2.766658e-06	-1.942471e-09	-2.017892e+01	-1.287626e+02
6.100000e-07	-2.727903e-06	-1.948459e-09	-1.989626e+01	-1.275964e+02
6.200000e-07	-2.688665e-06	-1.920021e-09	-1.961008e+01	-1.264097e+02
6.300000e-07	-2.649179e-06	-1.877057e-09	-1.932208e+01	-1.252023e+02
6.400000e-07	-2.609488e-06	-1.857113e-09	-1.903259e+01	-1.239739e+02
6.500000e-07	-2.569421e-06	-1.849480e-09	-1.874036e+01	-1.227249e+02
6.600000e-07	-2.528776e-06	-1.842227e-09	-1.844391e+01	-1.214555e+02
6.700000e-07	-2.487330e-06	-1.815209e-09	-1.814162e+01	-1.201662e+02
6.800000e-07	-2.445034e-06	-1.782560e-09	-1.783313e+01	-1.188576e+02
6.900000e-07	-2.402127e-06	-1.765336e-09	-1.752018e+01	-1.175303e+02
7.000000e-07	-2.358832e-06	-1.754379e-09	-1.720441e+01	-1.161848e+02
7.100000e-07	-2.315291e-06	-1.742463e-09	-1.688683e+01	-1.148214e+02
7.200000e-07	-2.271478e-06	-1.714060e-09	-1.656728e+01	-1.134403e+02
7.300000e-07	-2.227344e-06	-1.682995e-09	-1.624538e+01	-1.120414e+02
7.400000e-07	-2.182858e-06	-1.663715e-09	-1.592091e+01	-1.106246e+02
7.500000e-07	-2.137930e-06	-1.647048e-09	-1.559323e+01	-1.091892e+02
7.600000e-07	-2.092581e-06	-1.629525e-09	-1.526247e+01	-1.077347e+02
7.700000e-07	-2.046910e-06	-1.599230e-09	-1.492936e+01	-1.062604e+02
7.800000e-07	-2.000902e-06	-1.571616e-09	-1.459380e+01	-1.047655e+02
7.900000e-07	-1.954473e-06	-1.554076e-09	-1.425516e+01	-1.032493e+02
8.000000e-07	-1.907636e-06	-1.531647e-09	-1.391355e+01	-1.017111e+02
8.100000e-07	-1.860498e-06	-1.507609e-09	-1.356975e+01	-1.001504e+02
8.200000e-07	-1.813141e-06	-1.481153e-09	-1.322434e+01	-9.856715e+01
8.300000e-07	-1.765576e-06	-1.457672e-09	-1.287742e+01	-9.696118e+01
8.400000e-07	-1.717761e-06	-1.433928e-09	-1.252868e+01	-9.533277e+01
8.500000e-07	-1.669665e-06	-1.405792e-09	-1.217789e+01	-9.368241e+01
8.600000e-07	-1.621268e-06	-1.381669e-09	-1.182490e+01	-9.201077e+01
8.700000e-07	-1.572396e-06	-1.357325e-09	-1.146845e+01	-9.031868e+01
8.800000e-07	-1.522893e-06	-1.335533e-09	-1.110739e+01	-8.860704e+01
8.900000e-07	-1.472860e-06	-1.310258e-09	-1.074247e+01	-8.687676e+01
9.000000e-07	-1.422462e-06	-1.278547e-09	-1.037488e+01	-8.512868e+01
9.100000e-07	-1.371729e-06	-1.252600e-09	-1.000486e+01	-8.336346e+01
9.200000e-07	-1.320670e-06	-1.229499e-09	-9.632455e+00	-8.158158e+01
9.300000e-07	-1.269321e-06	-1.204347e-09	-9.257933e+00	-7.978326e+01
9.400000e-07	-1.217802e-06	-1.170244e-09	-8.882171e+00	-7.796841e+01
9.500000e-07	-1.166124e-06	-1.136964e-09	-8.505252e+00	-7.613668e+01
9.600000e-07	-1.114194e-06	-1.115663e-09	-8.126494e+00	-7.428746e+01
9.700000e-07	-1.062049e-06	-1.094168e-09	-7.746171e+00	-7.241991e+01
9.800000e-07	-1.009697e-06	-1.064310e-09	-7.364333e+00	-7.053306e+01
9.900000e-07	-9.571259e-07	-1.025090e-09	-6.980904e+00	-6.862584e+01
1.000000e-06	-9.043548e-07	-9.933055e-10	-6.596011e+00	-6.669723e+01
1.010000e-06	-8.514296e-07	-9.739556e-10	-6.209996e+00	-6.474630e+01
1.020000e-06	-7.983308e-07	-9.465924e-10	-5.822714e+00	-6.277232e+01
1.030000e-06	-7.450839e-07	-9.070075e-10	-5.434352e+00	-6.077483e+01
1.040000e-06	-6.918187e-07	-8.668281e-10	-5.045856e+00	-5.875367e+01
1.050000e-06	-6.384831e-07	-8.403002e-10	-4.656847e+00	-5.670907e+01
1.060000e-06	-5.850431e-07	-8.193624e-10	-4.267077e+00	-5.464159e+01
1.070000e-06	-5.315433e-07	-7.849369e-10	-3.876870e+00	-5.255214e+01
1.080000e-06	-4.779941e-07	-7.433610e-10	-3.486303e+00	-5.044194e+01
1.090000e-06	-4.243429e-07	-7.081958e-10	-3.094992e+00	-4.831241e+01
1.100000e-06	-3.706495e-07	-6.841116e-10	-2.703373e+00	-4.616516e+01
1.110000e-06	-3.169976e-07	-6.579996e-10	-2.312057e+00	-4.400182e+01
1.120000e-06	-2.632533e-07	-6.190615e-10	-1.920067e+00	-4.182401e+01
1.130000e-06	-2.093801e-07	-5.778178e-10	-1.527137e+00	-3.963319e+01
1.140000e-06	-1.554442e-07	-5.435196e-10	-1.133749e+00	-3.743062e+01
1.150000e-06	-1.015223e-07	-5.162572e-10	-7.404640e-01	-3.521727e+01
1.160000e-06	-4.765481e-08	-4.840002e-10	-3.475756e-01	-3.299381e+01
1.170000e-06	6.264264e-09	-4.430924e-10	4.568910e-02	-3.076055e+01
1.180000e-06	6.025862e-08	-4.063260e-10	4.395029e-01	-2.851745e+01
1.190000e-06	1.142402e-07	-3.773245e-10	8.332235e-01	-2.626419e+01
1.200000e-06	1.681564e-07	-3.495197e-10	1.226467e+00	-2.400019e+01
1.210000e-06	2.220096e-07	-3.139333e-10	1.619251e+00	-2.172469e+01
1.220000e-06	2.758276e-07	-2.735738e-10	2.011779e+00	-1.943685e+01
1.230000e-06	3.296478e-07	-2.375099e-10	2.404323e+00	-1.713579e+01
1.240000e-06	3.834736e-07	-2.046208e-10	2.796907e+00	-1.482073e+01
1.250000e-06	4.372005e-07	-1.706780e-10	3.188770e+00	-1.249105e+01
1.260000e-06	4.908167e-07	-1.306437e-10	3.579826e+00	-1.014631e+01
1.270000e-06	5.443970e-07	-8.938559e-11	3.970619e+00	-7.786346e+00
1.280000e-06	5.979385e-07	-5.318436e-11	4.361130e+00	-5.411272e+00
1.290000e-06	6.513846e-07	-2.137731e-11	4.750945e+00	-3.021453e+00
1.300000e-06	7.046994e-07	1.140484e-11	5.139803e+00	-6.174970e-01
1.310000e-06	7.578725e-07	5.245614e-11	5.527626e+00	1.799801e+00
1.320000e-06	8.108893e-07	9.540094e-11	5.914311e+00	4.229522e+00
1.330000e-06	8.636836e-07	1.300953e-10	6.299372e+00	6.670697e+00
1.340000e-06	9.163041e-07	1.615511e-10	6.683165e+00	9.122383e+00
1.350000e-06	9.687588e-07	1.975145e-10	7.065749e+00	1.158373e+01
1.360000e-06	1.020979e-06	2.398094e-10	7.446625e+00	1.405407e+01
1.370000e-06	1.073003e-06	2.807880e-10	7.826069e+00	1.653289e+01
1.380000e-06	1.124865e-06	3.166888e-10	8.204324e+00	1.901996e+01
1.390000e-06	1.176534e-06	3.540309e-10	8.581181e+00	2.151524e+01
1.400000e-06	1.228016e-06	3.961397e-10	8.956671e+00	2.401888e+01
1.410000e-06	1.279342e-06	4.404752e-10	9.331022e+00	2.653119e+01
1.420000e-06	1.330415e-06	4.791285e-10	9.703531e+00	2.905257e+01
1.430000e-06	1.381129e-06	5.129738e-10	1.007342e+01	3.158337e+01
1.440000e-06	1.431452e-06	5.491399e-10	1.044046e+01	3.412387e+01
1.450000e-06	1.481334e-06	5.895197e-10	1.080427e+01	3.667412e+01
1.460000e-06	1.530679e-06	6.311422e-10	1.116418e+01	3.923389e+01
1.470000e-06	1.579518e-06	6.677838e-10	1.152039e+01	4.180258e+01
1.480000e-06	1.627953e-06	7.020235e-10	1.187366e+01	4.437915e+01
1.490000e-06	1.676055e-06	7.397768e-10	1.222449e+01	4.696212e+01
1.500000e-06	1.723880e-06	7.803428e-10	1.257331e+01	4.954952e+01
1.510000e-06	1.771495e-06	8.213654e-10	1.292059e+01	5.213897e+01
1.520000e-06	1.818915e-06	8.596023e-10	1.326646e+01	5.472770e+01
1.530000e-06	1.866120e-06	8.980138e-10	1.361076e+01	5.731261e+01
1.540000e-06	1.912974e-06	9.387705e-10	1.395249e+01	5.989042e+01
1.550000e-06	1.959391e-06	9.799479e-10	1.429103e+01	6.245776e+01
1.560000e-06	2.005453e-06	1.019091e-09	1.462699e+01	6.501126e+01
1.570000e-06	2.051198e-06	1.054725e-09	1.496064e+01	6.754769e+01
1.580000e-06	2.096606e-06	1.089731e-09	1.529183e+01	7.006408e+01
1.590000e-06	2.141659e-06	1.126630e-09	1.562043e+01	7.255776e+01
1.600000e-06	2.186337e-06	1.164747e-09	1.594629e+01	7.502646e+01
1.610000e-06	2.230621e-06	1.201730e-09	1.626928e+01	7.746833e+01
1.620000e-06	2.274559e-06	1.235067e-09	1.658975e+01	7.988195e+01
1.630000e-06	2.318240e-06	1.268591e-09	1.690834e+01	8.226629e+01
1.640000e-06	2.361695e-06	1.306535e-09	1.722528e+01	8.462067e+01
1.650000e-06	2.404871e-06	1.344566e-09	1.754019e+01	8.694470e+01
1.660000e-06	2.447643e-06	1.378604e-09	1.785216e+01	8.923817e+01
1.670000e-06	2.489769e-06	1.409508e-09	1.815941e+01	9.150097e+01
1.680000e-06	2.531142e-06	1.441964e-09	1.846116e+01	9.373298e+01
1.690000e-06	2.571784e-06	1.474636e-09	1.875759e+01	9.593400e+01
1.700000e-06	2.611843e-06	1.504599e-09	1.904977e+01	9.810365e+01
1.710000e-06	2.651518e-06	1.534806e-09	1.933914e+01	1.002414e+02
1.720000e-06	2.690850e-06	1.564395e-09	1.962601e+01	1.023463e+02
1.730000e-06	2.729821e-06	1.592627e-09	1.991025e+01	1.044174e+02
1.740000e-06	2.768347e-06	1.621652e-09	2.019125e+01	1.064534e+02
1.750000e-06	2.806428e-06	1.652352e-09	2.046899e+01	1.084529e+02
1.760000e-06	2.844071e-06	1.682392e-09	2.074355e+01	1.104144e+02
1.770000e-06	2.881191e-06	1.709513e-09	2.101429e+01	1.123363e+02
1.780000e-06	2.917806e-06	1.734432e-09	2.128134e+01	1.142172e+02
1.790000e-06	2.953940e-06	1.759185e-09	2.154488e+01	1.160560e+02
1.800000e-06	2.989709e-06	1.784943e-09	2.180578e+01	1.178517e+02
1.810000e-06	3.025175e-06	1.810108e-09	2.206445e+01	1.196037e+02
1.820000e-06	3.060196e-06	1.834069e-09	2.231988e+01	1.213118e+02
1.830000e-06	3.094576e-06	1.857750e-09	2.257063e+01	1.229762e+02
1.840000e-06	3.128134e-06	1.882766e-09	2.281539e+01	1.245975e+02
1.850000e-06	3.160804e-06	1.907158e-09	2.305367e+01	1.261766e+02
1.860000e-06	3.192777e-06	1.927959e-09	2.328687e+01	1.277147e+02
1.870000e-06	3.224333e-06	1.947738e-09	2.351703e+01	1.292132e+02
1.880000e-06	3.255505e-06	1.968285e-09	2.374438e+01	1.306737e+02
1.890000e-06	3.286173e-06	1.988810e-09	2.396807e+01	1.320977e+02
1.900000e-06	3.316259e-06	2.008423e-09	2.418750e+01	1.334865e+02
1.910000e-06	3.345734e-06	2.027126e-09	2.440248e+01	1.348412e+02
1.920000e-06	3.374583e-06	2.046071e-09	2.461289e+01	1.361627e+02
1.930000e-06	3.402878e-06	2.065345e-09	2.481927e+01	1.374515e+02
1.940000e-06	3.430688e-06	2.084893e-09	2.502210e+01	1.387076e+02
1.950000e-06	3.458097e-06	2.104415e-09	2.522202e+01	1.399306e+02
1.960000e-06	3.485080e-06	2.122641e-09	2.541882e+01	1.411200e+02
1.970000e-06	3.511324e-06	2.138848e-09	2.561023e+01	1.422747e+02
1.980000e-06	3.536604e-06	2.153511e-09	2.579461e+01	1.433935e+02
1.990000e-06	3.561025e-06	2.168350e-09	2.597273e+01	1.444753e+02
2.000000e-06	3.584815e-06	2.184116e-09	2.614624e+01	1.455187e+02
2.010000e-06	3.608028e-06	2.198257e-09	2.631555e+01	1.465228e+02
2.020000e-06	3.630616e-06	2.211658e-09	2.648030e+01	1.474867e+02
2.030000e-06	3.652570e-06	2.225843e-09	2.664042e+01	1.484098e+02
2.040000e-06	3.673954e-06	2.238784e-09	2.679639e+01	1.492923e+02
2.050000e-06	3.694776e-06	2.251955e-09	2.694826e+01	1.501344e+02
2.060000e-06	3.714976e-06	2.264668e-09	2.709559e+01	1.509371e+02
2.070000e-06	3.734624e-06	2.276244e-09	2.723889e+01	1.517018e+02
2.080000e-06	3.753804e-06	2.286705e-09	2.737879e+01	1.524302e+02
2.090000e-06	3.772424e-06	2.296549e-09	2.751459e+01	1.531243e+02
2.100000e-06	3.790268e-06	2.307203e-09	2.764474e+01	1.537863e+02
2.110000e-06	3.807414e-06	2.315916e-09	2.776980e+01	1.544186e+02
2.120000e-06	3.823989e-06	2.323900e-09	2.789069e+01	1.550233e+02
2.130000e-06	3.839904e-06	2.332437e-09	2.800676e+01	1.556025e+02
2.140000e-06	3.855023e-06	2.339392e-09	2.811704e+01	1.561578e+02
2.150000e-06	3.869302e-06	2.345344e-09	2.822118e+01	1.566907e+02
2.160000e-06	3.882787e-06	2.349971e-09	2.831954e+01	1.572021e+02
2.170000e-06	3.895565e-06	2.355529e-09	2.841274e+01	1.576922e+02
2.180000e-06	3.907680e-06	2.365067e-09	2.850110e+01	1.581611e+02
2.190000e-06	3.919074e-06	2.375306e-09	2.858420e+01	1.586083e+02
2.200000e-06	3.929606e-06	2.381682e-09	2.866102e+01	1.590328e+02
2.210000e-06	3.939147e-06	2.385479e-09	2.873060e+01	1.594336e+02
2.220000e-06	3.947745e-06	2.392000e-09	2.879331e+01	1.598093e+02
2.230000e-06	3.955605e-06	2.399773e-09	2.885064e+01	1.601586e+02
2.240000e-06	3.962900e-06	2.404881e-09	2.890385e+01	1.604803e+02
2.250000e-06	3.969572e-06	2.408279e-09	2.895251e+01	1.607733e+02
2.260000e-06	3.975561e-06	2.412090e-09	2.899619e+01	1.610367e+02
2.270000e-06	3.980880e-06	2.416685e-09	2.903499e+01	1.612702e+02
2.280000e-06	3.985520e-06	2.421015e-09	2.906883e+01	1.614738e+02
2.290000e-06	3.989550e-06	2.423240e-09	2.909823e+01	1.616476e+02
2.300000e-06	3.993121e-06	2.424071e-09	2.912427e+01	1.617924e+02
2.310000e-06	3.996051e-06	2.426091e-09	2.914564e+01	1.619092e+02
2.320000e-06	3.998005e-06	2.429850e-09	2.915989e+01	1.619992e+02
2.330000e-06	3.999037e-06	2.433691e-09	2.916742e+01	1.620635e+02
2.340000e-06	3.999288e-06	2.434354e-09	2.916925e+01	1.621036e+02
2.350000e-06	3.998881e-06	2.434172e-09	2.916628e+01	1.621207e+02
2.360000e-06	3.997932e-06	2.434027e-09	2.915936e+01	1.621157e+02
2.370000e-06	3.996342e-06	2.434326e-09	2.914776e+01	1.620894e+02
2.380000e-06	3.994127e-06	2.433981e-09	2.913160e+01	1.620422e+02
2.390000e-06	3.991362e-06	2.432566e-09	2.911144e+01	1.619744e+02
2.400000e-06	3.987943e-06	2.434415e-09	2.908650e+01	1.618857e+02
2.410000e-06	3.983917e-06	2.443084e-09	2.905714e+01	1.617756e+02
2.420000e-06	3.979434e-06	2.435199e-09	2.902444e+01	1.616437e+02
2.430000e-06	3.974344e-06	2.398797e-09	2.898732e+01	1.614892e+02
2.440000e-06	3.968171e-06	2.380922e-09	2.894229e+01	1.613114e+02
2.450000e-06	3.960747e-06	2.423717e-09	2.888815e+01	1.611098e+02
2.460000e-06	3.952562e-06	2.477862e-09	2.882845e+01	1.608844e+02
2.470000e-06	3.944103e-06	2.422649e-09	2.876675e+01	1.606352e+02
2.480000e-06	3.935158e-06	2.365467e-09	2.870151e+01	1.603629e+02
2.490000e-06	3.925312e-06	2.346672e-09	2.862970e+01	1.600687e+02
2.500000e-06	3.914731e-06	2.384504e-09	2.855252e+01	1.597541e+02
2.510000e-06	3.903710e-06	2.385275e-09	2.847214e+01	1.594213e+02
2.520000e-06	3.892045e-06	2.379606e-09	2.838706e+01	1.590728e+02
2.530000e-06	3.879310e-06	2.374104e-09	2.829417e+01	1.587114e+02
2.540000e-06	3.865697e-06	2.342918e-09	2.819489e+01	1.583401e+02
2.550000e-06	3.851472e-06	2.395574e-09	2.809114e+01	1.579617e+02
2.560000e-06	3.836362e-06	2.433017e-09	2.798093e+01	1.575790e+02
2.570000e-06	3.820338e-06	2.366584e-09	2.786406e+01	1.571941e+02
2.580000e-06	3.803674e-06	2.284936e-09	2.774252e+01	1.568090e+02
2.590000e-06	3.786462e-06	2.359564e-09	2.761698e+01	1.564245e+02
2.600000e-06	3.768594e-06	2.398491e-09	2.748666e+01	1.560409e+02
2.610000e-06	3.749965e-06	2.340157e-09	2.735079e+01	1.556576e+02
2.620000e-06	3.730582e-06	2.335598e-09	2.720941e+01	1.552730e+02
2.630000e-06	3.710675e-06	2.362394e-09	2.706421e+01	1.548848e+02
2.640000e-06	3.690366e-06	2.370543e-09	2.691609e+01	1.544898e+02
2.650000e-06	3.669483e-06	2.397113e-09	2.676378e+01	1.540842e+02
2.660000e-06	3.647922e-06	2.428259e-09	2.660652e+01	1.536638e+02
2.670000e-06	3.625525e-06	2.354261e-09	2.644317e+01	1.532242e+02
2.680000e-06	3.602134e-06	2.251064e-09	2.627256e+01	1.527607e+02
2.690000e-06	3.578017e-06	2.318149e-09	2.609666e+01	1.522692e+02
2.700000e-06	3.553444e-06	2.407825e-09	2.591743e+01	1.517455e+02
2.710000e-06	3.528332e-06	2.352154e-09	2.573428e+01	1.511865e+02
2.720000e-06	3.502519e-06	2.223298e-09	2.554601e+01	1.505894e+02
2.730000e-06	3.476107e-06	2.230441e-09	2.535337e+01	1.499524e+02
2.740000e-06	3.449167e-06	2.370565e-09	2.515688e+01	1.492747e+02
2.750000e-06	3.421606e-06	2.356574e-09	2.495586e+01	1.485564e+02
2.760000e-06	3.393533e-06	2.229392e-09	2.475111e+01	1.477982e+02
2.770000e-06	3.365095e-06	2.195915e-09	2.454369e+01	1.470020e+02
2.780000e-06	3.336194e-06	2.249690e-09	2.433290e+01	1.461699e+02
2.790000e-06	3.306431e-06	2.297918e-09	2.411582e+01	1.453048e+02
2.800000e-06	3.275626e-06	2.245410e-09	2.389114e+01	1.444099e+02
2.810000e-06	3.244022e-06	2.157438e-09	2.366063e+01	1.434883e+02
2.820000e-06	3.211870e-06	2.145009e-09	2.342613e+01	1.425433e+02
2.830000e-06	3.179304e-06	2.191844e-09	2.318860e+01	1.415777e+02
2.840000e-06	3.146303e-06	2.210711e-09	2.294791e+01	1.405941e+02
2.850000e-06	3.112762e-06	2.149686e-09	2.270327e+01	1.395946e+02
2.860000e-06	3.078659e-06	2.090764e-09	2.245454e+01	1.385807e+02
2.870000e-06	3.044081e-06	2.095314e-09	2.220234e+01	1.375534e+02
2.880000e-06	3.009037e-06	2.127871e-09	2.194674e+01	1.365131e+02
2.890000e-06	2.973482e-06	2.110726e-09	2.168742e+01	1.354596e+02
2.900000e-06	2.937456e-06	2.047449e-09	2.142466e+01	1.343925e+02
2.910000e-06	2.901110e-06	2.027803e-09	2.115957e+01	1.333108e+02
2.920000e-06	2.864444e-06	2.037874e-09	2.089214e+01	1.322134e+02
2.930000e-06	2.827169e-06	2.031044e-09	2.062027e+01	1.310991e+02
2.940000e-06	2.789053e-06	2.000066e-09	2.034226e+01	1.299668e+02
