# Temperatura_=_20.0
# Concentracion g/m^3_=_12600.0
# C_Vs_to_Am_M_A/Vsm_=_65563218390.804596
# pendiente_HvsI_1/m_=_3716.3
# ordenada_HvsI_A/m_=_1297.0
# frecuencia_Hz_=_213006.77487578354

Tiempo_(s)	Campo_(V.s)	Magnetizacion_(V.s)	Campo_(kA/m)	Magnetizacion_(A/m)
0.000000e+00	-3.998758e-06	-2.321938e-09	-2.910814e+01	-1.476676e+02
1.000000e-08	-3.998977e-06	-2.323949e-09	-2.910973e+01	-1.476779e+02
2.000000e-08	-3.998566e-06	-2.322996e-09	-2.910674e+01	-1.476549e+02
3.000000e-08	-3.997260e-06	-2.322785e-09	-2.909723e+01	-1.475984e+02
4.000000e-08	-3.994934e-06	-2.324157e-09	-2.908030e+01	-1.475090e+02
5.000000e-08	-3.991816e-06	-2.322377e-09	-2.905760e+01	-1.473885e+02
6.000000e-08	-3.988205e-06	-2.317717e-09	-2.903132e+01	-1.472405e+02
7.000000e-08	-3.984117e-06	-2.312933e-09	-2.900156e+01	-1.470694e+02
8.000000e-08	-3.979319e-06	-2.313490e-09	-2.896664e+01	-1.468811e+02
9.000000e-08	-3.973628e-06	-2.325966e-09	-2.892521e+01	-1.466826e+02
1.000000e-07	-3.967031e-06	-2.338634e-09	-2.887719e+01	-1.464815e+02
1.100000e-07	-3.959760e-06	-2.319251e-09	-2.882426e+01	-1.462858e+02
1.200000e-07	-3.952069e-06	-2.283803e-09	-2.876827e+01	-1.461038e+02
1.300000e-07	-3.943861e-06	-2.280815e-09	-2.870852e+01	-1.459430e+02
1.400000e-07	-3.934788e-06	-2.312700e-09	-2.864248e+01	-1.458103e+02
1.500000e-07	-3.924787e-06	-2.337496e-09	-2.856968e+01	-1.457113e+02
1.600000e-07	-3.913985e-06	-2.305971e-09	-2.849105e+01	-1.456498e+02
1.700000e-07	-3.902295e-06	-2.308529e-09	-2.840595e+01	-1.456277e+02
1.800000e-07	-3.889742e-06	-2.309031e-09	-2.831458e+01	-1.456449e+02
1.900000e-07	-3.876594e-06	-2.296082e-09	-2.821887e+01	-1.456987e+02
2.000000e-07	-3.862786e-06	-2.299709e-09	-2.811836e+01	-1.457844e+02
2.100000e-07	-3.847810e-06	-2.290968e-09	-2.800934e+01	-1.458952e+02
2.200000e-07	-3.831702e-06	-2.268697e-09	-2.789209e+01	-1.460221e+02
2.300000e-07	-3.815030e-06	-2.254839e-09	-2.777073e+01	-1.461551e+02
2.400000e-07	-3.797924e-06	-2.276524e-09	-2.764620e+01	-1.462825e+02
2.500000e-07	-3.780196e-06	-2.210882e-09	-2.751716e+01	-1.463927e+02
2.600000e-07	-3.761749e-06	-2.167521e-09	-2.738288e+01	-1.464734e+02
2.700000e-07	-3.742655e-06	-2.252646e-09	-2.724388e+01	-1.465134e+02
2.800000e-07	-3.723075e-06	-2.277055e-09	-2.710136e+01	-1.465021e+02
2.900000e-07	-3.702967e-06	-2.152309e-09	-2.695499e+01	-1.464304e+02
3.000000e-07	-3.682255e-06	-2.109879e-09	-2.680421e+01	-1.462913e+02
3.100000e-07	-3.660956e-06	-2.234083e-09	-2.664918e+01	-1.460796e+02
3.200000e-07	-3.638994e-06	-2.260341e-09	-2.648931e+01	-1.457926e+02
3.300000e-07	-3.616378e-06	-2.129486e-09	-2.632468e+01	-1.454299e+02
3.400000e-07	-3.593255e-06	-2.072262e-09	-2.615636e+01	-1.449930e+02
3.500000e-07	-3.569678e-06	-2.160260e-09	-2.598474e+01	-1.444858e+02
3.600000e-07	-3.545443e-06	-2.227275e-09	-2.580832e+01	-1.439137e+02
3.700000e-07	-3.520416e-06	-2.128307e-09	-2.562614e+01	-1.432836e+02
3.800000e-07	-3.494585e-06	-2.018403e-09	-2.543811e+01	-1.426031e+02
3.900000e-07	-3.467904e-06	-2.074122e-09	-2.524389e+01	-1.418805e+02
4.000000e-07	-3.440553e-06	-2.160405e-09	-2.504479e+01	-1.411238e+02
4.100000e-07	-3.412775e-06	-2.137765e-09	-2.484260e+01	-1.403409e+02
4.200000e-07	-3.384528e-06	-2.033949e-09	-2.463698e+01	-1.395387e+02
4.300000e-07	-3.355633e-06	-1.990486e-09	-2.442664e+01	-1.387230e+02
4.400000e-07	-3.326134e-06	-2.050537e-09	-2.421191e+01	-1.378985e+02
4.500000e-07	-3.296094e-06	-2.101842e-09	-2.399324e+01	-1.370682e+02
4.600000e-07	-3.265504e-06	-2.062093e-09	-2.377057e+01	-1.362339e+02
4.700000e-07	-3.234427e-06	-1.966514e-09	-2.354435e+01	-1.353960e+02
4.800000e-07	-3.202942e-06	-1.946081e-09	-2.331516e+01	-1.345536e+02
4.900000e-07	-3.171114e-06	-2.010757e-09	-2.308347e+01	-1.337049e+02
5.000000e-07	-3.138761e-06	-2.038199e-09	-2.284797e+01	-1.328474e+02
5.100000e-07	-3.105518e-06	-1.978218e-09	-2.260598e+01	-1.319782e+02
5.200000e-07	-3.071285e-06	-1.898427e-09	-2.235679e+01	-1.310942e+02
5.300000e-07	-3.036289e-06	-1.901993e-09	-2.210204e+01	-1.301926e+02
5.400000e-07	-3.000890e-06	-1.958948e-09	-2.184436e+01	-1.292708e+02
5.500000e-07	-2.965204e-06	-1.961248e-09	-2.158459e+01	-1.283270e+02
5.600000e-07	-2.929124e-06	-1.889992e-09	-2.132196e+01	-1.273598e+02
5.700000e-07	-2.892513e-06	-1.817912e-09	-2.105545e+01	-1.263687e+02
5.800000e-07	-2.855289e-06	-1.839256e-09	-2.078449e+01	-1.253541e+02
5.900000e-07	-2.817517e-06	-1.901066e-09	-2.050953e+01	-1.243167e+02
6.000000e-07	-2.779185e-06	-1.882979e-09	-2.023051e+01	-1.232579e+02
6.100000e-07	-2.740325e-06	-1.789945e-09	-1.994763e+01	-1.221794e+02
6.200000e-07	-2.701098e-06	-1.737927e-09	-1.966209e+01	-1.210831e+02
6.300000e-07	-2.661628e-06	-1.793798e-09	-1.937477e+01	-1.199709e+02
6.400000e-07	-2.621889e-06	-1.840864e-09	-1.908550e+01	-1.188441e+02
6.500000e-07	-2.581679e-06	-1.776732e-09	-1.879280e+01	-1.177042e+02
6.600000e-07	-2.540845e-06	-1.680546e-09	-1.849556e+01	-1.165516e+02
6.700000e-07	-2.499359e-06	-1.674934e-09	-1.819357e+01	-1.153864e+02
6.800000e-07	-2.457122e-06	-1.742533e-09	-1.788611e+01	-1.142082e+02
6.900000e-07	-2.414195e-06	-1.738344e-09	-1.757364e+01	-1.130158e+02
7.000000e-07	-2.370852e-06	-1.643492e-09	-1.725813e+01	-1.118076e+02
7.100000e-07	-2.327242e-06	-1.588166e-09	-1.694068e+01	-1.105816e+02
7.200000e-07	-2.283448e-06	-1.621595e-09	-1.662189e+01	-1.093357e+02
7.300000e-07	-2.239395e-06	-1.652345e-09	-1.630121e+01	-1.080677e+02
7.400000e-07	-2.194850e-06	-1.596693e-09	-1.597696e+01	-1.067755e+02
7.500000e-07	-2.149857e-06	-1.522985e-09	-1.564944e+01	-1.054574e+02
7.600000e-07	-2.104547e-06	-1.515279e-09	-1.531961e+01	-1.041120e+02
7.700000e-07	-2.058858e-06	-1.537272e-09	-1.498703e+01	-1.027387e+02
7.800000e-07	-2.012792e-06	-1.522123e-09	-1.465171e+01	-1.013373e+02
7.900000e-07	-1.966308e-06	-1.466416e-09	-1.431333e+01	-9.990822e+01
8.000000e-07	-1.919500e-06	-1.426164e-09	-1.397261e+01	-9.845263e+01
8.100000e-07	-1.872424e-06	-1.421670e-09	-1.362993e+01	-9.697206e+01
8.200000e-07	-1.825075e-06	-1.420214e-09	-1.328526e+01	-9.546847e+01
8.300000e-07	-1.777540e-06	-1.397483e-09	-1.293924e+01	-9.394406e+01
8.400000e-07	-1.729744e-06	-1.355456e-09	-1.259132e+01	-9.240111e+01
8.500000e-07	-1.681561e-06	-1.321025e-09	-1.224058e+01	-9.084178e+01
8.600000e-07	-1.632963e-06	-1.307289e-09	-1.188682e+01	-8.926802e+01
8.700000e-07	-1.583841e-06	-1.301575e-09	-1.152925e+01	-8.768139e+01
8.800000e-07	-1.534217e-06	-1.282411e-09	-1.116802e+01	-8.608294e+01
8.900000e-07	-1.484192e-06	-1.238275e-09	-1.080387e+01	-8.447320e+01
9.000000e-07	-1.433716e-06	-1.198412e-09	-1.043644e+01	-8.285214e+01
9.100000e-07	-1.382850e-06	-1.187652e-09	-1.006617e+01	-8.121915e+01
9.200000e-07	-1.331695e-06	-1.186632e-09	-9.693800e+00	-7.957318e+01
9.300000e-07	-1.280329e-06	-1.157860e-09	-9.319890e+00	-7.791278e+01
9.400000e-07	-1.228718e-06	-1.102643e-09	-8.944200e+00	-7.623623e+01
9.500000e-07	-1.176900e-06	-1.071878e-09	-8.567004e+00	-7.454173e+01
9.600000e-07	-1.124953e-06	-1.074221e-09	-8.188860e+00	-7.282749e+01
9.700000e-07	-1.072791e-06	-1.064436e-09	-7.809158e+00	-7.109188e+01
9.800000e-07	-1.020375e-06	-1.019175e-09	-7.427607e+00	-6.933359e+01
9.900000e-07	-9.677721e-07	-9.691149e-10	-7.044698e+00	-6.755167e+01
1.000000e-06	-9.149898e-07	-9.553851e-10	-6.660480e+00	-6.574561e+01
1.010000e-06	-8.620025e-07	-9.538721e-10	-6.274770e+00	-6.391538e+01
1.020000e-06	-8.088601e-07	-9.209298e-10	-5.887931e+00	-6.206141e+01
1.030000e-06	-7.555757e-07	-8.670979e-10	-5.500058e+00	-6.018449e+01
1.040000e-06	-7.021778e-07	-8.321927e-10	-5.111359e+00	-5.828578e+01
1.050000e-06	-6.487301e-07	-8.239212e-10	-4.722297e+00	-5.636662e+01
1.060000e-06	-5.951672e-07	-8.063314e-10	-4.332397e+00	-5.442847e+01
1.070000e-06	-5.415220e-07	-7.654649e-10	-3.941898e+00	-5.247278e+01
1.080000e-06	-4.878125e-07	-7.257630e-10	-3.550931e+00	-5.050087e+01
1.090000e-06	-4.340103e-07	-7.029168e-10	-3.159289e+00	-4.851383e+01
1.100000e-06	-3.801667e-07	-6.845904e-10	-2.767345e+00	-4.651247e+01
1.110000e-06	-3.262799e-07	-6.526886e-10	-2.375088e+00	-4.449728e+01
1.120000e-06	-2.723267e-07	-6.151626e-10	-1.982346e+00	-4.246840e+01
1.130000e-06	-2.183368e-07	-5.827092e-10	-1.589337e+00	-4.042567e+01
1.140000e-06	-1.642805e-07	-5.517920e-10	-1.195846e+00	-3.836867e+01
1.150000e-06	-1.102113e-07	-5.217893e-10	-8.022602e-01	-3.629682e+01
1.160000e-06	-5.615055e-08	-4.929580e-10	-4.087364e-01	-3.420944e+01
1.170000e-06	-2.017364e-09	-4.615650e-10	-1.468499e-02	-3.210591e+01
1.180000e-06	5.213615e-08	-4.241379e-10	3.795144e-01	-2.998572e+01
1.190000e-06	1.063227e-07	-3.893151e-10	7.739539e-01	-2.784859e+01
1.200000e-06	1.604360e-07	-3.625753e-10	1.167861e+00	-2.569453e+01
1.210000e-06	2.143978e-07	-3.347600e-10	1.560664e+00	-2.352392e+01
1.220000e-06	2.682906e-07	-2.977076e-10	1.952967e+00	-2.133748e+01
1.230000e-06	3.221444e-07	-2.553510e-10	2.344984e+00	-1.913628e+01
1.240000e-06	3.759720e-07	-2.226479e-10	2.736811e+00	-1.692167e+01
1.250000e-06	4.297701e-07	-1.982277e-10	3.128423e+00	-1.469523e+01
1.260000e-06	4.835025e-07	-1.634520e-10	3.519557e+00	-1.245867e+01
1.270000e-06	5.371325e-07	-1.214614e-10	3.909946e+00	-1.021369e+01
1.280000e-06	5.907059e-07	-8.440278e-11	4.299922e+00	-7.961876e+00
1.290000e-06	6.442347e-07	-5.731575e-11	4.689574e+00	-5.704589e+00
1.300000e-06	6.976277e-07	-2.841912e-11	5.078237e+00	-3.442866e+00
1.310000e-06	7.508743e-07	1.354444e-11	5.465835e+00	-1.177341e+00
1.320000e-06	8.040049e-07	5.561909e-11	5.852588e+00	1.091801e+00
1.330000e-06	8.570098e-07	8.821472e-11	6.238427e+00	3.364832e+00
1.340000e-06	9.097327e-07	1.164144e-10	6.622212e+00	5.642465e+00
1.350000e-06	9.622406e-07	1.516807e-10	7.004433e+00	7.925786e+00
1.360000e-06	1.014656e-06	1.928643e-10	7.385977e+00	1.021617e+01
1.370000e-06	1.066878e-06	2.294676e-10	7.766118e+00	1.251515e+01
1.380000e-06	1.118868e-06	2.640246e-10	8.144568e+00	1.482432e+01
1.390000e-06	1.170626e-06	3.008787e-10	8.521334e+00	1.714515e+01
1.400000e-06	1.222215e-06	3.398130e-10	8.896865e+00	1.947889e+01
1.410000e-06	1.273621e-06	3.766715e-10	9.271062e+00	2.182641e+01
1.420000e-06	1.324758e-06	4.102251e-10	9.643301e+00	2.418814e+01
1.430000e-06	1.375585e-06	4.460588e-10	1.001329e+01	2.656396e+01
1.440000e-06	1.426088e-06	4.815388e-10	1.038091e+01	2.895318e+01
1.450000e-06	1.476187e-06	5.147173e-10	1.074560e+01	3.135455e+01
1.460000e-06	1.525755e-06	5.486902e-10	1.110642e+01	3.376626e+01
1.470000e-06	1.574890e-06	5.860783e-10	1.146409e+01	3.618607e+01
1.480000e-06	1.623589e-06	6.245064e-10	1.181858e+01	3.861133e+01
1.490000e-06	1.671815e-06	6.595719e-10	1.216964e+01	4.103916e+01
1.500000e-06	1.719764e-06	6.945700e-10	1.251867e+01	4.346654e+01
1.510000e-06	1.767488e-06	7.337784e-10	1.286607e+01	4.589046e+01
1.520000e-06	1.815023e-06	7.742673e-10	1.321209e+01	4.830801e+01
1.530000e-06	1.862342e-06	8.101882e-10	1.355654e+01	5.071654e+01
1.540000e-06	1.909317e-06	8.438734e-10	1.389848e+01	5.311364e+01
1.550000e-06	1.955939e-06	8.826496e-10	1.423786e+01	5.549732e+01
1.560000e-06	2.002198e-06	9.213675e-10	1.457459e+01	5.786588e+01
1.570000e-06	2.048107e-06	9.539202e-10	1.490877e+01	6.021803e+01
1.580000e-06	2.093705e-06	9.838331e-10	1.524069e+01	6.255275e+01
1.590000e-06	2.138938e-06	1.017200e-09	1.556996e+01	6.486925e+01
1.600000e-06	2.183735e-06	1.054000e-09	1.589605e+01	6.716691e+01
1.610000e-06	2.228108e-06	1.087451e-09	1.621905e+01	6.944514e+01
1.620000e-06	2.272128e-06	1.116205e-09	1.653949e+01	7.170333e+01
1.630000e-06	2.315857e-06	1.146186e-09	1.685780e+01	7.394071e+01
1.640000e-06	2.359358e-06	1.180029e-09	1.717446e+01	7.615633e+01
1.650000e-06	2.402612e-06	1.213384e-09	1.748932e+01	7.834899e+01
1.660000e-06	2.445492e-06	1.243304e-09	1.780145e+01	8.051721e+01
1.670000e-06	2.487852e-06	1.272138e-09	1.810981e+01	8.265927e+01
1.680000e-06	2.529530e-06	1.302337e-09	1.841319e+01	8.477321e+01
1.690000e-06	2.570412e-06	1.331124e-09	1.871078e+01	8.685692e+01
1.700000e-06	2.610608e-06	1.357512e-09	1.900338e+01	8.890821e+01
1.710000e-06	2.650366e-06	1.386169e-09	1.929279e+01	9.092490e+01
1.720000e-06	2.689844e-06	1.415562e-09	1.958016e+01	9.290495e+01
1.730000e-06	2.729050e-06	1.441259e-09	1.986556e+01	9.484654e+01
1.740000e-06	2.767843e-06	1.464650e-09	2.014794e+01	9.674813e+01
1.750000e-06	2.806062e-06	1.491918e-09	2.042615e+01	9.860859e+01
1.760000e-06	2.843746e-06	1.522389e-09	2.070046e+01	1.004272e+02
1.770000e-06	2.880914e-06	1.549383e-09	2.097102e+01	1.022036e+02
1.780000e-06	2.917580e-06	1.571499e-09	2.123792e+01	1.039380e+02
1.790000e-06	2.953807e-06	1.593956e-09	2.150163e+01	1.056308e+02
1.800000e-06	2.989630e-06	1.620148e-09	2.176240e+01	1.072828e+02
1.810000e-06	3.025139e-06	1.646354e-09	2.202088e+01	1.088951e+02
1.820000e-06	3.060311e-06	1.668290e-09	2.227690e+01	1.104687e+02
1.830000e-06	3.094967e-06	1.687944e-09	2.252917e+01	1.120048e+02
1.840000e-06	3.128852e-06	1.710699e-09	2.277584e+01	1.135045e+02
1.850000e-06	3.161798e-06	1.734036e-09	2.301566e+01	1.149687e+02
1.860000e-06	3.194002e-06	1.751743e-09	2.325008e+01	1.163979e+02
1.870000e-06	3.225704e-06	1.766892e-09	2.348085e+01	1.177925e+02
1.880000e-06	3.256992e-06	1.786320e-09	2.370860e+01	1.191527e+02
1.890000e-06	3.287800e-06	1.806987e-09	2.393287e+01	1.204783e+02
1.900000e-06	3.318029e-06	1.824575e-09	2.415291e+01	1.217687e+02
1.910000e-06	3.347646e-06	1.841211e-09	2.436850e+01	1.230235e+02
1.920000e-06	3.376677e-06	1.859993e-09	2.457982e+01	1.242419e+02
1.930000e-06	3.405133e-06	1.877864e-09	2.478696e+01	1.254234e+02
1.940000e-06	3.433045e-06	1.892789e-09	2.499015e+01	1.265673e+02
1.950000e-06	3.460564e-06	1.907008e-09	2.519046e+01	1.276734e+02
1.960000e-06	3.487697e-06	1.922118e-09	2.538797e+01	1.287415e+02
1.970000e-06	3.514134e-06	1.938393e-09	2.558042e+01	1.297719e+02
1.980000e-06	3.539594e-06	1.952574e-09	2.576575e+01	1.307651e+02
1.990000e-06	3.564165e-06	1.965306e-09	2.594460e+01	1.317220e+02
2.000000e-06	3.588054e-06	1.981254e-09	2.611850e+01	1.326438e+02
2.010000e-06	3.611371e-06	1.997329e-09	2.628823e+01	1.335318e+02
2.020000e-06	3.634060e-06	2.010189e-09	2.645339e+01	1.343875e+02
2.030000e-06	3.656097e-06	2.021328e-09	2.661380e+01	1.352126e+02
2.040000e-06	3.677569e-06	2.032370e-09	2.677011e+01	1.360086e+02
2.050000e-06	3.698440e-06	2.044090e-09	2.692204e+01	1.367767e+02
2.060000e-06	3.718705e-06	2.054412e-09	2.706955e+01	1.375180e+02
2.070000e-06	3.738483e-06	2.063436e-09	2.721352e+01	1.382334e+02
2.080000e-06	3.757801e-06	2.073134e-09	2.735414e+01	1.389233e+02
2.090000e-06	3.776562e-06	2.085473e-09	2.749071e+01	1.395878e+02
2.100000e-06	3.794624e-06	2.096611e-09	2.762218e+01	1.402267e+02
2.110000e-06	3.811971e-06	2.104487e-09	2.774846e+01	1.408395e+02
2.120000e-06	3.828633e-06	2.112725e-09	2.786975e+01	1.414254e+02
2.130000e-06	3.844673e-06	2.122189e-09	2.798651e+01	1.419838e+02
2.140000e-06	3.860023e-06	2.129689e-09	2.809824e+01	1.425139e+02
2.150000e-06	3.874498e-06	2.133518e-09	2.820361e+01	1.430151e+02
2.160000e-06	3.888135e-06	2.137326e-09	2.830288e+01	1.434873e+02
2.170000e-06	3.901060e-06	2.143842e-09	2.839697e+01	1.439302e+02
2.180000e-06	3.913309e-06	2.151602e-09	2.848613e+01	1.443444e+02
2.190000e-06	3.924839e-06	2.158880e-09	2.857006e+01	1.447307e+02
2.200000e-06	3.935525e-06	2.163795e-09	2.864785e+01	1.450901e+02
2.210000e-06	3.945280e-06	2.168075e-09	2.871885e+01	1.454242e+02
2.220000e-06	3.954084e-06	2.174411e-09	2.878294e+01	1.457346e+02
2.230000e-06	3.962075e-06	2.178945e-09	2.884111e+01	1.460232e+02
2.240000e-06	3.969511e-06	2.180397e-09	2.889524e+01	1.462916e+02
2.250000e-06	3.976327e-06	2.182007e-09	2.894486e+01	1.465412e+02
2.260000e-06	3.982448e-06	2.187213e-09	2.898941e+01	1.467733e+02
2.270000e-06	3.987905e-06	2.192276e-09	2.902914e+01	1.469883e+02
2.280000e-06	3.992673e-06	2.193933e-09	2.906384e+01	1.471864e+02
2.290000e-06	3.996814e-06	2.194849e-09	2.909399e+01	1.473668e+02
2.300000e-06	4.000405e-06	2.196034e-09	2.912012e+01	1.475284e+02
2.310000e-06	4.003391e-06	2.198378e-09	2.914186e+01	1.476694e+02
2.320000e-06	4.005576e-06	2.200599e-09	2.915777e+01	1.477875e+02
2.330000e-06	4.006789e-06	2.200677e-09	2.916659e+01	1.478801e+02
2.340000e-06	4.007154e-06	2.198950e-09	2.916925e+01	1.479448e+02
2.350000e-06	4.006864e-06	2.198002e-09	2.916714e+01	1.479791e+02
2.360000e-06	4.005969e-06	2.197929e-09	2.916063e+01	1.479812e+02
2.370000e-06	4.004489e-06	2.196808e-09	2.914986e+01	1.479500e+02
2.380000e-06	4.002413e-06	2.196407e-09	2.913475e+01	1.478852e+02
2.390000e-06	3.999700e-06	2.197056e-09	2.911499e+01	1.477878e+02
2.400000e-06	3.996360e-06	2.196816e-09	2.909068e+01	1.476602e+02
2.410000e-06	3.992468e-06	2.198294e-09	2.906235e+01	1.475060e+02
2.420000e-06	3.988104e-06	2.196559e-09	2.903059e+01	1.473301e+02
2.430000e-06	3.983134e-06	2.182148e-09	2.899441e+01	1.471386e+02
2.440000e-06	3.977144e-06	2.159864e-09	2.895080e+01	1.469388e+02
2.450000e-06	3.969917e-06	2.165838e-09	2.889820e+01	1.467383e+02
2.460000e-06	3.961818e-06	2.199261e-09	2.883924e+01	1.465454e+02
2.470000e-06	3.953392e-06	2.202046e-09	2.877790e+01	1.463681e+02
2.480000e-06	3.944538e-06	2.160950e-09	2.871345e+01	1.462138e+02
2.490000e-06	3.934804e-06	2.126493e-09	2.864260e+01	1.460892e+02
2.500000e-06	3.924265e-06	2.146985e-09	2.856588e+01	1.459993e+02
2.510000e-06	3.913355e-06	2.149127e-09	2.848647e+01	1.459476e+02
2.520000e-06	3.901857e-06	2.148753e-09	2.840276e+01	1.459355e+02
2.530000e-06	3.889208e-06	2.158636e-09	2.831069e+01	1.459623e+02
2.540000e-06	3.875664e-06	2.162109e-09	2.821210e+01	1.460247e+02
2.550000e-06	3.861588e-06	2.159153e-09	2.810963e+01	1.461174e+02
2.560000e-06	3.846656e-06	2.176020e-09	2.800094e+01	1.462332e+02
2.570000e-06	3.830736e-06	2.184045e-09	2.788506e+01	1.463627e+02
2.580000e-06	3.814141e-06	2.139918e-09	2.776425e+01	1.464955e+02
2.590000e-06	3.796966e-06	2.189816e-09	2.763923e+01	1.466198e+02
2.600000e-06	3.779109e-06	2.244250e-09	2.750924e+01	1.467238e+02
2.610000e-06	3.760520e-06	2.167604e-09	2.737393e+01	1.467955e+02
2.620000e-06	3.741250e-06	2.180145e-09	2.723366e+01	1.468236e+02
2.630000e-06	3.721415e-06	2.383109e-09	2.708927e+01	1.467981e+02
2.640000e-06	3.701117e-06	2.397111e-09	2.694152e+01	1.467102e+02
2.650000e-06	3.680228e-06	2.168867e-09	2.678946e+01	1.465534e+02
2.660000e-06	3.658698e-06	2.154383e-09	2.663274e+01	1.463232e+02
2.670000e-06	3.636517e-06	2.334815e-09	2.647128e+01	1.460173e+02
2.680000e-06	3.613390e-06	2.359346e-09	2.630293e+01	1.456358e+02
2.690000e-06	3.589384e-06	2.202111e-09	2.612818e+01	1.451810e+02
2.700000e-06	3.564842e-06	2.112198e-09	2.594953e+01	1.446571e+02
2.710000e-06	3.539735e-06	2.229629e-09	2.576678e+01	1.440699e+02
2.720000e-06	3.513960e-06	2.328387e-09	2.557915e+01	1.434265e+02
2.730000e-06	3.487600e-06	2.247880e-09	2.538727e+01	1.427348e+02
2.740000e-06	3.460679e-06	2.141636e-09	2.519130e+01	1.420029e+02
2.750000e-06	3.433208e-06	2.160148e-09	2.499133e+01	1.412391e+02
2.760000e-06	3.405238e-06	2.233097e-09	2.478773e+01	1.404508e+02
2.770000e-06	3.376814e-06	2.222314e-09	2.458082e+01	1.396448e+02
2.780000e-06	3.347882e-06	2.158974e-09	2.437022e+01	1.388266e+02
2.790000e-06	3.318160e-06	2.112944e-09	2.415386e+01	1.380005e+02
2.800000e-06	3.287492e-06	2.109211e-09	2.393062e+01	1.371691e+02
2.810000e-06	3.256064e-06	2.142869e-09	2.370185e+01	1.363340e+02
2.820000e-06	3.224097e-06	2.149286e-09	2.346915e+01	1.354952e+02
2.830000e-06	3.191634e-06	2.103032e-09	2.323284e+01	1.346515e+02
2.840000e-06	3.158603e-06	2.037513e-09	2.299240e+01	1.338009e+02
2.850000e-06	3.125069e-06	2.039879e-09	2.274829e+01	1.329409e+02
2.860000e-06	3.091111e-06	2.092989e-09	2.250111e+01	1.320683e+02
2.870000e-06	3.056643e-06	2.082802e-09	2.225021e+01	1.311803e+02
2.880000e-06	3.021605e-06	2.013682e-09	2.199515e+01	1.302739e+02
2.890000e-06	2.986056e-06	1.958014e-09	2.173638e+01	1.293469e+02
2.900000e-06	2.950093e-06	1.987157e-09	2.147459e+01	1.283973e+02
2.910000e-06	2.913770e-06	2.042749e-09	2.121019e+01	1.274243e+02
2.920000e-06	2.877050e-06	1.995541e-09	2.094290e+01	1.264273e+02
2.930000e-06	2.839714e-06	1.900818e-09	2.067111e+01	1.254070e+02
2.940000e-06	2.801559e-06	1.879012e-09	2.039337e+01	1.243641e+02
