# Temperatura_=_20.0
# Concentracion g/m^3_=_12600.0
# C_Vs_to_Am_M_A/Vsm_=_65563218390.804596
# pendiente_HvsI_1/m_=_3716.3
# ordenada_HvsI_A/m_=_1297.0
# frecuencia_Hz_=_213012.9020321668

Tiempo_(s)	Campo_(V.s)	Magnetizacion_(V.s)	Campo_(kA/m)	Magnetizacion_(A/m)
0.000000e+00	-3.997496e-06	-2.072498e-10	-2.910567e+01	-1.246245e+01
1.000000e-08	-3.997687e-06	-2.098125e-10	-2.910706e+01	-1.255165e+01
2.000000e-08	-3.997199e-06	-2.093105e-10	-2.910350e+01	-1.264289e+01
3.000000e-08	-3.995916e-06	-2.090790e-10	-2.909416e+01	-1.273423e+01
4.000000e-08	-3.993743e-06	-2.117057e-10	-2.907834e+01	-1.282336e+01
5.000000e-08	-3.990749e-06	-2.125037e-10	-2.905655e+01	-1.290785e+01
6.000000e-08	-3.987109e-06	-2.110975e-10	-2.903004e+01	-1.298530e+01
7.000000e-08	-3.982892e-06	-2.090495e-10	-2.899934e+01	-1.305360e+01
8.000000e-08	-3.978045e-06	-2.188114e-10	-2.896404e+01	-1.311116e+01
9.000000e-08	-3.972327e-06	-2.130987e-10	-2.892241e+01	-1.315708e+01
1.000000e-07	-3.965779e-06	-1.752826e-10	-2.887474e+01	-1.319132e+01
1.100000e-07	-3.958673e-06	-1.737724e-10	-2.882300e+01	-1.321484e+01
1.200000e-07	-3.951057e-06	-2.648474e-10	-2.876754e+01	-1.322957e+01
1.300000e-07	-3.942793e-06	-2.855054e-10	-2.870737e+01	-1.323844e+01
1.400000e-07	-3.933669e-06	-1.734234e-10	-2.864094e+01	-1.324520e+01
1.500000e-07	-3.923760e-06	-1.511859e-10	-2.856880e+01	-1.325434e+01
1.600000e-07	-3.913069e-06	-2.187086e-10	-2.849096e+01	-1.327076e+01
1.700000e-07	-3.901427e-06	-1.840958e-10	-2.840619e+01	-1.329952e+01
1.800000e-07	-3.888959e-06	-2.038336e-10	-2.831541e+01	-1.334554e+01
1.900000e-07	-3.875868e-06	-2.827257e-10	-2.822009e+01	-1.341325e+01
2.000000e-07	-3.861926e-06	-1.574454e-10	-2.811858e+01	-1.350629e+01
2.100000e-07	-3.846943e-06	-9.800298e-11	-2.800949e+01	-1.362724e+01
2.200000e-07	-3.831046e-06	-3.014636e-10	-2.789375e+01	-1.377738e+01
2.300000e-07	-3.814453e-06	-3.312816e-10	-2.777294e+01	-1.395654e+01
2.400000e-07	-3.797335e-06	-1.442872e-10	-2.764830e+01	-1.416303e+01
2.500000e-07	-3.779606e-06	-1.898586e-10	-2.751922e+01	-1.439368e+01
2.600000e-07	-3.761188e-06	-3.354911e-10	-2.738511e+01	-1.464391e+01
2.700000e-07	-3.742195e-06	-2.928472e-10	-2.724682e+01	-1.490797e+01
2.800000e-07	-3.722748e-06	-2.566199e-10	-2.710523e+01	-1.517918e+01
2.900000e-07	-3.702752e-06	-2.684335e-10	-2.695964e+01	-1.545026e+01
3.000000e-07	-3.682111e-06	-2.209426e-10	-2.680936e+01	-1.571373e+01
3.100000e-07	-3.660880e-06	-2.625943e-10	-2.665478e+01	-1.596227e+01
3.200000e-07	-3.639017e-06	-3.132711e-10	-2.649559e+01	-1.618912e+01
3.300000e-07	-3.616514e-06	-2.703804e-10	-2.633175e+01	-1.638842e+01
3.400000e-07	-3.593451e-06	-2.493764e-10	-2.616383e+01	-1.655550e+01
3.500000e-07	-3.569831e-06	-2.241877e-10	-2.599185e+01	-1.668712e+01
3.600000e-07	-3.545582e-06	-2.363424e-10	-2.581529e+01	-1.678164e+01
3.700000e-07	-3.520584e-06	-3.301414e-10	-2.563328e+01	-1.683900e+01
3.800000e-07	-3.494749e-06	-2.858611e-10	-2.544518e+01	-1.686076e+01
3.900000e-07	-3.468120e-06	-1.662713e-10	-2.525129e+01	-1.684989e+01
4.000000e-07	-3.440882e-06	-2.367400e-10	-2.505297e+01	-1.681063e+01
4.100000e-07	-3.413198e-06	-3.298048e-10	-2.485141e+01	-1.674813e+01
4.200000e-07	-3.385016e-06	-2.756982e-10	-2.464621e+01	-1.666820e+01
4.300000e-07	-3.356256e-06	-2.303054e-10	-2.443682e+01	-1.657691e+01
4.400000e-07	-3.326857e-06	-2.314811e-10	-2.422276e+01	-1.648023e+01
4.500000e-07	-3.296847e-06	-2.401348e-10	-2.400426e+01	-1.638372e+01
4.600000e-07	-3.266306e-06	-2.836706e-10	-2.378189e+01	-1.629223e+01
4.700000e-07	-3.235293e-06	-2.902948e-10	-2.355609e+01	-1.620968e+01
4.800000e-07	-3.203882e-06	-2.340294e-10	-2.332739e+01	-1.613883e+01
4.900000e-07	-3.172008e-06	-2.064672e-10	-2.309531e+01	-1.608129e+01
5.000000e-07	-3.139488e-06	-2.497726e-10	-2.285854e+01	-1.603744e+01
5.100000e-07	-3.106198e-06	-2.958356e-10	-2.261615e+01	-1.600653e+01
5.200000e-07	-3.072113e-06	-2.675550e-10	-2.236797e+01	-1.598684e+01
5.300000e-07	-3.037267e-06	-2.029992e-10	-2.211426e+01	-1.597585e+01
5.400000e-07	-3.001870e-06	-2.071563e-10	-2.185654e+01	-1.597051e+01
5.500000e-07	-2.966151e-06	-2.692059e-10	-2.159647e+01	-1.596748e+01
5.600000e-07	-2.930078e-06	-2.756410e-10	-2.133383e+01	-1.596339e+01
5.700000e-07	-2.893480e-06	-2.193770e-10	-2.106735e+01	-1.595511e+01
5.800000e-07	-2.856302e-06	-2.039519e-10	-2.079666e+01	-1.593996e+01
5.900000e-07	-2.818559e-06	-2.343822e-10	-2.052185e+01	-1.591586e+01
6.000000e-07	-2.780240e-06	-2.565523e-10	-2.024286e+01	-1.588145e+01
6.100000e-07	-2.741441e-06	-2.514978e-10	-1.996036e+01	-1.583616e+01
6.200000e-07	-2.702347e-06	-2.232959e-10	-1.967572e+01	-1.578018e+01
6.300000e-07	-2.662999e-06	-2.086912e-10	-1.938923e+01	-1.571436e+01
6.400000e-07	-2.623320e-06	-2.311269e-10	-1.910033e+01	-1.564016e+01
6.500000e-07	-2.583216e-06	-2.536759e-10	-1.880833e+01	-1.555942e+01
6.600000e-07	-2.542480e-06	-2.367989e-10	-1.851173e+01	-1.547424e+01
6.700000e-07	-2.500997e-06	-2.071332e-10	-1.820969e+01	-1.538674e+01
6.800000e-07	-2.458814e-06	-2.106693e-10	-1.790256e+01	-1.529890e+01
6.900000e-07	-2.416044e-06	-2.334588e-10	-1.759116e+01	-1.521240e+01
7.000000e-07	-2.372844e-06	-2.397498e-10	-1.727662e+01	-1.512849e+01
7.100000e-07	-2.329333e-06	-2.232906e-10	-1.695982e+01	-1.504788e+01
7.200000e-07	-2.285552e-06	-2.059309e-10	-1.664104e+01	-1.497074e+01
7.300000e-07	-2.241400e-06	-2.092950e-10	-1.631957e+01	-1.489668e+01
7.400000e-07	-2.196889e-06	-2.218184e-10	-1.599549e+01	-1.482479e+01
7.500000e-07	-2.152011e-06	-2.243529e-10	-1.566873e+01	-1.475378e+01
7.600000e-07	-2.106750e-06	-2.119487e-10	-1.533919e+01	-1.468206e+01
7.700000e-07	-2.061177e-06	-2.004108e-10	-1.500738e+01	-1.460790e+01
7.800000e-07	-2.015261e-06	-2.040372e-10	-1.467306e+01	-1.452960e+01
7.900000e-07	-1.968899e-06	-2.126862e-10	-1.433550e+01	-1.444558e+01
8.000000e-07	-1.922160e-06	-2.144206e-10	-1.399520e+01	-1.435458e+01
8.100000e-07	-1.875137e-06	-2.072387e-10	-1.365283e+01	-1.425568e+01
8.200000e-07	-1.827810e-06	-1.974580e-10	-1.330823e+01	-1.414844e+01
8.300000e-07	-1.780266e-06	-1.970960e-10	-1.296207e+01	-1.403287e+01
8.400000e-07	-1.732523e-06	-2.066826e-10	-1.261446e+01	-1.390943e+01
8.500000e-07	-1.684446e-06	-2.108057e-10	-1.226441e+01	-1.377901e+01
8.600000e-07	-1.635962e-06	-1.962078e-10	-1.191140e+01	-1.364277e+01
8.700000e-07	-1.587068e-06	-1.826994e-10	-1.155540e+01	-1.350211e+01
8.800000e-07	-1.537657e-06	-1.916109e-10	-1.119564e+01	-1.335851e+01
8.900000e-07	-1.487675e-06	-2.042327e-10	-1.083173e+01	-1.321337e+01
9.000000e-07	-1.437234e-06	-1.962376e-10	-1.046446e+01	-1.306795e+01
9.100000e-07	-1.386378e-06	-1.783067e-10	-1.009418e+01	-1.292322e+01
9.200000e-07	-1.335208e-06	-1.771738e-10	-9.721616e+00	-1.277980e+01
9.300000e-07	-1.283903e-06	-1.892787e-10	-9.348068e+00	-1.263793e+01
9.400000e-07	-1.232416e-06	-1.894790e-10	-8.973188e+00	-1.249740e+01
9.500000e-07	-1.180657e-06	-1.773728e-10	-8.596335e+00	-1.235765e+01
9.600000e-07	-1.128700e-06	-1.719225e-10	-8.218039e+00	-1.221778e+01
9.700000e-07	-1.076598e-06	-1.790763e-10	-7.838684e+00	-1.207666e+01
9.800000e-07	-1.024280e-06	-1.852936e-10	-7.457758e+00	-1.193300e+01
9.900000e-07	-9.717062e-07	-1.773583e-10	-7.074969e+00	-1.178551e+01
1.000000e-06	-9.189854e-07	-1.688236e-10	-6.691109e+00	-1.163302e+01
1.010000e-06	-8.661388e-07	-1.700443e-10	-6.306334e+00	-1.147453e+01
1.020000e-06	-8.130897e-07	-1.717682e-10	-5.920086e+00	-1.130938e+01
1.030000e-06	-7.598749e-07	-1.661197e-10	-5.532630e+00	-1.113724e+01
1.040000e-06	-7.065493e-07	-1.591405e-10	-5.144367e+00	-1.095821e+01
1.050000e-06	-6.531340e-07	-1.579224e-10	-4.755452e+00	-1.077278e+01
1.060000e-06	-5.996131e-07	-1.568964e-10	-4.365768e+00	-1.058179e+01
1.070000e-06	-5.459761e-07	-1.513840e-10	-3.975238e+00	-1.038642e+01
1.080000e-06	-4.922514e-07	-1.457413e-10	-3.584070e+00	-1.018803e+01
1.090000e-06	-4.384198e-07	-1.448181e-10	-3.192124e+00	-9.988107e+00
1.100000e-06	-3.845234e-07	-1.447262e-10	-2.799705e+00	-9.788128e+00
1.110000e-06	-3.306007e-07	-1.387539e-10	-2.407095e+00	-9.589448e+00
1.120000e-06	-2.765931e-07	-1.316264e-10	-2.013868e+00	-9.393200e+00
1.130000e-06	-2.225126e-07	-1.300497e-10	-1.620109e+00	-9.200209e+00
1.140000e-06	-1.684561e-07	-1.310576e-10	-1.226525e+00	-9.010932e+00
1.150000e-06	-1.144238e-07	-1.276026e-10	-8.331169e-01	-8.825436e+00
1.160000e-06	-6.034113e-08	-1.203544e-10	-4.393423e-01	-8.643398e+00
1.170000e-06	-6.170205e-09	-1.185010e-10	-4.492511e-02	-8.464142e+00
1.180000e-06	4.800533e-08	-1.222650e-10	3.495256e-01	-8.286710e+00
1.190000e-06	1.021520e-07	-1.227714e-10	7.437662e-01	-8.109946e+00
1.200000e-06	1.562475e-07	-1.156359e-10	1.137634e+00	-7.932604e+00
1.210000e-06	2.102801e-07	-1.097236e-10	1.531044e+00	-7.753456e+00
1.220000e-06	2.643059e-07	-1.101449e-10	1.924405e+00	-7.571402e+00
1.230000e-06	3.182635e-07	-1.078730e-10	2.317269e+00	-7.385564e+00
1.240000e-06	3.721288e-07	-9.963670e-11	2.709460e+00	-7.195366e+00
1.250000e-06	4.258881e-07	-9.191869e-11	3.100881e+00	-7.000579e+00
1.260000e-06	4.795764e-07	-8.782485e-11	3.491783e+00	-6.801339e+00
1.270000e-06	5.332164e-07	-8.745818e-11	3.882335e+00	-6.598137e+00
1.280000e-06	5.867882e-07	-8.529520e-11	4.272390e+00	-6.391771e+00
1.290000e-06	6.402710e-07	-8.097041e-11	4.661797e+00	-6.183275e+00
1.300000e-06	6.936234e-07	-7.798715e-11	5.050254e+00	-5.973823e+00
1.310000e-06	7.468849e-07	-7.629998e-11	5.438050e+00	-5.764622e+00
1.320000e-06	8.000581e-07	-7.438119e-11	5.825203e+00	-5.556802e+00
1.330000e-06	8.530769e-07	-7.185829e-11	6.211231e+00	-5.351310e+00
1.340000e-06	9.059118e-07	-6.980964e-11	6.595921e+00	-5.148814e+00
1.350000e-06	9.585826e-07	-6.699374e-11	6.979416e+00	-4.949638e+00
1.360000e-06	1.011062e-06	-6.231748e-11	7.361520e+00	-4.753716e+00
1.370000e-06	1.063346e-06	-5.968641e-11	7.742196e+00	-4.560587e+00
1.380000e-06	1.115406e-06	-5.938819e-11	8.121240e+00	-4.369418e+00
1.390000e-06	1.167218e-06	-5.571142e-11	8.498481e+00	-4.179058e+00
1.400000e-06	1.218861e-06	-4.816960e-11	8.874494e+00	-3.988127e+00
1.410000e-06	1.270349e-06	-4.375465e-11	9.249378e+00	-3.795120e+00
1.420000e-06	1.321574e-06	-4.461015e-11	9.622350e+00	-3.598521e+00
1.430000e-06	1.372436e-06	-4.231721e-11	9.992672e+00	-3.396931e+00
1.440000e-06	1.422937e-06	-3.437902e-11	1.036037e+01	-3.189178e+00
1.450000e-06	1.473092e-06	-2.880843e-11	1.072555e+01	-2.974417e+00
1.460000e-06	1.522831e-06	-2.811242e-11	1.108769e+01	-2.752204e+00
1.470000e-06	1.572084e-06	-2.682082e-11	1.144630e+01	-2.522540e+00
1.480000e-06	1.620844e-06	-2.244996e-11	1.180133e+01	-2.285880e+00
1.490000e-06	1.669108e-06	-1.726217e-11	1.215273e+01	-2.043106e+00
1.500000e-06	1.716999e-06	-1.561646e-11	1.250143e+01	-1.795467e+00
1.510000e-06	1.764674e-06	-1.610318e-11	1.284855e+01	-1.544488e+00
1.520000e-06	1.812135e-06	-1.258062e-11	1.319411e+01	-1.291858e+00
1.530000e-06	1.859376e-06	-6.049735e-12	1.353807e+01	-1.039307e+00
1.540000e-06	1.906384e-06	-1.146695e-12	1.388033e+01	-7.884728e-01
1.550000e-06	1.953028e-06	1.937743e-12	1.421995e+01	-5.407793e-01
1.560000e-06	1.999293e-06	3.987129e-12	1.455680e+01	-2.973317e-01
1.570000e-06	2.045187e-06	8.024228e-12	1.489095e+01	-5.883473e-02
1.580000e-06	2.090730e-06	1.448025e-11	1.522255e+01	1.744555e-01
1.590000e-06	2.135940e-06	1.880524e-11	1.555173e+01	4.027447e-01
1.600000e-06	2.180749e-06	1.935759e-11	1.587798e+01	6.266749e-01
1.610000e-06	2.225152e-06	1.966406e-11	1.620128e+01	8.472647e-01
1.620000e-06	2.269193e-06	2.252014e-11	1.652194e+01	1.065818e+00
1.630000e-06	2.312950e-06	2.650271e-11	1.684053e+01	1.283806e+00
1.640000e-06	2.356461e-06	3.036290e-11	1.715733e+01	1.502743e+00
1.650000e-06	2.399689e-06	3.425779e-11	1.747207e+01	1.724046e+00
1.660000e-06	2.442542e-06	3.695036e-11	1.778409e+01	1.948907e+00
1.670000e-06	2.484896e-06	3.927551e-11	1.809247e+01	2.178185e+00
1.680000e-06	2.526582e-06	4.287981e-11	1.839598e+01	2.412320e+00
1.690000e-06	2.567483e-06	4.550963e-11	1.869378e+01	2.651276e+00
1.700000e-06	2.607687e-06	4.531344e-11	1.898650e+01	2.894530e+00
1.710000e-06	2.647437e-06	4.737146e-11	1.927592e+01	3.141095e+00
1.720000e-06	2.686914e-06	5.185530e-11	1.956335e+01	3.389582e+00
1.730000e-06	2.726115e-06	5.559578e-11	1.984877e+01	3.638291e+00
1.740000e-06	2.764886e-06	5.819951e-11	2.013107e+01	3.885335e+00
1.750000e-06	2.803153e-06	6.123327e-11	2.040969e+01	4.128775e+00
1.760000e-06	2.840954e-06	6.647073e-11	2.068492e+01	4.366762e+00
1.770000e-06	2.878259e-06	7.203596e-11	2.095653e+01	4.597672e+00
1.780000e-06	2.915033e-06	7.492867e-11	2.122428e+01	4.820231e+00
1.790000e-06	2.951251e-06	7.502947e-11	2.148799e+01	5.033604e+00
1.800000e-06	2.987065e-06	7.714814e-11	2.174874e+01	5.237460e+00
1.810000e-06	3.022616e-06	8.225384e-11	2.200759e+01	5.431994e+00
1.820000e-06	3.057785e-06	8.650565e-11	2.226365e+01	5.617907e+00
1.830000e-06	3.092389e-06	8.775528e-11	2.251560e+01	5.796349e+00
1.840000e-06	3.126247e-06	8.764166e-11	2.276212e+01	5.968832e+00
1.850000e-06	3.159232e-06	8.957590e-11	2.300229e+01	6.137103e+00
1.860000e-06	3.191419e-06	9.247336e-11	2.323664e+01	6.303012e+00
1.870000e-06	3.223058e-06	9.450068e-11	2.346700e+01	6.468364e+00
1.880000e-06	3.254282e-06	9.602788e-11	2.369435e+01	6.634777e+00
1.890000e-06	3.285053e-06	9.688096e-11	2.391839e+01	6.803559e+00
1.900000e-06	3.315308e-06	9.892940e-11	2.413867e+01	6.975603e+00
1.910000e-06	3.345000e-06	1.014999e-10	2.435486e+01	7.151321e+00
1.920000e-06	3.374080e-06	1.030362e-10	2.456659e+01	7.330616e+00
1.930000e-06	3.402547e-06	1.040411e-10	2.477386e+01	7.512892e+00
1.940000e-06	3.430523e-06	1.060727e-10	2.497755e+01	7.697105e+00
1.950000e-06	3.458100e-06	1.085794e-10	2.517834e+01	7.881852e+00
1.960000e-06	3.485219e-06	1.106915e-10	2.537579e+01	8.065488e+00
1.970000e-06	3.511668e-06	1.140791e-10	2.556836e+01	8.246257e+00
1.980000e-06	3.537190e-06	1.165896e-10	2.575419e+01	8.422439e+00
1.990000e-06	3.561799e-06	1.172035e-10	2.593337e+01	8.592492e+00
2.000000e-06	3.585713e-06	1.195876e-10	2.610749e+01	8.755174e+00
2.010000e-06	3.609019e-06	1.223925e-10	2.627718e+01	8.909648e+00
2.020000e-06	3.631720e-06	1.239890e-10	2.644246e+01	9.055546e+00
2.030000e-06	3.653811e-06	1.261595e-10	2.660331e+01	9.193003e+00
2.040000e-06	3.675325e-06	1.268855e-10	2.675995e+01	9.322641e+00
2.050000e-06	3.696191e-06	1.269229e-10	2.691188e+01	9.445519e+00
2.060000e-06	3.716409e-06	1.280194e-10	2.705908e+01	9.563047e+00
2.070000e-06	3.736136e-06	1.302776e-10	2.720271e+01	9.676863e+00
2.080000e-06	3.755393e-06	1.324890e-10	2.734292e+01	9.788705e+00
2.090000e-06	3.774073e-06	1.339381e-10	2.747893e+01	9.900261e+00
2.100000e-06	3.792106e-06	1.369095e-10	2.761023e+01	1.001303e+01
2.110000e-06	3.809447e-06	1.400361e-10	2.773649e+01	1.012820e+01
2.120000e-06	3.826189e-06	1.414040e-10	2.785838e+01	1.024655e+01
2.130000e-06	3.842354e-06	1.423977e-10	2.797608e+01	1.036838e+01
2.140000e-06	3.857722e-06	1.443024e-10	2.808798e+01	1.049348e+01
2.150000e-06	3.872233e-06	1.438333e-10	2.819363e+01	1.062118e+01
2.160000e-06	3.885964e-06	1.416757e-10	2.829360e+01	1.075038e+01
2.170000e-06	3.898940e-06	1.419869e-10	2.838808e+01	1.087964e+01
2.180000e-06	3.911203e-06	1.446331e-10	2.847737e+01	1.100734e+01
2.190000e-06	3.922773e-06	1.486539e-10	2.856161e+01	1.113178e+01
2.200000e-06	3.933551e-06	1.501875e-10	2.864009e+01	1.125138e+01
2.210000e-06	3.943371e-06	1.497549e-10	2.871158e+01	1.136477e+01
2.220000e-06	3.952170e-06	1.515299e-10	2.877565e+01	1.147095e+01
2.230000e-06	3.960203e-06	1.550724e-10	2.883414e+01	1.156938e+01
2.240000e-06	3.967668e-06	1.565471e-10	2.888849e+01	1.166003e+01
2.250000e-06	3.974542e-06	1.545515e-10	2.893854e+01	1.174339e+01
2.260000e-06	3.980799e-06	1.546864e-10	2.898410e+01	1.182046e+01
2.270000e-06	3.986344e-06	1.587315e-10	2.902447e+01	1.189264e+01
2.280000e-06	3.991169e-06	1.612410e-10	2.905960e+01	1.196163e+01
2.290000e-06	3.995388e-06	1.594926e-10	2.909032e+01	1.202929e+01
2.300000e-06	3.999087e-06	1.589619e-10	2.911725e+01	1.209746e+01
2.310000e-06	4.002188e-06	1.613503e-10	2.913983e+01	1.216780e+01
2.320000e-06	4.004520e-06	1.628736e-10	2.915681e+01	1.224161e+01
2.330000e-06	4.005859e-06	1.622227e-10	2.916655e+01	1.231973e+01
2.340000e-06	4.006229e-06	1.617081e-10	2.916925e+01	1.240242e+01
2.350000e-06	4.005905e-06	1.624267e-10	2.916689e+01	1.248930e+01
2.360000e-06	4.005031e-06	1.640882e-10	2.916053e+01	1.257935e+01
2.370000e-06	4.003614e-06	1.677847e-10	2.915021e+01	1.267100e+01
2.380000e-06	4.001598e-06	1.716165e-10	2.913553e+01	1.276220e+01
2.390000e-06	3.998883e-06	1.733656e-10	2.911576e+01	1.285059e+01
2.400000e-06	3.995435e-06	1.754200e-10	2.909066e+01	1.293372e+01
2.410000e-06	3.991490e-06	1.794608e-10	2.906194e+01	1.300925e+01
2.420000e-06	3.987116e-06	1.699054e-10	2.903009e+01	1.307517e+01
2.430000e-06	3.982059e-06	1.742635e-10	2.899327e+01	1.313006e+01
2.440000e-06	3.975956e-06	2.242319e-10	2.894884e+01	1.317321e+01
2.450000e-06	3.968725e-06	2.248143e-10	2.889619e+01	1.320483e+01
2.460000e-06	3.960727e-06	1.274265e-10	2.883795e+01	1.322612e+01
2.470000e-06	3.952330e-06	1.133763e-10	2.877682e+01	1.323926e+01
2.480000e-06	3.943412e-06	2.202426e-10	2.871189e+01	1.324740e+01
2.490000e-06	3.933721e-06	2.594543e-10	2.864132e+01	1.325450e+01
2.500000e-06	3.923390e-06	1.873372e-10	2.856611e+01	1.326517e+01
2.510000e-06	3.912569e-06	2.310304e-10	2.848731e+01	1.328438e+01
2.520000e-06	3.901054e-06	2.182021e-10	2.840347e+01	1.331720e+01
2.530000e-06	3.888540e-06	1.196702e-10	2.831236e+01	1.336843e+01
2.540000e-06	3.875153e-06	2.513495e-10	2.821489e+01	1.344236e+01
2.550000e-06	3.861032e-06	3.514859e-10	2.811208e+01	1.354237e+01
2.560000e-06	3.846043e-06	1.481830e-10	2.800294e+01	1.367074e+01
2.570000e-06	3.830198e-06	8.263152e-11	2.788757e+01	1.382839e+01
2.580000e-06	3.813621e-06	2.915121e-10	2.776687e+01	1.401478e+01
2.590000e-06	3.796445e-06	2.248733e-10	2.764182e+01	1.422785e+01
2.600000e-06	3.778690e-06	4.157013e-11	2.751255e+01	1.446406e+01
2.610000e-06	3.760248e-06	1.644203e-10	2.737827e+01	1.471852e+01
2.620000e-06	3.741110e-06	2.450084e-10	2.723893e+01	1.498521e+01
2.630000e-06	3.721403e-06	1.743899e-10	2.709544e+01	1.525726e+01
2.640000e-06	3.701160e-06	2.790128e-10	2.694805e+01	1.552733e+01
2.650000e-06	3.680345e-06	3.078704e-10	2.679650e+01	1.578792e+01
2.660000e-06	3.658919e-06	2.077741e-10	2.664050e+01	1.603183e+01
2.670000e-06	3.636607e-06	2.267722e-10	2.647805e+01	1.625248e+01
2.680000e-06	3.613378e-06	2.663535e-10	2.630891e+01	1.644430e+01
2.690000e-06	3.589454e-06	2.952376e-10	2.613472e+01	1.660294e+01
2.700000e-06	3.564915e-06	2.928480e-10	2.595606e+01	1.672556e+01
2.710000e-06	3.539783e-06	1.639841e-10	2.577307e+01	1.681092e+01
2.720000e-06	3.514058e-06	2.003662e-10	2.558577e+01	1.685936e+01
2.730000e-06	3.487754e-06	3.639489e-10	2.539425e+01	1.687281e+01
2.740000e-06	3.460896e-06	2.681861e-10	2.519869e+01	1.685459e+01
2.750000e-06	3.433482e-06	1.735389e-10	2.499910e+01	1.680919e+01
2.760000e-06	3.405521e-06	2.552565e-10	2.479552e+01	1.674197e+01
2.770000e-06	3.377131e-06	2.658626e-10	2.458880e+01	1.665881e+01
2.780000e-06	3.348243e-06	2.664572e-10	2.437847e+01	1.656580e+01
2.790000e-06	3.318618e-06	2.741681e-10	2.416277e+01	1.646885e+01
2.800000e-06	3.288072e-06	2.223880e-10	2.394037e+01	1.637336e+01
2.810000e-06	3.256693e-06	2.256359e-10	2.371190e+01	1.628397e+01
2.820000e-06	3.224754e-06	2.543886e-10	2.347935e+01	1.620431e+01
2.830000e-06	3.192352e-06	2.825189e-10	2.324343e+01	1.613687e+01
2.840000e-06	3.159432e-06	2.763054e-10	2.300374e+01	1.608295e+01
2.850000e-06	3.125954e-06	2.101738e-10	2.275999e+01	1.604263e+01
2.860000e-06	3.091959e-06	2.232202e-10	2.251247e+01	1.601491e+01
2.870000e-06	3.057498e-06	2.964863e-10	2.226157e+01	1.599784e+01
2.880000e-06	3.022521e-06	2.903306e-10	2.200690e+01	1.598875e+01
2.890000e-06	2.986997e-06	2.319976e-10	2.174825e+01	1.598449e+01
2.900000e-06	2.951053e-06	2.198288e-10	2.148654e+01	1.598169e+01
2.910000e-06	2.914714e-06	2.689379e-10	2.122196e+01	1.597702e+01
2.920000e-06	2.877954e-06	2.840974e-10	2.095431e+01	1.596743e+01
2.930000e-06	2.840629e-06	2.527377e-10	2.068255e+01	1.595040e+01
2.940000e-06	2.802591e-06	2.403844e-10	2.040560e+01	1.592400e+01
