# Temperatura_=_20.0
# Concentracion g/m^3_=_12600.0
# C_Vs_to_Am_M_A/Vsm_=_65563218390.804596
# pendiente_HvsI_1/m_=_3716.3
# ordenada_HvsI_A/m_=_1297.0
# frecuencia_Hz_=_213011.54314036507

Tiempo_(s)	Campo_(V.s)	Magnetizacion_(V.s)	Campo_(kA/m)	Magnetizacion_(A/m)
0.000000e+00	-3.997824e-06	-1.048042e-10	-2.910733e+01	-5.622615e+00
1.000000e-08	-3.997910e-06	-1.088164e-10	-2.910795e+01	-5.628418e+00
2.000000e-08	-3.997393e-06	-1.086321e-10	-2.910419e+01	-5.634850e+00
3.000000e-08	-3.996095e-06	-1.069251e-10	-2.909474e+01	-5.641409e+00
4.000000e-08	-3.993811e-06	-1.060237e-10	-2.907811e+01	-5.647350e+00
5.000000e-08	-3.990643e-06	-1.055206e-10	-2.905504e+01	-5.651719e+00
6.000000e-08	-3.986860e-06	-1.029928e-10	-2.902750e+01	-5.653427e+00
7.000000e-08	-3.982602e-06	-9.854420e-11	-2.899650e+01	-5.651323e+00
8.000000e-08	-3.977753e-06	-1.051831e-10	-2.896119e+01	-5.644290e+00
9.000000e-08	-3.972055e-06	-1.164018e-10	-2.891971e+01	-5.631335e+00
1.000000e-07	-3.965465e-06	-1.116917e-10	-2.887173e+01	-5.611681e+00
1.100000e-07	-3.958161e-06	-9.472585e-11	-2.881855e+01	-5.584847e+00
1.200000e-07	-3.950379e-06	-7.300723e-11	-2.876188e+01	-5.550705e+00
1.300000e-07	-3.942097e-06	-9.828873e-11	-2.870159e+01	-5.509528e+00
1.400000e-07	-3.933025e-06	-1.089214e-10	-2.863554e+01	-5.461997e+00
1.500000e-07	-3.923059e-06	-1.524746e-10	-2.856298e+01	-5.409190e+00
1.600000e-07	-3.912222e-06	-1.011935e-10	-2.848408e+01	-5.352541e+00
1.700000e-07	-3.900465e-06	-9.024717e-11	-2.839847e+01	-5.293774e+00
1.800000e-07	-3.887870e-06	-1.196051e-10	-2.830677e+01	-5.234813e+00
1.900000e-07	-3.874636e-06	-9.102583e-11	-2.821042e+01	-5.177678e+00
2.000000e-07	-3.860681e-06	-9.249193e-11	-2.810882e+01	-5.124375e+00
2.100000e-07	-3.845718e-06	-7.661442e-11	-2.799987e+01	-5.076778e+00
2.200000e-07	-3.829687e-06	-7.659469e-11	-2.788316e+01	-5.036524e+00
2.300000e-07	-3.812989e-06	-3.416266e-11	-2.776158e+01	-5.004914e+00
2.400000e-07	-3.795830e-06	-8.621306e-11	-2.763665e+01	-4.982841e+00
2.500000e-07	-3.778019e-06	-1.000443e-10	-2.750697e+01	-4.970734e+00
2.600000e-07	-3.759507e-06	-5.260034e-11	-2.737219e+01	-4.968540e+00
2.700000e-07	-3.740377e-06	-7.300466e-11	-2.723291e+01	-4.975725e+00
2.800000e-07	-3.720754e-06	-7.426063e-11	-2.709003e+01	-4.991311e+00
2.900000e-07	-3.700628e-06	-2.174711e-11	-2.694351e+01	-5.013934e+00
3.000000e-07	-3.679901e-06	-6.125919e-11	-2.679259e+01	-5.041926e+00
3.100000e-07	-3.658556e-06	-1.378840e-10	-2.663719e+01	-5.073412e+00
3.200000e-07	-3.636531e-06	-7.274932e-11	-2.647683e+01	-5.106419e+00
3.300000e-07	-3.613875e-06	1.963635e-11	-2.631187e+01	-5.138981e+00
3.400000e-07	-3.590730e-06	-5.649982e-11	-2.614336e+01	-5.169247e+00
3.500000e-07	-3.567106e-06	-1.480478e-10	-2.597136e+01	-5.195568e+00
3.600000e-07	-3.542906e-06	-1.147256e-10	-2.579516e+01	-5.216577e+00
3.700000e-07	-3.517900e-06	-7.973653e-12	-2.561310e+01	-5.231239e+00
3.800000e-07	-3.492006e-06	2.551452e-11	-2.542457e+01	-5.238884e+00
3.900000e-07	-3.465331e-06	-1.271987e-10	-2.523035e+01	-5.239207e+00
4.000000e-07	-3.437978e-06	-1.738320e-10	-2.503120e+01	-5.232255e+00
4.100000e-07	-3.410106e-06	-3.610320e-11	-2.482827e+01	-5.218380e+00
4.200000e-07	-3.381808e-06	3.375700e-11	-2.462224e+01	-5.198189e+00
4.300000e-07	-3.352991e-06	-5.101035e-11	-2.441243e+01	-5.172468e+00
4.400000e-07	-3.323549e-06	-1.540579e-10	-2.419807e+01	-5.142111e+00
4.500000e-07	-3.293499e-06	-1.098370e-10	-2.397928e+01	-5.108042e+00
4.600000e-07	-3.262922e-06	-8.315062e-13	-2.375666e+01	-5.071144e+00
4.700000e-07	-3.231800e-06	1.201605e-11	-2.353006e+01	-5.032200e+00
4.800000e-07	-3.200211e-06	-8.498542e-11	-2.330007e+01	-4.991845e+00
4.900000e-07	-3.168254e-06	-1.509474e-10	-2.306740e+01	-4.950537e+00
5.000000e-07	-3.135751e-06	-6.853670e-11	-2.283075e+01	-4.908545e+00
5.100000e-07	-3.102402e-06	1.061073e-11	-2.258794e+01	-4.865956e+00
5.200000e-07	-3.068077e-06	-3.003249e-11	-2.233803e+01	-4.822698e+00
5.300000e-07	-3.033037e-06	-1.110221e-10	-2.208291e+01	-4.778571e+00
5.400000e-07	-2.997570e-06	-1.216633e-10	-2.182468e+01	-4.733295e+00
5.500000e-07	-2.961751e-06	-4.091973e-11	-2.156389e+01	-4.686557e+00
5.600000e-07	-2.925528e-06	-4.744259e-12	-2.130016e+01	-4.638059e+00
5.700000e-07	-2.888863e-06	-4.835624e-11	-2.103321e+01	-4.587562e+00
5.800000e-07	-2.851726e-06	-9.585211e-11	-2.076282e+01	-4.534924e+00
5.900000e-07	-2.814014e-06	-8.939965e-11	-2.048825e+01	-4.480120e+00
6.000000e-07	-2.775690e-06	-3.489563e-11	-2.020922e+01	-4.423257e+00
6.100000e-07	-2.736841e-06	-2.014211e-11	-1.992637e+01	-4.364569e+00
6.200000e-07	-2.697571e-06	-5.058118e-11	-1.964046e+01	-4.304399e+00
6.300000e-07	-2.658020e-06	-8.783697e-11	-1.935249e+01	-4.243174e+00
6.400000e-07	-2.618247e-06	-8.575706e-11	-1.906291e+01	-4.181366e+00
6.500000e-07	-2.578019e-06	-3.351365e-11	-1.877002e+01	-4.119451e+00
6.600000e-07	-2.537149e-06	-1.513091e-11	-1.847246e+01	-4.057867e+00
6.700000e-07	-2.495617e-06	-4.970408e-11	-1.817007e+01	-3.996972e+00
6.800000e-07	-2.453408e-06	-8.830745e-11	-1.786275e+01	-3.937009e+00
6.900000e-07	-2.410566e-06	-7.336458e-11	-1.755083e+01	-3.878088e+00
7.000000e-07	-2.367257e-06	-2.059646e-11	-1.723551e+01	-3.820165e+00
7.100000e-07	-2.323643e-06	-1.925356e-11	-1.691796e+01	-3.763052e+00
7.200000e-07	-2.279818e-06	-5.902203e-11	-1.659888e+01	-3.706427e+00
7.300000e-07	-2.235701e-06	-8.053996e-11	-1.627767e+01	-3.649861e+00
7.400000e-07	-2.191120e-06	-5.363072e-11	-1.595309e+01	-3.592855e+00
7.500000e-07	-2.146110e-06	-1.611056e-11	-1.562538e+01	-3.534883e+00
7.600000e-07	-2.100767e-06	-2.847759e-11	-1.529525e+01	-3.475438e+00
7.700000e-07	-2.055101e-06	-5.890713e-11	-1.496276e+01	-3.414080e+00
7.800000e-07	-2.009099e-06	-6.829904e-11	-1.462783e+01	-3.350471e+00
7.900000e-07	-1.962713e-06	-4.376102e-11	-1.429011e+01	-3.284411e+00
8.000000e-07	-1.915956e-06	-1.501370e-11	-1.394968e+01	-3.215858e+00
8.100000e-07	-1.868875e-06	-2.732413e-11	-1.360689e+01	-3.144934e+00
8.200000e-07	-1.821542e-06	-5.446089e-11	-1.326227e+01	-3.071920e+00
8.300000e-07	-1.773937e-06	-6.149214e-11	-1.291566e+01	-2.997230e+00
8.400000e-07	-1.726055e-06	-3.490684e-11	-1.256705e+01	-2.921388e+00
8.500000e-07	-1.677881e-06	-9.396699e-12	-1.221630e+01	-2.844975e+00
8.600000e-07	-1.629370e-06	-2.632121e-11	-1.186310e+01	-2.768589e+00
8.700000e-07	-1.580521e-06	-5.439993e-11	-1.150744e+01	-2.692790e+00
8.800000e-07	-1.531139e-06	-5.603363e-11	-1.114790e+01	-2.618054e+00
8.900000e-07	-1.481169e-06	-2.574129e-11	-1.078408e+01	-2.544729e+00
9.000000e-07	-1.430749e-06	-9.385582e-12	-1.041699e+01	-2.473008e+00
9.100000e-07	-1.379925e-06	-3.459624e-11	-1.004695e+01	-2.402903e+00
9.200000e-07	-1.328776e-06	-5.672260e-11	-9.674542e+00	-2.334246e+00
9.300000e-07	-1.277379e-06	-4.558131e-11	-9.300329e+00	-2.266698e+00
9.400000e-07	-1.225755e-06	-1.454985e-11	-8.924465e+00	-2.199774e+00
9.500000e-07	-1.173950e-06	-1.128780e-11	-8.547288e+00	-2.132880e+00
9.600000e-07	-1.121991e-06	-3.862139e-11	-8.168985e+00	-2.065365e+00
9.700000e-07	-1.069846e-06	-4.915149e-11	-7.789324e+00	-1.996570e+00
9.800000e-07	-1.017503e-06	-3.364914e-11	-7.408226e+00	-1.925890e+00
9.900000e-07	-9.649112e-07	-1.560195e-11	-7.025318e+00	-1.852818e+00
1.000000e-06	-9.120818e-07	-2.498654e-11	-6.640678e+00	-1.776999e+00
1.010000e-06	-8.591227e-07	-4.663706e-11	-6.255094e+00	-1.698263e+00
1.020000e-06	-8.059785e-07	-4.444072e-11	-5.868162e+00	-1.616640e+00
1.030000e-06	-7.526576e-07	-2.712401e-11	-5.479944e+00	-1.532372e+00
1.040000e-06	-6.992567e-07	-1.635539e-11	-5.091142e+00	-1.445896e+00
1.050000e-06	-6.457620e-07	-2.436824e-11	-4.701659e+00	-1.357818e+00
1.060000e-06	-5.921827e-07	-3.454771e-11	-4.311559e+00	-1.268872e+00
1.070000e-06	-5.385385e-07	-2.951267e-11	-3.920987e+00	-1.179865e+00
1.080000e-06	-4.848096e-07	-1.968718e-11	-3.529798e+00	-1.091619e+00
1.090000e-06	-4.309706e-07	-1.293662e-11	-3.137807e+00	-1.004912e+00
1.100000e-06	-3.770928e-07	-1.777812e-11	-2.745534e+00	-9.204129e-01
1.110000e-06	-3.232197e-07	-2.548007e-11	-2.353295e+00	-8.386373e-01
1.120000e-06	-2.692775e-07	-2.395298e-11	-1.960553e+00	-7.599038e-01
1.130000e-06	-2.152659e-07	-1.563934e-11	-1.567306e+00	-6.843103e-01
1.140000e-06	-1.612020e-07	-6.918835e-12	-1.173678e+00	-6.117264e-01
1.150000e-06	-1.070906e-07	-1.205864e-11	-7.797044e-01	-5.418031e-01
1.160000e-06	-5.296425e-08	-2.212015e-11	-3.856217e-01	-4.740002e-01
1.170000e-06	1.200565e-09	-1.950429e-11	8.741064e-03	-4.076283e-01
1.180000e-06	5.539903e-08	-9.410115e-12	4.033488e-01	-3.419034e-01
1.190000e-06	1.095271e-07	-6.352395e-12	7.974437e-01	-2.760084e-01
1.200000e-06	1.635818e-07	-1.825502e-11	1.191005e+00	-2.091584e-01
1.210000e-06	2.176097e-07	-2.561717e-11	1.584371e+00	-1.406628e-01
1.220000e-06	2.716440e-07	-1.641832e-11	1.977784e+00	-6.998104e-02
1.230000e-06	3.257054e-07	-5.559780e-12	2.371393e+00	3.233869e-03
1.240000e-06	3.796918e-07	-4.801086e-12	2.764457e+00	7.910667e-02
1.250000e-06	4.335632e-07	-1.229673e-11	3.156683e+00	1.575289e-01
1.260000e-06	4.873398e-07	-9.963354e-12	3.548220e+00	2.381663e-01
1.270000e-06	5.410094e-07	-2.907677e-13	3.938977e+00	3.204844e-01
1.280000e-06	5.946204e-07	4.048912e-12	4.329307e+00	4.037900e-01
1.290000e-06	6.481855e-07	9.604406e-13	4.719304e+00	4.872856e-01
1.300000e-06	7.016174e-07	-3.630403e-12	5.108330e+00	5.701320e-01
1.310000e-06	7.548595e-07	5.913246e-13	5.495975e+00	6.515153e-01
1.320000e-06	8.079935e-07	8.806046e-12	5.882833e+00	7.307107e-01
1.330000e-06	8.609503e-07	1.106656e-11	6.268400e+00	8.071409e-01
1.340000e-06	9.136408e-07	8.523385e-12	6.652029e+00	8.804214e-01
1.350000e-06	9.661820e-07	6.030318e-12	7.034570e+00	9.503915e-01
1.360000e-06	1.018543e-06	8.548562e-12	7.415799e+00	1.017126e+00
1.370000e-06	1.070737e-06	1.190394e-11	7.795812e+00	1.080930e+00
1.380000e-06	1.122785e-06	1.297842e-11	8.174763e+00	1.142312e+00
1.390000e-06	1.174652e-06	1.343809e-11	8.552394e+00	1.201941e+00
1.400000e-06	1.226312e-06	1.161052e-11	8.928523e+00	1.260596e+00
1.410000e-06	1.277725e-06	1.229671e-11	9.302848e+00	1.319093e+00
1.420000e-06	1.328900e-06	1.517322e-11	9.675444e+00	1.378225e+00
1.430000e-06	1.379725e-06	1.845316e-11	1.004549e+01	1.438690e+00
1.440000e-06	1.430015e-06	1.838096e-11	1.041164e+01	1.501036e+00
1.450000e-06	1.479754e-06	1.488440e-11	1.077378e+01	1.565609e+00
1.460000e-06	1.529071e-06	1.557045e-11	1.113285e+01	1.632529e+00
1.470000e-06	1.578053e-06	2.075461e-11	1.148947e+01	1.701674e+00
1.480000e-06	1.626690e-06	2.290791e-11	1.184359e+01	1.772689e+00
1.490000e-06	1.674929e-06	1.913916e-11	1.219481e+01	1.845018e+00
1.500000e-06	1.722823e-06	1.511517e-11	1.254351e+01	1.917951e+00
1.510000e-06	1.770522e-06	1.916504e-11	1.289080e+01	1.990682e+00
1.520000e-06	1.818029e-06	2.638123e-11	1.323669e+01	2.062384e+00
1.530000e-06	1.865282e-06	2.846775e-11	1.358073e+01	2.132283e+00
1.540000e-06	1.912232e-06	2.543413e-11	1.392256e+01	2.199732e+00
1.550000e-06	1.958798e-06	2.472929e-11	1.426160e+01	2.264274e+00
1.560000e-06	2.004989e-06	2.934438e-11	1.459791e+01	2.325696e+00
1.570000e-06	2.050783e-06	3.162193e-11	1.493133e+01	2.384063e+00
1.580000e-06	2.096216e-06	2.931239e-11	1.526211e+01	2.439726e+00
1.590000e-06	2.141303e-06	2.502645e-11	1.559038e+01	2.493315e+00
1.600000e-06	2.186045e-06	2.462507e-11	1.591614e+01	2.545702e+00
1.610000e-06	2.230435e-06	2.768690e-11	1.623933e+01	2.597946e+00
1.620000e-06	2.274469e-06	2.943683e-11	1.655993e+01	2.651222e+00
1.630000e-06	2.318223e-06	2.949496e-11	1.687850e+01	2.706735e+00
1.640000e-06	2.361718e-06	2.891355e-11	1.719518e+01	2.765628e+00
1.650000e-06	2.404934e-06	2.948311e-11	1.750982e+01	2.828891e+00
1.660000e-06	2.447764e-06	3.159400e-11	1.782166e+01	2.897284e+00
1.670000e-06	2.490035e-06	3.298400e-11	1.812942e+01	2.971258e+00
1.680000e-06	2.531474e-06	3.240868e-11	1.843114e+01	3.050917e+00
1.690000e-06	2.572130e-06	2.951793e-11	1.872715e+01	3.135982e+00
1.700000e-06	2.612280e-06	2.905597e-11	1.901947e+01	3.225801e+00
1.710000e-06	2.652054e-06	3.326736e-11	1.930905e+01	3.319370e+00
1.720000e-06	2.691523e-06	3.607402e-11	1.959642e+01	3.415390e+00
1.730000e-06	2.730600e-06	3.496323e-11	1.988093e+01	3.512339e+00
1.740000e-06	2.769277e-06	3.315635e-11	2.016253e+01	3.608569e+00
1.750000e-06	2.807477e-06	3.702403e-11	2.044065e+01	3.702406e+00
1.760000e-06	2.845146e-06	4.356756e-11	2.071492e+01	3.792260e+00
1.770000e-06	2.882353e-06	4.663000e-11	2.098581e+01	3.876725e+00
1.780000e-06	2.919031e-06	4.585859e-11	2.125286e+01	3.954673e+00
1.790000e-06	2.955212e-06	4.397570e-11	2.151628e+01	4.025326e+00
1.800000e-06	2.991037e-06	4.569685e-11	2.177712e+01	4.088310e+00
1.810000e-06	3.026556e-06	4.900712e-11	2.203573e+01	4.143675e+00
1.820000e-06	3.061653e-06	4.874783e-11	2.229126e+01	4.191891e+00
1.830000e-06	3.096122e-06	4.603049e-11	2.254222e+01	4.233813e+00
1.840000e-06	3.129740e-06	4.640387e-11	2.278698e+01	4.270620e+00
1.850000e-06	3.162502e-06	4.960733e-11	2.302552e+01	4.303735e+00
1.860000e-06	3.194603e-06	5.100622e-11	2.325924e+01	4.334721e+00
1.870000e-06	3.226250e-06	4.901487e-11	2.348966e+01	4.365177e+00
1.880000e-06	3.257482e-06	4.677536e-11	2.371705e+01	4.396626e+00
1.890000e-06	3.288205e-06	4.743892e-11	2.394074e+01	4.430411e+00
1.900000e-06	3.318366e-06	5.020914e-11	2.416033e+01	4.467608e+00
1.910000e-06	3.347913e-06	5.123072e-11	2.437546e+01	4.508950e+00
1.920000e-06	3.376885e-06	5.012418e-11	2.458639e+01	4.554785e+00
1.930000e-06	3.405346e-06	5.050232e-11	2.479362e+01	4.605060e+00
1.940000e-06	3.433337e-06	5.262159e-11	2.499741e+01	4.659328e+00
1.950000e-06	3.460905e-06	5.329975e-11	2.519813e+01	4.716789e+00
1.960000e-06	3.487991e-06	5.173454e-11	2.539534e+01	4.776351e+00
1.970000e-06	3.514364e-06	5.206656e-11	2.558735e+01	4.836718e+00
1.980000e-06	3.539785e-06	5.366658e-11	2.577244e+01	4.896479e+00
1.990000e-06	3.564242e-06	5.323002e-11	2.595050e+01	4.954218e+00
2.000000e-06	3.587994e-06	5.313937e-11	2.612344e+01	5.008612e+00
2.010000e-06	3.611221e-06	5.476336e-11	2.629255e+01	5.058521e+00
2.020000e-06	3.633945e-06	5.595429e-11	2.645800e+01	5.103072e+00
2.030000e-06	3.656083e-06	5.587661e-11	2.661918e+01	5.141710e+00
2.040000e-06	3.677592e-06	5.494162e-11	2.677578e+01	5.174234e+00
2.050000e-06	3.698463e-06	5.435238e-11	2.692774e+01	5.200802e+00
2.060000e-06	3.718725e-06	5.379320e-11	2.707527e+01	5.221907e+00
2.070000e-06	3.738531e-06	5.290222e-11	2.721947e+01	5.238338e+00
2.080000e-06	3.757878e-06	5.153137e-11	2.736033e+01	5.251111e+00
2.090000e-06	3.776629e-06	5.095478e-11	2.749685e+01	5.261390e+00
2.100000e-06	3.794648e-06	5.182921e-11	2.762804e+01	5.270395e+00
2.110000e-06	3.811878e-06	5.236331e-11	2.775349e+01	5.279315e+00
2.120000e-06	3.828434e-06	5.191899e-11	2.787403e+01	5.289222e+00
2.130000e-06	3.844404e-06	5.151072e-11	2.799031e+01	5.300993e+00
2.140000e-06	3.859574e-06	5.268791e-11	2.810076e+01	5.315256e+00
2.150000e-06	3.873869e-06	5.376172e-11	2.820483e+01	5.332354e+00
2.160000e-06	3.887442e-06	5.125740e-11	2.830366e+01	5.352331e+00
2.170000e-06	3.900421e-06	4.781776e-11	2.839816e+01	5.374945e+00
2.180000e-06	3.912751e-06	4.687503e-11	2.848792e+01	5.399700e+00
2.190000e-06	3.924290e-06	4.919308e-11	2.857194e+01	5.425899e+00
2.200000e-06	3.934985e-06	4.953118e-11	2.864981e+01	5.452710e+00
2.210000e-06	3.944697e-06	4.781617e-11	2.872052e+01	5.479245e+00
2.220000e-06	3.953418e-06	4.828345e-11	2.878401e+01	5.504634e+00
2.230000e-06	3.961386e-06	5.001238e-11	2.884203e+01	5.528102e+00
2.240000e-06	3.968804e-06	4.996194e-11	2.889603e+01	5.549029e+00
2.250000e-06	3.975623e-06	4.689428e-11	2.894568e+01	5.567001e+00
2.260000e-06	3.981742e-06	4.609005e-11	2.899024e+01	5.581838e+00
2.270000e-06	3.987195e-06	4.794887e-11	2.902993e+01	5.593597e+00
2.280000e-06	3.991950e-06	4.857654e-11	2.906455e+01	5.602561e+00
2.290000e-06	3.996071e-06	4.766150e-11	2.909456e+01	5.609201e+00
2.300000e-06	3.999738e-06	4.642024e-11	2.912126e+01	5.614121e+00
2.310000e-06	4.002798e-06	4.561771e-11	2.914354e+01	5.617993e+00
2.320000e-06	4.004958e-06	4.487280e-11	2.915926e+01	5.621483e+00
2.330000e-06	4.006085e-06	4.430716e-11	2.916747e+01	5.625174e+00
2.340000e-06	4.006329e-06	4.505947e-11	2.916925e+01	5.629496e+00
2.350000e-06	4.006002e-06	4.564239e-11	2.916686e+01	5.634673e+00
2.360000e-06	4.005149e-06	4.476830e-11	2.916065e+01	5.640677e+00
2.370000e-06	4.003683e-06	4.516473e-11	2.914998e+01	5.647208e+00
2.380000e-06	4.001557e-06	4.653979e-11	2.913450e+01	5.653703e+00
2.390000e-06	3.998760e-06	4.839889e-11	2.911414e+01	5.659358e+00
2.400000e-06	3.995352e-06	5.085742e-11	2.908933e+01	5.663179e+00
2.410000e-06	3.991413e-06	5.478537e-11	2.906065e+01	5.664052e+00
2.420000e-06	3.986989e-06	4.412967e-11	2.902844e+01	5.660829e+00
2.430000e-06	3.981932e-06	3.235535e-11	2.899162e+01	5.652412e+00
2.440000e-06	3.975824e-06	3.470611e-11	2.894715e+01	5.637856e+00
2.450000e-06	3.968499e-06	4.501536e-11	2.889382e+01	5.616451e+00
2.460000e-06	3.960394e-06	7.723398e-11	2.883481e+01	5.587797e+00
2.470000e-06	3.951966e-06	5.278681e-11	2.877345e+01	5.551866e+00
2.480000e-06	3.943066e-06	4.090911e-11	2.870864e+01	5.509032e+00
2.490000e-06	3.933336e-06	-8.243335e-13	2.863780e+01	5.460076e+00
2.500000e-06	3.922818e-06	4.118861e-11	2.856122e+01	5.406173e+00
2.510000e-06	3.911826e-06	6.242445e-11	2.848119e+01	5.348835e+00
2.520000e-06	3.900276e-06	4.331698e-11	2.839710e+01	5.289845e+00
2.530000e-06	3.887699e-06	6.002562e-11	2.830553e+01	5.231160e+00
2.540000e-06	3.874122e-06	7.246634e-11	2.820668e+01	5.174809e+00
2.550000e-06	3.859869e-06	8.276982e-11	2.810291e+01	5.122776e+00
2.560000e-06	3.844850e-06	8.003224e-11	2.799355e+01	5.076884e+00
2.570000e-06	3.828916e-06	1.232902e-10	2.787754e+01	5.038694e+00
2.580000e-06	3.812275e-06	6.204715e-11	2.775638e+01	5.009413e+00
2.590000e-06	3.795020e-06	4.506197e-11	2.763075e+01	4.989821e+00
2.600000e-06	3.777144e-06	1.011823e-10	2.750060e+01	4.980227e+00
2.610000e-06	3.758609e-06	1.089947e-10	2.736565e+01	4.980457e+00
2.620000e-06	3.739389e-06	1.159643e-10	2.722571e+01	4.989862e+00
2.630000e-06	3.719592e-06	1.865265e-10	2.708157e+01	5.007359e+00
2.640000e-06	3.699261e-06	1.329623e-10	2.693355e+01	5.031502e+00
2.650000e-06	3.678310e-06	-1.600240e-11	2.678101e+01	5.060560e+00
2.660000e-06	3.656676e-06	1.042455e-10	2.662350e+01	5.092624e+00
2.670000e-06	3.634268e-06	2.566009e-10	2.646035e+01	5.125712e+00
2.680000e-06	3.610992e-06	1.206318e-10	2.629088e+01	5.157878e+00
2.690000e-06	3.587020e-06	5.342141e-12	2.611635e+01	5.187313e+00
2.700000e-06	3.562509e-06	4.554436e-11	2.593789e+01	5.212433e+00
2.710000e-06	3.537398e-06	1.898258e-10	2.575506e+01	5.231949e+00
2.720000e-06	3.511635e-06	2.321817e-10	2.556748e+01	5.244917e+00
2.730000e-06	3.485272e-06	5.531958e-11	2.537554e+01	5.250757e+00
2.740000e-06	3.458359e-06	1.109622e-11	2.517959e+01	5.249255e+00
2.750000e-06	3.430896e-06	1.698192e-10	2.497964e+01	5.240539e+00
2.760000e-06	3.402963e-06	2.238832e-10	2.477627e+01	5.225031e+00
2.770000e-06	3.374604e-06	1.177207e-10	2.456979e+01	5.203389e+00
2.780000e-06	3.345672e-06	4.205284e-11	2.435914e+01	5.176434e+00
2.790000e-06	3.315932e-06	8.531818e-11	2.414261e+01	5.145074e+00
2.800000e-06	3.285183e-06	1.671398e-10	2.391873e+01	5.110229e+00
2.810000e-06	3.253615e-06	1.801190e-10	2.368890e+01	5.072762e+00
2.820000e-06	3.221566e-06	9.095683e-11	2.345555e+01	5.033424e+00
2.830000e-06	3.189011e-06	5.441521e-11	2.321853e+01	4.992806e+00
2.840000e-06	3.155948e-06	1.118705e-10	2.297780e+01	4.951319e+00
2.850000e-06	3.122443e-06	1.527429e-10	2.273386e+01	4.909188e+00
2.860000e-06	3.088443e-06	1.466858e-10	2.248631e+01	4.866455e+00
2.870000e-06	3.053891e-06	8.582795e-11	2.223475e+01	4.823014e+00
2.880000e-06	3.018777e-06	7.343044e-11	2.197909e+01	4.778639e+00
2.890000e-06	2.983192e-06	1.189317e-10	2.172000e+01	4.733038e+00
2.900000e-06	2.947226e-06	1.354250e-10	2.145814e+01	4.685897e+00
2.910000e-06	2.910900e-06	1.315069e-10	2.119366e+01	4.636929e+00
2.920000e-06	2.874102e-06	9.106131e-11	2.092574e+01	4.585917e+00
2.930000e-06	2.836625e-06	7.593319e-11	2.065288e+01	4.532746e+00
2.940000e-06	2.798328e-06	1.057147e-10	2.037404e+01	4.477423e+00
2.950000e-06	2.759261e-06	1.254365e-10	2.008960e+01	4.420089e+00
