# Temperatura_=_20.0
# Concentracion g/m^3_=_9000.0
# C_Vs_to_Am_M_A/Vsm_=_65563218390.804596
# pendiente_HvsI_1/m_=_3716.3
# ordenada_HvsI_A/m_=_1297.0
# frecuencia_Hz_=_212889.77331080343

Tiempo_(s)	Campo_(V.s)	Magnetizacion_(V.s)	Campo_(kA/m)	Magnetizacion_(A/m)
0.000000e+00	-5.292865e-06	-3.015649e-10	-1.667005e+00	-1.896566e+01
1.000000e-08	-5.292183e-06	-3.014555e-10	-1.666790e+00	-1.892850e+01
2.000000e-08	-5.290251e-06	-2.990103e-10	-1.666182e+00	-1.889017e+01
3.000000e-08	-5.287220e-06	-2.982873e-10	-1.665227e+00	-1.885318e+01
4.000000e-08	-5.283461e-06	-2.985908e-10	-1.664043e+00	-1.881994e+01
5.000000e-08	-5.278922e-06	-2.985355e-10	-1.662614e+00	-1.879253e+01
6.000000e-08	-5.273500e-06	-2.963699e-10	-1.660906e+00	-1.877250e+01
7.000000e-08	-5.267189e-06	-2.908781e-10	-1.658918e+00	-1.876069e+01
8.000000e-08	-5.260063e-06	-2.990993e-10	-1.656674e+00	-1.875704e+01
9.000000e-08	-5.252076e-06	-2.984887e-10	-1.654158e+00	-1.876052e+01
1.000000e-07	-5.242714e-06	-2.994482e-10	-1.651210e+00	-1.876906e+01
1.100000e-07	-5.231914e-06	-2.801222e-10	-1.647808e+00	-1.877962e+01
1.200000e-07	-5.220159e-06	-2.856515e-10	-1.644106e+00	-1.878829e+01
1.300000e-07	-5.207651e-06	-3.076221e-10	-1.640167e+00	-1.879040e+01
1.400000e-07	-5.194309e-06	-2.874604e-10	-1.635964e+00	-1.878084e+01
1.500000e-07	-5.180092e-06	-2.679745e-10	-1.631487e+00	-1.875427e+01
1.600000e-07	-5.164855e-06	-2.964775e-10	-1.626688e+00	-1.870547e+01
1.700000e-07	-5.148313e-06	-2.745485e-10	-1.621478e+00	-1.862963e+01
1.800000e-07	-5.130758e-06	-2.746357e-10	-1.615949e+00	-1.852270e+01
1.900000e-07	-5.112683e-06	-3.252017e-10	-1.610256e+00	-1.838165e+01
2.000000e-07	-5.093948e-06	-2.475927e-10	-1.604355e+00	-1.820474e+01
2.100000e-07	-5.074205e-06	-2.264639e-10	-1.598137e+00	-1.799164e+01
2.200000e-07	-5.053596e-06	-2.575890e-10	-1.591646e+00	-1.774358e+01
2.300000e-07	-5.032321e-06	-2.366737e-10	-1.584946e+00	-1.746331e+01
2.400000e-07	-5.010137e-06	-2.303937e-10	-1.577959e+00	-1.715506e+01
2.500000e-07	-4.987048e-06	-2.581121e-10	-1.570687e+00	-1.682436e+01
2.600000e-07	-4.963267e-06	-2.363136e-10	-1.563197e+00	-1.647781e+01
2.700000e-07	-4.938690e-06	-2.452114e-10	-1.555456e+00	-1.612275e+01
2.800000e-07	-4.913011e-06	-2.756520e-10	-1.547368e+00	-1.576691e+01
2.900000e-07	-4.886118e-06	-2.222663e-10	-1.538899e+00	-1.541808e+01
3.000000e-07	-4.858362e-06	-2.416298e-10	-1.530157e+00	-1.508368e+01
3.100000e-07	-4.829835e-06	-2.463175e-10	-1.521172e+00	-1.477043e+01
3.200000e-07	-4.800435e-06	-2.145186e-10	-1.511912e+00	-1.448402e+01
3.300000e-07	-4.770198e-06	-2.555933e-10	-1.502389e+00	-1.422887e+01
3.400000e-07	-4.739231e-06	-2.409558e-10	-1.492636e+00	-1.400792e+01
3.500000e-07	-4.707611e-06	-1.939117e-10	-1.482677e+00	-1.382256e+01
3.600000e-07	-4.675115e-06	-2.384699e-10	-1.472443e+00	-1.367263e+01
3.700000e-07	-4.641602e-06	-2.474251e-10	-1.461888e+00	-1.355646e+01
3.800000e-07	-4.607090e-06	-1.986363e-10	-1.451018e+00	-1.347105e+01
3.900000e-07	-4.571573e-06	-2.112094e-10	-1.439832e+00	-1.341231e+01
4.000000e-07	-4.535253e-06	-2.286120e-10	-1.428393e+00	-1.337533e+01
4.100000e-07	-4.498287e-06	-2.065341e-10	-1.416750e+00	-1.335467e+01
4.200000e-07	-4.460524e-06	-2.080961e-10	-1.404856e+00	-1.334475e+01
4.300000e-07	-4.421906e-06	-2.308471e-10	-1.392693e+00	-1.334010e+01
4.400000e-07	-4.382658e-06	-2.009417e-10	-1.380332e+00	-1.333572e+01
4.500000e-07	-4.342978e-06	-1.900773e-10	-1.367835e+00	-1.332727e+01
4.600000e-07	-4.302591e-06	-2.216415e-10	-1.355115e+00	-1.331129e+01
4.700000e-07	-4.261073e-06	-2.176420e-10	-1.342039e+00	-1.328533e+01
4.800000e-07	-4.218461e-06	-1.969398e-10	-1.328618e+00	-1.324797e+01
4.900000e-07	-4.175089e-06	-1.889157e-10	-1.314958e+00	-1.319884e+01
5.000000e-07	-4.131107e-06	-2.006550e-10	-1.301106e+00	-1.313848e+01
5.100000e-07	-4.086489e-06	-2.056692e-10	-1.287053e+00	-1.306824e+01
5.200000e-07	-4.041163e-06	-1.886796e-10	-1.272777e+00	-1.299007e+01
5.300000e-07	-3.995094e-06	-1.839220e-10	-1.258268e+00	-1.290629e+01
5.400000e-07	-3.948361e-06	-1.877027e-10	-1.243549e+00	-1.281939e+01
5.500000e-07	-3.901048e-06	-1.881938e-10	-1.228647e+00	-1.273179e+01
5.600000e-07	-3.853133e-06	-1.893039e-10	-1.213556e+00	-1.264563e+01
5.700000e-07	-3.804335e-06	-1.896237e-10	-1.198187e+00	-1.256261e+01
5.800000e-07	-3.754460e-06	-1.831859e-10	-1.182479e+00	-1.248387e+01
5.900000e-07	-3.703660e-06	-1.724492e-10	-1.166480e+00	-1.240992e+01
6.000000e-07	-3.652074e-06	-1.848896e-10	-1.150232e+00	-1.234060e+01
6.100000e-07	-3.599763e-06	-1.918795e-10	-1.133757e+00	-1.227516e+01
6.200000e-07	-3.546842e-06	-1.746723e-10	-1.117089e+00	-1.221228e+01
6.300000e-07	-3.493349e-06	-1.713542e-10	-1.100242e+00	-1.215026e+01
6.400000e-07	-3.439228e-06	-1.811707e-10	-1.083196e+00	-1.208710e+01
6.500000e-07	-3.384440e-06	-1.828823e-10	-1.065940e+00	-1.202072e+01
6.600000e-07	-3.329123e-06	-1.716367e-10	-1.048518e+00	-1.194909e+01
6.700000e-07	-3.273426e-06	-1.657873e-10	-1.030976e+00	-1.187039e+01
6.800000e-07	-3.217212e-06	-1.675960e-10	-1.013271e+00	-1.178316e+01
6.900000e-07	-3.160212e-06	-1.630344e-10	-9.953189e-01	-1.168637e+01
7.000000e-07	-3.102262e-06	-1.629101e-10	-9.770673e-01	-1.157950e+01
7.100000e-07	-3.043507e-06	-1.621708e-10	-9.585623e-01	-1.146254e+01
7.200000e-07	-2.984231e-06	-1.553953e-10	-9.398931e-01	-1.133600e+01
7.300000e-07	-2.924620e-06	-1.518200e-10	-9.211185e-01	-1.120083e+01
7.400000e-07	-2.864629e-06	-1.533237e-10	-9.022240e-01	-1.105834e+01
7.500000e-07	-2.804100e-06	-1.543737e-10	-8.831604e-01	-1.091008e+01
7.600000e-07	-2.743038e-06	-1.462214e-10	-8.639287e-01	-1.075771e+01
7.700000e-07	-2.681555e-06	-1.391157e-10	-8.445644e-01	-1.060291e+01
7.800000e-07	-2.619683e-06	-1.404520e-10	-8.250775e-01	-1.044719e+01
7.900000e-07	-2.557320e-06	-1.420539e-10	-8.054363e-01	-1.029186e+01
8.000000e-07	-2.494454e-06	-1.414504e-10	-7.856364e-01	-1.013790e+01
8.100000e-07	-2.431268e-06	-1.375021e-10	-7.657357e-01	-9.985927e+00
8.200000e-07	-2.367805e-06	-1.353202e-10	-7.457477e-01	-9.836162e+00
8.300000e-07	-2.303960e-06	-1.325315e-10	-7.256395e-01	-9.688460e+00
8.400000e-07	-2.239749e-06	-1.289252e-10	-7.054161e-01	-9.542333e+00
8.500000e-07	-2.175241e-06	-1.296010e-10	-6.850991e-01	-9.397018e+00
8.600000e-07	-2.110423e-06	-1.240463e-10	-6.646846e-01	-9.251559e+00
8.700000e-07	-2.045048e-06	-1.153715e-10	-6.440944e-01	-9.104890e+00
8.800000e-07	-1.979064e-06	-1.122054e-10	-6.233124e-01	-8.955930e+00
8.900000e-07	-1.912652e-06	-1.140884e-10	-6.023959e-01	-8.803662e+00
9.000000e-07	-1.845901e-06	-1.144470e-10	-5.813724e-01	-8.647206e+00
9.100000e-07	-1.778833e-06	-1.083878e-10	-5.602491e-01	-8.485862e+00
9.200000e-07	-1.711488e-06	-1.056374e-10	-5.390386e-01	-8.319144e+00
9.300000e-07	-1.643945e-06	-1.069014e-10	-5.177657e-01	-8.146774e+00
9.400000e-07	-1.576244e-06	-1.063601e-10	-4.964430e-01	-7.968666e+00
9.500000e-07	-1.508342e-06	-1.037409e-10	-4.750572e-01	-7.784881e+00
9.600000e-07	-1.440181e-06	-9.557003e-11	-4.535898e-01	-7.595566e+00
9.700000e-07	-1.371764e-06	-9.043004e-11	-4.320414e-01	-7.400893e+00
9.800000e-07	-1.303098e-06	-9.014019e-11	-4.104150e-01	-7.200978e+00
9.900000e-07	-1.234241e-06	-9.023373e-11	-3.887281e-01	-6.995821e+00
1.000000e-06	-1.165130e-06	-8.850084e-11	-3.669615e-01	-6.785245e+00
1.010000e-06	-1.095695e-06	-8.291111e-11	-3.450926e-01	-6.568858e+00
1.020000e-06	-1.026029e-06	-8.043534e-11	-3.231512e-01	-6.346027e+00
1.030000e-06	-9.562219e-07	-7.973924e-11	-3.011652e-01	-6.115885e+00
1.040000e-06	-8.862265e-07	-7.741784e-11	-2.791199e-01	-5.877352e+00
1.050000e-06	-8.159669e-07	-7.064829e-11	-2.569914e-01	-5.629182e+00
1.060000e-06	-7.455023e-07	-6.103695e-11	-2.347984e-01	-5.370021e+00
1.070000e-06	-6.749705e-07	-5.366048e-11	-2.125841e-01	-5.098487e+00
1.080000e-06	-6.043631e-07	-4.776953e-11	-1.903461e-01	-4.813244e+00
1.090000e-06	-5.335775e-07	-4.190465e-11	-1.680520e-01	-4.513091e+00
1.100000e-06	-4.626676e-07	-3.463888e-11	-1.457187e-01	-4.197026e+00
1.110000e-06	-3.917258e-07	-2.665274e-11	-1.233753e-01	-3.864312e+00
1.120000e-06	-3.207576e-07	-2.296415e-11	-1.010236e-01	-3.514520e+00
1.130000e-06	-2.496932e-07	-2.047155e-11	-7.864168e-02	-3.147551e+00
1.140000e-06	-1.786016e-07	-1.450831e-11	-5.625114e-02	-2.763638e+00
1.150000e-06	-1.075632e-07	-6.127260e-12	-3.387739e-02	-2.363323e+00
1.160000e-06	-3.652504e-08	1.313114e-12	-1.150368e-02	-1.947424e+00
1.170000e-06	3.446901e-08	4.802134e-12	1.085613e-02	-1.516975e+00
1.180000e-06	1.054975e-07	1.127896e-11	3.322678e-02	-1.073167e+00
1.190000e-06	1.765835e-07	2.196588e-11	5.561554e-02	-6.172800e-01
1.200000e-06	2.475709e-07	3.160325e-11	7.797326e-02	-1.506212e-01
1.210000e-06	3.184095e-07	3.751498e-11	1.002841e-01	3.255327e-01
1.220000e-06	3.891441e-07	4.087910e-11	1.225622e-01	8.099754e-01
1.230000e-06	4.598317e-07	4.698506e-11	1.448255e-01	1.301595e+00
1.240000e-06	5.304453e-07	5.467604e-11	1.670655e-01	1.799380e+00
1.250000e-06	6.009291e-07	6.386843e-11	1.892646e-01	2.302404e+00
1.260000e-06	6.712628e-07	7.542944e-11	2.114164e-01	2.809794e+00
1.270000e-06	7.414466e-07	8.461570e-11	2.335210e-01	3.320687e+00
1.280000e-06	8.115177e-07	9.451198e-11	2.555901e-01	3.834173e+00
1.290000e-06	8.814925e-07	1.032461e-10	2.776289e-01	4.349241e+00
1.300000e-06	9.512921e-07	1.121725e-10	2.996125e-01	4.864726e+00
1.310000e-06	1.020913e-06	1.197892e-10	3.215400e-01	5.379266e+00
1.320000e-06	1.090406e-06	1.249256e-10	3.434270e-01	5.891280e+00
1.330000e-06	1.159688e-06	1.312790e-10	3.652476e-01	6.398959e+00
1.340000e-06	1.228731e-06	1.398034e-10	3.869927e-01	6.900291e+00
1.350000e-06	1.297568e-06	1.478203e-10	4.086731e-01	7.393098e+00
1.360000e-06	1.366177e-06	1.548040e-10	4.302818e-01	7.875110e+00
1.370000e-06	1.434556e-06	1.635514e-10	4.518180e-01	8.344049e+00
1.380000e-06	1.502692e-06	1.707500e-10	4.732777e-01	8.797726e+00
1.390000e-06	1.570599e-06	1.759387e-10	4.946652e-01	9.234155e+00
1.400000e-06	1.638319e-06	1.807399e-10	5.159939e-01	9.651657e+00
1.410000e-06	1.705863e-06	1.859817e-10	5.372671e-01	1.004896e+01
1.420000e-06	1.773219e-06	1.900562e-10	5.584810e-01	1.042526e+01
1.430000e-06	1.840339e-06	1.952703e-10	5.796207e-01	1.078033e+01
1.440000e-06	1.907089e-06	2.009632e-10	6.006437e-01	1.111446e+01
1.450000e-06	1.973449e-06	2.076557e-10	6.215440e-01	1.142853e+01
1.460000e-06	2.039408e-06	2.132438e-10	6.423182e-01	1.172393e+01
1.470000e-06	2.104760e-06	2.155118e-10	6.629008e-01	1.200246e+01
1.480000e-06	2.169526e-06	2.167377e-10	6.832992e-01	1.226626e+01
1.490000e-06	2.233860e-06	2.195889e-10	7.035614e-01	1.251770e+01
1.500000e-06	2.297815e-06	2.236662e-10	7.237043e-01	1.275915e+01
1.510000e-06	2.361443e-06	2.270836e-10	7.437439e-01	1.299293e+01
1.520000e-06	2.424737e-06	2.305176e-10	7.636789e-01	1.322111e+01
1.530000e-06	2.487698e-06	2.354834e-10	7.835084e-01	1.344542e+01
1.540000e-06	2.550226e-06	2.409273e-10	8.032019e-01	1.366709e+01
1.550000e-06	2.612269e-06	2.432329e-10	8.227427e-01	1.388687e+01
1.560000e-06	2.673900e-06	2.443798e-10	8.421535e-01	1.410492e+01
1.570000e-06	2.735101e-06	2.476195e-10	8.614288e-01	1.432085e+01
1.580000e-06	2.795829e-06	2.518928e-10	8.805553e-01	1.453378e+01
1.590000e-06	2.856067e-06	2.559751e-10	8.995273e-01	1.474243e+01
1.600000e-06	2.915861e-06	2.584682e-10	9.183599e-01	1.494519e+01
1.610000e-06	2.975228e-06	2.608167e-10	9.370578e-01	1.514031e+01
1.620000e-06	3.034111e-06	2.653748e-10	9.556030e-01	1.532604e+01
1.630000e-06	3.092385e-06	2.696036e-10	9.739565e-01	1.550073e+01
1.640000e-06	3.149852e-06	2.719918e-10	9.920559e-01	1.566306e+01
1.650000e-06	3.206487e-06	2.738977e-10	1.009893e+00	1.581207e+01
1.660000e-06	3.262432e-06	2.764380e-10	1.027514e+00	1.594730e+01
1.670000e-06	3.317913e-06	2.782905e-10	1.044987e+00	1.606882e+01
1.680000e-06	3.372995e-06	2.793657e-10	1.062336e+00	1.617728e+01
1.690000e-06	3.427506e-06	2.799470e-10	1.079504e+00	1.627380e+01
1.700000e-06	3.481402e-06	2.797850e-10	1.096479e+00	1.635997e+01
1.710000e-06	3.534751e-06	2.801420e-10	1.113281e+00	1.643774e+01
1.720000e-06	3.587450e-06	2.814122e-10	1.129879e+00	1.650924e+01
1.730000e-06	3.639533e-06	2.834102e-10	1.146283e+00	1.657668e+01
1.740000e-06	3.690949e-06	2.864889e-10	1.162476e+00	1.664219e+01
1.750000e-06	3.741468e-06	2.908184e-10	1.178387e+00	1.670766e+01
1.760000e-06	3.791035e-06	2.946813e-10	1.193999e+00	1.677461e+01
1.770000e-06	3.839755e-06	2.969539e-10	1.209343e+00	1.684412e+01
1.780000e-06	3.887720e-06	2.984614e-10	1.224450e+00	1.691673e+01
1.790000e-06	3.935030e-06	2.997113e-10	1.239350e+00	1.699243e+01
1.800000e-06	3.981790e-06	3.014040e-10	1.254078e+00	1.707066e+01
1.810000e-06	4.027828e-06	3.037254e-10	1.268577e+00	1.715042e+01
1.820000e-06	4.073128e-06	3.049313e-10	1.282845e+00	1.723028e+01
1.830000e-06	4.117779e-06	3.073356e-10	1.296908e+00	1.730859e+01
1.840000e-06	4.161798e-06	3.115899e-10	1.310772e+00	1.738355e+01
1.850000e-06	4.205226e-06	3.141610e-10	1.324449e+00	1.745342e+01
1.860000e-06	4.247956e-06	3.143796e-10	1.337907e+00	1.751664e+01
1.870000e-06	4.289770e-06	3.154327e-10	1.351077e+00	1.757197e+01
1.880000e-06	4.330507e-06	3.173532e-10	1.363907e+00	1.761858e+01
1.890000e-06	4.370347e-06	3.176327e-10	1.376455e+00	1.765619e+01
1.900000e-06	4.409544e-06	3.158767e-10	1.388800e+00	1.768502e+01
1.910000e-06	4.448072e-06	3.147773e-10	1.400935e+00	1.770587e+01
1.920000e-06	4.485878e-06	3.164868e-10	1.412842e+00	1.772003e+01
1.930000e-06	4.522904e-06	3.190470e-10	1.424503e+00	1.772918e+01
1.940000e-06	4.559152e-06	3.212582e-10	1.435920e+00	1.773533e+01
1.950000e-06	4.594757e-06	3.220014e-10	1.447133e+00	1.774065e+01
1.960000e-06	4.629674e-06	3.237673e-10	1.458131e+00	1.774732e+01
1.970000e-06	4.663587e-06	3.247855e-10	1.468812e+00	1.775737e+01
1.980000e-06	4.696376e-06	3.240744e-10	1.479139e+00	1.777258e+01
1.990000e-06	4.728258e-06	3.233199e-10	1.489180e+00	1.779435e+01
2.000000e-06	4.759437e-06	3.224692e-10	1.499000e+00	1.782357e+01
2.010000e-06	4.789859e-06	3.224996e-10	1.508582e+00	1.786063e+01
2.020000e-06	4.819421e-06	3.237813e-10	1.517892e+00	1.790537e+01
2.030000e-06	4.848221e-06	3.266458e-10	1.526963e+00	1.795716e+01
2.040000e-06	4.876340e-06	3.291139e-10	1.535819e+00	1.801488e+01
2.050000e-06	4.903766e-06	3.308481e-10	1.544457e+00	1.807711e+01
2.060000e-06	4.930334e-06	3.320510e-10	1.552824e+00	1.814220e+01
2.070000e-06	4.955715e-06	3.317593e-10	1.560818e+00	1.820841e+01
2.080000e-06	4.979989e-06	3.306311e-10	1.568464e+00	1.827408e+01
2.090000e-06	5.003405e-06	3.303720e-10	1.575838e+00	1.833770e+01
2.100000e-06	5.026002e-06	3.309617e-10	1.582955e+00	1.839807e+01
2.110000e-06	5.047792e-06	3.309693e-10	1.589818e+00	1.845433e+01
2.120000e-06	5.068756e-06	3.309722e-10	1.596421e+00	1.850605e+01
2.130000e-06	5.088974e-06	3.321812e-10	1.602789e+00	1.855319e+01
2.140000e-06	5.108561e-06	3.337869e-10	1.608958e+00	1.859613e+01
2.150000e-06	5.127380e-06	3.347867e-10	1.614885e+00	1.863552e+01
2.160000e-06	5.145213e-06	3.341309e-10	1.620501e+00	1.867227e+01
2.170000e-06	5.162099e-06	3.347846e-10	1.625820e+00	1.870736e+01
2.180000e-06	5.178078e-06	3.377797e-10	1.630852e+00	1.874178e+01
2.190000e-06	5.193003e-06	3.381037e-10	1.635553e+00	1.877637e+01
2.200000e-06	5.206869e-06	3.364524e-10	1.639920e+00	1.881171e+01
2.210000e-06	5.219824e-06	3.369347e-10	1.644000e+00	1.884805e+01
2.220000e-06	5.231938e-06	3.387779e-10	1.647816e+00	1.888527e+01
2.230000e-06	5.243083e-06	3.399441e-10	1.651326e+00	1.892283e+01
2.240000e-06	5.252928e-06	3.397592e-10	1.654427e+00	1.895980e+01
2.250000e-06	5.261445e-06	3.394630e-10	1.657109e+00	1.899495e+01
2.260000e-06	5.269030e-06	3.392100e-10	1.659498e+00	1.902684e+01
2.270000e-06	5.275834e-06	3.395826e-10	1.661641e+00	1.905392e+01
2.280000e-06	5.281751e-06	3.378196e-10	1.663505e+00	1.907469e+01
2.290000e-06	5.286731e-06	3.346520e-10	1.665073e+00	1.908787e+01
2.300000e-06	5.290863e-06	3.345756e-10	1.666374e+00	1.909249e+01
2.310000e-06	5.294252e-06	3.356804e-10	1.667442e+00	1.908808e+01
2.320000e-06	5.296683e-06	3.362019e-10	1.668207e+00	1.907466e+01
2.330000e-06	5.297891e-06	3.353970e-10	1.668588e+00	1.905289e+01
2.340000e-06	5.298025e-06	3.357971e-10	1.668630e+00	1.902398e+01
2.350000e-06	5.297331e-06	3.375389e-10	1.668411e+00	1.898968e+01
2.360000e-06	5.295816e-06	3.385671e-10	1.667934e+00	1.895214e+01
2.370000e-06	5.293494e-06	3.380819e-10	1.667203e+00	1.891381e+01
2.380000e-06	5.290350e-06	3.377616e-10	1.666213e+00	1.887719e+01
2.390000e-06	5.286444e-06	3.400803e-10	1.664982e+00	1.884465e+01
2.400000e-06	5.281852e-06	3.418343e-10	1.663536e+00	1.881822e+01
2.410000e-06	5.276386e-06	3.450062e-10	1.661815e+00	1.879935e+01
2.420000e-06	5.269787e-06	3.432766e-10	1.659736e+00	1.878875e+01
2.430000e-06	5.262071e-06	3.400480e-10	1.657306e+00	1.878621e+01
2.440000e-06	5.253375e-06	3.481933e-10	1.654567e+00	1.879056e+01
2.450000e-06	5.243459e-06	3.497722e-10	1.651444e+00	1.879958e+01
2.460000e-06	5.232295e-06	3.459505e-10	1.647928e+00	1.881009e+01
2.470000e-06	5.220519e-06	3.148668e-10	1.644219e+00	1.881803e+01
2.480000e-06	5.208463e-06	3.158059e-10	1.640422e+00	1.881869e+01
2.490000e-06	5.195342e-06	3.732932e-10	1.636290e+00	1.880687e+01
2.500000e-06	5.180508e-06	3.167238e-10	1.631618e+00	1.877725e+01
2.510000e-06	5.164747e-06	3.545591e-10	1.626654e+00	1.872464e+01
2.520000e-06	5.148515e-06	3.706575e-10	1.621541e+00	1.864432e+01
2.530000e-06	5.131251e-06	2.983041e-10	1.616104e+00	1.853240e+01
2.540000e-06	5.113022e-06	3.797661e-10	1.610363e+00	1.838601e+01
2.550000e-06	5.094249e-06	4.286503e-10	1.604450e+00	1.820361e+01
2.560000e-06	5.074773e-06	3.698770e-10	1.598316e+00	1.798510e+01
2.570000e-06	5.054392e-06	3.597310e-10	1.591897e+00	1.773195e+01
2.580000e-06	5.032962e-06	3.944020e-10	1.585148e+00	1.744713e+01
2.590000e-06	5.010290e-06	2.944555e-10	1.578007e+00	1.713509e+01
2.600000e-06	4.986560e-06	2.689812e-10	1.570533e+00	1.680153e+01
2.610000e-06	4.961899e-06	2.460514e-10	1.562766e+00	1.645318e+01
2.620000e-06	4.936383e-06	1.326943e-10	1.554730e+00	1.609746e+01
2.630000e-06	4.910238e-06	1.862862e-10	1.546495e+00	1.574214e+01
2.640000e-06	4.883331e-06	1.987007e-10	1.538021e+00	1.539497e+01
2.650000e-06	4.855538e-06	1.441801e-10	1.529267e+00	1.506329e+01
2.660000e-06	4.827021e-06	1.914274e-10	1.520286e+00	1.475369e+01
2.670000e-06	4.797507e-06	1.383000e-10	1.510990e+00	1.447167e+01
2.680000e-06	4.766642e-06	1.300553e-10	1.501269e+00	1.422145e+01
2.690000e-06	4.734784e-06	2.144706e-10	1.491236e+00	1.400575e+01
2.700000e-06	4.702289e-06	1.362807e-10	1.481001e+00	1.382571e+01
2.710000e-06	4.668991e-06	1.094871e-10	1.470514e+00	1.368094e+01
2.720000e-06	4.634813e-06	1.721258e-10	1.459749e+00	1.356956e+01
2.730000e-06	4.599967e-06	1.412097e-10	1.448774e+00	1.348840e+01
2.740000e-06	4.564509e-06	1.333327e-10	1.437607e+00	1.343320e+01
2.750000e-06	4.528355e-06	1.492147e-10	1.426220e+00	1.339897e+01
2.760000e-06	4.491441e-06	1.379907e-10	1.414594e+00	1.338024e+01
2.770000e-06	4.453569e-06	1.181273e-10	1.402666e+00	1.337141e+01
2.780000e-06	4.414572e-06	1.259788e-10	1.390384e+00	1.336706e+01
2.790000e-06	4.374629e-06	1.668322e-10	1.377804e+00	1.336228e+01
2.800000e-06	4.334039e-06	1.311781e-10	1.365020e+00	1.335285e+01
2.810000e-06	4.292840e-06	9.955945e-11	1.352044e+00	1.333547e+01
2.820000e-06	4.250887e-06	1.347177e-10	1.338830e+00	1.330781e+01
2.830000e-06	4.208187e-06	1.496864e-10	1.325382e+00	1.326865e+01
2.840000e-06	4.164854e-06	1.372984e-10	1.311734e+00	1.321773e+01
2.850000e-06	4.120988e-06	1.144505e-10	1.297918e+00	1.315574e+01
2.860000e-06	4.076662e-06	1.274325e-10	1.283958e+00	1.308413e+01
2.870000e-06	4.031725e-06	1.416539e-10	1.269805e+00	1.300492e+01
2.880000e-06	3.985993e-06	1.224704e-10	1.255401e+00	1.292047e+01
2.890000e-06	3.939420e-06	1.380658e-10	1.240733e+00	1.283327e+01
2.900000e-06	3.892189e-06	1.371530e-10	1.225858e+00	1.274571e+01
2.910000e-06	3.844442e-06	1.179217e-10	1.210819e+00	1.265988e+01
2.920000e-06	3.795915e-06	1.320414e-10	1.195535e+00	1.257740e+01
2.930000e-06	3.746447e-06	1.473461e-10	1.179955e+00	1.249932e+01
2.940000e-06	3.696259e-06	1.360659e-10	1.164149e+00	1.242605e+01
2.950000e-06	3.645496e-06	1.096710e-10	1.148161e+00	1.235733e+01
