# Temperatura_=_20.0
# Concentracion g/m^3_=_9000.0
# C_Vs_to_Am_M_A/Vsm_=_65563218390.804596
# pendiente_HvsI_1/m_=_3716.3
# ordenada_HvsI_A/m_=_1297.0
# frecuencia_Hz_=_212892.29225354068

Tiempo_(s)	Campo_(V.s)	Magnetizacion_(V.s)	Campo_(kA/m)	Magnetizacion_(A/m)
0.000000e+00	-5.279376e-06	-3.941731e-09	-1.666478e+00	-2.609094e+02
1.000000e-08	-5.278772e-06	-3.941065e-09	-1.666288e+00	-2.608907e+02
2.000000e-08	-5.276970e-06	-3.939974e-09	-1.665719e+00	-2.608542e+02
3.000000e-08	-5.273998e-06	-3.938025e-09	-1.664781e+00	-2.608001e+02
4.000000e-08	-5.270218e-06	-3.936892e-09	-1.663588e+00	-2.607292e+02
5.000000e-08	-5.265684e-06	-3.937206e-09	-1.662157e+00	-2.606422e+02
6.000000e-08	-5.260331e-06	-3.936076e-09	-1.660467e+00	-2.605405e+02
7.000000e-08	-5.254153e-06	-3.933975e-09	-1.658517e+00	-2.604253e+02
8.000000e-08	-5.247140e-06	-3.932975e-09	-1.656303e+00	-2.602983e+02
9.000000e-08	-5.239211e-06	-3.937639e-09	-1.653800e+00	-2.601610e+02
1.000000e-07	-5.229962e-06	-3.972245e-09	-1.650881e+00	-2.600149e+02
1.100000e-07	-5.219303e-06	-3.977876e-09	-1.647516e+00	-2.598612e+02
1.200000e-07	-5.207655e-06	-3.948967e-09	-1.643839e+00	-2.597011e+02
1.300000e-07	-5.195226e-06	-3.853994e-09	-1.639916e+00	-2.595350e+02
1.400000e-07	-5.181937e-06	-3.859056e-09	-1.635721e+00	-2.593633e+02
1.500000e-07	-5.167732e-06	-4.020174e-09	-1.631237e+00	-2.591855e+02
1.600000e-07	-5.152620e-06	-3.940905e-09	-1.626467e+00	-2.590008e+02
1.700000e-07	-5.136276e-06	-3.864038e-09	-1.621308e+00	-2.588076e+02
1.800000e-07	-5.118783e-06	-3.908184e-09	-1.615786e+00	-2.586040e+02
1.900000e-07	-5.100809e-06	-3.888564e-09	-1.610112e+00	-2.583877e+02
2.000000e-07	-5.082306e-06	-3.920700e-09	-1.604272e+00	-2.581560e+02
2.100000e-07	-5.062716e-06	-4.004252e-09	-1.598088e+00	-2.579060e+02
2.200000e-07	-5.042181e-06	-3.888711e-09	-1.591606e+00	-2.576347e+02
2.300000e-07	-5.021038e-06	-3.814464e-09	-1.584932e+00	-2.573394e+02
2.400000e-07	-4.999065e-06	-4.042759e-09	-1.577996e+00	-2.570175e+02
2.500000e-07	-4.976136e-06	-4.029695e-09	-1.570758e+00	-2.566670e+02
2.600000e-07	-4.952384e-06	-3.877164e-09	-1.563261e+00	-2.562863e+02
2.700000e-07	-4.927782e-06	-3.910956e-09	-1.555495e+00	-2.558745e+02
2.800000e-07	-4.902183e-06	-3.969918e-09	-1.547415e+00	-2.554314e+02
2.900000e-07	-4.875512e-06	-3.972804e-09	-1.538996e+00	-2.549575e+02
3.000000e-07	-4.847865e-06	-3.956984e-09	-1.530269e+00	-2.544540e+02
3.100000e-07	-4.819408e-06	-3.884473e-09	-1.521286e+00	-2.539226e+02
3.200000e-07	-4.790083e-06	-3.860500e-09	-1.512029e+00	-2.533659e+02
3.300000e-07	-4.759855e-06	-3.934182e-09	-1.502487e+00	-2.527864e+02
3.400000e-07	-4.728914e-06	-3.931623e-09	-1.492721e+00	-2.521872e+02
3.500000e-07	-4.697305e-06	-3.873923e-09	-1.482743e+00	-2.515712e+02
3.600000e-07	-4.664855e-06	-3.829071e-09	-1.472500e+00	-2.509413e+02
3.700000e-07	-4.631507e-06	-3.840875e-09	-1.461973e+00	-2.503000e+02
3.800000e-07	-4.597261e-06	-3.900168e-09	-1.451163e+00	-2.496494e+02
3.900000e-07	-4.561995e-06	-3.882207e-09	-1.440031e+00	-2.489908e+02
4.000000e-07	-4.525853e-06	-3.779274e-09	-1.428623e+00	-2.483251e+02
4.100000e-07	-4.489095e-06	-3.783164e-09	-1.417020e+00	-2.476523e+02
4.200000e-07	-4.451576e-06	-3.866855e-09	-1.405177e+00	-2.469717e+02
4.300000e-07	-4.413120e-06	-3.837679e-09	-1.393038e+00	-2.462819e+02
4.400000e-07	-4.373888e-06	-3.752094e-09	-1.380654e+00	-2.455809e+02
4.500000e-07	-4.334104e-06	-3.752649e-09	-1.368095e+00	-2.448662e+02
4.600000e-07	-4.293758e-06	-3.785710e-09	-1.355360e+00	-2.441350e+02
4.700000e-07	-4.252535e-06	-3.772308e-09	-1.342348e+00	-2.433844e+02
4.800000e-07	-4.210159e-06	-3.742056e-09	-1.328971e+00	-2.426113e+02
4.900000e-07	-4.166874e-06	-3.704471e-09	-1.315308e+00	-2.418130e+02
5.000000e-07	-4.123022e-06	-3.693824e-09	-1.301466e+00	-2.409869e+02
5.100000e-07	-4.078595e-06	-3.717721e-09	-1.287442e+00	-2.401309e+02
5.200000e-07	-4.033527e-06	-3.695898e-09	-1.273216e+00	-2.392436e+02
5.300000e-07	-3.987721e-06	-3.645768e-09	-1.258757e+00	-2.383240e+02
5.400000e-07	-3.941169e-06	-3.632325e-09	-1.244062e+00	-2.373716e+02
5.500000e-07	-3.894066e-06	-3.639653e-09	-1.229194e+00	-2.363866e+02
5.600000e-07	-3.846362e-06	-3.635492e-09	-1.214136e+00	-2.353696e+02
5.700000e-07	-3.797859e-06	-3.603425e-09	-1.198826e+00	-2.343214e+02
5.800000e-07	-3.748415e-06	-3.563971e-09	-1.183218e+00	-2.332433e+02
5.900000e-07	-3.698006e-06	-3.556666e-09	-1.167306e+00	-2.321364e+02
6.000000e-07	-3.646710e-06	-3.570511e-09	-1.151114e+00	-2.310019e+02
6.100000e-07	-3.594623e-06	-3.541042e-09	-1.134672e+00	-2.298407e+02
6.200000e-07	-3.541827e-06	-3.490950e-09	-1.118007e+00	-2.286534e+02
6.300000e-07	-3.488344e-06	-3.492358e-09	-1.101124e+00	-2.274403e+02
6.400000e-07	-3.434277e-06	-3.494257e-09	-1.084058e+00	-2.262009e+02
6.500000e-07	-3.379653e-06	-3.458042e-09	-1.066815e+00	-2.249347e+02
6.600000e-07	-3.324536e-06	-3.426080e-09	-1.049417e+00	-2.236402e+02
6.700000e-07	-3.268984e-06	-3.407015e-09	-1.031882e+00	-2.223159e+02
6.800000e-07	-3.212923e-06	-3.389600e-09	-1.014186e+00	-2.209598e+02
6.900000e-07	-3.156198e-06	-3.369280e-09	-9.962799e-01	-2.195697e+02
7.000000e-07	-3.098525e-06	-3.342094e-09	-9.780751e-01	-2.181432e+02
7.100000e-07	-3.039943e-06	-3.310244e-09	-9.595831e-01	-2.166780e+02
7.200000e-07	-2.980814e-06	-3.286675e-09	-9.409184e-01	-2.151721e+02
7.300000e-07	-2.921330e-06	-3.275668e-09	-9.221418e-01	-2.136234e+02
7.400000e-07	-2.861392e-06	-3.248766e-09	-9.032221e-01	-2.120304e+02
7.500000e-07	-2.800945e-06	-3.210016e-09	-8.841414e-01	-2.103919e+02
7.600000e-07	-2.740030e-06	-3.187864e-09	-8.649129e-01	-2.087070e+02
7.700000e-07	-2.678682e-06	-3.170780e-09	-8.455482e-01	-2.069751e+02
7.800000e-07	-2.616936e-06	-3.140766e-09	-8.260573e-01	-2.051959e+02
7.900000e-07	-2.554763e-06	-3.100174e-09	-8.064321e-01	-2.033692e+02
8.000000e-07	-2.492159e-06	-3.070830e-09	-7.866707e-01	-2.014951e+02
8.100000e-07	-2.429158e-06	-3.053546e-09	-7.667836e-01	-1.995732e+02
8.200000e-07	-2.365821e-06	-3.025876e-09	-7.467907e-01	-1.976031e+02
8.300000e-07	-2.302133e-06	-2.984407e-09	-7.266873e-01	-1.955840e+02
8.400000e-07	-2.238089e-06	-2.945795e-09	-7.064714e-01	-1.935147e+02
8.500000e-07	-2.173774e-06	-2.922558e-09	-6.861696e-01	-1.913932e+02
8.600000e-07	-2.109131e-06	-2.894475e-09	-6.657644e-01	-1.892171e+02
8.700000e-07	-2.043990e-06	-2.850506e-09	-6.452023e-01	-1.869832e+02
8.800000e-07	-1.978260e-06	-2.806712e-09	-6.244541e-01	-1.846877e+02
8.900000e-07	-1.912028e-06	-2.769032e-09	-6.035473e-01	-1.823263e+02
9.000000e-07	-1.845483e-06	-2.737392e-09	-5.825418e-01	-1.798943e+02
9.100000e-07	-1.778596e-06	-2.700222e-09	-5.614286e-01	-1.773864e+02
9.200000e-07	-1.711366e-06	-2.652385e-09	-5.402068e-01	-1.747973e+02
9.300000e-07	-1.643902e-06	-2.609186e-09	-5.189113e-01	-1.721213e+02
9.400000e-07	-1.576273e-06	-2.574285e-09	-4.975634e-01	-1.693530e+02
9.500000e-07	-1.508495e-06	-2.534995e-09	-4.761688e-01	-1.664869e+02
9.600000e-07	-1.440482e-06	-2.479016e-09	-4.546999e-01	-1.635176e+02
9.700000e-07	-1.372208e-06	-2.421402e-09	-4.331488e-01	-1.604400e+02
9.800000e-07	-1.303721e-06	-2.376578e-09	-4.115303e-01	-1.572489e+02
9.900000e-07	-1.235070e-06	-2.330951e-09	-3.898601e-01	-1.539392e+02
1.000000e-06	-1.166184e-06	-2.276838e-09	-3.681155e-01	-1.505059e+02
1.010000e-06	-1.096975e-06	-2.215539e-09	-3.462693e-01	-1.469434e+02
1.020000e-06	-1.027487e-06	-2.157359e-09	-3.243348e-01	-1.432459e+02
1.030000e-06	-9.578345e-07	-2.105109e-09	-3.023484e-01	-1.394070e+02
1.040000e-06	-8.880388e-07	-2.048212e-09	-2.803168e-01	-1.354195e+02
1.050000e-06	-8.180692e-07	-1.983470e-09	-2.582303e-01	-1.312753e+02
1.060000e-06	-7.479609e-07	-1.911195e-09	-2.361000e-01	-1.269652e+02
1.070000e-06	-6.777100e-07	-1.839471e-09	-2.139247e-01	-1.224792e+02
1.080000e-06	-6.073094e-07	-1.769122e-09	-1.917022e-01	-1.178062e+02
1.090000e-06	-5.367660e-07	-1.690963e-09	-1.694346e-01	-1.129343e+02
1.100000e-06	-4.660544e-07	-1.606422e-09	-1.471139e-01	-1.078514e+02
1.110000e-06	-3.952766e-07	-1.520703e-09	-1.247723e-01	-1.025447e+02
1.120000e-06	-3.245066e-07	-1.438561e-09	-1.024332e-01	-9.700207e+01
1.130000e-06	-2.537147e-07	-1.355426e-09	-8.008714e-02	-9.121196e+01
1.140000e-06	-1.828804e-07	-1.264120e-09	-5.772770e-02	-8.516421e+01
1.150000e-06	-1.119756e-07	-1.165729e-09	-3.534602e-02	-7.885062e+01
1.160000e-06	-4.104519e-08	-1.064496e-09	-1.295625e-02	-7.226554e+01
1.170000e-06	2.985291e-08	-9.616999e-10	9.423317e-03	-6.540652e+01
1.180000e-06	1.006754e-07	-8.540236e-10	3.177901e-02	-5.827478e+01
1.190000e-06	1.714389e-07	-7.405132e-10	5.411611e-02	-5.087569e+01
1.200000e-06	2.421867e-07	-6.236342e-10	7.644821e-02	-4.321916e+01
1.210000e-06	3.128988e-07	-5.016040e-10	9.876907e-02	-3.531978e+01
1.220000e-06	3.835252e-07	-3.787480e-10	1.210629e-01	-2.719692e+01
1.230000e-06	4.540186e-07	-2.565006e-10	1.433147e-01	-1.887465e+01
1.240000e-06	5.244319e-07	-1.282293e-10	1.655413e-01	-1.038141e+01
1.250000e-06	5.947473e-07	1.788828e-12	1.877369e-01	-1.749628e+00
1.260000e-06	6.649142e-07	1.327261e-10	2.098856e-01	6.984881e+00
1.270000e-06	7.349717e-07	2.673527e-10	2.319999e-01	1.578362e+01
1.280000e-06	8.048918e-07	4.059836e-10	2.540707e-01	2.460623e+01
1.290000e-06	8.746762e-07	5.430148e-10	2.760987e-01	3.341139e+01
1.300000e-06	9.442947e-07	6.774995e-10	2.980744e-01	4.215773e+01
1.310000e-06	1.013706e-06	8.105902e-10	3.199846e-01	5.080477e+01
1.320000e-06	1.082942e-06	9.395579e-10	3.418395e-01	5.931387e+01
1.330000e-06	1.151971e-06	1.066910e-09	3.636290e-01	6.764901e+01
1.340000e-06	1.220817e-06	1.191154e-09	3.853609e-01	7.577755e+01
1.350000e-06	1.289475e-06	1.308590e-09	4.070334e-01	8.367088e+01
1.360000e-06	1.357863e-06	1.421685e-09	4.286208e-01	9.130486e+01
1.370000e-06	1.425968e-06	1.532359e-09	4.501185e-01	9.866015e+01
1.380000e-06	1.493861e-06	1.638651e-09	4.715495e-01	1.057224e+02
1.390000e-06	1.561618e-06	1.738935e-09	4.929376e-01	1.124821e+02
1.400000e-06	1.629229e-06	1.833943e-09	5.142795e-01	1.189347e+02
1.410000e-06	1.696678e-06	1.926259e-09	5.355704e-01	1.250800e+02
1.420000e-06	1.763954e-06	2.014569e-09	5.568065e-01	1.309219e+02
1.430000e-06	1.831027e-06	2.098389e-09	5.779788e-01	1.364681e+02
1.440000e-06	1.897697e-06	2.177056e-09	5.990236e-01	1.417289e+02
1.450000e-06	1.963859e-06	2.251435e-09	6.199081e-01	1.467172e+02
1.460000e-06	2.029542e-06	2.322743e-09	6.406416e-01	1.514477e+02
1.470000e-06	2.094626e-06	2.390120e-09	6.611860e-01	1.559360e+02
1.480000e-06	2.159169e-06	2.454744e-09	6.815594e-01	1.601986e+02
1.490000e-06	2.223290e-06	2.516624e-09	7.017998e-01	1.642515e+02
1.500000e-06	2.287053e-06	2.574780e-09	7.219273e-01	1.681108e+02
1.510000e-06	2.350561e-06	2.629921e-09	7.419738e-01	1.717916e+02
1.520000e-06	2.413721e-06	2.683094e-09	7.619109e-01	1.753078e+02
1.530000e-06	2.476509e-06	2.734626e-09	7.817306e-01	1.786722e+02
1.540000e-06	2.538883e-06	2.782712e-09	8.014195e-01	1.818963e+02
1.550000e-06	2.600762e-06	2.827089e-09	8.209521e-01	1.849901e+02
1.560000e-06	2.662285e-06	2.869514e-09	8.403721e-01	1.879623e+02
1.570000e-06	2.723436e-06	2.910459e-09	8.596751e-01	1.908202e+02
1.580000e-06	2.784025e-06	2.951266e-09	8.788004e-01	1.935704e+02
1.590000e-06	2.844070e-06	2.990372e-09	8.977540e-01	1.962181e+02
1.600000e-06	2.903771e-06	3.026429e-09	9.165992e-01	1.987680e+02
1.610000e-06	2.963197e-06	3.061714e-09	9.353574e-01	2.012241e+02
1.620000e-06	3.022092e-06	3.098467e-09	9.539481e-01	2.035900e+02
1.630000e-06	3.080219e-06	3.133985e-09	9.722965e-01	2.058691e+02
1.640000e-06	3.137412e-06	3.165900e-09	9.903501e-01	2.080645e+02
1.650000e-06	3.193745e-06	3.195961e-09	1.008132e+00	2.101793e+02
1.660000e-06	3.249570e-06	3.226777e-09	1.025754e+00	2.122165e+02
1.670000e-06	3.305010e-06	3.255831e-09	1.043254e+00	2.141792e+02
1.680000e-06	3.360053e-06	3.281272e-09	1.060628e+00	2.160706e+02
1.690000e-06	3.414544e-06	3.306458e-09	1.077829e+00	2.178937e+02
1.700000e-06	3.468394e-06	3.332142e-09	1.094827e+00	2.196517e+02
1.710000e-06	3.521696e-06	3.356143e-09	1.111652e+00	2.213476e+02
1.720000e-06	3.574379e-06	3.378434e-09	1.128282e+00	2.229843e+02
1.730000e-06	3.626395e-06	3.401877e-09	1.144701e+00	2.245647e+02
1.740000e-06	3.677764e-06	3.425550e-09	1.160916e+00	2.260913e+02
1.750000e-06	3.728318e-06	3.448520e-09	1.176874e+00	2.275666e+02
1.760000e-06	3.777855e-06	3.470422e-09	1.192511e+00	2.289926e+02
1.770000e-06	3.826416e-06	3.491314e-09	1.207840e+00	2.303712e+02
1.780000e-06	3.874276e-06	3.512171e-09	1.222947e+00	2.317040e+02
1.790000e-06	3.921598e-06	3.531991e-09	1.237885e+00	2.329924e+02
1.800000e-06	3.968270e-06	3.550123e-09	1.252617e+00	2.342376e+02
1.810000e-06	4.014285e-06	3.566507e-09	1.267142e+00	2.354405e+02
1.820000e-06	4.059657e-06	3.584211e-09	1.281464e+00	2.366020e+02
1.830000e-06	4.104238e-06	3.603522e-09	1.295536e+00	2.377229e+02
1.840000e-06	4.148128e-06	3.621151e-09	1.309391e+00	2.388038e+02
1.850000e-06	4.191578e-06	3.637167e-09	1.323106e+00	2.398455e+02
1.860000e-06	4.234461e-06	3.653513e-09	1.336642e+00	2.408489e+02
1.870000e-06	4.276290e-06	3.669951e-09	1.349846e+00	2.418146e+02
1.880000e-06	4.316955e-06	3.685416e-09	1.362683e+00	2.427437e+02
1.890000e-06	4.356779e-06	3.698997e-09	1.375253e+00	2.436372e+02
1.900000e-06	4.395987e-06	3.710673e-09	1.387630e+00	2.444964e+02
1.910000e-06	4.434586e-06	3.722275e-09	1.399814e+00	2.453225e+02
1.920000e-06	4.472451e-06	3.734140e-09	1.411766e+00	2.461171e+02
1.930000e-06	4.509459e-06	3.747344e-09	1.423448e+00	2.468815e+02
1.940000e-06	4.545642e-06	3.759537e-09	1.434869e+00	2.476174e+02
1.950000e-06	4.581197e-06	3.770301e-09	1.446092e+00	2.483264e+02
1.960000e-06	4.616094e-06	3.781132e-09	1.457108e+00	2.490101e+02
1.970000e-06	4.650020e-06	3.791471e-09	1.467817e+00	2.496701e+02
1.980000e-06	4.682755e-06	3.801821e-09	1.478150e+00	2.503077e+02
1.990000e-06	4.714596e-06	3.811503e-09	1.488201e+00	2.509244e+02
2.000000e-06	4.745805e-06	3.819763e-09	1.498052e+00	2.515212e+02
2.010000e-06	4.776215e-06	3.828413e-09	1.507651e+00	2.520992e+02
2.020000e-06	4.805857e-06	3.839336e-09	1.517008e+00	2.526591e+02
2.030000e-06	4.834678e-06	3.850391e-09	1.526106e+00	2.532014e+02
2.040000e-06	4.862708e-06	3.859977e-09	1.534954e+00	2.537265e+02
2.050000e-06	4.890209e-06	3.866780e-09	1.543635e+00	2.542345e+02
2.060000e-06	4.916916e-06	3.875064e-09	1.552065e+00	2.547254e+02
2.070000e-06	4.942420e-06	3.885473e-09	1.560116e+00	2.551988e+02
2.080000e-06	4.966725e-06	3.892370e-09	1.567788e+00	2.556546e+02
2.090000e-06	4.990155e-06	3.897545e-09	1.575183e+00	2.560921e+02
2.100000e-06	5.012795e-06	3.905204e-09	1.582330e+00	2.565111e+02
2.110000e-06	5.034572e-06	3.914080e-09	1.589204e+00	2.569110e+02
2.120000e-06	5.055573e-06	3.920169e-09	1.595833e+00	2.572916e+02
2.130000e-06	5.075798e-06	3.924899e-09	1.602218e+00	2.576525e+02
2.140000e-06	5.095318e-06	3.930083e-09	1.608379e+00	2.579935e+02
2.150000e-06	5.114135e-06	3.936723e-09	1.614319e+00	2.583148e+02
2.160000e-06	5.132046e-06	3.943804e-09	1.619972e+00	2.586165e+02
2.170000e-06	5.148998e-06	3.949779e-09	1.625324e+00	2.588989e+02
2.180000e-06	5.165127e-06	3.956827e-09	1.630415e+00	2.591626e+02
2.190000e-06	5.180222e-06	3.963328e-09	1.635180e+00	2.594082e+02
2.200000e-06	5.194158e-06	3.968983e-09	1.639579e+00	2.596363e+02
2.210000e-06	5.207118e-06	3.975661e-09	1.643670e+00	2.598478e+02
2.220000e-06	5.219175e-06	3.979444e-09	1.647476e+00	2.600434e+02
2.230000e-06	5.230221e-06	3.982372e-09	1.650962e+00	2.602237e+02
2.240000e-06	5.240037e-06	3.983824e-09	1.654061e+00	2.603893e+02
2.250000e-06	5.248639e-06	3.984835e-09	1.656776e+00	2.605407e+02
2.260000e-06	5.256346e-06	3.988003e-09	1.659209e+00	2.606781e+02
2.270000e-06	5.263318e-06	3.990820e-09	1.661410e+00	2.608016e+02
2.280000e-06	5.269336e-06	3.993417e-09	1.663309e+00	2.609110e+02
2.290000e-06	5.274377e-06	3.995635e-09	1.664901e+00	2.610060e+02
2.300000e-06	5.278581e-06	3.999233e-09	1.666228e+00	2.610860e+02
2.310000e-06	5.282016e-06	4.002821e-09	1.667312e+00	2.611506e+02
2.320000e-06	5.284593e-06	4.006347e-09	1.668125e+00	2.611990e+02
2.330000e-06	5.285981e-06	4.008437e-09	1.668563e+00	2.612306e+02
2.340000e-06	5.286192e-06	4.009956e-09	1.668630e+00	2.612449e+02
2.350000e-06	5.285569e-06	4.010925e-09	1.668433e+00	2.612415e+02
2.360000e-06	5.284183e-06	4.009510e-09	1.667996e+00	2.612202e+02
2.370000e-06	5.281944e-06	4.005533e-09	1.667289e+00	2.611810e+02
2.380000e-06	5.278833e-06	4.002601e-09	1.666307e+00	2.611243e+02
2.390000e-06	5.274964e-06	4.003397e-09	1.665086e+00	2.610509e+02
2.400000e-06	5.270447e-06	4.005694e-09	1.663660e+00	2.609617e+02
2.410000e-06	5.265094e-06	4.010363e-09	1.661970e+00	2.608578e+02
2.420000e-06	5.258569e-06	4.008950e-09	1.659911e+00	2.607408e+02
2.430000e-06	5.250903e-06	4.019205e-09	1.657491e+00	2.606121e+02
2.440000e-06	5.242328e-06	3.977444e-09	1.654784e+00	2.604734e+02
2.450000e-06	5.232599e-06	3.953873e-09	1.651713e+00	2.603260e+02
2.460000e-06	5.221549e-06	3.950488e-09	1.648225e+00	2.601713e+02
2.470000e-06	5.209792e-06	4.044252e-09	1.644514e+00	2.600103e+02
2.480000e-06	5.197810e-06	4.073329e-09	1.640732e+00	2.598434e+02
2.490000e-06	5.184896e-06	3.918579e-09	1.636655e+00	2.596708e+02
2.500000e-06	5.170176e-06	3.918853e-09	1.632009e+00	2.594920e+02
2.510000e-06	5.154344e-06	4.032920e-09	1.627011e+00	2.593061e+02
2.520000e-06	5.138136e-06	3.984791e-09	1.621895e+00	2.591115e+02
2.530000e-06	5.120964e-06	3.973824e-09	1.616474e+00	2.589062e+02
2.540000e-06	5.102713e-06	4.030328e-09	1.610713e+00	2.586878e+02
2.550000e-06	5.083981e-06	3.888140e-09	1.604800e+00	2.584535e+02
2.560000e-06	5.064681e-06	3.963396e-09	1.598708e+00	2.582004e+02
2.570000e-06	5.044447e-06	4.132710e-09	1.592321e+00	2.579257e+02
2.580000e-06	5.023181e-06	3.945703e-09	1.585608e+00	2.576266e+02
2.590000e-06	5.000710e-06	3.824530e-09	1.578515e+00	2.573005e+02
2.600000e-06	4.977095e-06	3.999567e-09	1.571061e+00	2.569456e+02
2.610000e-06	4.952598e-06	3.939098e-09	1.563328e+00	2.565603e+02
2.620000e-06	4.927205e-06	3.786485e-09	1.555313e+00	2.561438e+02
2.630000e-06	4.901076e-06	3.882771e-09	1.547065e+00	2.556960e+02
2.640000e-06	4.874271e-06	3.841773e-09	1.538604e+00	2.552175e+02
2.650000e-06	4.846547e-06	3.830031e-09	1.529853e+00	2.547096e+02
2.660000e-06	4.818106e-06	3.900079e-09	1.520875e+00	2.541743e+02
2.670000e-06	4.788802e-06	3.805235e-09	1.511625e+00	2.536140e+02
2.680000e-06	4.758072e-06	3.794004e-09	1.501925e+00	2.530314e+02
2.690000e-06	4.726222e-06	3.791590e-09	1.491871e+00	2.524295e+02
2.700000e-06	4.693819e-06	3.816881e-09	1.481643e+00	2.518112e+02
2.710000e-06	4.660700e-06	3.859057e-09	1.471188e+00	2.511795e+02
2.720000e-06	4.626679e-06	3.719752e-09	1.460449e+00	2.505366e+02
2.730000e-06	4.591978e-06	3.715619e-09	1.449496e+00	2.498847e+02
2.740000e-06	4.556636e-06	3.823881e-09	1.438340e+00	2.492250e+02
2.750000e-06	4.520495e-06	3.788850e-09	1.426932e+00	2.485583e+02
2.760000e-06	4.483609e-06	3.710498e-09	1.415288e+00	2.478844e+02
2.770000e-06	4.445900e-06	3.680402e-09	1.403385e+00	2.472025e+02
2.780000e-06	4.407068e-06	3.745860e-09	1.391127e+00	2.465111e+02
2.790000e-06	4.367192e-06	3.748614e-09	1.378540e+00	2.458082e+02
2.800000e-06	4.326653e-06	3.677823e-09	1.365744e+00	2.450913e+02
2.810000e-06	4.285574e-06	3.684035e-09	1.352777e+00	2.443574e+02
2.820000e-06	4.243744e-06	3.668652e-09	1.339573e+00	2.436035e+02
2.830000e-06	4.201123e-06	3.674816e-09	1.326119e+00	2.428268e+02
2.840000e-06	4.157888e-06	3.671157e-09	1.312472e+00	2.420245e+02
2.850000e-06	4.114111e-06	3.624522e-09	1.298653e+00	2.411940e+02
2.860000e-06	4.069794e-06	3.623615e-09	1.284664e+00	2.403334e+02
2.870000e-06	4.024946e-06	3.608545e-09	1.270507e+00	2.394413e+02
2.880000e-06	3.979406e-06	3.614826e-09	1.256132e+00	2.385168e+02
2.890000e-06	3.932991e-06	3.602144e-09	1.241481e+00	2.375595e+02
2.900000e-06	3.885912e-06	3.554737e-09	1.226620e+00	2.365696e+02
2.910000e-06	3.838360e-06	3.557599e-09	1.211610e+00	2.355479e+02
2.920000e-06	3.790029e-06	3.564260e-09	1.196354e+00	2.344951e+02
2.930000e-06	3.740702e-06	3.548786e-09	1.180783e+00	2.334126e+02
2.940000e-06	3.690605e-06	3.496982e-09	1.164970e+00	2.323015e+02
2.950000e-06	3.639920e-06	3.482147e-09	1.148971e+00	2.311629e+02
