# Temperatura_=_20.0
# Concentracion g/m^3_=_9000.0
# C_Vs_to_Am_M_A/Vsm_=_65563218390.804596
# pendiente_HvsI_1/m_=_3716.3
# ordenada_HvsI_A/m_=_1297.0
# frecuencia_Hz_=_212887.92159440156

Tiempo_(s)	Campo_(V.s)	Magnetizacion_(V.s)	Campo_(kA/m)	Magnetizacion_(A/m)
0.000000e+00	-5.302680e-06	-3.941232e-09	-1.666713e+00	-2.596956e+02
1.000000e-08	-5.302719e-06	-3.941711e-09	-1.666725e+00	-2.597078e+02
2.000000e-08	-5.301771e-06	-3.942872e-09	-1.666428e+00	-2.596997e+02
3.000000e-08	-5.299544e-06	-3.942832e-09	-1.665728e+00	-2.596718e+02
4.000000e-08	-5.296338e-06	-3.941978e-09	-1.664720e+00	-2.596253e+02
5.000000e-08	-5.292438e-06	-3.940197e-09	-1.663494e+00	-2.595618e+02
6.000000e-08	-5.287730e-06	-3.938157e-09	-1.662014e+00	-2.594834e+02
7.000000e-08	-5.282096e-06	-3.934160e-09	-1.660243e+00	-2.593928e+02
8.000000e-08	-5.275564e-06	-3.923275e-09	-1.658190e+00	-2.592927e+02
9.000000e-08	-5.268195e-06	-3.937982e-09	-1.655874e+00	-2.591860e+02
1.000000e-07	-5.259907e-06	-3.973295e-09	-1.653269e+00	-2.590754e+02
1.100000e-07	-5.250299e-06	-3.998484e-09	-1.650249e+00	-2.589635e+02
1.200000e-07	-5.239323e-06	-3.948219e-09	-1.646799e+00	-2.588522e+02
1.300000e-07	-5.227470e-06	-3.858183e-09	-1.643074e+00	-2.587426e+02
1.400000e-07	-5.214842e-06	-3.896026e-09	-1.639104e+00	-2.586354e+02
1.500000e-07	-5.201267e-06	-3.989677e-09	-1.634838e+00	-2.585299e+02
1.600000e-07	-5.186804e-06	-3.936581e-09	-1.630292e+00	-2.584246e+02
1.700000e-07	-5.171426e-06	-3.917058e-09	-1.625458e+00	-2.583173e+02
1.800000e-07	-5.154777e-06	-3.878098e-09	-1.620225e+00	-2.582044e+02
1.900000e-07	-5.137066e-06	-3.845336e-09	-1.614658e+00	-2.580820e+02
2.000000e-07	-5.118867e-06	-3.968809e-09	-1.608938e+00	-2.579454e+02
2.100000e-07	-5.099963e-06	-3.980006e-09	-1.602996e+00	-2.577896e+02
2.200000e-07	-5.080001e-06	-3.872978e-09	-1.596722e+00	-2.576094e+02
2.300000e-07	-5.059237e-06	-3.887741e-09	-1.590195e+00	-2.573999e+02
2.400000e-07	-5.037777e-06	-4.022838e-09	-1.583450e+00	-2.571566e+02
2.500000e-07	-5.015404e-06	-4.005343e-09	-1.576418e+00	-2.568757e+02
2.600000e-07	-4.992210e-06	-3.932029e-09	-1.569128e+00	-2.565542e+02
2.700000e-07	-4.968285e-06	-3.886590e-09	-1.561608e+00	-2.561903e+02
2.800000e-07	-4.943465e-06	-3.914634e-09	-1.553807e+00	-2.557833e+02
2.900000e-07	-4.917485e-06	-3.980659e-09	-1.545640e+00	-2.553336e+02
3.000000e-07	-4.890361e-06	-3.915444e-09	-1.537115e+00	-2.548430e+02
3.100000e-07	-4.862399e-06	-3.883530e-09	-1.528326e+00	-2.543142e+02
3.200000e-07	-4.833655e-06	-3.891643e-09	-1.519291e+00	-2.537509e+02
3.300000e-07	-4.804019e-06	-3.867014e-09	-1.509977e+00	-2.531574e+02
3.400000e-07	-4.773527e-06	-3.918208e-09	-1.500392e+00	-2.525385e+02
3.500000e-07	-4.742329e-06	-3.925030e-09	-1.490586e+00	-2.518991e+02
3.600000e-07	-4.710402e-06	-3.795483e-09	-1.480551e+00	-2.512441e+02
3.700000e-07	-4.677701e-06	-3.807574e-09	-1.470273e+00	-2.505779e+02
3.800000e-07	-4.644124e-06	-3.919689e-09	-1.459719e+00	-2.499042e+02
3.900000e-07	-4.609415e-06	-3.853276e-09	-1.448810e+00	-2.492259e+02
4.000000e-07	-4.573667e-06	-3.751659e-09	-1.437573e+00	-2.485449e+02
4.100000e-07	-4.537213e-06	-3.803971e-09	-1.426115e+00	-2.478620e+02
4.200000e-07	-4.500155e-06	-3.844201e-09	-1.414468e+00	-2.471771e+02
4.300000e-07	-4.462246e-06	-3.790386e-09	-1.402552e+00	-2.464888e+02
4.400000e-07	-4.423406e-06	-3.770260e-09	-1.390344e+00	-2.457949e+02
4.500000e-07	-4.384010e-06	-3.761076e-09	-1.377961e+00	-2.450925e+02
4.600000e-07	-4.344121e-06	-3.746546e-09	-1.365423e+00	-2.443783e+02
4.700000e-07	-4.303388e-06	-3.758260e-09	-1.352620e+00	-2.436485e+02
4.800000e-07	-4.261570e-06	-3.749032e-09	-1.339476e+00	-2.428993e+02
4.900000e-07	-4.218761e-06	-3.703428e-09	-1.326021e+00	-2.421272e+02
5.000000e-07	-4.175217e-06	-3.676079e-09	-1.312334e+00	-2.413291e+02
5.100000e-07	-4.131047e-06	-3.700109e-09	-1.298451e+00	-2.405024e+02
5.200000e-07	-4.086246e-06	-3.703905e-09	-1.284370e+00	-2.396453e+02
5.300000e-07	-4.040759e-06	-3.651852e-09	-1.270072e+00	-2.387566e+02
5.400000e-07	-3.994517e-06	-3.614336e-09	-1.255538e+00	-2.378362e+02
5.500000e-07	-3.947569e-06	-3.628430e-09	-1.240781e+00	-2.368843e+02
5.600000e-07	-3.900096e-06	-3.640417e-09	-1.225860e+00	-2.359019e+02
5.700000e-07	-3.852064e-06	-3.598494e-09	-1.210763e+00	-2.348904e+02
5.800000e-07	-3.803066e-06	-3.556554e-09	-1.195362e+00	-2.338514e+02
5.900000e-07	-3.752927e-06	-3.559971e-09	-1.179602e+00	-2.327867e+02
6.000000e-07	-3.701880e-06	-3.559707e-09	-1.163558e+00	-2.316976e+02
6.100000e-07	-3.650106e-06	-3.535347e-09	-1.147284e+00	-2.305855e+02
6.200000e-07	-3.597607e-06	-3.505440e-09	-1.130783e+00	-2.294510e+02
6.300000e-07	-3.544469e-06	-3.485506e-09	-1.114081e+00	-2.282941e+02
6.400000e-07	-3.490749e-06	-3.475011e-09	-1.097196e+00	-2.271143e+02
6.500000e-07	-3.436339e-06	-3.465136e-09	-1.080094e+00	-2.259101e+02
6.600000e-07	-3.381316e-06	-3.444389e-09	-1.062799e+00	-2.246797e+02
6.700000e-07	-3.325825e-06	-3.405658e-09	-1.045357e+00	-2.234205e+02
6.800000e-07	-3.269880e-06	-3.382231e-09	-1.027773e+00	-2.221296e+02
6.900000e-07	-3.213417e-06	-3.380747e-09	-1.010026e+00	-2.208038e+02
7.000000e-07	-3.156171e-06	-3.362356e-09	-9.920328e-01	-2.194400e+02
7.100000e-07	-3.097950e-06	-3.321300e-09	-9.737329e-01	-2.180349e+02
7.200000e-07	-3.038947e-06	-3.291644e-09	-9.551875e-01	-2.165859e+02
7.300000e-07	-2.979494e-06	-3.284954e-09	-9.365004e-01	-2.150906e+02
7.400000e-07	-2.919695e-06	-3.266644e-09	-9.177046e-01	-2.135472e+02
7.500000e-07	-2.859453e-06	-3.230159e-09	-8.987697e-01	-2.119545e+02
7.600000e-07	-2.798702e-06	-3.202179e-09	-8.796747e-01	-2.103120e+02
7.700000e-07	-2.737436e-06	-3.181011e-09	-8.604178e-01	-2.086198e+02
7.800000e-07	-2.675755e-06	-3.155538e-09	-8.410306e-01	-2.068783e+02
7.900000e-07	-2.613641e-06	-3.124243e-09	-8.215072e-01	-2.050885e+02
8.000000e-07	-2.550979e-06	-3.093500e-09	-8.018115e-01	-2.032511e+02
8.100000e-07	-2.487874e-06	-3.067545e-09	-7.819769e-01	-2.013673e+02
8.200000e-07	-2.424491e-06	-3.041027e-09	-7.620547e-01	-1.994377e+02
8.300000e-07	-2.360853e-06	-3.013438e-09	-7.420520e-01	-1.974624e+02
8.400000e-07	-2.296864e-06	-2.980277e-09	-7.219393e-01	-1.954410e+02
8.500000e-07	-2.232465e-06	-2.945218e-09	-7.016977e-01	-1.933723e+02
8.600000e-07	-2.167692e-06	-2.914573e-09	-6.813388e-01	-1.912543e+02
8.700000e-07	-2.102512e-06	-2.881696e-09	-6.608516e-01	-1.890841e+02
8.800000e-07	-2.036836e-06	-2.843222e-09	-6.402086e-01	-1.868579e+02
8.900000e-07	-1.970558e-06	-2.802626e-09	-6.193765e-01	-1.845711e+02
9.000000e-07	-1.903811e-06	-2.768879e-09	-5.983968e-01	-1.822186e+02
9.100000e-07	-1.836811e-06	-2.735546e-09	-5.773378e-01	-1.797946e+02
9.200000e-07	-1.769528e-06	-2.692537e-09	-5.561898e-01	-1.772930e+02
9.300000e-07	-1.701966e-06	-2.649598e-09	-5.349538e-01	-1.747078e+02
9.400000e-07	-1.634222e-06	-2.612005e-09	-5.136611e-01	-1.720328e+02
9.500000e-07	-1.566320e-06	-2.572085e-09	-4.923181e-01	-1.692621e+02
9.600000e-07	-1.498257e-06	-2.521797e-09	-4.709252e-01	-1.663899e+02
9.700000e-07	-1.429976e-06	-2.467227e-09	-4.494632e-01	-1.634111e+02
9.800000e-07	-1.361336e-06	-2.420879e-09	-4.278887e-01	-1.603205e+02
9.900000e-07	-1.292397e-06	-2.375449e-09	-4.062200e-01	-1.571134e+02
1.000000e-06	-1.223297e-06	-2.325265e-09	-3.845011e-01	-1.537851e+02
1.010000e-06	-1.153998e-06	-2.270492e-09	-3.627191e-01	-1.503308e+02
1.020000e-06	-1.084421e-06	-2.212314e-09	-3.408499e-01	-1.467456e+02
1.030000e-06	-1.014607e-06	-2.157946e-09	-3.189064e-01	-1.430239e+02
1.040000e-06	-9.446235e-07	-2.103782e-09	-2.969096e-01	-1.391591e+02
1.050000e-06	-8.744901e-07	-2.043267e-09	-2.748656e-01	-1.351441e+02
1.060000e-06	-8.041750e-07	-1.973697e-09	-2.527645e-01	-1.309703e+02
1.070000e-06	-7.336975e-07	-1.903569e-09	-2.306123e-01	-1.266280e+02
1.080000e-06	-6.630563e-07	-1.837480e-09	-2.084087e-01	-1.221061e+02
1.090000e-06	-5.922722e-07	-1.766114e-09	-1.861602e-01	-1.173926e+02
1.100000e-06	-5.213861e-07	-1.686780e-09	-1.638796e-01	-1.124744e+02
1.110000e-06	-4.504388e-07	-1.604132e-09	-1.415798e-01	-1.073380e+02
1.120000e-06	-3.794301e-07	-1.523553e-09	-1.192607e-01	-1.019694e+02
1.130000e-06	-3.083416e-07	-1.441585e-09	-9.691647e-02	-9.635545e+01
1.140000e-06	-2.372330e-07	-1.350825e-09	-7.456595e-02	-9.048362e+01
1.150000e-06	-1.661167e-07	-1.252596e-09	-5.221303e-02	-8.434322e+01
1.160000e-06	-9.500589e-08	-1.151788e-09	-2.986180e-02	-7.792589e+01
1.170000e-06	-2.384459e-08	-1.052114e-09	-7.494718e-03	-7.122628e+01
1.180000e-06	4.736357e-08	-9.502104e-10	1.488709e-02	-6.424271e+01
1.190000e-06	1.184999e-07	-8.386654e-10	3.724632e-02	-5.697770e+01
1.200000e-06	1.895656e-07	-7.216041e-10	5.958338e-02	-4.943841e+01
1.210000e-06	2.605939e-07	-6.045925e-10	8.190865e-02	-4.163697e+01
1.220000e-06	3.315683e-07	-4.858759e-10	1.042170e-01	-3.359056e+01
1.230000e-06	4.024916e-07	-3.615138e-10	1.265093e-01	-2.532146e+01
1.240000e-06	4.732740e-07	-2.296584e-10	1.487572e-01	-1.685676e+01
1.250000e-06	5.438904e-07	-9.791104e-11	1.709530e-01	-8.228003e+00
1.260000e-06	6.144484e-07	3.199708e-11	1.931305e-01	5.293442e-01
1.270000e-06	6.849353e-07	1.646374e-10	2.152856e-01	9.376636e+00
1.280000e-06	7.552757e-07	2.996576e-10	2.373947e-01	1.827285e+01
1.290000e-06	8.254483e-07	4.385989e-10	2.594510e-01	2.717551e+01
1.300000e-06	8.954361e-07	5.750860e-10	2.814492e-01	3.604165e+01
1.310000e-06	9.652476e-07	7.102226e-10	3.033921e-01	4.482880e+01
1.320000e-06	1.034899e-06	8.439526e-10	3.252845e-01	5.349594e+01
1.330000e-06	1.104413e-06	9.757352e-10	3.471338e-01	6.200444e+01
1.340000e-06	1.173717e-06	1.103894e-09	3.689172e-01	7.031882e+01
1.350000e-06	1.242775e-06	1.227159e-09	3.906232e-01	7.840750e+01
1.360000e-06	1.311647e-06	1.346959e-09	4.122705e-01	8.624331e+01
1.370000e-06	1.380301e-06	1.460091e-09	4.338497e-01	9.380391e+01
1.380000e-06	1.448707e-06	1.568874e-09	4.553509e-01	1.010720e+02
1.390000e-06	1.516888e-06	1.671720e-09	4.767811e-01	1.080354e+02
1.400000e-06	1.584890e-06	1.768477e-09	4.981550e-01	1.146868e+02
1.410000e-06	1.652705e-06	1.860903e-09	5.194705e-01	1.210239e+02
1.420000e-06	1.720333e-06	1.950511e-09	5.407268e-01	1.270487e+02
1.430000e-06	1.787708e-06	2.037819e-09	5.619039e-01	1.327668e+02
1.440000e-06	1.854814e-06	2.120892e-09	5.829964e-01	1.381876e+02
1.450000e-06	1.921628e-06	2.197988e-09	6.039971e-01	1.433230e+02
1.460000e-06	1.988008e-06	2.271979e-09	6.248612e-01	1.481870e+02
1.470000e-06	2.053839e-06	2.341709e-09	6.455531e-01	1.527951e+02
1.480000e-06	2.119120e-06	2.407487e-09	6.660719e-01	1.571636e+02
1.490000e-06	2.183935e-06	2.471696e-09	6.864441e-01	1.613093e+02
1.500000e-06	2.248325e-06	2.532201e-09	7.066829e-01	1.652487e+02
1.510000e-06	2.312352e-06	2.589950e-09	7.268074e-01	1.689977e+02
1.520000e-06	2.376049e-06	2.644043e-09	7.468285e-01	1.725713e+02
1.530000e-06	2.439369e-06	2.694094e-09	7.667310e-01	1.759835e+02
1.540000e-06	2.502300e-06	2.742383e-09	7.865112e-01	1.792467e+02
1.550000e-06	2.564853e-06	2.788116e-09	8.061726e-01	1.823723e+02
1.560000e-06	2.626996e-06	2.832063e-09	8.257050e-01	1.853699e+02
1.570000e-06	2.688703e-06	2.873223e-09	8.451003e-01	1.882483e+02
1.580000e-06	2.749937e-06	2.914429e-09	8.643472e-01	1.910146e+02
1.590000e-06	2.810618e-06	2.955284e-09	8.834201e-01	1.936752e+02
1.600000e-06	2.870819e-06	2.993308e-09	9.023421e-01	1.962353e+02
1.610000e-06	2.930693e-06	3.029174e-09	9.211615e-01	1.986996e+02
1.620000e-06	2.990197e-06	3.062396e-09	9.398645e-01	2.010721e+02
1.630000e-06	3.049152e-06	3.096222e-09	9.583951e-01	2.033566e+02
1.640000e-06	3.107412e-06	3.127736e-09	9.767070e-01	2.055564e+02
1.650000e-06	3.164831e-06	3.156564e-09	9.947547e-01	2.076748e+02
1.660000e-06	3.221403e-06	3.185345e-09	1.012536e+00	2.097151e+02
1.670000e-06	3.277383e-06	3.214282e-09	1.030131e+00	2.116806e+02
1.680000e-06	3.332927e-06	3.242926e-09	1.047590e+00	2.135744e+02
1.690000e-06	3.388002e-06	3.270191e-09	1.064901e+00	2.153999e+02
1.700000e-06	3.442515e-06	3.296625e-09	1.082035e+00	2.171606e+02
1.710000e-06	3.496446e-06	3.322246e-09	1.098986e+00	2.188597e+02
1.720000e-06	3.549773e-06	3.346829e-09	1.115748e+00	2.205006e+02
1.730000e-06	3.602484e-06	3.369717e-09	1.132316e+00	2.220865e+02
1.740000e-06	3.654592e-06	3.391142e-09	1.148694e+00	2.236203e+02
1.750000e-06	3.706036e-06	3.412255e-09	1.164864e+00	2.251048e+02
1.760000e-06	3.756626e-06	3.434155e-09	1.180765e+00	2.265426e+02
1.770000e-06	3.806148e-06	3.456459e-09	1.196330e+00	2.279358e+02
1.780000e-06	3.854758e-06	3.477222e-09	1.211609e+00	2.292862e+02
1.790000e-06	3.902725e-06	3.496149e-09	1.226686e+00	2.305953e+02
1.800000e-06	3.950084e-06	3.515831e-09	1.241572e+00	2.318642e+02
1.810000e-06	3.996754e-06	3.535676e-09	1.256241e+00	2.330936e+02
1.820000e-06	4.042708e-06	3.554090e-09	1.270685e+00	2.342841e+02
1.830000e-06	4.087956e-06	3.571339e-09	1.284907e+00	2.354359e+02
1.840000e-06	4.132535e-06	3.587467e-09	1.298919e+00	2.365491e+02
1.850000e-06	4.176543e-06	3.603638e-09	1.312751e+00	2.376237e+02
1.860000e-06	4.220035e-06	3.619434e-09	1.326421e+00	2.386596e+02
1.870000e-06	4.262872e-06	3.633735e-09	1.339886e+00	2.396568e+02
1.880000e-06	4.304703e-06	3.647839e-09	1.353034e+00	2.406156e+02
1.890000e-06	4.345430e-06	3.662537e-09	1.365835e+00	2.415361e+02
1.900000e-06	4.385331e-06	3.677175e-09	1.378376e+00	2.424190e+02
1.910000e-06	4.424566e-06	3.689705e-09	1.390709e+00	2.432651e+02
1.920000e-06	4.463078e-06	3.701135e-09	1.402814e+00	2.440755e+02
1.930000e-06	4.500819e-06	3.713162e-09	1.414676e+00	2.448517e+02
1.940000e-06	4.537774e-06	3.725463e-09	1.426292e+00	2.455953e+02
1.950000e-06	4.574028e-06	3.735907e-09	1.437687e+00	2.463083e+02
1.960000e-06	4.609642e-06	3.744354e-09	1.448881e+00	2.469927e+02
1.970000e-06	4.644459e-06	3.754092e-09	1.459824e+00	2.476507e+02
1.980000e-06	4.678298e-06	3.765162e-09	1.470461e+00	2.482846e+02
1.990000e-06	4.711069e-06	3.775684e-09	1.480761e+00	2.488964e+02
2.000000e-06	4.742945e-06	3.785134e-09	1.490780e+00	2.494882e+02
2.010000e-06	4.774072e-06	3.792905e-09	1.500564e+00	2.500618e+02
2.020000e-06	4.804412e-06	3.801870e-09	1.510100e+00	2.506186e+02
2.030000e-06	4.833992e-06	3.812307e-09	1.519398e+00	2.511597e+02
2.040000e-06	4.862738e-06	3.820995e-09	1.528433e+00	2.516861e+02
2.050000e-06	4.890729e-06	3.829988e-09	1.537231e+00	2.521980e+02
2.060000e-06	4.918085e-06	3.838554e-09	1.545829e+00	2.526955e+02
2.070000e-06	4.944508e-06	3.846933e-09	1.554134e+00	2.531783e+02
2.080000e-06	4.969707e-06	3.856107e-09	1.562055e+00	2.536459e+02
2.090000e-06	4.993891e-06	3.862938e-09	1.569656e+00	2.540975e+02
2.100000e-06	5.017242e-06	3.869346e-09	1.576996e+00	2.545322e+02
2.110000e-06	5.039789e-06	3.877364e-09	1.584083e+00	2.549491e+02
2.120000e-06	5.061563e-06	3.885499e-09	1.590926e+00	2.553474e+02
2.130000e-06	5.082457e-06	3.892897e-09	1.597494e+00	2.557264e+02
2.140000e-06	5.102573e-06	3.899937e-09	1.603817e+00	2.560856e+02
2.150000e-06	5.122033e-06	3.907092e-09	1.609933e+00	2.564248e+02
2.160000e-06	5.140656e-06	3.913758e-09	1.615787e+00	2.567441e+02
2.170000e-06	5.158299e-06	3.918336e-09	1.621332e+00	2.570439e+02
2.180000e-06	5.175071e-06	3.922308e-09	1.626604e+00	2.573250e+02
2.190000e-06	5.190962e-06	3.928046e-09	1.631598e+00	2.575882e+02
2.200000e-06	5.205798e-06	3.934315e-09	1.636262e+00	2.578346e+02
2.210000e-06	5.219621e-06	3.937840e-09	1.640607e+00	2.580656e+02
2.220000e-06	5.232512e-06	3.942952e-09	1.644658e+00	2.582822e+02
2.230000e-06	5.244465e-06	3.949297e-09	1.648415e+00	2.584856e+02
2.240000e-06	5.255341e-06	3.954396e-09	1.651834e+00	2.586767e+02
2.250000e-06	5.264898e-06	3.957797e-09	1.654838e+00	2.588561e+02
2.260000e-06	5.273278e-06	3.958945e-09	1.657472e+00	2.590242e+02
2.270000e-06	5.280764e-06	3.960045e-09	1.659825e+00	2.591807e+02
2.280000e-06	5.287420e-06	3.963232e-09	1.661917e+00	2.593255e+02
2.290000e-06	5.293233e-06	3.966418e-09	1.663744e+00	2.594575e+02
2.300000e-06	5.298135e-06	3.967821e-09	1.665285e+00	2.595758e+02
2.310000e-06	5.302180e-06	3.970579e-09	1.666556e+00	2.596791e+02
2.320000e-06	5.305480e-06	3.975166e-09	1.667593e+00	2.597660e+02
2.330000e-06	5.307750e-06	3.979881e-09	1.668307e+00	2.598351e+02
2.340000e-06	5.308770e-06	3.980893e-09	1.668628e+00	2.598853e+02
2.350000e-06	5.308778e-06	3.983339e-09	1.668630e+00	2.599158e+02
2.360000e-06	5.307978e-06	3.985876e-09	1.668379e+00	2.599260e+02
2.370000e-06	5.306334e-06	3.983196e-09	1.667862e+00	2.599159e+02
2.380000e-06	5.303846e-06	3.979376e-09	1.667080e+00	2.598861e+02
2.390000e-06	5.300557e-06	3.978933e-09	1.666046e+00	2.598378e+02
2.400000e-06	5.296538e-06	3.981125e-09	1.664783e+00	2.597728e+02
2.410000e-06	5.291786e-06	3.982661e-09	1.663289e+00	2.596931e+02
2.420000e-06	5.286056e-06	3.991225e-09	1.661488e+00	2.596014e+02
2.430000e-06	5.279200e-06	3.994616e-09	1.659333e+00	2.595005e+02
2.440000e-06	5.271286e-06	3.950621e-09	1.656846e+00	2.593933e+02
2.450000e-06	5.262313e-06	3.920909e-09	1.654025e+00	2.592826e+02
2.460000e-06	5.252116e-06	3.928751e-09	1.650820e+00	2.591707e+02
2.470000e-06	5.240804e-06	4.026977e-09	1.647265e+00	2.590595e+02
2.480000e-06	5.229015e-06	4.028184e-09	1.643559e+00	2.589502e+02
2.490000e-06	5.216876e-06	3.909577e-09	1.639744e+00	2.588432e+02
2.500000e-06	5.203385e-06	3.948467e-09	1.635503e+00	2.587378e+02
2.510000e-06	5.188249e-06	3.944999e-09	1.630746e+00	2.586325e+02
2.520000e-06	5.172407e-06	3.965316e-09	1.625766e+00	2.585248e+02
2.530000e-06	5.155953e-06	4.032657e-09	1.620595e+00	2.584112e+02
2.540000e-06	5.138348e-06	3.937777e-09	1.615061e+00	2.582876e+02
2.550000e-06	5.119922e-06	3.845166e-09	1.609270e+00	2.581494e+02
2.560000e-06	5.101023e-06	3.949649e-09	1.603330e+00	2.579913e+02
2.570000e-06	5.081390e-06	3.991233e-09	1.597159e+00	2.578085e+02
2.580000e-06	5.060830e-06	3.871299e-09	1.590696e+00	2.575958e+02
2.590000e-06	5.039149e-06	3.899696e-09	1.583881e+00	2.573490e+02
2.600000e-06	5.016224e-06	3.934486e-09	1.576676e+00	2.570641e+02
2.610000e-06	4.992315e-06	3.902418e-09	1.569161e+00	2.567385e+02
2.620000e-06	4.967502e-06	3.902078e-09	1.561362e+00	2.563703e+02
2.630000e-06	4.941850e-06	3.835413e-09	1.553299e+00	2.559590e+02
2.640000e-06	4.915542e-06	3.825476e-09	1.545030e+00	2.555052e+02
2.650000e-06	4.888363e-06	3.886290e-09	1.536487e+00	2.550106e+02
2.660000e-06	4.860363e-06	3.841623e-09	1.527686e+00	2.544782e+02
2.670000e-06	4.831766e-06	3.849590e-09	1.518698e+00	2.539117e+02
2.680000e-06	4.802048e-06	3.839248e-09	1.509357e+00	2.533155e+02
2.690000e-06	4.770936e-06	3.749119e-09	1.499578e+00	2.526943e+02
2.700000e-06	4.738987e-06	3.854801e-09	1.489536e+00	2.520532e+02
2.710000e-06	4.706395e-06	3.878737e-09	1.479292e+00	2.513970e+02
2.720000e-06	4.672873e-06	3.718675e-09	1.468755e+00	2.507298e+02
2.730000e-06	4.638482e-06	3.744581e-09	1.457946e+00	2.500556e+02
2.740000e-06	4.603474e-06	3.831325e-09	1.446942e+00	2.493769e+02
2.750000e-06	4.567820e-06	3.791361e-09	1.435735e+00	2.486958e+02
2.760000e-06	4.531447e-06	3.716628e-09	1.424303e+00	2.480128e+02
2.770000e-06	4.494253e-06	3.719151e-09	1.412612e+00	2.473276e+02
2.780000e-06	4.456007e-06	3.764591e-09	1.400591e+00	2.466388e+02
2.790000e-06	4.416651e-06	3.732876e-09	1.388221e+00	2.459443e+02
2.800000e-06	4.376515e-06	3.712578e-09	1.375605e+00	2.452409e+02
2.810000e-06	4.335865e-06	3.710597e-09	1.362829e+00	2.445253e+02
2.820000e-06	4.294520e-06	3.676210e-09	1.349833e+00	2.437938e+02
2.830000e-06	4.252302e-06	3.681425e-09	1.336564e+00	2.430424e+02
2.840000e-06	4.209392e-06	3.688553e-09	1.323076e+00	2.422679e+02
2.850000e-06	4.165923e-06	3.670939e-09	1.309413e+00	2.414671e+02
2.860000e-06	4.121891e-06	3.623294e-09	1.295573e+00	2.406374e+02
2.870000e-06	4.077322e-06	3.611887e-09	1.281565e+00	2.397772e+02
2.880000e-06	4.032133e-06	3.663390e-09	1.267361e+00	2.388855e+02
2.890000e-06	3.986129e-06	3.624538e-09	1.252901e+00	2.379619e+02
2.900000e-06	3.939263e-06	3.561213e-09	1.238171e+00	2.370069e+02
2.910000e-06	3.891828e-06	3.571005e-09	1.223261e+00	2.360215e+02
2.920000e-06	3.843826e-06	3.588759e-09	1.208173e+00	2.350072e+02
2.930000e-06	3.794914e-06	3.567147e-09	1.192799e+00	2.339656e+02
2.940000e-06	3.745142e-06	3.524329e-09	1.177155e+00	2.328984e+02
2.950000e-06	3.694749e-06	3.521657e-09	1.161316e+00	2.318071e+02
