# Temperatura_=_20.0
# Concentracion g/m^3_=_9000.0
# C_Vs_to_Am_M_A/Vsm_=_65563218390.804596
# pendiente_HvsI_1/m_=_3716.3
# ordenada_HvsI_A/m_=_1297.0
# frecuencia_Hz_=_301073.9551880197

Tiempo_(s)	Campo_(V.s)	Magnetizacion_(V.s)	Campo_(kA/m)	Magnetizacion_(A/m)
0.000000e+00	-6.769939e-06	-5.123315e-09	-4.747099e+01	-3.362841e+02
1.000000e-08	-6.766937e-06	-5.129291e-09	-4.744994e+01	-3.361894e+02
2.000000e-08	-6.761717e-06	-5.127336e-09	-4.741335e+01	-3.360620e+02
3.000000e-08	-6.754484e-06	-5.123582e-09	-4.736263e+01	-3.359038e+02
4.000000e-08	-6.744977e-06	-5.119303e-09	-4.729596e+01	-3.357178e+02
5.000000e-08	-6.732900e-06	-5.114067e-09	-4.721128e+01	-3.355070e+02
6.000000e-08	-6.718251e-06	-5.109114e-09	-4.710856e+01	-3.352747e+02
7.000000e-08	-6.701232e-06	-5.106286e-09	-4.698922e+01	-3.350241e+02
8.000000e-08	-6.682193e-06	-5.120207e-09	-4.685572e+01	-3.347579e+02
9.000000e-08	-6.660933e-06	-5.166509e-09	-4.670665e+01	-3.344776e+02
1.000000e-07	-6.636956e-06	-5.155439e-09	-4.653852e+01	-3.341836e+02
1.100000e-07	-6.610226e-06	-5.114134e-09	-4.635108e+01	-3.338741e+02
1.200000e-07	-6.581145e-06	-5.085249e-09	-4.614717e+01	-3.335455e+02
1.300000e-07	-6.550153e-06	-5.040903e-09	-4.592985e+01	-3.331920e+02
1.400000e-07	-6.517327e-06	-4.988213e-09	-4.569968e+01	-3.328061e+02
1.500000e-07	-6.482501e-06	-5.077245e-09	-4.545547e+01	-3.323789e+02
1.600000e-07	-6.445588e-06	-5.149351e-09	-4.519664e+01	-3.319010e+02
1.700000e-07	-6.406671e-06	-5.014428e-09	-4.492375e+01	-3.313632e+02
1.800000e-07	-6.365468e-06	-5.004061e-09	-4.463483e+01	-3.307576e+02
1.900000e-07	-6.321704e-06	-5.011150e-09	-4.432796e+01	-3.300786e+02
2.000000e-07	-6.275675e-06	-5.012431e-09	-4.400520e+01	-3.293232e+02
2.100000e-07	-6.227221e-06	-5.035228e-09	-4.366544e+01	-3.284917e+02
2.200000e-07	-6.176019e-06	-4.964004e-09	-4.330641e+01	-3.275879e+02
2.300000e-07	-6.122283e-06	-4.925997e-09	-4.292961e+01	-3.266179e+02
2.400000e-07	-6.066239e-06	-4.911511e-09	-4.253664e+01	-3.255906e+02
2.500000e-07	-6.007971e-06	-4.963073e-09	-4.212806e+01	-3.245153e+02
2.600000e-07	-5.947618e-06	-4.984432e-09	-4.170486e+01	-3.234016e+02
2.700000e-07	-5.885212e-06	-4.895024e-09	-4.126727e+01	-3.222576e+02
2.800000e-07	-5.820604e-06	-4.843906e-09	-4.081423e+01	-3.210889e+02
2.900000e-07	-5.753826e-06	-4.870409e-09	-4.034599e+01	-3.198981e+02
3.000000e-07	-5.684991e-06	-4.920627e-09	-3.986331e+01	-3.186843e+02
3.100000e-07	-5.614119e-06	-4.851858e-09	-3.936635e+01	-3.174433e+02
3.200000e-07	-5.541258e-06	-4.762963e-09	-3.885545e+01	-3.161679e+02
3.300000e-07	-5.466162e-06	-4.774052e-09	-3.832888e+01	-3.148495e+02
3.400000e-07	-5.388765e-06	-4.773794e-09	-3.778617e+01	-3.134785e+02
3.500000e-07	-5.309214e-06	-4.761471e-09	-3.722835e+01	-3.120462e+02
3.600000e-07	-5.227696e-06	-4.727799e-09	-3.665674e+01	-3.105452e+02
3.700000e-07	-5.144447e-06	-4.677314e-09	-3.607300e+01	-3.089711e+02
3.800000e-07	-5.059453e-06	-4.633984e-09	-3.547702e+01	-3.073220e+02
3.900000e-07	-4.972841e-06	-4.650398e-09	-3.486970e+01	-3.055988e+02
4.000000e-07	-4.884605e-06	-4.665491e-09	-3.425098e+01	-3.038049e+02
4.100000e-07	-4.794476e-06	-4.579104e-09	-3.361900e+01	-3.019447e+02
4.200000e-07	-4.702531e-06	-4.524319e-09	-3.297428e+01	-3.000231e+02
4.300000e-07	-4.608948e-06	-4.553385e-09	-3.231807e+01	-2.980435e+02
4.400000e-07	-4.513858e-06	-4.549584e-09	-3.165129e+01	-2.960075e+02
4.500000e-07	-4.417095e-06	-4.474265e-09	-3.097279e+01	-2.939138e+02
4.600000e-07	-4.318604e-06	-4.431257e-09	-3.028217e+01	-2.917579e+02
4.700000e-07	-4.218612e-06	-4.421033e-09	-2.958102e+01	-2.895325e+02
4.800000e-07	-4.117114e-06	-4.373476e-09	-2.886932e+01	-2.872278e+02
4.900000e-07	-4.014235e-06	-4.332598e-09	-2.814792e+01	-2.848331e+02
5.000000e-07	-3.909870e-06	-4.298157e-09	-2.741611e+01	-2.823376e+02
5.100000e-07	-3.803878e-06	-4.238738e-09	-2.667289e+01	-2.797318e+02
5.200000e-07	-3.696534e-06	-4.186691e-09	-2.592020e+01	-2.770085e+02
5.300000e-07	-3.587903e-06	-4.173393e-09	-2.515847e+01	-2.741633e+02
5.400000e-07	-3.478006e-06	-4.137769e-09	-2.438788e+01	-2.711948e+02
5.500000e-07	-3.367129e-06	-4.068682e-09	-2.361040e+01	-2.681040e+02
5.600000e-07	-3.255114e-06	-4.029193e-09	-2.282495e+01	-2.648934e+02
5.700000e-07	-3.141524e-06	-4.001621e-09	-2.202845e+01	-2.615654e+02
5.800000e-07	-3.026453e-06	-3.944572e-09	-2.122157e+01	-2.581212e+02
5.900000e-07	-2.910247e-06	-3.875070e-09	-2.040673e+01	-2.545586e+02
6.000000e-07	-2.793012e-06	-3.824797e-09	-1.958468e+01	-2.508715e+02
6.100000e-07	-2.674815e-06	-3.770920e-09	-1.875587e+01	-2.470490e+02
6.200000e-07	-2.555845e-06	-3.700893e-09	-1.792165e+01	-2.430751e+02
6.300000e-07	-2.436004e-06	-3.630228e-09	-1.708133e+01	-2.389296e+02
6.400000e-07	-2.314954e-06	-3.564872e-09	-1.623252e+01	-2.345892e+02
6.500000e-07	-2.192883e-06	-3.496321e-09	-1.537655e+01	-2.300287e+02
6.600000e-07	-2.070180e-06	-3.417425e-09	-1.451616e+01	-2.252227e+02
6.700000e-07	-1.946866e-06	-3.337950e-09	-1.365148e+01	-2.201467e+02
6.800000e-07	-1.822815e-06	-3.260269e-09	-1.278163e+01	-2.147778e+02
6.900000e-07	-1.698051e-06	-3.179697e-09	-1.190678e+01	-2.090949e+02
7.000000e-07	-1.572718e-06	-3.090312e-09	-1.102794e+01	-2.030775e+02
7.100000e-07	-1.446861e-06	-2.995986e-09	-1.014543e+01	-1.967041e+02
7.200000e-07	-1.320503e-06	-2.894832e-09	-9.259405e+00	-1.899500e+02
7.300000e-07	-1.193777e-06	-2.783157e-09	-8.370794e+00	-1.827848e+02
7.400000e-07	-1.066748e-06	-2.667048e-09	-7.480065e+00	-1.751695e+02
7.500000e-07	-9.393378e-07	-2.542645e-09	-6.586662e+00	-1.670555e+02
7.600000e-07	-8.115652e-07	-2.402004e-09	-5.690717e+00	-1.583835e+02
7.700000e-07	-6.834975e-07	-2.251113e-09	-4.792703e+00	-1.490846e+02
7.800000e-07	-5.550999e-07	-2.101403e-09	-3.892376e+00	-1.390832e+02
7.900000e-07	-4.264040e-07	-1.939779e-09	-2.989957e+00	-1.283015e+02
8.000000e-07	-2.974989e-07	-1.756722e-09	-2.086071e+00	-1.166656e+02
8.100000e-07	-1.684653e-07	-1.563562e-09	-1.181283e+00	-1.041129e+02
8.200000e-07	-3.928407e-08	-1.364297e-09	-2.754610e-01	-9.060006e+01
8.300000e-07	8.996430e-08	-1.146747e-09	6.308321e-01	-7.611036e+01
8.400000e-07	2.191391e-07	-9.069742e-10	1.536609e+00	-6.066059e+01
8.500000e-07	3.482129e-07	-6.559771e-10	2.441678e+00	-4.430561e+01
8.600000e-07	4.770901e-07	-3.969214e-10	3.345369e+00	-2.714069e+01
8.700000e-07	6.057214e-07	-1.297347e-10	4.247335e+00	-9.300733e+00
8.800000e-07	7.339932e-07	1.489623e-10	5.146781e+00	9.043479e+00
8.900000e-07	8.618381e-07	4.361991e-10	6.043232e+00	2.769204e+01
9.000000e-07	9.893147e-07	7.261525e-10	6.937102e+00	4.642517e+01
9.100000e-07	1.116487e-06	1.008710e-09	7.828839e+00	6.501428e+01
9.200000e-07	1.243371e-06	1.280955e-09	8.718551e+00	8.323387e+01
9.300000e-07	1.369890e-06	1.550025e-09	9.605704e+00	1.008733e+02
9.400000e-07	1.496006e-06	1.810757e-09	1.049003e+01	1.177477e+02
9.500000e-07	1.621688e-06	2.053795e-09	1.137132e+01	1.337064e+02
9.600000e-07	1.746836e-06	2.274564e-09	1.224886e+01	1.486389e+02
9.700000e-07	1.871378e-06	2.481088e-09	1.312216e+01	1.624782e+02
9.800000e-07	1.995239e-06	2.675189e-09	1.399067e+01	1.752002e+02
9.900000e-07	2.118393e-06	2.850923e-09	1.485423e+01	1.868202e+02
1.000000e-06	2.240955e-06	3.006621e-09	1.571364e+01	1.973877e+02
1.010000e-06	2.362842e-06	3.149635e-09	1.656831e+01	2.069782e+02
1.020000e-06	2.483732e-06	3.285837e-09	1.741599e+01	2.156850e+02
1.030000e-06	2.603481e-06	3.408426e-09	1.825568e+01	2.236101e+02
1.040000e-06	2.722239e-06	3.519456e-09	1.908841e+01	2.308562e+02
1.050000e-06	2.840103e-06	3.619529e-09	1.991488e+01	2.375202e+02
1.060000e-06	2.956988e-06	3.713998e-09	2.073448e+01	2.436877e+02
1.070000e-06	3.072792e-06	3.805249e-09	2.154650e+01	2.494300e+02
1.080000e-06	3.187458e-06	3.890002e-09	2.235054e+01	2.548035e+02
1.090000e-06	3.300734e-06	3.965014e-09	2.314484e+01	2.598498e+02
1.100000e-06	3.412519e-06	4.033224e-09	2.392868e+01	2.645979e+02
1.110000e-06	3.523093e-06	4.100248e-09	2.470402e+01	2.690676e+02
1.120000e-06	3.632606e-06	4.163310e-09	2.547193e+01	2.732717e+02
1.130000e-06	3.740915e-06	4.222433e-09	2.623139e+01	2.772203e+02
1.140000e-06	3.848016e-06	4.276286e-09	2.698240e+01	2.809225e+02
1.150000e-06	3.953818e-06	4.327684e-09	2.772428e+01	2.843890e+02
1.160000e-06	4.058001e-06	4.375801e-09	2.845481e+01	2.876326e+02
1.170000e-06	4.160650e-06	4.420531e-09	2.917459e+01	2.906684e+02
1.180000e-06	4.261907e-06	4.460748e-09	2.988461e+01	2.935135e+02
1.190000e-06	4.361702e-06	4.499220e-09	3.058437e+01	2.961856e+02
1.200000e-06	4.460014e-06	4.535149e-09	3.127374e+01	2.987023e+02
1.210000e-06	4.556545e-06	4.570164e-09	3.195062e+01	3.010793e+02
1.220000e-06	4.651271e-06	4.606320e-09	3.261484e+01	3.033301e+02
1.230000e-06	4.744474e-06	4.639864e-09	3.326838e+01	3.054653e+02
1.240000e-06	4.836134e-06	4.668430e-09	3.391111e+01	3.074924e+02
1.250000e-06	4.926134e-06	4.695027e-09	3.454218e+01	3.094165e+02
1.260000e-06	5.014277e-06	4.723484e-09	3.516025e+01	3.112408e+02
1.270000e-06	5.100604e-06	4.749786e-09	3.576557e+01	3.129677e+02
1.280000e-06	5.185208e-06	4.771964e-09	3.635882e+01	3.145997e+02
1.290000e-06	5.268086e-06	4.791873e-09	3.693996e+01	3.161399e+02
1.300000e-06	5.349078e-06	4.814708e-09	3.750788e+01	3.175928e+02
1.310000e-06	5.428067e-06	4.836784e-09	3.806175e+01	3.189640e+02
1.320000e-06	5.505159e-06	4.855987e-09	3.860232e+01	3.202606e+02
1.330000e-06	5.580268e-06	4.874567e-09	3.912899e+01	3.214902e+02
1.340000e-06	5.653137e-06	4.894087e-09	3.963995e+01	3.226604e+02
1.350000e-06	5.723871e-06	4.913783e-09	4.013594e+01	3.237781e+02
1.360000e-06	5.792646e-06	4.932417e-09	4.061819e+01	3.248491e+02
1.370000e-06	5.859438e-06	4.949166e-09	4.108654e+01	3.258771e+02
1.380000e-06	5.924108e-06	4.963175e-09	4.154000e+01	3.268641e+02
1.390000e-06	5.986635e-06	4.976812e-09	4.197844e+01	3.278099e+02
1.400000e-06	6.047231e-06	4.990692e-09	4.240334e+01	3.287130e+02
1.410000e-06	6.105867e-06	5.004518e-09	4.281451e+01	3.295709e+02
1.420000e-06	6.162290e-06	5.017247e-09	4.321014e+01	3.303806e+02
1.430000e-06	6.216397e-06	5.029548e-09	4.358955e+01	3.311397e+02
1.440000e-06	6.268041e-06	5.043023e-09	4.395168e+01	3.318463e+02
1.450000e-06	6.317021e-06	5.057083e-09	4.429512e+01	3.325003e+02
1.460000e-06	6.363574e-06	5.069055e-09	4.462155e+01	3.331027e+02
1.470000e-06	6.407978e-06	5.077577e-09	4.493292e+01	3.336560e+02
1.480000e-06	6.450197e-06	5.086257e-09	4.522896e+01	3.341640e+02
1.490000e-06	6.490029e-06	5.095408e-09	4.550826e+01	3.346310e+02
1.500000e-06	6.527550e-06	5.102003e-09	4.577136e+01	3.350617e+02
1.510000e-06	6.562970e-06	5.107698e-09	4.601972e+01	3.354603e+02
1.520000e-06	6.596033e-06	5.114158e-09	4.625156e+01	3.358304e+02
1.530000e-06	6.626646e-06	5.122218e-09	4.646622e+01	3.361748e+02
1.540000e-06	6.655134e-06	5.131700e-09	4.666598e+01	3.364947e+02
1.550000e-06	6.681362e-06	5.139692e-09	4.684990e+01	3.367906e+02
1.560000e-06	6.705040e-06	5.145978e-09	4.701592e+01	3.370618e+02
1.570000e-06	6.726342e-06	5.149889e-09	4.716529e+01	3.373068e+02
1.580000e-06	6.745489e-06	5.153084e-09	4.729955e+01	3.375239e+02
1.590000e-06	6.762300e-06	5.156758e-09	4.741743e+01	3.377109e+02
1.600000e-06	6.776600e-06	5.159655e-09	4.751771e+01	3.378659e+02
1.610000e-06	6.788306e-06	5.161374e-09	4.759978e+01	3.379872e+02
1.620000e-06	6.797299e-06	5.162734e-09	4.766285e+01	3.380735e+02
1.630000e-06	6.803750e-06	5.167494e-09	4.770808e+01	3.381238e+02
1.640000e-06	6.807948e-06	5.172690e-09	4.773752e+01	3.381378e+02
1.650000e-06	6.809835e-06	5.175389e-09	4.775075e+01	3.381156e+02
1.660000e-06	6.809287e-06	5.175792e-09	4.774690e+01	3.380576e+02
1.670000e-06	6.806494e-06	5.170587e-09	4.772732e+01	3.379650e+02
1.680000e-06	6.801550e-06	5.167313e-09	4.769265e+01	3.378394e+02
1.690000e-06	6.794250e-06	5.164732e-09	4.764147e+01	3.376830e+02
1.700000e-06	6.784730e-06	5.162231e-09	4.757471e+01	3.374985e+02
1.710000e-06	6.773100e-06	5.162042e-09	4.749316e+01	3.372890e+02
1.720000e-06	6.758984e-06	5.163083e-09	4.739418e+01	3.370577e+02
1.730000e-06	6.742565e-06	5.160778e-09	4.727905e+01	3.368080e+02
1.740000e-06	6.724143e-06	5.095573e-09	4.714987e+01	3.365424e+02
1.750000e-06	6.703068e-06	5.057224e-09	4.700209e+01	3.362627e+02
1.760000e-06	6.678664e-06	5.095078e-09	4.683097e+01	3.359693e+02
1.770000e-06	6.651427e-06	5.110391e-09	4.663999e+01	3.356606e+02
1.780000e-06	6.622099e-06	5.122940e-09	4.643433e+01	3.353331e+02
1.790000e-06	6.590865e-06	5.215565e-09	4.621533e+01	3.349813e+02
1.800000e-06	6.558085e-06	5.143565e-09	4.598547e+01	3.345976e+02
1.810000e-06	6.523472e-06	5.036892e-09	4.574276e+01	3.341732e+02
1.820000e-06	6.486382e-06	5.114464e-09	4.548269e+01	3.336989e+02
1.830000e-06	6.447033e-06	5.083515e-09	4.520677e+01	3.331652e+02
1.840000e-06	6.405489e-06	5.137830e-09	4.491547e+01	3.325644e+02
1.850000e-06	6.361737e-06	5.114648e-09	4.460867e+01	3.318903e+02
1.860000e-06	6.315868e-06	4.970912e-09	4.428704e+01	3.311400e+02
1.870000e-06	6.267603e-06	5.024749e-09	4.394861e+01	3.303135e+02
1.880000e-06	6.217057e-06	5.055940e-09	4.359417e+01	3.294143e+02
1.890000e-06	6.163993e-06	5.138710e-09	4.322209e+01	3.284484e+02
1.900000e-06	6.108234e-06	5.013237e-09	4.283110e+01	3.274244e+02
1.910000e-06	6.050300e-06	4.818501e-09	4.242487e+01	3.263519e+02
1.920000e-06	5.990401e-06	4.970350e-09	4.200485e+01	3.252402e+02
1.930000e-06	5.928398e-06	5.038705e-09	4.157009e+01	3.240978e+02
1.940000e-06	5.864044e-06	4.985120e-09	4.111884e+01	3.229303e+02
1.950000e-06	5.797570e-06	4.828937e-09	4.065272e+01	3.217407e+02
1.960000e-06	5.729075e-06	4.818270e-09	4.017243e+01	3.205283e+02
1.970000e-06	5.658221e-06	4.928739e-09	3.967560e+01	3.192890e+02
1.980000e-06	5.585265e-06	4.897861e-09	3.916403e+01	3.180160e+02
1.990000e-06	5.510389e-06	4.875619e-09	3.863900e+01	3.167006e+02
2.000000e-06	5.433322e-06	4.738250e-09	3.809860e+01	3.153333e+02
2.010000e-06	5.354032e-06	4.741378e-09	3.754262e+01	3.139052e+02
2.020000e-06	5.272787e-06	4.841682e-09	3.697293e+01	3.124090e+02
2.030000e-06	5.189876e-06	4.822117e-09	3.639155e+01	3.108398e+02
2.040000e-06	5.105169e-06	4.698441e-09	3.579758e+01	3.091956e+02
2.050000e-06	5.018427e-06	4.605704e-09	3.518935e+01	3.074772e+02
2.060000e-06	4.929788e-06	4.709097e-09	3.456781e+01	3.056878e+02
2.070000e-06	4.839565e-06	4.709080e-09	3.393516e+01	3.038319e+02
2.080000e-06	4.747772e-06	4.609481e-09	3.329150e+01	3.019141e+02
2.090000e-06	4.654191e-06	4.520563e-09	3.263531e+01	2.999382e+02
2.100000e-06	4.558809e-06	4.523002e-09	3.196649e+01	2.979058e+02
2.110000e-06	4.461816e-06	4.546631e-09	3.128637e+01	2.958160e+02
2.120000e-06	4.363375e-06	4.506338e-09	3.059611e+01	2.936644e+02
2.130000e-06	4.263592e-06	4.440496e-09	2.989643e+01	2.914438e+02
2.140000e-06	4.162201e-06	4.366300e-09	2.918546e+01	2.891447e+02
2.150000e-06	4.059065e-06	4.372901e-09	2.846227e+01	2.867564e+02
2.160000e-06	3.954471e-06	4.378871e-09	2.772885e+01	2.842681e+02
2.170000e-06	3.848510e-06	4.326207e-09	2.698586e+01	2.816701e+02
2.180000e-06	3.741298e-06	4.234838e-09	2.623408e+01	2.789549e+02
2.190000e-06	3.632975e-06	4.202502e-09	2.547452e+01	2.761181e+02
2.200000e-06	3.523382e-06	4.194660e-09	2.470605e+01	2.731580e+02
2.210000e-06	3.412445e-06	4.139176e-09	2.392815e+01	2.700755e+02
2.220000e-06	3.300171e-06	4.061589e-09	2.314089e+01	2.668730e+02
2.230000e-06	3.186665e-06	4.007200e-09	2.234498e+01	2.635530e+02
2.240000e-06	3.072009e-06	3.972676e-09	2.154101e+01	2.601166e+02
2.250000e-06	2.956226e-06	3.916604e-09	2.072914e+01	2.565623e+02
2.260000e-06	2.839110e-06	3.854134e-09	1.990792e+01	2.528840e+02
2.270000e-06	2.720647e-06	3.795988e-09	1.907725e+01	2.490712e+02
2.280000e-06	2.601180e-06	3.741286e-09	1.823954e+01	2.451084e+02
2.290000e-06	2.480859e-06	3.675108e-09	1.739585e+01	2.409755e+02
2.300000e-06	2.359689e-06	3.608477e-09	1.654620e+01	2.366495e+02
2.310000e-06	2.237695e-06	3.545565e-09	1.569078e+01	2.321052e+02
2.320000e-06	2.114984e-06	3.478482e-09	1.483032e+01	2.273172e+02
2.330000e-06	1.991645e-06	3.396553e-09	1.396547e+01	2.222608e+02
2.340000e-06	1.867748e-06	3.307263e-09	1.309670e+01	2.169132e+02
2.350000e-06	1.743171e-06	3.217218e-09	1.222316e+01	2.112530e+02
2.360000e-06	1.617867e-06	3.130844e-09	1.134453e+01	2.052597e+02
2.370000e-06	1.491797e-06	3.044609e-09	1.046052e+01	1.989122e+02
2.380000e-06	1.365033e-06	2.938021e-09	9.571647e+00	1.921859e+02
2.390000e-06	1.237783e-06	2.815012e-09	8.679370e+00	1.850508e+02
2.400000e-06	1.110220e-06	2.701039e-09	7.784896e+00	1.774688e+02
2.410000e-06	9.824014e-07	2.598367e-09	6.888625e+00	1.693918e+02
2.420000e-06	8.542857e-07	2.471613e-09	5.990275e+00	1.607614e+02
2.430000e-06	7.258776e-07	2.310396e-09	5.089873e+00	1.515093e+02
2.440000e-06	5.971940e-07	2.151078e-09	4.187540e+00	1.415603e+02
2.450000e-06	4.682704e-07	2.005207e-09	3.283525e+00	1.308365e+02
2.460000e-06	3.391781e-07	1.841618e-09	2.378326e+00	1.192635e+02
2.470000e-06	2.099413e-07	1.641623e-09	1.472114e+00	1.067777e+02
2.480000e-06	8.061894e-08	1.422520e-09	5.653022e-01	9.333390e+01
2.490000e-06	-4.867585e-08	1.207116e-09	-3.413164e-01	7.891346e+01
2.500000e-06	-1.779587e-07	9.893135e-10	-1.247852e+00	6.353052e+01
2.510000e-06	-3.071510e-07	7.475308e-10	-2.153751e+00	4.723714e+01
2.520000e-06	-4.362295e-07	4.753423e-10	-3.058853e+00	3.012566e+01
2.530000e-06	-5.651784e-07	1.936058e-10	-3.963046e+00	1.232826e+01
2.540000e-06	-6.938506e-07	-7.880293e-11	-4.865299e+00	-5.986651e+00
2.550000e-06	-8.222191e-07	-3.537703e-10	-5.765423e+00	-2.462097e+01
2.560000e-06	-9.503056e-07	-6.462086e-10	-6.663569e+00	-4.335600e+01
2.570000e-06	-1.078118e-06	-9.450569e-10	-7.559794e+00	-6.196337e+01
2.580000e-06	-1.205654e-06	-1.226486e-09	-8.454077e+00	-8.021696e+01
2.590000e-06	-1.332905e-06	-1.485759e-09	-9.346363e+00	-9.790475e+01
2.600000e-06	-1.459735e-06	-1.740653e-09	-1.023570e+01	-1.148396e+02
2.610000e-06	-1.585845e-06	-1.993945e-09	-1.111999e+01	-1.308682e+02
2.620000e-06	-1.711046e-06	-2.229093e-09	-1.199790e+01	-1.458772e+02
2.630000e-06	-1.835424e-06	-2.435865e-09	-1.287004e+01	-1.597963e+02
2.640000e-06	-1.959125e-06	-2.625249e-09	-1.373744e+01	-1.725983e+02
2.650000e-06	-2.082234e-06	-2.805714e-09	-1.460068e+01	-1.842962e+02
2.660000e-06	-2.204720e-06	-2.974289e-09	-1.545956e+01	-1.949370e+02
2.670000e-06	-2.326378e-06	-3.126582e-09	-1.631263e+01	-2.045948e+02
2.680000e-06	-2.447070e-06	-3.258841e-09	-1.715892e+01	-2.133617e+02
2.690000e-06	-2.566932e-06	-3.377873e-09	-1.799940e+01	-2.213396e+02
2.700000e-06	-2.686058e-06	-3.493730e-09	-1.883471e+01	-2.286313e+02
2.710000e-06	-2.804101e-06	-3.603134e-09	-1.966243e+01	-2.353343e+02
2.720000e-06	-2.920824e-06	-3.696395e-09	-2.048089e+01	-2.415350e+02
2.730000e-06	-3.036353e-06	-3.778149e-09	-2.129099e+01	-2.473061e+02
2.740000e-06	-3.150729e-06	-3.857661e-09	-2.209300e+01	-2.527048e+02
2.750000e-06	-3.263865e-06	-3.937383e-09	-2.288631e+01	-2.577737e+02
2.760000e-06	-3.375599e-06	-4.011508e-09	-2.366979e+01	-2.625428e+02
2.770000e-06	-3.485955e-06	-4.076210e-09	-2.444361e+01	-2.670322e+02
2.780000e-06	-3.595092e-06	-4.137974e-09	-2.520889e+01	-2.712554e+02
2.790000e-06	-3.703095e-06	-4.201000e-09	-2.596620e+01	-2.752223e+02
2.800000e-06	-3.810000e-06	-4.261792e-09	-2.671582e+01	-2.789422e+02
2.810000e-06	-3.915598e-06	-4.318092e-09	-2.745628e+01	-2.824256e+02
2.820000e-06	-4.019749e-06	-4.371252e-09	-2.818659e+01	-2.856850e+02
2.830000e-06	-4.122401e-06	-4.419920e-09	-2.890639e+01	-2.887354e+02
2.840000e-06	-4.223391e-06	-4.464895e-09	-2.961453e+01	-2.915939e+02
2.850000e-06	-4.322902e-06	-4.510167e-09	-3.031231e+01	-2.942782e+02
2.860000e-06	-4.421023e-06	-4.551137e-09	-3.100033e+01	-2.968058e+02
2.870000e-06	-4.517631e-06	-4.584779e-09	-3.167775e+01	-2.991927e+02
2.880000e-06	-4.612688e-06	-4.618233e-09	-3.234429e+01	-3.014526e+02
2.890000e-06	-4.706038e-06	-4.653356e-09	-3.299886e+01	-3.035961e+02
2.900000e-06	-4.797765e-06	-4.687430e-09	-3.364206e+01	-3.056311e+02
2.910000e-06	-4.887874e-06	-4.717637e-09	-3.427390e+01	-3.075628e+02
2.920000e-06	-4.976227e-06	-4.744459e-09	-3.489344e+01	-3.093945e+02
2.930000e-06	-5.062733e-06	-4.769765e-09	-3.550002e+01	-3.111288e+02
2.940000e-06	-5.147314e-06	-4.795809e-09	-3.609311e+01	-3.127678e+02
