# Temperatura_=_20.0
# Concentracion g/m^3_=_9000.0
# C_Vs_to_Am_M_A/Vsm_=_65563218390.804596
# pendiente_HvsI_1/m_=_3716.3
# ordenada_HvsI_A/m_=_1297.0
# frecuencia_Hz_=_301072.02024102624

Tiempo_(s)	Campo_(V.s)	Magnetizacion_(V.s)	Campo_(kA/m)	Magnetizacion_(A/m)
0.000000e+00	-6.720545e-06	-5.060003e-09	-4.746534e+01	-3.318424e+02
1.000000e-08	-6.717137e-06	-5.061740e-09	-4.744126e+01	-3.317135e+02
2.000000e-08	-6.711568e-06	-5.057758e-09	-4.740193e+01	-3.315564e+02
3.000000e-08	-6.703928e-06	-5.054048e-09	-4.734797e+01	-3.313783e+02
4.000000e-08	-6.694018e-06	-5.048043e-09	-4.727798e+01	-3.311856e+02
5.000000e-08	-6.681623e-06	-5.042788e-09	-4.719043e+01	-3.309834e+02
6.000000e-08	-6.666763e-06	-5.036068e-09	-4.708548e+01	-3.307752e+02
7.000000e-08	-6.649588e-06	-5.030965e-09	-4.696418e+01	-3.305619e+02
8.000000e-08	-6.630275e-06	-5.066683e-09	-4.682778e+01	-3.303424e+02
9.000000e-08	-6.608609e-06	-5.106272e-09	-4.667476e+01	-3.301130e+02
1.000000e-07	-6.584279e-06	-5.078643e-09	-4.650292e+01	-3.298678e+02
1.100000e-07	-6.557308e-06	-5.042209e-09	-4.631243e+01	-3.295994e+02
1.200000e-07	-6.528006e-06	-5.012968e-09	-4.610548e+01	-3.292988e+02
1.300000e-07	-6.496843e-06	-4.945124e-09	-4.588538e+01	-3.289570e+02
1.400000e-07	-6.463849e-06	-4.933695e-09	-4.565236e+01	-3.285647e+02
1.500000e-07	-6.428824e-06	-5.074600e-09	-4.540499e+01	-3.281139e+02
1.600000e-07	-6.391736e-06	-5.035585e-09	-4.514305e+01	-3.275981e+02
1.700000e-07	-6.352595e-06	-4.946478e-09	-4.486661e+01	-3.270128e+02
1.800000e-07	-6.311142e-06	-4.967817e-09	-4.457383e+01	-3.263561e+02
1.900000e-07	-6.267228e-06	-4.921619e-09	-4.426368e+01	-3.256289e+02
2.000000e-07	-6.221085e-06	-4.976626e-09	-4.393779e+01	-3.248344e+02
2.100000e-07	-6.172520e-06	-4.966897e-09	-4.359478e+01	-3.239780e+02
2.200000e-07	-6.121312e-06	-4.883512e-09	-4.323312e+01	-3.230667e+02
2.300000e-07	-6.067657e-06	-4.860883e-09	-4.285417e+01	-3.221086e+02
2.400000e-07	-6.011687e-06	-4.858618e-09	-4.245887e+01	-3.211113e+02
2.500000e-07	-5.953470e-06	-4.922351e-09	-4.204769e+01	-3.200820e+02
2.600000e-07	-5.893114e-06	-4.904496e-09	-4.162142e+01	-3.190259e+02
2.700000e-07	-5.830696e-06	-4.814763e-09	-4.118058e+01	-3.179461e+02
2.800000e-07	-5.766181e-06	-4.793719e-09	-4.072493e+01	-3.168429e+02
2.900000e-07	-5.699567e-06	-4.834991e-09	-4.025445e+01	-3.157141e+02
3.000000e-07	-5.630854e-06	-4.861328e-09	-3.976915e+01	-3.145549e+02
3.100000e-07	-5.560074e-06	-4.768086e-09	-3.926925e+01	-3.133587e+02
3.200000e-07	-5.487376e-06	-4.717975e-09	-3.875580e+01	-3.121178e+02
3.300000e-07	-5.412537e-06	-4.716193e-09	-3.822724e+01	-3.108243e+02
3.400000e-07	-5.335442e-06	-4.708625e-09	-3.768273e+01	-3.094709e+02
3.500000e-07	-5.256230e-06	-4.705807e-09	-3.712328e+01	-3.080520e+02
3.600000e-07	-5.174974e-06	-4.657385e-09	-3.654940e+01	-3.065641e+02
3.700000e-07	-5.091947e-06	-4.608352e-09	-3.596300e+01	-3.050059e+02
3.800000e-07	-5.007291e-06	-4.583941e-09	-3.536510e+01	-3.033787e+02
3.900000e-07	-4.921014e-06	-4.618104e-09	-3.475575e+01	-3.016855e+02
4.000000e-07	-4.833138e-06	-4.600421e-09	-3.413511e+01	-2.999307e+02
4.100000e-07	-4.743450e-06	-4.512061e-09	-3.350167e+01	-2.981186e+02
4.200000e-07	-4.651942e-06	-4.484968e-09	-3.285537e+01	-2.962532e+02
4.300000e-07	-4.558778e-06	-4.513106e-09	-3.219737e+01	-2.943364e+02
4.400000e-07	-4.464011e-06	-4.489102e-09	-3.152806e+01	-2.923679e+02
4.500000e-07	-4.367621e-06	-4.415624e-09	-3.084729e+01	-2.903448e+02
4.600000e-07	-4.269535e-06	-4.389320e-09	-3.015454e+01	-2.882614e+02
4.700000e-07	-4.169921e-06	-4.371687e-09	-2.945099e+01	-2.861094e+02
4.800000e-07	-4.068825e-06	-4.323965e-09	-2.873698e+01	-2.838793e+02
4.900000e-07	-3.966303e-06	-4.287392e-09	-2.801289e+01	-2.815607e+02
5.000000e-07	-3.862462e-06	-4.252700e-09	-2.727949e+01	-2.791437e+02
5.100000e-07	-3.757081e-06	-4.190916e-09	-2.653521e+01	-2.766199e+02
5.200000e-07	-3.650212e-06	-4.148784e-09	-2.578043e+01	-2.739830e+02
5.300000e-07	-3.542073e-06	-4.138309e-09	-2.501667e+01	-2.712289e+02
5.400000e-07	-3.432754e-06	-4.092729e-09	-2.424458e+01	-2.683563e+02
5.500000e-07	-3.322357e-06	-4.026217e-09	-2.346488e+01	-2.653653e+02
5.600000e-07	-3.210868e-06	-3.995753e-09	-2.267746e+01	-2.622570e+02
5.700000e-07	-3.098032e-06	-3.971134e-09	-2.188054e+01	-2.590323e+02
5.800000e-07	-2.983760e-06	-3.908513e-09	-2.107346e+01	-2.556902e+02
5.900000e-07	-2.868258e-06	-3.844707e-09	-2.025770e+01	-2.522271e+02
6.000000e-07	-2.751653e-06	-3.800928e-09	-1.943416e+01	-2.486353e+02
6.100000e-07	-2.634031e-06	-3.746375e-09	-1.860343e+01	-2.449033e+02
6.200000e-07	-2.515512e-06	-3.673022e-09	-1.776636e+01	-2.410149e+02
6.300000e-07	-2.396192e-06	-3.602788e-09	-1.692364e+01	-2.369508e+02
6.400000e-07	-2.276059e-06	-3.538143e-09	-1.607517e+01	-2.326884e+02
6.500000e-07	-2.155069e-06	-3.467916e-09	-1.522065e+01	-2.282041e+02
6.600000e-07	-2.033176e-06	-3.390293e-09	-1.435975e+01	-2.234734e+02
6.700000e-07	-1.910447e-06	-3.314198e-09	-1.349295e+01	-2.184728e+02
6.800000e-07	-1.787014e-06	-3.239262e-09	-1.262118e+01	-2.131793e+02
6.900000e-07	-1.662930e-06	-3.158212e-09	-1.174481e+01	-2.075711e+02
7.000000e-07	-1.538280e-06	-3.073345e-09	-1.086444e+01	-2.016260e+02
7.100000e-07	-1.413167e-06	-2.982485e-09	-9.980806e+00	-1.953203e+02
7.200000e-07	-1.287560e-06	-2.881254e-09	-9.093677e+00	-1.886266e+02
7.300000e-07	-1.161513e-06	-2.768818e-09	-8.203445e+00	-1.815118e+02
7.400000e-07	-1.035146e-06	-2.654154e-09	-7.310946e+00	-1.739352e+02
7.500000e-07	-9.084259e-07	-2.529088e-09	-6.415959e+00	-1.658470e+02
7.600000e-07	-7.813891e-07	-2.384305e-09	-5.518733e+00	-1.571885e+02
7.700000e-07	-6.541188e-07	-2.234959e-09	-4.619859e+00	-1.478929e+02
7.800000e-07	-5.266461e-07	-2.087195e-09	-3.719554e+00	-1.378883e+02
7.900000e-07	-3.989883e-07	-1.924608e-09	-2.817943e+00	-1.271023e+02
8.000000e-07	-2.711919e-07	-1.739761e-09	-1.915353e+00	-1.154671e+02
8.100000e-07	-1.433052e-07	-1.548752e-09	-1.012125e+00	-1.029270e+02
8.200000e-07	-1.534666e-08	-1.349496e-09	-1.083892e-01	-8.944509e+01
8.300000e-07	1.126635e-07	-1.127778e-09	7.957106e-01	-7.501043e+01
8.400000e-07	2.406095e-07	-8.870060e-10	1.699358e+00	-5.964394e+01
8.500000e-07	3.684405e-07	-6.397987e-10	2.602192e+00	-4.340270e+01
8.600000e-07	4.961307e-07	-3.845001e-10	3.504032e+00	-2.638188e+01
8.700000e-07	6.236131e-07	-1.169063e-10	4.404405e+00	-8.714109e+00
8.800000e-07	7.508805e-07	1.589224e-10	5.303259e+00	9.434194e+00
8.900000e-07	8.779065e-07	4.406079e-10	6.200409e+00	2.786906e+01
9.000000e-07	1.004686e-06	7.234561e-10	7.095815e+00	4.637766e+01
9.100000e-07	1.131146e-06	1.001183e-09	7.988968e+00	6.473866e+01
9.200000e-07	1.257244e-06	1.272068e-09	8.879563e+00	8.273348e+01
9.300000e-07	1.382948e-06	1.539461e-09	9.767379e+00	1.001575e+02
9.400000e-07	1.508167e-06	1.797546e-09	1.065176e+01	1.168305e+02
9.500000e-07	1.632880e-06	2.036704e-09	1.153257e+01	1.326047e+02
9.600000e-07	1.757126e-06	2.256082e-09	1.241009e+01	1.473711e+02
9.700000e-07	1.880883e-06	2.462107e-09	1.328415e+01	1.610626e+02
9.800000e-07	2.004034e-06	2.654020e-09	1.415394e+01	1.736536e+02
9.900000e-07	2.126403e-06	2.825800e-09	1.501819e+01	1.851576e+02
1.000000e-06	2.247853e-06	2.979179e-09	1.587596e+01	1.956215e+02
1.010000e-06	2.368380e-06	3.122120e-09	1.672721e+01	2.051183e+02
1.020000e-06	2.487978e-06	3.257688e-09	1.757189e+01	2.137392e+02
1.030000e-06	2.606665e-06	3.378587e-09	1.841015e+01	2.215846e+02
1.040000e-06	2.724494e-06	3.488026e-09	1.924234e+01	2.287561e+02
1.050000e-06	2.841457e-06	3.589201e-09	2.006842e+01	2.353497e+02
1.060000e-06	2.957403e-06	3.684815e-09	2.088731e+01	2.414506e+02
1.070000e-06	3.072117e-06	3.776256e-09	2.169750e+01	2.471297e+02
1.080000e-06	3.185471e-06	3.859634e-09	2.249809e+01	2.524427e+02
1.090000e-06	3.297467e-06	3.932849e-09	2.328909e+01	2.574302e+02
1.100000e-06	3.408284e-06	3.998956e-09	2.407176e+01	2.621199e+02
1.110000e-06	3.518018e-06	4.065436e-09	2.484678e+01	2.665297e+02
1.120000e-06	3.626592e-06	4.128478e-09	2.561361e+01	2.706708e+02
1.130000e-06	3.734024e-06	4.186261e-09	2.637237e+01	2.745513e+02
1.140000e-06	3.840178e-06	4.239009e-09	2.712210e+01	2.781792e+02
1.150000e-06	3.944764e-06	4.289766e-09	2.786077e+01	2.815641e+02
1.160000e-06	4.047808e-06	4.338075e-09	2.858854e+01	2.847188e+02
1.170000e-06	4.149459e-06	4.381470e-09	2.930647e+01	2.876595e+02
1.180000e-06	4.249760e-06	4.419905e-09	3.001487e+01	2.904048e+02
1.190000e-06	4.348645e-06	4.455773e-09	3.071327e+01	2.929750e+02
1.200000e-06	4.445838e-06	4.490320e-09	3.139971e+01	2.953905e+02
1.210000e-06	4.541270e-06	4.524224e-09	3.207372e+01	2.976700e+02
1.220000e-06	4.635112e-06	4.557317e-09	3.273650e+01	2.998294e+02
1.230000e-06	4.727444e-06	4.587140e-09	3.338862e+01	3.018811e+02
1.240000e-06	4.818224e-06	4.614345e-09	3.402977e+01	3.038337e+02
1.250000e-06	4.907169e-06	4.641049e-09	3.465796e+01	3.056921e+02
1.260000e-06	4.994265e-06	4.668482e-09	3.527310e+01	3.074583e+02
1.270000e-06	5.079642e-06	4.693225e-09	3.587609e+01	3.091327e+02
1.280000e-06	5.163336e-06	4.714192e-09	3.646720e+01	3.107153e+02
1.290000e-06	5.245282e-06	4.733500e-09	3.704596e+01	3.122063e+02
1.300000e-06	5.325299e-06	4.755588e-09	3.761110e+01	3.136079e+02
1.310000e-06	5.403419e-06	4.776915e-09	3.816284e+01	3.149239e+02
1.320000e-06	5.479637e-06	4.794545e-09	3.870115e+01	3.161605e+02
1.330000e-06	5.553695e-06	4.812049e-09	3.922420e+01	3.173253e+02
1.340000e-06	5.625560e-06	4.830746e-09	3.973176e+01	3.184272e+02
1.350000e-06	5.695469e-06	4.848537e-09	4.022550e+01	3.194753e+02
1.360000e-06	5.763485e-06	4.864383e-09	4.070589e+01	3.204778e+02
1.370000e-06	5.829421e-06	4.878842e-09	4.117157e+01	3.214413e+02
1.380000e-06	5.893182e-06	4.892135e-09	4.162190e+01	3.223701e+02
1.390000e-06	5.954964e-06	4.906362e-09	4.205825e+01	3.232662e+02
1.400000e-06	6.014857e-06	4.920604e-09	4.248126e+01	3.241291e+02
1.410000e-06	6.072587e-06	4.933559e-09	4.288899e+01	3.249562e+02
1.420000e-06	6.128044e-06	4.945539e-09	4.328066e+01	3.257439e+02
1.430000e-06	6.181242e-06	4.958235e-09	4.365639e+01	3.264879e+02
1.440000e-06	6.231891e-06	4.971359e-09	4.401410e+01	3.271848e+02
1.450000e-06	6.279994e-06	4.983003e-09	4.435384e+01	3.278321e+02
1.460000e-06	6.325849e-06	4.994479e-09	4.467771e+01	3.284292e+02
1.470000e-06	6.369682e-06	5.003907e-09	4.498729e+01	3.289778e+02
1.480000e-06	6.411244e-06	5.013168e-09	4.528083e+01	3.294812e+02
1.490000e-06	6.450337e-06	5.022745e-09	4.555693e+01	3.299445e+02
1.500000e-06	6.487266e-06	5.030883e-09	4.581775e+01	3.303737e+02
1.510000e-06	6.522066e-06	5.038874e-09	4.606353e+01	3.307751e+02
1.520000e-06	6.554452e-06	5.046121e-09	4.629226e+01	3.311542e+02
1.530000e-06	6.584472e-06	5.054316e-09	4.650429e+01	3.315152e+02
1.540000e-06	6.612404e-06	5.062115e-09	4.670156e+01	3.318602e+02
1.550000e-06	6.637990e-06	5.068231e-09	4.688227e+01	3.321895e+02
1.560000e-06	6.661021e-06	5.072988e-09	4.704493e+01	3.325008e+02
1.570000e-06	6.681817e-06	5.077039e-09	4.719181e+01	3.327901e+02
1.580000e-06	6.700399e-06	5.082169e-09	4.732304e+01	3.330519e+02
1.590000e-06	6.716500e-06	5.087257e-09	4.743676e+01	3.332802e+02
1.600000e-06	6.730149e-06	5.091552e-09	4.753316e+01	3.334690e+02
1.610000e-06	6.741275e-06	5.094895e-09	4.761174e+01	3.336132e+02
1.620000e-06	6.749727e-06	5.098144e-09	4.767144e+01	3.337091e+02
1.630000e-06	6.755737e-06	5.102726e-09	4.771389e+01	3.337552e+02
1.640000e-06	6.759534e-06	5.105210e-09	4.774070e+01	3.337520e+02
1.650000e-06	6.760957e-06	5.105820e-09	4.775075e+01	3.337023e+02
1.660000e-06	6.759923e-06	5.102078e-09	4.774345e+01	3.336107e+02
1.670000e-06	6.756755e-06	5.097556e-09	4.772107e+01	3.334836e+02
1.680000e-06	6.751491e-06	5.094690e-09	4.768390e+01	3.333277e+02
1.690000e-06	6.743931e-06	5.092970e-09	4.763050e+01	3.331503e+02
1.700000e-06	6.734134e-06	5.093781e-09	4.756131e+01	3.329578e+02
1.710000e-06	6.722140e-06	5.096339e-09	4.747660e+01	3.327556e+02
1.720000e-06	6.707752e-06	5.103699e-09	4.737498e+01	3.325472e+02
1.730000e-06	6.691114e-06	5.088976e-09	4.725747e+01	3.323337e+02
1.740000e-06	6.672375e-06	5.009287e-09	4.712512e+01	3.321142e+02
1.750000e-06	6.650855e-06	5.000290e-09	4.697313e+01	3.318851e+02
1.760000e-06	6.626049e-06	5.031140e-09	4.679793e+01	3.316407e+02
1.770000e-06	6.598651e-06	5.037225e-09	4.660443e+01	3.313736e+02
1.780000e-06	6.569229e-06	5.104443e-09	4.639663e+01	3.310751e+02
1.790000e-06	6.537954e-06	5.147989e-09	4.617574e+01	3.307359e+02
1.800000e-06	6.505151e-06	5.007776e-09	4.594406e+01	3.303470e+02
1.810000e-06	6.470357e-06	5.008402e-09	4.569832e+01	3.299000e+02
1.820000e-06	6.433074e-06	5.027484e-09	4.543501e+01	3.293884e+02
1.830000e-06	6.393582e-06	5.003526e-09	4.515609e+01	3.288076e+02
1.840000e-06	6.351885e-06	5.111766e-09	4.486159e+01	3.281555e+02
1.850000e-06	6.308068e-06	4.968694e-09	4.455212e+01	3.274327e+02
1.860000e-06	6.262089e-06	4.911178e-09	4.422738e+01	3.266422e+02
1.870000e-06	6.213658e-06	4.976956e-09	4.388533e+01	3.257895e+02
1.880000e-06	6.163069e-06	4.992746e-09	4.352804e+01	3.248813e+02
1.890000e-06	6.110010e-06	5.061716e-09	4.315329e+01	3.239257e+02
1.900000e-06	6.054326e-06	4.867539e-09	4.276001e+01	3.229304e+02
1.910000e-06	5.996459e-06	4.788461e-09	4.235131e+01	3.219026e+02
1.920000e-06	5.936597e-06	4.926034e-09	4.192853e+01	3.208477e+02
1.930000e-06	5.874650e-06	4.938116e-09	4.149101e+01	3.197689e+02
1.940000e-06	5.810395e-06	4.894691e-09	4.103720e+01	3.186669e+02
1.950000e-06	5.744035e-06	4.738287e-09	4.056852e+01	3.175395e+02
1.960000e-06	5.675510e-06	4.787429e-09	4.008454e+01	3.163821e+02
1.970000e-06	5.604626e-06	4.849090e-09	3.958391e+01	3.151883e+02
1.980000e-06	5.531741e-06	4.838054e-09	3.906914e+01	3.139503e+02
1.990000e-06	5.456979e-06	4.795489e-09	3.854112e+01	3.126602e+02
2.000000e-06	5.380139e-06	4.649335e-09	3.799842e+01	3.113107e+02
2.010000e-06	5.301101e-06	4.711226e-09	3.744020e+01	3.098961e+02
2.020000e-06	5.220073e-06	4.773875e-09	3.686792e+01	3.084125e+02
2.030000e-06	5.137293e-06	4.743790e-09	3.628326e+01	3.068588e+02
2.040000e-06	5.052742e-06	4.609144e-09	3.568611e+01	3.052358e+02
2.050000e-06	4.966336e-06	4.565748e-09	3.507584e+01	3.035467e+02
2.060000e-06	4.878059e-06	4.654417e-09	3.445237e+01	3.017955e+02
2.070000e-06	4.788065e-06	4.615849e-09	3.381676e+01	2.999869e+02
2.080000e-06	4.696537e-06	4.532067e-09	3.317033e+01	2.981246e+02
2.090000e-06	4.603435e-06	4.456785e-09	3.251277e+01	2.962108e+02
2.100000e-06	4.508525e-06	4.471593e-09	3.184245e+01	2.942456e+02
2.110000e-06	4.411967e-06	4.474453e-09	3.116049e+01	2.922260e+02
2.120000e-06	4.313946e-06	4.441147e-09	3.046819e+01	2.901465e+02
2.130000e-06	4.214500e-06	4.376472e-09	2.976584e+01	2.879992e+02
2.140000e-06	4.113591e-06	4.317350e-09	2.905314e+01	2.857744e+02
2.150000e-06	4.010992e-06	4.329847e-09	2.832852e+01	2.834619e+02
2.160000e-06	3.906836e-06	4.323555e-09	2.759289e+01	2.810517e+02
2.170000e-06	3.801371e-06	4.263647e-09	2.684802e+01	2.785352e+02
2.180000e-06	3.694663e-06	4.181014e-09	2.609438e+01	2.759059e+02
2.190000e-06	3.586825e-06	4.165165e-09	2.533274e+01	2.731597e+02
2.200000e-06	3.477769e-06	4.146916e-09	2.456251e+01	2.702950e+02
2.210000e-06	3.367339e-06	4.079852e-09	2.378257e+01	2.673118e+02
2.220000e-06	3.255615e-06	4.005519e-09	2.299350e+01	2.642113e+02
2.230000e-06	3.142730e-06	3.966710e-09	2.219623e+01	2.609944e+02
2.240000e-06	3.028629e-06	3.930411e-09	2.139036e+01	2.576602e+02
2.250000e-06	2.913402e-06	3.868440e-09	2.057655e+01	2.542054e+02
2.260000e-06	2.797119e-06	3.808928e-09	1.975527e+01	2.506226e+02
2.270000e-06	2.679686e-06	3.760067e-09	1.892588e+01	2.469004e+02
2.280000e-06	2.561014e-06	3.711235e-09	1.808773e+01	2.430233e+02
2.290000e-06	2.441273e-06	3.644441e-09	1.724203e+01	2.389718e+02
2.300000e-06	2.320738e-06	3.578274e-09	1.639072e+01	2.347238e+02
2.310000e-06	2.199453e-06	3.514927e-09	1.553412e+01	2.302556e+02
2.320000e-06	2.077449e-06	3.450083e-09	1.467244e+01	2.255428e+02
2.330000e-06	1.954764e-06	3.372483e-09	1.380595e+01	2.205616e+02
2.340000e-06	1.831457e-06	3.284702e-09	1.293507e+01	2.152892e+02
2.350000e-06	1.707567e-06	3.190676e-09	1.206007e+01	2.097036e+02
2.360000e-06	1.583175e-06	3.104387e-09	1.118153e+01	2.037828e+02
2.370000e-06	1.458239e-06	3.023031e-09	1.029914e+01	1.975031e+02
2.380000e-06	1.332662e-06	2.918775e-09	9.412222e+00	1.908376e+02
2.390000e-06	1.206501e-06	2.794833e-09	8.521180e+00	1.837536e+02
2.400000e-06	1.079812e-06	2.680591e-09	7.626407e+00	1.762109e+02
2.410000e-06	9.526595e-07	2.578532e-09	6.728368e+00	1.681605e+02
2.420000e-06	8.251685e-07	2.451391e-09	5.827935e+00	1.595443e+02
2.430000e-06	6.974304e-07	2.294764e-09	4.925756e+00	1.502959e+02
2.440000e-06	5.694858e-07	2.141067e-09	4.022119e+00	1.403439e+02
2.450000e-06	4.413641e-07	1.993581e-09	3.117231e+00	1.296154e+02
2.460000e-06	3.130729e-07	1.826086e-09	2.211146e+00	1.180424e+02
2.470000e-06	1.846222e-07	1.627517e-09	1.303935e+00	1.055678e+02
2.480000e-06	5.608648e-08	1.414000e-09	3.961232e-01	9.215333e+01
2.490000e-06	-7.243469e-08	1.199632e-09	-5.115860e-01	7.778587e+01
2.500000e-06	-2.008907e-07	9.782532e-10	-1.418835e+00	6.248392e+01
2.510000e-06	-3.292724e-07	7.355335e-10	-2.325559e+00	4.630189e+01
2.520000e-06	-4.575287e-07	4.691065e-10	-3.231398e+00	2.933222e+01
2.530000e-06	-5.856516e-07	1.947250e-10	-4.136294e+00	1.170494e+01
2.540000e-06	-7.135732e-07	-7.494840e-11	-5.039768e+00	-6.415765e+00
2.550000e-06	-8.411428e-07	-3.502349e-10	-5.940756e+00	-2.483762e+01
2.560000e-06	-9.683767e-07	-6.412278e-10	-6.839374e+00	-4.334883e+01
2.570000e-06	-1.095204e-06	-9.335220e-10	-7.735122e+00	-6.172829e+01
2.580000e-06	-1.221596e-06	-1.209087e-09	-8.627789e+00	-7.975685e+01
2.590000e-06	-1.347564e-06	-1.469687e-09	-9.517468e+00	-9.722857e+01
2.600000e-06	-1.472978e-06	-1.726613e-09	-1.040323e+01	-1.139611e+02
2.610000e-06	-1.597717e-06	-1.974741e-09	-1.128423e+01	-1.298041e+02
2.620000e-06	-1.721809e-06	-2.202485e-09	-1.216066e+01	-1.446458e+02
2.630000e-06	-1.845314e-06	-2.408120e-09	-1.303294e+01	-1.584160e+02
2.640000e-06	-1.968140e-06	-2.600137e-09	-1.390042e+01	-1.710862e+02
2.650000e-06	-2.090262e-06	-2.780258e-09	-1.476294e+01	-1.826672e+02
2.660000e-06	-2.211714e-06	-2.943756e-09	-1.562072e+01	-1.932038e+02
2.670000e-06	-2.332432e-06	-3.090568e-09	-1.647332e+01	-2.027674e+02
2.680000e-06	-2.452329e-06	-3.221908e-09	-1.732011e+01	-2.114482e+02
2.690000e-06	-2.571315e-06	-3.343014e-09	-1.816048e+01	-2.193461e+02
2.700000e-06	-2.689197e-06	-3.457863e-09	-1.899305e+01	-2.265630e+02
2.710000e-06	-2.805898e-06	-3.562798e-09	-1.981727e+01	-2.331955e+02
2.720000e-06	-2.921502e-06	-3.654162e-09	-2.063376e+01	-2.393297e+02
2.730000e-06	-3.035993e-06	-3.737571e-09	-2.144237e+01	-2.450375e+02
2.740000e-06	-3.149225e-06	-3.819370e-09	-2.224209e+01	-2.503756e+02
2.750000e-06	-3.261079e-06	-3.898096e-09	-2.303209e+01	-2.553858e+02
2.760000e-06	-3.371608e-06	-3.968479e-09	-2.381273e+01	-2.600967e+02
2.770000e-06	-3.480956e-06	-4.031404e-09	-2.458502e+01	-2.645266e+02
2.780000e-06	-3.589233e-06	-4.094345e-09	-2.534975e+01	-2.686872e+02
2.790000e-06	-3.696421e-06	-4.157025e-09	-2.610679e+01	-2.725867e+02
2.800000e-06	-3.802337e-06	-4.214899e-09	-2.685484e+01	-2.762329e+02
2.810000e-06	-3.906844e-06	-4.268232e-09	-2.759295e+01	-2.796353e+02
2.820000e-06	-4.009913e-06	-4.321128e-09	-2.832089e+01	-2.828066e+02
2.830000e-06	-4.111395e-06	-4.371286e-09	-2.903764e+01	-2.857625e+02
2.840000e-06	-4.211393e-06	-4.415248e-09	-2.974389e+01	-2.885217e+02
2.850000e-06	-4.310020e-06	-4.455514e-09	-3.044047e+01	-2.911043e+02
2.860000e-06	-4.407198e-06	-4.492444e-09	-3.112681e+01	-2.935308e+02
2.870000e-06	-4.502891e-06	-4.526618e-09	-3.180266e+01	-2.958199e+02
2.880000e-06	-4.596847e-06	-4.561027e-09	-3.246625e+01	-2.979880e+02
2.890000e-06	-4.689157e-06	-4.596310e-09	-3.311821e+01	-3.000477e+02
2.900000e-06	-4.779989e-06	-4.627922e-09	-3.375973e+01	-3.020077e+02
2.910000e-06	-4.869166e-06	-4.655890e-09	-3.438956e+01	-3.038733e+02
2.920000e-06	-4.956602e-06	-4.683220e-09	-3.500709e+01	-3.056467e+02
2.930000e-06	-5.042143e-06	-4.709077e-09	-3.561125e+01	-3.073282e+02
2.940000e-06	-5.125867e-06	-4.732538e-09	-3.620257e+01	-3.089179e+02
