# Temperatura_=_20.0
# Concentracion g/m^3_=_9000.0
# C_Vs_to_Am_M_A/Vsm_=_65563218390.804596
# pendiente_HvsI_1/m_=_3716.3
# ordenada_HvsI_A/m_=_1297.0
# frecuencia_Hz_=_301072.29965738277

Tiempo_(s)	Campo_(V.s)	Magnetizacion_(V.s)	Campo_(kA/m)	Magnetizacion_(A/m)
0.000000e+00	-6.706970e-06	-5.097555e-09	-4.746676e+01	-3.339569e+02
1.000000e-08	-6.703659e-06	-5.100017e-09	-4.744333e+01	-3.338428e+02
2.000000e-08	-6.698208e-06	-5.095361e-09	-4.740475e+01	-3.336901e+02
3.000000e-08	-6.690679e-06	-5.090682e-09	-4.735146e+01	-3.335060e+02
4.000000e-08	-6.680821e-06	-5.084826e-09	-4.728170e+01	-3.332990e+02
5.000000e-08	-6.668499e-06	-5.079610e-09	-4.719449e+01	-3.330771e+02
6.000000e-08	-6.653730e-06	-5.072243e-09	-4.708997e+01	-3.328472e+02
7.000000e-08	-6.636645e-06	-5.064850e-09	-4.696905e+01	-3.326145e+02
8.000000e-08	-6.617470e-06	-5.098501e-09	-4.683335e+01	-3.323813e+02
9.000000e-08	-6.595986e-06	-5.144147e-09	-4.668130e+01	-3.321469e+02
1.000000e-07	-6.571755e-06	-5.117044e-09	-4.650981e+01	-3.319072e+02
1.100000e-07	-6.544859e-06	-5.074644e-09	-4.631946e+01	-3.316550e+02
1.200000e-07	-6.515694e-06	-5.042270e-09	-4.611305e+01	-3.313805e+02
1.300000e-07	-6.484635e-06	-4.970209e-09	-4.589324e+01	-3.310718e+02
1.400000e-07	-6.451812e-06	-4.956184e-09	-4.566095e+01	-3.307165e+02
1.500000e-07	-6.417003e-06	-5.110465e-09	-4.541460e+01	-3.303021e+02
1.600000e-07	-6.380098e-06	-5.078805e-09	-4.515341e+01	-3.298180e+02
1.700000e-07	-6.341176e-06	-4.974599e-09	-4.487795e+01	-3.292559e+02
1.800000e-07	-6.299934e-06	-4.994135e-09	-4.458607e+01	-3.286110e+02
1.900000e-07	-6.256189e-06	-4.946500e-09	-4.427648e+01	-3.278824e+02
2.000000e-07	-6.210253e-06	-4.994326e-09	-4.395138e+01	-3.270730e+02
2.100000e-07	-6.161933e-06	-4.982791e-09	-4.360941e+01	-3.261893e+02
2.200000e-07	-6.110870e-06	-4.899840e-09	-4.324802e+01	-3.252409e+02
2.300000e-07	-6.057312e-06	-4.881823e-09	-4.286898e+01	-3.242388e+02
2.400000e-07	-6.001590e-06	-4.883005e-09	-4.247462e+01	-3.231947e+02
2.500000e-07	-5.943629e-06	-4.953021e-09	-4.206442e+01	-3.221192e+02
2.600000e-07	-5.883437e-06	-4.933729e-09	-4.163843e+01	-3.210211e+02
2.700000e-07	-5.821181e-06	-4.839396e-09	-4.119783e+01	-3.199059e+02
2.800000e-07	-5.756885e-06	-4.826345e-09	-4.074279e+01	-3.187756e+02
2.900000e-07	-5.690479e-06	-4.866204e-09	-4.027282e+01	-3.176281e+02
3.000000e-07	-5.621927e-06	-4.886634e-09	-3.978766e+01	-3.164581e+02
3.100000e-07	-5.551323e-06	-4.788587e-09	-3.928798e+01	-3.152573e+02
3.200000e-07	-5.478797e-06	-4.735075e-09	-3.877470e+01	-3.140158e+02
3.300000e-07	-5.404161e-06	-4.738624e-09	-3.824649e+01	-3.127233e+02
3.400000e-07	-5.327294e-06	-4.730659e-09	-3.770248e+01	-3.113704e+02
3.500000e-07	-5.248279e-06	-4.728459e-09	-3.714327e+01	-3.099494e+02
3.600000e-07	-5.167181e-06	-4.680055e-09	-3.656932e+01	-3.084556e+02
3.700000e-07	-5.084317e-06	-4.634803e-09	-3.598287e+01	-3.068874e+02
3.800000e-07	-4.999877e-06	-4.611835e-09	-3.538528e+01	-3.052462e+02
3.900000e-07	-4.913855e-06	-4.640523e-09	-3.477648e+01	-3.035358e+02
4.000000e-07	-4.826211e-06	-4.619031e-09	-3.415620e+01	-3.017618e+02
4.100000e-07	-4.736773e-06	-4.529564e-09	-3.352323e+01	-2.999299e+02
4.200000e-07	-4.645480e-06	-4.507560e-09	-3.287712e+01	-2.980450e+02
4.300000e-07	-4.552515e-06	-4.534743e-09	-3.221919e+01	-2.961102e+02
4.400000e-07	-4.458007e-06	-4.506928e-09	-3.155033e+01	-2.941255e+02
4.500000e-07	-4.361874e-06	-4.433961e-09	-3.086998e+01	-2.920879e+02
4.600000e-07	-4.264032e-06	-4.412389e-09	-3.017753e+01	-2.899909e+02
4.700000e-07	-4.164603e-06	-4.397047e-09	-2.947385e+01	-2.878254e+02
4.800000e-07	-4.063762e-06	-4.345387e-09	-2.876018e+01	-2.855809e+02
4.900000e-07	-3.961549e-06	-4.303843e-09	-2.803679e+01	-2.832457e+02
5.000000e-07	-3.857872e-06	-4.266191e-09	-2.730304e+01	-2.808091e+02
5.100000e-07	-3.752739e-06	-4.207143e-09	-2.655899e+01	-2.782623e+02
5.200000e-07	-3.646225e-06	-4.165825e-09	-2.580516e+01	-2.755985e+02
5.300000e-07	-3.538380e-06	-4.153142e-09	-2.504192e+01	-2.728143e+02
5.400000e-07	-3.429323e-06	-4.107052e-09	-2.427010e+01	-2.699086e+02
5.500000e-07	-3.319163e-06	-4.043455e-09	-2.349047e+01	-2.668827e+02
5.600000e-07	-3.207885e-06	-4.016549e-09	-2.270294e+01	-2.637383e+02
5.700000e-07	-3.095327e-06	-3.990354e-09	-2.190633e+01	-2.604770e+02
5.800000e-07	-2.981417e-06	-3.924469e-09	-2.110017e+01	-2.570981e+02
5.900000e-07	-2.866255e-06	-3.858182e-09	-2.028514e+01	-2.535981e+02
6.000000e-07	-2.749960e-06	-3.814969e-09	-1.946210e+01	-2.499689e+02
6.100000e-07	-2.632660e-06	-3.760693e-09	-1.863194e+01	-2.461981e+02
6.200000e-07	-2.514487e-06	-3.685184e-09	-1.779560e+01	-2.422691e+02
6.300000e-07	-2.395397e-06	-3.613009e-09	-1.695277e+01	-2.381614e+02
6.400000e-07	-2.275328e-06	-3.550015e-09	-1.610301e+01	-2.338521e+02
6.500000e-07	-2.154479e-06	-3.484446e-09	-1.524774e+01	-2.293172e+02
6.600000e-07	-2.032974e-06	-3.409525e-09	-1.438782e+01	-2.245328e+02
6.700000e-07	-1.910690e-06	-3.331439e-09	-1.352239e+01	-2.194762e+02
6.800000e-07	-1.787579e-06	-3.253281e-09	-1.265111e+01	-2.141260e+02
6.900000e-07	-1.663793e-06	-3.170502e-09	-1.177505e+01	-2.084624e+02
7.000000e-07	-1.539405e-06	-3.083921e-09	-1.089472e+01	-2.024653e+02
7.100000e-07	-1.414471e-06	-2.990343e-09	-1.001054e+01	-1.961132e+02
7.200000e-07	-1.289163e-06	-2.885613e-09	-9.123698e+00	-1.893806e+02
7.300000e-07	-1.163523e-06	-2.773803e-09	-8.234521e+00	-1.822357e+02
7.400000e-07	-1.037462e-06	-2.663274e-09	-7.342359e+00	-1.746385e+02
7.500000e-07	-9.109759e-07	-2.541656e-09	-6.447185e+00	-1.665390e+02
7.600000e-07	-7.841446e-07	-2.397714e-09	-5.549571e+00	-1.578773e+02
7.700000e-07	-6.570296e-07	-2.246488e-09	-4.649949e+00	-1.485852e+02
7.800000e-07	-5.296665e-07	-2.097243e-09	-3.748571e+00	-1.385885e+02
7.900000e-07	-4.021420e-07	-1.934384e-09	-2.846051e+00	-1.278121e+02
8.000000e-07	-2.744734e-07	-1.748895e-09	-1.942511e+00	-1.161859e+02
8.100000e-07	-1.466628e-07	-1.554754e-09	-1.037966e+00	-1.036518e+02
8.200000e-07	-1.882478e-08	-1.353272e-09	-1.332273e-01	-9.017114e+01
8.300000e-07	1.090190e-07	-1.134147e-09	7.715523e-01	-7.573182e+01
8.400000e-07	2.368273e-07	-8.986694e-10	1.676081e+00	-6.035423e+01
8.500000e-07	3.645242e-07	-6.546074e-10	2.579821e+00	-4.409553e+01
8.600000e-07	4.921111e-07	-3.992632e-10	3.482782e+00	-2.705150e+01
8.700000e-07	6.195405e-07	-1.325363e-10	4.384630e+00	-9.355641e+00
8.800000e-07	7.467025e-07	1.416260e-10	5.284584e+00	8.824635e+00
8.900000e-07	8.734996e-07	4.245551e-10	6.181956e+00	2.729447e+01
9.000000e-07	9.999268e-07	7.129513e-10	7.076711e+00	4.584040e+01
9.100000e-07	1.126048e-06	9.957224e-10	7.969301e+00	6.424080e+01
9.200000e-07	1.251834e-06	1.267844e-09	8.859516e+00	8.227717e+01
9.300000e-07	1.377239e-06	1.534805e-09	9.747037e+00	9.974529e+01
9.400000e-07	1.502272e-06	1.792209e-09	1.063192e+01	1.164654e+02
9.500000e-07	1.626890e-06	2.030796e-09	1.151387e+01	1.322903e+02
9.600000e-07	1.751001e-06	2.249553e-09	1.239223e+01	1.471114e+02
9.700000e-07	1.874492e-06	2.454915e-09	1.326621e+01	1.608615e+02
9.800000e-07	1.997240e-06	2.646654e-09	1.413492e+01	1.735148e+02
9.900000e-07	2.119189e-06	2.818849e-09	1.499798e+01	1.850835e+02
1.000000e-06	2.240386e-06	2.974930e-09	1.585572e+01	1.956132e+02
1.010000e-06	2.360763e-06	3.121337e-09	1.670766e+01	2.051754e+02
1.020000e-06	2.480230e-06	3.258732e-09	1.755315e+01	2.138591e+02
1.030000e-06	2.598786e-06	3.379856e-09	1.839220e+01	2.217628e+02
1.040000e-06	2.716465e-06	3.488852e-09	1.922504e+01	2.289866e+02
1.050000e-06	2.833201e-06	3.588322e-09	2.005121e+01	2.356253e+02
1.060000e-06	2.948816e-06	3.680429e-09	2.086945e+01	2.417634e+02
1.070000e-06	3.063220e-06	3.769624e-09	2.167911e+01	2.474719e+02
1.080000e-06	3.176355e-06	3.853733e-09	2.247979e+01	2.528072e+02
1.090000e-06	3.288202e-06	3.929999e-09	2.327136e+01	2.578112e+02
1.100000e-06	3.398808e-06	4.000438e-09	2.405414e+01	2.625134e+02
1.110000e-06	3.508311e-06	4.070262e-09	2.482912e+01	2.669334e+02
1.120000e-06	3.616772e-06	4.135352e-09	2.559672e+01	2.710846e+02
1.130000e-06	3.724034e-06	4.192440e-09	2.635584e+01	2.749766e+02
1.140000e-06	3.829964e-06	4.242963e-09	2.710553e+01	2.786190e+02
1.150000e-06	3.934429e-06	4.291592e-09	2.784485e+01	2.820225e+02
1.160000e-06	4.037369e-06	4.338564e-09	2.857338e+01	2.852005e+02
1.170000e-06	4.138901e-06	4.381449e-09	2.929195e+01	2.881693e+02
1.180000e-06	4.239030e-06	4.419184e-09	3.000058e+01	2.909478e+02
1.190000e-06	4.337635e-06	4.456173e-09	3.069844e+01	2.935559e+02
1.200000e-06	4.434572e-06	4.493238e-09	3.138448e+01	2.960137e+02
1.210000e-06	4.529835e-06	4.530232e-09	3.205868e+01	2.983395e+02
1.220000e-06	4.623563e-06	4.565442e-09	3.272201e+01	3.005492e+02
1.230000e-06	4.715796e-06	4.597517e-09	3.337477e+01	3.026550e+02
1.240000e-06	4.806448e-06	4.626426e-09	3.401633e+01	3.046654e+02
1.250000e-06	4.895240e-06	4.653477e-09	3.464473e+01	3.065852e+02
1.260000e-06	4.982168e-06	4.681011e-09	3.525994e+01	3.084164e+02
1.270000e-06	5.067464e-06	4.705973e-09	3.586360e+01	3.101590e+02
1.280000e-06	5.151145e-06	4.727348e-09	3.645583e+01	3.118122e+02
1.290000e-06	5.233059e-06	4.747951e-09	3.703555e+01	3.133758e+02
1.300000e-06	5.313004e-06	4.772095e-09	3.760134e+01	3.148505e+02
1.310000e-06	5.391005e-06	4.796072e-09	3.815338e+01	3.162392e+02
1.320000e-06	5.467119e-06	4.816066e-09	3.869205e+01	3.175467e+02
1.330000e-06	5.541125e-06	4.834481e-09	3.921581e+01	3.187795e+02
1.340000e-06	5.612942e-06	4.852900e-09	3.972407e+01	3.199456e+02
1.350000e-06	5.682752e-06	4.870222e-09	4.021813e+01	3.210535e+02
1.360000e-06	5.750644e-06	4.886174e-09	4.069862e+01	3.221111e+02
1.370000e-06	5.816496e-06	4.900973e-09	4.116467e+01	3.231253e+02
1.380000e-06	5.880203e-06	4.914279e-09	4.161554e+01	3.241011e+02
1.390000e-06	5.941910e-06	4.928090e-09	4.205225e+01	3.250411e+02
1.400000e-06	6.001678e-06	4.943566e-09	4.247524e+01	3.259457e+02
1.410000e-06	6.059299e-06	4.958578e-09	4.288304e+01	3.268129e+02
1.420000e-06	6.114660e-06	4.971904e-09	4.327485e+01	3.276394e+02
1.430000e-06	6.167822e-06	4.984808e-09	4.365108e+01	3.284209e+02
1.440000e-06	6.218504e-06	4.998944e-09	4.400978e+01	3.291530e+02
1.450000e-06	6.266559e-06	5.012033e-09	4.434987e+01	3.298324e+02
1.460000e-06	6.312324e-06	5.022410e-09	4.467376e+01	3.304570e+02
1.470000e-06	6.356024e-06	5.030744e-09	4.498303e+01	3.310267e+02
1.480000e-06	6.397455e-06	5.039621e-09	4.527625e+01	3.315435e+02
1.490000e-06	6.436505e-06	5.049862e-09	4.555262e+01	3.320114e+02
1.500000e-06	6.473398e-06	5.059228e-09	4.581372e+01	3.324360e+02
1.510000e-06	6.508116e-06	5.067896e-09	4.605942e+01	3.328241e+02
1.520000e-06	6.540505e-06	5.075257e-09	4.628865e+01	3.331824e+02
1.530000e-06	6.570583e-06	5.083510e-09	4.650152e+01	3.335175e+02
1.540000e-06	6.598462e-06	5.092395e-09	4.669883e+01	3.338344e+02
1.550000e-06	6.623939e-06	5.098704e-09	4.687913e+01	3.341366e+02
1.560000e-06	6.646905e-06	5.103562e-09	4.704166e+01	3.344254e+02
1.570000e-06	6.667674e-06	5.107757e-09	4.718865e+01	3.346995e+02
1.580000e-06	6.686286e-06	5.111863e-09	4.732037e+01	3.349560e+02
1.590000e-06	6.702470e-06	5.115728e-09	4.743492e+01	3.351898e+02
1.600000e-06	6.716164e-06	5.121380e-09	4.753183e+01	3.353949e+02
1.610000e-06	6.727276e-06	5.126611e-09	4.761047e+01	3.355649e+02
1.620000e-06	6.735715e-06	5.130338e-09	4.767020e+01	3.356936e+02
1.630000e-06	6.741768e-06	5.136093e-09	4.771303e+01	3.357762e+02
1.640000e-06	6.745634e-06	5.139707e-09	4.774039e+01	3.358093e+02
1.650000e-06	6.747097e-06	5.141172e-09	4.775075e+01	3.357920e+02
1.660000e-06	6.746103e-06	5.137047e-09	4.774372e+01	3.357257e+02
1.670000e-06	6.742983e-06	5.131057e-09	4.772163e+01	3.356142e+02
1.680000e-06	6.737690e-06	5.128623e-09	4.768417e+01	3.354635e+02
1.690000e-06	6.730049e-06	5.128610e-09	4.763009e+01	3.352810e+02
1.700000e-06	6.720254e-06	5.130558e-09	4.756078e+01	3.350748e+02
1.710000e-06	6.708367e-06	5.133446e-09	4.747664e+01	3.348533e+02
1.720000e-06	6.694089e-06	5.142201e-09	4.737560e+01	3.346233e+02
1.730000e-06	6.677556e-06	5.131942e-09	4.725859e+01	3.343902e+02
1.740000e-06	6.658961e-06	5.048208e-09	4.712699e+01	3.341566e+02
1.750000e-06	6.637611e-06	5.032497e-09	4.697589e+01	3.339219e+02
1.760000e-06	6.612941e-06	5.067699e-09	4.680130e+01	3.336823e+02
1.770000e-06	6.585578e-06	5.076035e-09	4.660764e+01	3.334309e+02
1.780000e-06	6.556209e-06	5.145714e-09	4.639979e+01	3.331579e+02
1.790000e-06	6.524990e-06	5.195889e-09	4.617885e+01	3.328516e+02
1.800000e-06	6.492215e-06	5.045940e-09	4.594689e+01	3.324995e+02
1.810000e-06	6.457530e-06	5.044846e-09	4.570141e+01	3.320893e+02
1.820000e-06	6.420417e-06	5.075346e-09	4.543876e+01	3.316100e+02
1.830000e-06	6.381088e-06	5.043524e-09	4.516042e+01	3.310532e+02
1.840000e-06	6.339509e-06	5.161894e-09	4.486615e+01	3.304138e+02
1.850000e-06	6.295790e-06	5.025268e-09	4.455675e+01	3.296907e+02
1.860000e-06	6.249957e-06	4.953481e-09	4.423238e+01	3.288864e+02
1.870000e-06	6.201686e-06	5.021131e-09	4.389075e+01	3.280073e+02
1.880000e-06	6.151216e-06	5.026639e-09	4.353356e+01	3.270627e+02
1.890000e-06	6.098274e-06	5.097859e-09	4.315888e+01	3.260636e+02
1.900000e-06	6.042731e-06	4.904343e-09	4.276579e+01	3.250216e+02
1.910000e-06	5.985039e-06	4.818510e-09	4.235749e+01	3.239476e+02
1.920000e-06	5.925309e-06	4.969220e-09	4.193477e+01	3.228505e+02
1.930000e-06	5.863456e-06	4.968153e-09	4.149702e+01	3.217359e+02
1.940000e-06	5.799354e-06	4.926898e-09	4.104336e+01	3.206062e+02
1.950000e-06	5.733180e-06	4.773163e-09	4.057503e+01	3.194596e+02
1.960000e-06	5.664916e-06	4.817078e-09	4.009191e+01	3.182910e+02
1.970000e-06	5.594311e-06	4.885212e-09	3.959222e+01	3.170923e+02
1.980000e-06	5.521609e-06	4.864082e-09	3.907769e+01	3.158536e+02
1.990000e-06	5.446998e-06	4.832967e-09	3.854965e+01	3.145646e+02
2.000000e-06	5.370323e-06	4.684428e-09	3.800701e+01	3.132158e+02
2.010000e-06	5.291458e-06	4.744638e-09	3.744886e+01	3.117994e+02
2.020000e-06	5.210646e-06	4.806403e-09	3.687693e+01	3.103104e+02
2.030000e-06	5.128134e-06	4.766142e-09	3.629297e+01	3.087470e+02
2.040000e-06	5.043866e-06	4.640577e-09	3.569659e+01	3.071105e+02
2.050000e-06	4.957801e-06	4.599979e-09	3.508749e+01	3.054044e+02
2.060000e-06	4.869832e-06	4.693628e-09	3.446491e+01	3.036343e+02
2.070000e-06	4.780107e-06	4.643872e-09	3.382991e+01	3.018059e+02
2.080000e-06	4.688764e-06	4.560359e-09	3.318346e+01	2.999242e+02
2.090000e-06	4.595840e-06	4.490946e-09	3.252581e+01	2.979925e+02
2.100000e-06	4.501189e-06	4.504269e-09	3.185595e+01	2.960110e+02
2.110000e-06	4.404812e-06	4.506005e-09	3.117386e+01	2.939768e+02
2.120000e-06	4.307036e-06	4.463138e-09	3.048188e+01	2.918838e+02
2.130000e-06	4.207887e-06	4.398114e-09	2.978018e+01	2.897232e+02
2.140000e-06	4.107246e-06	4.342424e-09	2.906792e+01	2.874842e+02
2.150000e-06	4.004975e-06	4.366185e-09	2.834412e+01	2.851554e+02
2.160000e-06	3.901137e-06	4.358236e-09	2.760924e+01	2.827259e+02
2.170000e-06	3.795916e-06	4.287900e-09	2.686457e+01	2.801867e+02
2.180000e-06	3.689478e-06	4.202365e-09	2.611128e+01	2.775310e+02
2.190000e-06	3.581911e-06	4.193903e-09	2.535000e+01	2.747550e+02
2.200000e-06	3.473135e-06	4.180778e-09	2.458017e+01	2.718575e+02
2.210000e-06	3.363062e-06	4.106330e-09	2.380116e+01	2.688396e+02
2.220000e-06	3.251658e-06	4.026623e-09	2.301273e+01	2.657032e+02
2.230000e-06	3.139014e-06	3.990344e-09	2.221552e+01	2.624497e+02
2.240000e-06	3.025176e-06	3.962023e-09	2.140986e+01	2.590789e+02
2.250000e-06	2.910265e-06	3.899912e-09	2.059661e+01	2.555872e+02
2.260000e-06	2.794271e-06	3.833466e-09	1.977569e+01	2.519672e+02
2.270000e-06	2.677094e-06	3.778455e-09	1.894640e+01	2.482066e+02
2.280000e-06	2.558781e-06	3.733019e-09	1.810908e+01	2.442890e+02
2.290000e-06	2.439434e-06	3.672538e-09	1.726443e+01	2.401944e+02
2.300000e-06	2.319161e-06	3.602844e-09	1.641324e+01	2.358998e+02
2.310000e-06	2.198090e-06	3.529971e-09	1.555639e+01	2.313814e+02
2.320000e-06	2.076328e-06	3.461873e-09	1.469464e+01	2.266151e+02
2.330000e-06	1.953964e-06	3.388750e-09	1.382865e+01	2.215782e+02
2.340000e-06	1.830976e-06	3.305585e-09	1.295824e+01	2.162492e+02
2.350000e-06	1.707289e-06	3.209686e-09	1.208288e+01	2.106081e+02
2.360000e-06	1.582978e-06	3.118368e-09	1.120310e+01	2.046350e+02
2.370000e-06	1.458132e-06	3.035621e-09	1.031953e+01	1.983086e+02
2.380000e-06	1.332795e-06	2.931826e-09	9.432495e+00	1.916037e+02
2.390000e-06	1.207004e-06	2.808573e-09	8.542246e+00	1.844891e+02
2.400000e-06	1.080796e-06	2.692047e-09	7.649040e+00	1.769252e+02
2.410000e-06	9.541821e-07	2.587574e-09	6.752965e+00	1.688630e+02
2.420000e-06	8.271232e-07	2.460207e-09	5.853740e+00	1.602432e+02
2.430000e-06	6.997038e-07	2.307601e-09	4.951964e+00	1.509981e+02
2.440000e-06	5.720482e-07	2.156562e-09	4.048516e+00	1.410537e+02
2.450000e-06	4.441896e-07	2.006544e-09	3.143631e+00	1.303350e+02
2.460000e-06	3.161851e-07	1.836450e-09	2.237714e+00	1.187711e+02
2.470000e-06	1.880455e-07	1.638892e-09	1.330841e+00	1.063030e+02
2.480000e-06	5.985311e-08	1.426606e-09	4.235941e-01	9.289023e+01
2.490000e-06	-6.833183e-08	1.208849e-09	-4.836000e-01	7.851866e+01
2.500000e-06	-1.965442e-07	9.836716e-10	-1.390988e+00	6.320618e+01
2.510000e-06	-3.246828e-07	7.404992e-10	-2.297854e+00	4.700724e+01
2.520000e-06	-4.526446e-07	4.764240e-10	-3.203470e+00	3.001485e+01
2.530000e-06	-5.804202e-07	2.033070e-10	-4.107766e+00	1.235990e+01
2.540000e-06	-7.079519e-07	-6.697897e-11	-5.010337e+00	-5.792420e+00
2.550000e-06	-8.351748e-07	-3.448013e-10	-5.910723e+00	-2.424895e+01
2.560000e-06	-9.620238e-07	-6.381009e-10	-6.808462e+00	-4.279722e+01
2.570000e-06	-1.088475e-06	-9.307351e-10	-7.703389e+00	-6.121583e+01
2.580000e-06	-1.214544e-06	-1.205653e-09	-8.595604e+00	-7.928567e+01
2.590000e-06	-1.340217e-06	-1.466848e-09	-9.485026e+00	-9.680115e+01
2.600000e-06	-1.465417e-06	-1.726460e-09	-1.037109e+01	-1.135804e+02
2.610000e-06	-1.590023e-06	-1.976036e-09	-1.125296e+01	-1.294738e+02
2.620000e-06	-1.713980e-06	-2.201890e-09	-1.213023e+01	-1.443698e+02
2.630000e-06	-1.837290e-06	-2.405385e-09	-1.300292e+01	-1.581983e+02
2.640000e-06	-1.959928e-06	-2.599173e-09	-1.387086e+01	-1.709303e+02
2.650000e-06	-2.081872e-06	-2.782419e-09	-1.473389e+01	-1.825758e+02
2.660000e-06	-2.203152e-06	-2.948500e-09	-1.559221e+01	-1.931781e+02
2.670000e-06	-2.323678e-06	-3.097451e-09	-1.644520e+01	-2.028071e+02
2.680000e-06	-2.443280e-06	-3.230225e-09	-1.729165e+01	-2.115508e+02
2.690000e-06	-2.561977e-06	-3.352262e-09	-1.813170e+01	-2.195074e+02
2.700000e-06	-2.679729e-06	-3.468839e-09	-1.896506e+01	-2.267770e+02
2.710000e-06	-2.796336e-06	-3.574969e-09	-1.979031e+01	-2.334549e+02
2.720000e-06	-2.911716e-06	-3.663564e-09	-2.060688e+01	-2.396267e+02
2.730000e-06	-3.025877e-06	-3.744444e-09	-2.141482e+01	-2.453644e+02
2.740000e-06	-3.138814e-06	-3.827934e-09	-2.221410e+01	-2.507252e+02
2.750000e-06	-3.250504e-06	-3.909969e-09	-2.300456e+01	-2.557522e+02
2.760000e-06	-3.360927e-06	-3.981758e-09	-2.378605e+01	-2.604757e+02
2.770000e-06	-3.470141e-06	-4.044234e-09	-2.455898e+01	-2.649158e+02
2.780000e-06	-3.578205e-06	-4.106260e-09	-2.532377e+01	-2.690863e+02
2.790000e-06	-3.685164e-06	-4.168830e-09	-2.608075e+01	-2.729970e+02
2.800000e-06	-3.790969e-06	-4.226973e-09	-2.682955e+01	-2.766574e+02
2.810000e-06	-3.895368e-06	-4.279373e-09	-2.756841e+01	-2.800780e+02
2.820000e-06	-3.998243e-06	-4.329772e-09	-2.829648e+01	-2.832720e+02
2.830000e-06	-4.099616e-06	-4.378452e-09	-2.901392e+01	-2.862557e+02
2.840000e-06	-4.199524e-06	-4.425322e-09	-2.972099e+01	-2.890475e+02
2.850000e-06	-4.298019e-06	-4.470188e-09	-3.041806e+01	-2.916676e+02
2.860000e-06	-4.395112e-06	-4.508831e-09	-3.110521e+01	-2.941359e+02
2.870000e-06	-4.490701e-06	-4.542717e-09	-3.178172e+01	-2.964711e+02
2.880000e-06	-4.584588e-06	-4.578287e-09	-3.244617e+01	-2.986891e+02
2.890000e-06	-4.676790e-06	-4.614804e-09	-3.309871e+01	-3.008025e+02
2.900000e-06	-4.767412e-06	-4.647122e-09	-3.374006e+01	-3.028199e+02
2.910000e-06	-4.856463e-06	-4.674722e-09	-3.437030e+01	-3.047466e+02
2.920000e-06	-4.943815e-06	-4.701395e-09	-3.498851e+01	-3.065845e+02
2.930000e-06	-5.029265e-06	-4.728349e-09	-3.559326e+01	-3.083339e+02
2.940000e-06	-5.112949e-06	-4.753646e-09	-3.618551e+01	-3.099940e+02
