# Temperatura_=_20.0
# Concentracion g/m^3_=_9000.0
# C_Vs_to_Am_M_A/Vsm_=_65563218390.804596
# pendiente_HvsI_1/m_=_3716.3
# ordenada_HvsI_A/m_=_1297.0
# frecuencia_Hz_=_301066.0651788821

Tiempo_(s)	Campo_(V.s)	Magnetizacion_(V.s)	Campo_(kA/m)	Magnetizacion_(A/m)
0.000000e+00	-6.694689e-06	-5.099340e-09	-4.746664e+01	-3.334805e+02
1.000000e-08	-6.691020e-06	-5.099684e-09	-4.744063e+01	-3.333732e+02
2.000000e-08	-6.685285e-06	-5.095027e-09	-4.739997e+01	-3.332391e+02
3.000000e-08	-6.677527e-06	-5.089802e-09	-4.734496e+01	-3.330831e+02
4.000000e-08	-6.667428e-06	-5.082012e-09	-4.727336e+01	-3.329098e+02
5.000000e-08	-6.654796e-06	-5.076573e-09	-4.718379e+01	-3.327231e+02
6.000000e-08	-6.639730e-06	-5.065287e-09	-4.707697e+01	-3.325255e+02
7.000000e-08	-6.622365e-06	-5.052958e-09	-4.695385e+01	-3.323180e+02
8.000000e-08	-6.602921e-06	-5.111047e-09	-4.681599e+01	-3.320999e+02
9.000000e-08	-6.581137e-06	-5.163343e-09	-4.666154e+01	-3.318683e+02
1.000000e-07	-6.556565e-06	-5.115905e-09	-4.648732e+01	-3.316189e+02
1.100000e-07	-6.529358e-06	-5.066570e-09	-4.629441e+01	-3.313454e+02
1.200000e-07	-6.499936e-06	-5.040302e-09	-4.608581e+01	-3.310405e+02
1.300000e-07	-6.468697e-06	-4.950282e-09	-4.586432e+01	-3.306963e+02
1.400000e-07	-6.435741e-06	-4.957736e-09	-4.563065e+01	-3.303045e+02
1.500000e-07	-6.400697e-06	-5.153333e-09	-4.538218e+01	-3.298578e+02
1.600000e-07	-6.363523e-06	-5.041878e-09	-4.511861e+01	-3.293498e+02
1.700000e-07	-6.324311e-06	-4.969126e-09	-4.484059e+01	-3.287761e+02
1.800000e-07	-6.282676e-06	-5.022448e-09	-4.454539e+01	-3.281344e+02
1.900000e-07	-6.238584e-06	-4.940025e-09	-4.423277e+01	-3.274251e+02
2.000000e-07	-6.192299e-06	-5.024143e-09	-4.390460e+01	-3.266510e+02
2.100000e-07	-6.143537e-06	-4.985210e-09	-4.355887e+01	-3.258169e+02
2.200000e-07	-6.092172e-06	-4.896957e-09	-4.319468e+01	-3.249296e+02
2.300000e-07	-6.038441e-06	-4.901267e-09	-4.281372e+01	-3.239965e+02
2.400000e-07	-5.982478e-06	-4.896479e-09	-4.241693e+01	-3.230251e+02
2.500000e-07	-5.924251e-06	-4.969378e-09	-4.200409e+01	-3.220220e+02
2.600000e-07	-5.863879e-06	-4.931626e-09	-4.157604e+01	-3.209921e+02
2.700000e-07	-5.801516e-06	-4.830842e-09	-4.113387e+01	-3.199375e+02
2.800000e-07	-5.737091e-06	-4.828326e-09	-4.067709e+01	-3.188580e+02
2.900000e-07	-5.670534e-06	-4.886126e-09	-4.020519e+01	-3.177499e+02
3.000000e-07	-5.601768e-06	-4.898639e-09	-3.971762e+01	-3.166074e+02
3.100000e-07	-5.530994e-06	-4.780641e-09	-3.921582e+01	-3.154222e+02
3.200000e-07	-5.458404e-06	-4.764904e-09	-3.870114e+01	-3.141853e+02
3.300000e-07	-5.383645e-06	-4.760226e-09	-3.817108e+01	-3.128874e+02
3.400000e-07	-5.306619e-06	-4.737117e-09	-3.762496e+01	-3.115203e+02
3.500000e-07	-5.227433e-06	-4.747604e-09	-3.706352e+01	-3.100777e+02
3.600000e-07	-5.146177e-06	-4.692009e-09	-3.648739e+01	-3.085559e+02
3.700000e-07	-5.063152e-06	-4.636956e-09	-3.589873e+01	-3.069542e+02
3.800000e-07	-4.978517e-06	-4.614753e-09	-3.529865e+01	-3.052745e+02
3.900000e-07	-4.892283e-06	-4.656553e-09	-3.468724e+01	-3.035212e+02
4.000000e-07	-4.804499e-06	-4.621532e-09	-3.406483e+01	-3.017001e+02
4.100000e-07	-4.714959e-06	-4.531781e-09	-3.342997e+01	-2.998175e+02
4.200000e-07	-4.623521e-06	-4.520711e-09	-3.278166e+01	-2.978787e+02
4.300000e-07	-4.530459e-06	-4.542724e-09	-3.212183e+01	-2.958872e+02
4.400000e-07	-4.435888e-06	-4.505849e-09	-3.145130e+01	-2.938440e+02
4.500000e-07	-4.339754e-06	-4.433001e-09	-3.076969e+01	-2.917465e+02
4.600000e-07	-4.241943e-06	-4.419053e-09	-3.007620e+01	-2.895894e+02
4.700000e-07	-4.142536e-06	-4.392622e-09	-2.937138e+01	-2.873644e+02
4.800000e-07	-4.041714e-06	-4.337866e-09	-2.865654e+01	-2.850611e+02
4.900000e-07	-3.939477e-06	-4.305411e-09	-2.793166e+01	-2.826684e+02
5.000000e-07	-3.835863e-06	-4.271474e-09	-2.719701e+01	-2.801754e+02
5.100000e-07	-3.730872e-06	-4.207312e-09	-2.645261e+01	-2.775727e+02
5.200000e-07	-3.624396e-06	-4.165983e-09	-2.569767e+01	-2.748530e+02
5.300000e-07	-3.516474e-06	-4.154113e-09	-2.493249e+01	-2.720116e+02
5.400000e-07	-3.407313e-06	-4.102373e-09	-2.415851e+01	-2.690465e+02
5.500000e-07	-3.297089e-06	-4.039288e-09	-2.337700e+01	-2.659577e+02
5.600000e-07	-3.185796e-06	-4.010284e-09	-2.258791e+01	-2.627465e+02
5.700000e-07	-3.073310e-06	-3.977046e-09	-2.179036e+01	-2.594138e+02
5.800000e-07	-2.959502e-06	-3.908042e-09	-2.098344e+01	-2.559592e+02
5.900000e-07	-2.844410e-06	-3.848384e-09	-2.016742e+01	-2.523795e+02
6.000000e-07	-2.728169e-06	-3.805816e-09	-1.934325e+01	-2.486679e+02
6.100000e-07	-2.610959e-06	-3.746308e-09	-1.851220e+01	-2.448137e+02
6.200000e-07	-2.492874e-06	-3.668857e-09	-1.767496e+01	-2.408017e+02
6.300000e-07	-2.373856e-06	-3.598688e-09	-1.683110e+01	-2.366133e+02
6.400000e-07	-2.254022e-06	-3.535212e-09	-1.598145e+01	-2.322274e+02
6.500000e-07	-2.133509e-06	-3.462598e-09	-1.512699e+01	-2.276211e+02
6.600000e-07	-2.012159e-06	-3.382514e-09	-1.426660e+01	-2.227715e+02
6.700000e-07	-1.889865e-06	-3.303606e-09	-1.339951e+01	-2.176558e+02
6.800000e-07	-1.766787e-06	-3.226052e-09	-1.252686e+01	-2.122523e+02
6.900000e-07	-1.643081e-06	-3.142258e-09	-1.164976e+01	-2.065397e+02
7.000000e-07	-1.518842e-06	-3.055689e-09	-1.076888e+01	-2.004963e+02
7.100000e-07	-1.394088e-06	-2.960655e-09	-9.884356e+00	-1.940982e+02
7.200000e-07	-1.268860e-06	-2.855122e-09	-8.996462e+00	-1.873175e+02
7.300000e-07	-1.143315e-06	-2.742502e-09	-8.106322e+00	-1.801197e+02
7.400000e-07	-1.017471e-06	-2.629275e-09	-7.214066e+00	-1.724626e+02
7.500000e-07	-8.912473e-07	-2.504216e-09	-6.319116e+00	-1.642944e+02
7.600000e-07	-7.646862e-07	-2.356288e-09	-5.421774e+00	-1.555539e+02
7.700000e-07	-6.378148e-07	-2.204447e-09	-4.522231e+00	-1.461724e+02
7.800000e-07	-5.106807e-07	-2.055026e-09	-3.620826e+00	-1.360764e+02
7.900000e-07	-3.833695e-07	-1.890738e-09	-2.718164e+00	-1.251920e+02
8.000000e-07	-2.559543e-07	-1.704339e-09	-1.814766e+00	-1.134515e+02
8.100000e-07	-1.284397e-07	-1.511094e-09	-9.106624e-01	-1.008001e+02
8.200000e-07	-8.396496e-10	-1.308110e-09	-5.953279e-03	-8.720297e+01
8.300000e-07	1.267477e-07	-1.085068e-09	8.986656e-01	-7.265248e+01
8.400000e-07	2.542584e-07	-8.464575e-10	1.802741e+00	-5.717388e+01
8.500000e-07	3.816861e-07	-6.002376e-10	2.706229e+00	-4.082926e+01
8.600000e-07	5.090612e-07	-3.440367e-10	3.609343e+00	-2.371922e+01
8.700000e-07	6.362830e-07	-7.606180e-11	4.511370e+00	-5.981645e+00
8.800000e-07	7.632057e-07	2.002643e-10	5.411276e+00	1.221230e+01
8.900000e-07	8.897838e-07	4.836192e-10	6.308740e+00	3.066489e+01
9.000000e-07	1.016047e-06	7.681976e-10	7.203968e+00	4.916089e+01
9.100000e-07	1.141985e-06	1.047127e-09	8.096894e+00	6.747814e+01
9.200000e-07	1.267555e-06	1.317470e-09	8.987209e+00	8.539892e+01
9.300000e-07	1.392782e-06	1.581481e-09	9.875092e+00	1.027211e+02
9.400000e-07	1.517608e-06	1.834338e-09	1.076013e+01	1.192683e+02
9.500000e-07	1.641960e-06	2.069943e-09	1.164181e+01	1.348980e+02
9.600000e-07	1.765783e-06	2.286443e-09	1.251974e+01	1.495069e+02
9.700000e-07	1.888940e-06	2.488518e-09	1.339295e+01	1.630338e+02
9.800000e-07	2.011330e-06	2.677592e-09	1.426072e+01	1.754594e+02
9.900000e-07	2.132975e-06	2.846296e-09	1.512321e+01	1.868025e+02
1.000000e-06	2.253861e-06	2.997541e-09	1.598031e+01	1.971147e+02
1.010000e-06	2.373859e-06	3.139782e-09	1.683112e+01	2.064728e+02
1.020000e-06	2.492921e-06	3.274553e-09	1.767530e+01	2.149707e+02
1.030000e-06	2.611115e-06	3.393563e-09	1.851331e+01	2.227105e+02
1.040000e-06	2.728439e-06	3.500809e-09	1.934516e+01	2.297946e+02
1.050000e-06	2.844765e-06	3.600187e-09	2.016994e+01	2.363192e+02
1.060000e-06	2.959926e-06	3.693583e-09	2.098645e+01	2.423690e+02
1.070000e-06	3.073878e-06	3.782903e-09	2.179439e+01	2.480145e+02
1.080000e-06	3.186584e-06	3.863626e-09	2.259350e+01	2.533102e+02
1.090000e-06	3.298055e-06	3.936625e-09	2.338385e+01	2.582960e+02
1.100000e-06	3.408391e-06	4.005565e-09	2.416615e+01	2.629987e+02
1.110000e-06	3.517612e-06	4.074335e-09	2.494055e+01	2.674349e+02
1.120000e-06	3.625740e-06	4.137310e-09	2.570720e+01	2.716148e+02
1.130000e-06	3.732661e-06	4.194657e-09	2.646529e+01	2.755451e+02
1.140000e-06	3.838173e-06	4.248602e-09	2.721339e+01	2.792319e+02
1.150000e-06	3.942179e-06	4.300375e-09	2.795081e+01	2.826831e+02
1.160000e-06	4.044703e-06	4.347853e-09	2.867773e+01	2.859091e+02
1.170000e-06	4.145880e-06	4.391933e-09	2.939509e+01	2.889236e+02
1.180000e-06	4.245636e-06	4.432280e-09	3.010238e+01	2.917429e+02
1.190000e-06	4.343815e-06	4.469218e-09	3.079849e+01	2.943850e+02
1.200000e-06	4.440355e-06	4.505767e-09	3.148298e+01	2.968681e+02
1.210000e-06	4.535209e-06	4.542232e-09	3.215551e+01	2.992094e+02
1.220000e-06	4.628515e-06	4.578009e-09	3.281707e+01	3.014242e+02
1.230000e-06	4.720341e-06	4.608364e-09	3.346813e+01	3.035248e+02
1.240000e-06	4.810558e-06	4.635326e-09	3.410779e+01	3.055201e+02
1.250000e-06	4.898947e-06	4.662927e-09	3.473448e+01	3.074165e+02
1.260000e-06	4.985485e-06	4.690307e-09	3.534806e+01	3.092178e+02
1.270000e-06	5.070370e-06	4.714330e-09	3.594991e+01	3.109262e+02
1.280000e-06	5.153655e-06	4.736407e-09	3.654041e+01	3.125435e+02
1.290000e-06	5.235130e-06	4.758715e-09	3.711809e+01	3.140717e+02
1.300000e-06	5.314642e-06	4.781659e-09	3.768184e+01	3.155138e+02
1.310000e-06	5.392266e-06	4.803119e-09	3.823221e+01	3.168742e+02
1.320000e-06	5.467904e-06	4.823177e-09	3.876850e+01	3.181584e+02
1.330000e-06	5.541401e-06	4.842652e-09	3.928961e+01	3.193732e+02
1.340000e-06	5.612801e-06	4.860630e-09	3.979585e+01	3.205255e+02
1.350000e-06	5.682268e-06	4.877715e-09	4.028838e+01	3.216224e+02
1.360000e-06	5.749761e-06	4.894317e-09	4.076692e+01	3.226696e+02
1.370000e-06	5.815093e-06	4.909666e-09	4.123014e+01	3.236716e+02
1.380000e-06	5.878356e-06	4.924518e-09	4.167868e+01	3.246310e+02
1.390000e-06	5.939700e-06	4.939725e-09	4.211362e+01	3.255482e+02
1.400000e-06	5.999076e-06	4.955031e-09	4.253461e+01	3.264222e+02
1.410000e-06	6.056301e-06	4.969516e-09	4.294035e+01	3.272506e+02
1.420000e-06	6.111310e-06	4.982000e-09	4.333037e+01	3.280302e+02
1.430000e-06	6.164055e-06	4.994190e-09	4.370435e+01	3.287581e+02
1.440000e-06	6.214207e-06	5.006608e-09	4.405993e+01	3.294322e+02
1.450000e-06	6.261768e-06	5.017571e-09	4.439715e+01	3.300515e+02
1.460000e-06	6.307152e-06	5.028360e-09	4.471893e+01	3.306171e+02
1.470000e-06	6.350489e-06	5.038767e-09	4.502620e+01	3.311315e+02
1.480000e-06	6.391485e-06	5.048552e-09	4.531687e+01	3.315992e+02
1.490000e-06	6.430124e-06	5.056594e-09	4.559083e+01	3.320254e+02
1.500000e-06	6.466737e-06	5.063427e-09	4.585042e+01	3.324165e+02
1.510000e-06	6.501110e-06	5.070613e-09	4.609413e+01	3.327784e+02
1.520000e-06	6.533046e-06	5.076993e-09	4.632056e+01	3.331164e+02
1.530000e-06	6.562756e-06	5.084362e-09	4.653121e+01	3.334348e+02
1.540000e-06	6.590322e-06	5.092377e-09	4.672666e+01	3.337359e+02
1.550000e-06	6.615456e-06	5.098419e-09	4.690486e+01	3.340204e+02
1.560000e-06	6.638066e-06	5.102664e-09	4.706518e+01	3.342870e+02
1.570000e-06	6.658498e-06	5.105865e-09	4.721004e+01	3.345331e+02
1.580000e-06	6.676674e-06	5.108561e-09	4.733891e+01	3.347548e+02
1.590000e-06	6.692359e-06	5.111453e-09	4.745013e+01	3.349478e+02
1.600000e-06	6.705611e-06	5.116095e-09	4.754408e+01	3.351077e+02
1.610000e-06	6.716288e-06	5.120466e-09	4.761979e+01	3.352308e+02
1.620000e-06	6.724366e-06	5.121536e-09	4.767706e+01	3.353143e+02
1.630000e-06	6.730103e-06	5.123065e-09	4.771774e+01	3.353567e+02
1.640000e-06	6.733623e-06	5.125954e-09	4.774270e+01	3.353584e+02
1.650000e-06	6.734759e-06	5.130342e-09	4.775075e+01	3.353208e+02
1.660000e-06	6.733452e-06	5.124231e-09	4.774148e+01	3.352472e+02
1.670000e-06	6.730026e-06	5.118452e-09	4.771719e+01	3.351415e+02
1.680000e-06	6.724435e-06	5.117100e-09	4.767755e+01	3.350087e+02
1.690000e-06	6.716555e-06	5.117014e-09	4.762168e+01	3.348536e+02
1.700000e-06	6.706532e-06	5.119161e-09	4.755061e+01	3.346809e+02
1.710000e-06	6.694258e-06	5.122665e-09	4.746359e+01	3.344946e+02
1.720000e-06	6.679574e-06	5.139937e-09	4.735947e+01	3.342973e+02
1.730000e-06	6.662757e-06	5.122078e-09	4.724024e+01	3.340901e+02
1.740000e-06	6.643859e-06	5.009075e-09	4.710625e+01	3.338723e+02
1.750000e-06	6.622040e-06	5.012900e-09	4.695155e+01	3.336413e+02
1.760000e-06	6.596890e-06	5.058826e-09	4.677323e+01	3.333929e+02
1.770000e-06	6.569276e-06	5.057551e-09	4.657744e+01	3.331209e+02
1.780000e-06	6.539666e-06	5.170340e-09	4.636750e+01	3.328180e+02
1.790000e-06	6.508205e-06	5.199258e-09	4.614444e+01	3.324764e+02
1.800000e-06	6.475266e-06	4.987326e-09	4.591089e+01	3.320879e+02
1.810000e-06	6.440323e-06	5.061314e-09	4.566314e+01	3.316448e+02
1.820000e-06	6.402966e-06	5.053111e-09	4.539827e+01	3.311409e+02
1.830000e-06	6.363430e-06	5.011811e-09	4.511795e+01	3.305715e+02
1.840000e-06	6.321597e-06	5.186874e-09	4.482135e+01	3.299343e+02
1.850000e-06	6.277672e-06	4.962753e-09	4.450991e+01	3.292293e+02
1.860000e-06	6.231657e-06	4.954719e-09	4.418366e+01	3.284592e+02
1.870000e-06	6.183204e-06	5.037823e-09	4.384012e+01	3.276287e+02
1.880000e-06	6.132552e-06	5.010069e-09	4.348098e+01	3.267445e+02
1.890000e-06	6.079351e-06	5.104068e-09	4.310378e+01	3.258139e+02
1.900000e-06	6.023571e-06	4.868181e-09	4.270829e+01	3.248446e+02
1.910000e-06	5.965679e-06	4.843082e-09	4.229782e+01	3.238431e+02
1.920000e-06	5.905815e-06	4.995602e-09	4.187337e+01	3.228145e+02
1.930000e-06	5.843839e-06	4.958700e-09	4.143395e+01	3.217612e+02
1.940000e-06	5.779501e-06	4.932833e-09	4.097778e+01	3.206831e+02
1.950000e-06	5.713157e-06	4.764855e-09	4.050739e+01	3.195768e+02
1.960000e-06	5.644778e-06	4.851970e-09	4.002257e+01	3.184365e+02
1.970000e-06	5.574040e-06	4.876454e-09	3.952102e+01	3.172542e+02
1.980000e-06	5.501274e-06	4.868878e-09	3.900510e+01	3.160208e+02
1.990000e-06	5.426566e-06	4.846396e-09	3.847541e+01	3.147271e+02
2.000000e-06	5.349743e-06	4.676176e-09	3.793072e+01	3.133647e+02
2.010000e-06	5.270782e-06	4.774692e-09	3.737086e+01	3.119272e+02
2.020000e-06	5.189880e-06	4.801976e-09	3.679725e+01	3.104106e+02
2.030000e-06	5.107247e-06	4.765401e-09	3.621137e+01	3.088141e+02
2.040000e-06	5.022875e-06	4.639313e-09	3.561316e+01	3.071394e+02
2.050000e-06	4.936653e-06	4.620861e-09	3.500183e+01	3.053907e+02
2.060000e-06	4.848552e-06	4.707735e-09	3.437718e+01	3.035738e+02
2.070000e-06	4.758738e-06	4.632034e-09	3.374038e+01	3.016949e+02
2.080000e-06	4.667327e-06	4.566489e-09	3.309225e+01	2.997595e+02
2.090000e-06	4.574382e-06	4.501198e-09	3.243326e+01	2.977713e+02
2.100000e-06	4.479659e-06	4.520994e-09	3.176165e+01	2.957313e+02
2.110000e-06	4.383239e-06	4.498756e-09	3.107801e+01	2.936374e+02
2.120000e-06	4.285394e-06	4.460960e-09	3.038427e+01	2.914844e+02
2.130000e-06	4.186148e-06	4.402255e-09	2.968060e+01	2.892640e+02
2.140000e-06	4.085491e-06	4.346951e-09	2.896692e+01	2.869662e+02
2.150000e-06	3.983250e-06	4.366311e-09	2.824202e+01	2.845798e+02
2.160000e-06	3.879437e-06	4.349877e-09	2.750596e+01	2.820939e+02
2.170000e-06	3.774208e-06	4.284133e-09	2.675987e+01	2.794988e+02
2.180000e-06	3.667727e-06	4.200903e-09	2.600490e+01	2.767872e+02
2.190000e-06	3.560085e-06	4.196806e-09	2.524169e+01	2.739541e+02
2.200000e-06	3.451296e-06	4.169980e-09	2.447036e+01	2.709974e+02
2.210000e-06	3.341221e-06	4.091216e-09	2.368991e+01	2.679169e+02
2.220000e-06	3.229835e-06	4.017645e-09	2.290016e+01	2.647139e+02
2.230000e-06	3.117331e-06	3.987541e-09	2.210248e+01	2.613894e+02
2.240000e-06	3.003645e-06	3.951404e-09	2.129642e+01	2.579431e+02
2.250000e-06	2.888788e-06	3.882903e-09	2.048206e+01	2.543721e+02
2.260000e-06	2.772844e-06	3.822000e-09	1.966000e+01	2.506698e+02
2.270000e-06	2.655801e-06	3.771597e-09	1.883015e+01	2.468257e+02
2.280000e-06	2.537525e-06	3.719663e-09	1.799154e+01	2.428251e+02
2.290000e-06	2.418177e-06	3.648220e-09	1.714535e+01	2.386495e+02
2.300000e-06	2.297963e-06	3.581252e-09	1.629300e+01	2.342780e+02
2.310000e-06	2.176988e-06	3.513422e-09	1.543526e+01	2.296878e+02
2.320000e-06	2.055359e-06	3.444906e-09	1.457290e+01	2.248558e+02
2.330000e-06	1.933084e-06	3.367392e-09	1.370594e+01	2.197594e+02
2.340000e-06	1.810165e-06	3.281286e-09	1.283442e+01	2.143767e+02
2.350000e-06	1.686572e-06	3.185958e-09	1.195813e+01	2.086865e+02
2.360000e-06	1.562443e-06	3.099651e-09	1.107802e+01	2.026669e+02
2.370000e-06	1.437827e-06	3.017489e-09	1.019447e+01	1.962946e+02
2.380000e-06	1.312710e-06	2.908588e-09	9.307368e+00	1.895417e+02
2.390000e-06	1.187127e-06	2.783191e-09	8.416957e+00	1.823747e+02
2.400000e-06	1.061065e-06	2.667901e-09	7.523155e+00	1.747515e+02
2.410000e-06	9.345489e-07	2.562275e-09	6.626133e+00	1.666212e+02
2.420000e-06	8.076296e-07	2.430741e-09	5.726250e+00	1.579233e+02
2.430000e-06	6.803354e-07	2.276391e-09	4.823710e+00	1.485896e+02
2.440000e-06	5.527828e-07	2.126069e-09	3.919338e+00	1.385466e+02
2.450000e-06	4.250402e-07	1.973981e-09	3.013618e+00	1.277204e+02
2.460000e-06	2.971440e-07	1.799425e-09	2.106808e+00	1.160426e+02
2.470000e-06	1.691549e-07	1.599587e-09	1.199341e+00	1.034572e+02
2.480000e-06	4.115323e-08	1.388077e-09	2.917844e-01	8.992780e+01
2.490000e-06	-8.683190e-08	1.169836e-09	-6.156550e-01	7.544452e+01
2.500000e-06	-2.147946e-07	9.410976e-10	-1.522935e+00	6.003014e+01
2.510000e-06	-3.426488e-07	6.961152e-10	-2.429446e+00	4.374404e+01
2.520000e-06	-4.703712e-07	4.315332e-10	-3.335023e+00	2.668406e+01
2.530000e-06	-5.979305e-07	1.576303e-10	-4.239443e+00	8.985523e+00
2.540000e-06	-7.252233e-07	-1.148514e-10	-5.141974e+00	-9.182577e+00
2.550000e-06	-8.522052e-07	-3.928264e-10	-6.042300e+00	-2.762415e+01
2.560000e-06	-9.788168e-07	-6.829678e-10	-6.940001e+00	-4.612487e+01
2.570000e-06	-1.105028e-06	-9.721590e-10	-7.834864e+00	-6.446269e+01
2.580000e-06	-1.230817e-06	-1.246109e-09	-8.726729e+00	-8.241920e+01
2.590000e-06	-1.356115e-06	-1.507399e-09	-9.615115e+00	-9.979084e+01
2.600000e-06	-1.480859e-06	-1.764805e-09	-1.049958e+01	-1.163990e+02
2.610000e-06	-1.604996e-06	-2.011742e-09	-1.137973e+01	-1.320986e+02
2.620000e-06	-1.728543e-06	-2.235851e-09	-1.225571e+01	-1.467834e+02
2.630000e-06	-1.851478e-06	-2.439102e-09	-1.312734e+01	-1.603892e+02
2.640000e-06	-1.973776e-06	-2.629713e-09	-1.399445e+01	-1.728938e+02
2.650000e-06	-2.095463e-06	-2.806805e-09	-1.485724e+01	-1.843133e+02
2.660000e-06	-2.216450e-06	-2.966108e-09	-1.571506e+01	-1.946973e+02
2.670000e-06	-2.336618e-06	-3.109516e-09	-1.656708e+01	-2.041210e+02
2.680000e-06	-2.455963e-06	-3.239086e-09	-1.741326e+01	-2.126775e+02
2.690000e-06	-2.574372e-06	-3.359866e-09	-1.825280e+01	-2.204685e+02
2.700000e-06	-2.691622e-06	-3.475469e-09	-1.908412e+01	-2.275966e+02
2.710000e-06	-2.807679e-06	-3.579780e-09	-1.990699e+01	-2.341586e+02
2.720000e-06	-2.922613e-06	-3.668593e-09	-2.072189e+01	-2.402403e+02
2.730000e-06	-3.036396e-06	-3.750302e-09	-2.152864e+01	-2.459131e+02
2.740000e-06	-3.148937e-06	-3.831891e-09	-2.232658e+01	-2.512328e+02
2.750000e-06	-3.260136e-06	-3.909647e-09	-2.311500e+01	-2.562402e+02
2.760000e-06	-3.370095e-06	-3.979829e-09	-2.389462e+01	-2.609629e+02
2.770000e-06	-3.478973e-06	-4.044008e-09	-2.466659e+01	-2.654183e+02
2.780000e-06	-3.586768e-06	-4.108449e-09	-2.543088e+01	-2.696167e+02
2.790000e-06	-3.693431e-06	-4.172651e-09	-2.618715e+01	-2.735651e+02
2.800000e-06	-3.798823e-06	-4.231163e-09	-2.693439e+01	-2.772695e+02
2.810000e-06	-3.902748e-06	-4.285279e-09	-2.767124e+01	-2.807377e+02
2.820000e-06	-4.005134e-06	-4.338286e-09	-2.839718e+01	-2.839798e+02
2.830000e-06	-4.105995e-06	-4.388289e-09	-2.911230e+01	-2.870094e+02
2.840000e-06	-4.205466e-06	-4.433189e-09	-2.981757e+01	-2.898425e+02
2.850000e-06	-4.303617e-06	-4.474991e-09	-3.051348e+01	-2.924971e+02
2.860000e-06	-4.400357e-06	-4.514225e-09	-3.119939e+01	-2.949914e+02
2.870000e-06	-4.495556e-06	-4.552715e-09	-3.187436e+01	-2.973428e+02
2.880000e-06	-4.589077e-06	-4.591313e-09	-3.253745e+01	-2.995667e+02
2.890000e-06	-4.680964e-06	-4.626932e-09	-3.318894e+01	-3.016755e+02
2.900000e-06	-4.771256e-06	-4.658308e-09	-3.382913e+01	-3.036786e+02
2.910000e-06	-4.859888e-06	-4.686542e-09	-3.445755e+01	-3.055824e+02
2.920000e-06	-4.946743e-06	-4.714295e-09	-3.507336e+01	-3.073908e+02
2.930000e-06	-5.031732e-06	-4.740580e-09	-3.567596e+01	-3.091063e+02
2.940000e-06	-5.114969e-06	-4.764355e-09	-3.626612e+01	-3.107305e+02
