# Temperatura_=_20.0
# Concentracion g/m^3_=_9000.0
# C_Vs_to_Am_M_A/Vsm_=_65563218390.804596
# pendiente_HvsI_1/m_=_3716.3
# ordenada_HvsI_A/m_=_1297.0
# frecuencia_Hz_=_301069.7734291702

Tiempo_(s)	Campo_(V.s)	Magnetizacion_(V.s)	Campo_(kA/m)	Magnetizacion_(A/m)
0.000000e+00	-6.711374e-06	-5.088013e-09	-4.747249e+01	-3.339318e+02
1.000000e-08	-6.708337e-06	-5.091765e-09	-4.745101e+01	-3.338409e+02
2.000000e-08	-6.703122e-06	-5.090680e-09	-4.741412e+01	-3.337101e+02
3.000000e-08	-6.695846e-06	-5.088339e-09	-4.736266e+01	-3.335451e+02
4.000000e-08	-6.686287e-06	-5.084441e-09	-4.729504e+01	-3.333526e+02
5.000000e-08	-6.674247e-06	-5.078222e-09	-4.720988e+01	-3.331401e+02
6.000000e-08	-6.659764e-06	-5.072436e-09	-4.710743e+01	-3.329147e+02
7.000000e-08	-6.642921e-06	-5.071597e-09	-4.698829e+01	-3.326829e+02
8.000000e-08	-6.623932e-06	-5.084152e-09	-4.685398e+01	-3.324494e+02
9.000000e-08	-6.602707e-06	-5.117065e-09	-4.670385e+01	-3.322161e+02
1.000000e-07	-6.578833e-06	-5.112188e-09	-4.653497e+01	-3.319821e+02
1.100000e-07	-6.552220e-06	-5.085362e-09	-4.634673e+01	-3.317428e+02
1.200000e-07	-6.523276e-06	-5.055359e-09	-4.614199e+01	-3.314905e+02
1.300000e-07	-6.492460e-06	-5.001827e-09	-4.592402e+01	-3.312143e+02
1.400000e-07	-6.459851e-06	-4.961989e-09	-4.569336e+01	-3.309012e+02
1.500000e-07	-6.425228e-06	-5.047286e-09	-4.544845e+01	-3.305374e+02
1.600000e-07	-6.388504e-06	-5.108612e-09	-4.518869e+01	-3.301089e+02
1.700000e-07	-6.349809e-06	-5.010404e-09	-4.491498e+01	-3.296039e+02
1.800000e-07	-6.308850e-06	-4.973610e-09	-4.462527e+01	-3.290131e+02
1.900000e-07	-6.265364e-06	-4.972061e-09	-4.431767e+01	-3.283314e+02
2.000000e-07	-6.219652e-06	-4.994054e-09	-4.399432e+01	-3.275579e+02
2.100000e-07	-6.171494e-06	-5.003260e-09	-4.365369e+01	-3.266966e+02
2.200000e-07	-6.120632e-06	-4.931189e-09	-4.329392e+01	-3.257554e+02
2.300000e-07	-6.067343e-06	-4.887762e-09	-4.291698e+01	-3.247458e+02
2.400000e-07	-6.011818e-06	-4.888194e-09	-4.252422e+01	-3.236807e+02
2.500000e-07	-5.954045e-06	-4.939328e-09	-4.211557e+01	-3.225737e+02
2.600000e-07	-5.894074e-06	-4.944885e-09	-4.169137e+01	-3.214369e+02
2.700000e-07	-5.832021e-06	-4.862877e-09	-4.125244e+01	-3.202797e+02
2.800000e-07	-5.767919e-06	-4.816732e-09	-4.079902e+01	-3.191077e+02
2.900000e-07	-5.701710e-06	-4.843120e-09	-4.033070e+01	-3.179218e+02
3.000000e-07	-5.633344e-06	-4.891163e-09	-3.984712e+01	-3.167187e+02
3.100000e-07	-5.562925e-06	-4.829431e-09	-3.934901e+01	-3.154912e+02
3.200000e-07	-5.490648e-06	-4.734445e-09	-3.883776e+01	-3.142289e+02
3.300000e-07	-5.416287e-06	-4.734859e-09	-3.831177e+01	-3.129204e+02
3.400000e-07	-5.339629e-06	-4.748405e-09	-3.776954e+01	-3.115543e+02
3.500000e-07	-5.260778e-06	-4.731917e-09	-3.721179e+01	-3.101206e+02
3.600000e-07	-5.179881e-06	-4.687496e-09	-3.663957e+01	-3.086124e+02
3.700000e-07	-5.097234e-06	-4.643025e-09	-3.605497e+01	-3.070264e+02
3.800000e-07	-5.012909e-06	-4.611899e-09	-3.545850e+01	-3.053630e+02
3.900000e-07	-4.926977e-06	-4.624456e-09	-3.485067e+01	-3.036258e+02
4.000000e-07	-4.839504e-06	-4.627068e-09	-3.423194e+01	-3.018212e+02
4.100000e-07	-4.750246e-06	-4.546683e-09	-3.360057e+01	-2.999563e+02
4.200000e-07	-4.659099e-06	-4.497323e-09	-3.295585e+01	-2.980382e+02
4.300000e-07	-4.566263e-06	-4.521198e-09	-3.229918e+01	-2.960719e+02
4.400000e-07	-4.471906e-06	-4.512117e-09	-3.163175e+01	-2.940596e+02
4.500000e-07	-4.376005e-06	-4.440208e-09	-3.095340e+01	-2.919995e+02
4.600000e-07	-4.278433e-06	-4.400567e-09	-3.026324e+01	-2.898862e+02
4.700000e-07	-4.179197e-06	-4.391623e-09	-2.956130e+01	-2.877107e+02
4.800000e-07	-4.078443e-06	-4.348668e-09	-2.884861e+01	-2.854616e+02
4.900000e-07	-3.976327e-06	-4.305196e-09	-2.812631e+01	-2.831264e+02
5.000000e-07	-3.872804e-06	-4.269174e-09	-2.739404e+01	-2.806928e+02
5.100000e-07	-3.767796e-06	-4.215191e-09	-2.665127e+01	-2.781503e+02
5.200000e-07	-3.661373e-06	-4.168145e-09	-2.589850e+01	-2.754913e+02
5.300000e-07	-3.553595e-06	-4.148810e-09	-2.513614e+01	-2.727115e+02
5.400000e-07	-3.444585e-06	-4.105500e-09	-2.436506e+01	-2.698099e+02
5.500000e-07	-3.334477e-06	-4.040598e-09	-2.358622e+01	-2.667883e+02
5.600000e-07	-3.223212e-06	-4.006995e-09	-2.279920e+01	-2.636500e+02
5.700000e-07	-3.110616e-06	-3.979640e-09	-2.200275e+01	-2.603978e+02
5.800000e-07	-2.996703e-06	-3.921414e-09	-2.119700e+01	-2.570331e+02
5.900000e-07	-2.881564e-06	-3.857473e-09	-2.038256e+01	-2.535537e+02
6.000000e-07	-2.765298e-06	-3.812926e-09	-1.956017e+01	-2.499527e+02
6.100000e-07	-2.648002e-06	-3.761711e-09	-1.873048e+01	-2.462181e+02
6.200000e-07	-2.529830e-06	-3.692220e-09	-1.789460e+01	-2.423328e+02
6.300000e-07	-2.410750e-06	-3.619055e-09	-1.705229e+01	-2.382753e+02
6.400000e-07	-2.290702e-06	-3.551527e-09	-1.620314e+01	-2.340211e+02
6.500000e-07	-2.169873e-06	-3.484229e-09	-1.534846e+01	-2.295441e+02
6.600000e-07	-2.048377e-06	-3.408291e-09	-1.448907e+01	-2.248186e+02
6.700000e-07	-1.926123e-06	-3.328273e-09	-1.362431e+01	-2.198198e+02
6.800000e-07	-1.803042e-06	-3.250476e-09	-1.275371e+01	-2.145255e+02
6.900000e-07	-1.679271e-06	-3.174038e-09	-1.187822e+01	-2.089150e+02
7.000000e-07	-1.554921e-06	-3.090303e-09	-1.099864e+01	-2.029688e+02
7.100000e-07	-1.430029e-06	-2.996525e-09	-1.011522e+01	-1.966662e+02
7.200000e-07	-1.304705e-06	-2.893912e-09	-9.228751e+00	-1.899832e+02
7.300000e-07	-1.179040e-06	-2.783679e-09	-8.339868e+00	-1.828896e+02
7.400000e-07	-1.052990e-06	-2.670179e-09	-7.448263e+00	-1.753467e+02
7.500000e-07	-9.265557e-07	-2.546501e-09	-6.553935e+00	-1.673056e+02
7.600000e-07	-7.997371e-07	-2.404615e-09	-5.656892e+00	-1.587066e+02
7.700000e-07	-6.726174e-07	-2.255025e-09	-4.757718e+00	-1.494805e+02
7.800000e-07	-5.452617e-07	-2.107465e-09	-3.856875e+00	-1.395516e+02
7.900000e-07	-4.176595e-07	-1.947499e-09	-2.954289e+00	-1.288421e+02
8.000000e-07	-2.899091e-07	-1.765338e-09	-2.050654e+00	-1.172789e+02
8.100000e-07	-1.620663e-07	-1.571680e-09	-1.146366e+00	-1.048005e+02
8.200000e-07	-3.411977e-08	-1.372550e-09	-2.413441e-01	-9.136490e+01
8.300000e-07	9.383906e-08	-1.155192e-09	6.637648e-01	-7.695734e+01
8.400000e-07	2.216784e-07	-9.157502e-10	1.568029e+00	-6.159644e+01
8.500000e-07	3.493935e-07	-6.669675e-10	2.471414e+00	-4.533864e+01
8.600000e-07	4.770024e-07	-4.104653e-10	3.374048e+00	-2.828021e+01
8.700000e-07	6.044471e-07	-1.444428e-10	4.275519e+00	-1.055620e+01
8.800000e-07	7.316638e-07	1.311216e-10	5.175379e+00	7.663526e+00
8.900000e-07	8.586062e-07	4.146348e-10	6.073299e+00	2.618110e+01
9.000000e-07	9.852438e-07	7.012685e-10	6.969061e+00	4.477989e+01
9.100000e-07	1.111515e-06	9.809799e-10	7.862236e+00	6.323527e+01
9.200000e-07	1.237414e-06	1.251717e-09	8.752771e+00	8.132629e+01
9.300000e-07	1.362945e-06	1.518934e-09	9.640707e+00	9.884699e+01
9.400000e-07	1.488066e-06	1.777527e-09	1.052574e+01	1.156167e+02
9.500000e-07	1.612775e-06	2.019129e-09	1.140786e+01	1.314881e+02
9.600000e-07	1.737047e-06	2.239330e-09	1.228689e+01	1.463532e+02
9.700000e-07	1.860687e-06	2.445001e-09	1.316146e+01	1.601456e+02
9.800000e-07	1.983514e-06	2.639070e-09	1.403026e+01	1.728402e+02
9.900000e-07	2.105556e-06	2.814765e-09	1.489352e+01	1.844503e+02
1.000000e-06	2.226917e-06	2.970345e-09	1.575196e+01	1.950216e+02
1.010000e-06	2.347558e-06	3.113634e-09	1.660531e+01	2.046251e+02
1.020000e-06	2.467253e-06	3.249800e-09	1.745196e+01	2.133492e+02
1.030000e-06	2.585955e-06	3.373225e-09	1.829160e+01	2.212912e+02
1.040000e-06	2.703771e-06	3.483552e-09	1.912496e+01	2.285495e+02
1.050000e-06	2.820643e-06	3.583909e-09	1.995164e+01	2.352178e+02
1.060000e-06	2.936410e-06	3.679562e-09	2.077051e+01	2.413796e+02
1.070000e-06	3.050993e-06	3.769872e-09	2.158101e+01	2.471057e+02
1.080000e-06	3.164387e-06	3.852276e-09	2.238310e+01	2.524529e+02
1.090000e-06	3.276497e-06	3.924714e-09	2.317610e+01	2.574647e+02
1.100000e-06	3.387333e-06	3.992377e-09	2.396009e+01	2.621727e+02
1.110000e-06	3.497083e-06	4.060621e-09	2.473640e+01	2.665991e+02
1.120000e-06	3.605755e-06	4.125135e-09	2.550509e+01	2.707600e+02
1.130000e-06	3.713183e-06	4.184512e-09	2.626497e+01	2.746676e+02
1.140000e-06	3.819303e-06	4.238158e-09	2.701561e+01	2.783331e+02
1.150000e-06	3.924047e-06	4.289646e-09	2.775651e+01	2.817680e+02
1.160000e-06	4.027234e-06	4.338900e-09	2.848639e+01	2.849852e+02
1.170000e-06	4.128948e-06	4.383507e-09	2.920586e+01	2.879993e+02
1.180000e-06	4.229314e-06	4.421729e-09	2.991579e+01	2.908262e+02
1.190000e-06	4.328161e-06	4.458340e-09	3.061498e+01	2.934824e+02
1.200000e-06	4.425372e-06	4.495449e-09	3.130259e+01	2.959836e+02
1.210000e-06	4.520922e-06	4.531559e-09	3.197847e+01	2.983447e+02
1.220000e-06	4.614896e-06	4.565210e-09	3.264318e+01	3.005780e+02
1.230000e-06	4.707367e-06	4.596557e-09	3.329728e+01	3.026939e+02
1.240000e-06	4.798222e-06	4.626860e-09	3.393993e+01	3.046999e+02
1.250000e-06	4.887353e-06	4.656110e-09	3.457039e+01	3.066017e+02
1.260000e-06	4.974685e-06	4.683962e-09	3.518813e+01	3.084036e+02
1.270000e-06	5.060239e-06	4.707742e-09	3.579329e+01	3.101089e+02
1.280000e-06	5.144138e-06	4.728663e-09	3.638674e+01	3.117211e+02
1.290000e-06	5.226296e-06	4.748909e-09	3.696788e+01	3.132439e+02
1.300000e-06	5.306486e-06	4.770793e-09	3.753510e+01	3.146824e+02
1.310000e-06	5.384705e-06	4.791405e-09	3.808838e+01	3.160422e+02
1.320000e-06	5.461024e-06	4.810157e-09	3.862822e+01	3.173300e+02
1.330000e-06	5.535294e-06	4.829682e-09	3.915356e+01	3.185529e+02
1.340000e-06	5.607431e-06	4.849799e-09	3.966382e+01	3.197179e+02
1.350000e-06	5.677534e-06	4.868893e-09	4.015969e+01	3.208312e+02
1.360000e-06	5.745687e-06	4.885674e-09	4.064177e+01	3.218978e+02
1.370000e-06	5.811835e-06	4.900333e-09	4.110966e+01	3.229212e+02
1.380000e-06	5.875824e-06	4.913052e-09	4.156228e+01	3.239033e+02
1.390000e-06	5.937757e-06	4.926633e-09	4.200036e+01	3.248440e+02
1.400000e-06	5.997800e-06	4.940333e-09	4.242507e+01	3.257423e+02
1.410000e-06	6.055766e-06	4.953539e-09	4.283509e+01	3.265960e+02
1.420000e-06	6.111494e-06	4.966611e-09	4.322928e+01	3.274027e+02
1.430000e-06	6.164967e-06	4.979261e-09	4.360752e+01	3.281603e+02
1.440000e-06	6.215929e-06	4.993594e-09	4.396799e+01	3.288674e+02
1.450000e-06	6.264282e-06	5.007095e-09	4.431002e+01	3.295237e+02
1.460000e-06	6.310314e-06	5.017863e-09	4.463562e+01	3.301304e+02
1.470000e-06	6.354225e-06	5.026020e-09	4.494622e+01	3.306898e+02
1.480000e-06	6.395889e-06	5.035164e-09	4.524093e+01	3.312054e+02
1.490000e-06	6.435194e-06	5.044346e-09	4.551895e+01	3.316818e+02
1.500000e-06	6.472334e-06	5.051019e-09	4.578166e+01	3.321238e+02
1.510000e-06	6.507325e-06	5.058039e-09	4.602916e+01	3.325361e+02
1.520000e-06	6.539941e-06	5.066168e-09	4.625987e+01	3.329233e+02
1.530000e-06	6.570287e-06	5.075351e-09	4.647452e+01	3.332887e+02
1.540000e-06	6.598527e-06	5.083164e-09	4.667428e+01	3.336348e+02
1.550000e-06	6.624400e-06	5.090417e-09	4.685729e+01	3.339627e+02
1.560000e-06	6.647730e-06	5.097741e-09	4.702231e+01	3.342721e+02
1.570000e-06	6.668753e-06	5.101592e-09	4.717102e+01	3.345615e+02
1.580000e-06	6.687662e-06	5.104139e-09	4.730477e+01	3.348281e+02
1.590000e-06	6.704191e-06	5.107676e-09	4.742168e+01	3.350684e+02
1.600000e-06	6.718191e-06	5.113063e-09	4.752071e+01	3.352783e+02
1.610000e-06	6.729646e-06	5.118004e-09	4.760174e+01	3.354533e+02
1.620000e-06	6.738476e-06	5.120842e-09	4.766420e+01	3.355894e+02
1.630000e-06	6.744863e-06	5.125312e-09	4.770937e+01	3.356829e+02
1.640000e-06	6.748973e-06	5.129392e-09	4.773845e+01	3.357313e+02
1.650000e-06	6.750712e-06	5.132374e-09	4.775075e+01	3.357332e+02
1.660000e-06	6.750052e-06	5.132150e-09	4.774608e+01	3.356889e+02
1.670000e-06	6.747259e-06	5.126624e-09	4.772632e+01	3.356007e+02
1.680000e-06	6.742347e-06	5.122913e-09	4.769158e+01	3.354723e+02
1.690000e-06	6.735081e-06	5.121207e-09	4.764018e+01	3.353092e+02
1.700000e-06	6.725545e-06	5.120667e-09	4.757273e+01	3.351180e+02
1.710000e-06	6.713914e-06	5.121608e-09	4.749046e+01	3.349063e+02
1.720000e-06	6.699918e-06	5.122732e-09	4.739146e+01	3.346813e+02
1.730000e-06	6.683572e-06	5.120002e-09	4.727584e+01	3.344494e+02
1.740000e-06	6.665185e-06	5.069870e-09	4.714578e+01	3.342156e+02
1.750000e-06	6.644165e-06	5.034356e-09	4.699709e+01	3.339819e+02
1.760000e-06	6.619838e-06	5.053115e-09	4.682502e+01	3.337477e+02
1.770000e-06	6.592772e-06	5.064755e-09	4.663357e+01	3.335087e+02
1.780000e-06	6.563645e-06	5.089049e-09	4.642754e+01	3.332573e+02
1.790000e-06	6.532625e-06	5.166443e-09	4.620812e+01	3.329829e+02
1.800000e-06	6.500042e-06	5.112772e-09	4.597765e+01	3.326726e+02
1.810000e-06	6.465569e-06	5.021358e-09	4.573381e+01	3.323124e+02
1.820000e-06	6.428676e-06	5.056744e-09	4.547284e+01	3.318887e+02
1.830000e-06	6.389550e-06	5.058621e-09	4.519609e+01	3.313892e+02
1.840000e-06	6.348225e-06	5.118161e-09	4.490378e+01	3.308044e+02
1.850000e-06	6.304759e-06	5.082562e-09	4.459632e+01	3.301289e+02
1.860000e-06	6.259177e-06	4.958714e-09	4.427390e+01	3.293615e+02
1.870000e-06	6.211214e-06	4.990533e-09	4.393464e+01	3.285059e+02
1.880000e-06	6.161002e-06	5.036392e-09	4.357947e+01	3.275698e+02
1.890000e-06	6.108353e-06	5.095792e-09	4.320706e+01	3.265643e+02
1.900000e-06	6.053038e-06	4.970605e-09	4.281579e+01	3.255024e+02
1.910000e-06	5.995538e-06	4.808598e-09	4.240907e+01	3.243976e+02
1.920000e-06	5.936057e-06	4.930013e-09	4.198834e+01	3.232622e+02
1.930000e-06	5.874482e-06	5.005318e-09	4.155279e+01	3.221059e+02
1.940000e-06	5.810644e-06	4.949426e-09	4.110124e+01	3.209345e+02
1.950000e-06	5.744684e-06	4.798063e-09	4.063467e+01	3.197493e+02
1.960000e-06	5.676693e-06	4.789098e-09	4.015374e+01	3.185473e+02
1.970000e-06	5.606378e-06	4.895132e-09	3.965637e+01	3.173215e+02
1.980000e-06	5.533971e-06	4.877697e-09	3.914420e+01	3.160617e+02
1.990000e-06	5.459667e-06	4.833658e-09	3.861862e+01	3.147566e+02
2.000000e-06	5.383303e-06	4.710730e-09	3.807846e+01	3.133945e+02
2.010000e-06	5.304691e-06	4.716237e-09	3.752241e+01	3.119656e+02
2.020000e-06	5.223990e-06	4.806120e-09	3.695157e+01	3.104626e+02
2.030000e-06	5.141573e-06	4.780830e-09	3.636860e+01	3.088818e+02
2.040000e-06	5.057431e-06	4.662737e-09	3.577343e+01	3.072235e+02
2.050000e-06	4.971459e-06	4.589694e-09	3.516531e+01	3.054911e+02
2.060000e-06	4.883589e-06	4.676364e-09	3.454377e+01	3.036907e+02
2.070000e-06	4.793998e-06	4.671291e-09	3.391005e+01	3.018295e+02
2.080000e-06	4.702831e-06	4.574358e-09	3.326519e+01	2.999147e+02
2.090000e-06	4.610046e-06	4.495757e-09	3.260888e+01	2.979514e+02
2.100000e-06	4.515561e-06	4.496826e-09	3.194054e+01	2.959420e+02
2.110000e-06	4.419345e-06	4.515296e-09	3.125996e+01	2.938851e+02
2.120000e-06	4.321642e-06	4.468711e-09	3.056887e+01	2.917755e+02
2.130000e-06	4.222572e-06	4.399734e-09	2.986810e+01	2.896045e+02
2.140000e-06	4.121995e-06	4.341301e-09	2.915668e+01	2.873607e+02
2.150000e-06	4.019811e-06	4.352823e-09	2.843389e+01	2.850317e+02
2.160000e-06	3.916081e-06	4.352553e-09	2.770016e+01	2.826052e+02
2.170000e-06	3.810927e-06	4.291594e-09	2.695636e+01	2.800705e+02
2.180000e-06	3.704535e-06	4.210492e-09	2.620380e+01	2.774196e+02
2.190000e-06	3.596998e-06	4.187035e-09	2.544315e+01	2.746481e+02
2.200000e-06	3.488254e-06	4.177102e-09	2.467395e+01	2.717549e+02
2.210000e-06	3.378197e-06	4.112508e-09	2.389547e+01	2.687414e+02
2.220000e-06	3.266785e-06	4.033937e-09	2.310740e+01	2.656109e+02
2.230000e-06	3.154229e-06	3.987922e-09	2.231125e+01	2.623665e+02
2.240000e-06	3.040544e-06	3.958209e-09	2.150710e+01	2.590095e+02
2.250000e-06	2.925722e-06	3.900402e-09	2.069492e+01	2.555381e+02
2.260000e-06	2.809786e-06	3.833428e-09	1.987485e+01	2.519458e+02
2.270000e-06	2.692733e-06	3.778717e-09	1.904688e+01	2.482209e+02
2.280000e-06	2.574545e-06	3.730424e-09	1.821088e+01	2.443466e+02
2.290000e-06	2.455272e-06	3.668146e-09	1.736722e+01	2.403019e+02
2.300000e-06	2.335076e-06	3.598876e-09	1.651702e+01	2.360623e+02
2.310000e-06	2.214038e-06	3.533621e-09	1.566086e+01	2.316018e+02
2.320000e-06	2.092337e-06	3.469253e-09	1.480002e+01	2.268944e+02
2.330000e-06	1.969999e-06	3.394081e-09	1.393467e+01	2.219156e+02
2.340000e-06	1.846970e-06	3.307198e-09	1.306443e+01	2.166428e+02
2.350000e-06	1.723234e-06	3.215302e-09	1.218919e+01	2.110552e+02
2.360000e-06	1.598867e-06	3.129357e-09	1.130949e+01	2.051333e+02
2.370000e-06	1.473949e-06	3.047659e-09	1.042589e+01	1.988566e+02
2.380000e-06	1.348513e-06	2.943478e-09	9.538623e+00	1.922013e+02
2.390000e-06	1.222605e-06	2.818548e-09	8.648019e+00	1.851379e+02
2.400000e-06	1.096267e-06	2.702473e-09	7.754377e+00	1.776282e+02
2.410000e-06	9.695446e-07	2.599075e-09	6.858014e+00	1.696241e+02
2.420000e-06	8.424586e-07	2.474468e-09	5.959079e+00	1.610668e+02
2.430000e-06	7.150638e-07	2.319020e-09	5.057960e+00	1.518876e+02
2.440000e-06	5.874254e-07	2.165133e-09	4.155118e+00	1.420112e+02
2.450000e-06	4.595668e-07	2.019039e-09	3.250718e+00	1.313597e+02
2.460000e-06	3.315027e-07	1.854167e-09	2.344864e+00	1.198593e+02
2.470000e-06	2.032587e-07	1.656788e-09	1.437738e+00	1.074476e+02
2.480000e-06	7.496403e-08	1.441861e-09	5.302534e-01	9.408087e+01
2.490000e-06	-5.331114e-08	1.225881e-09	-3.770931e-01	7.974221e+01
2.500000e-06	-1.815501e-07	1.002771e-09	-1.284183e+00	6.444764e+01
2.510000e-06	-3.096717e-07	7.599015e-10	-2.190444e+00	4.825085e+01
2.520000e-06	-4.376026e-07	4.939348e-10	-3.095355e+00	3.124523e+01
2.530000e-06	-5.653995e-07	2.186218e-10	-3.999318e+00	1.356316e+01
2.540000e-06	-6.930329e-07	-5.309762e-11	-4.902126e+00	-4.627779e+00
2.550000e-06	-8.203370e-07	-3.289059e-10	-5.802603e+00	-2.313145e+01
2.560000e-06	-9.472482e-07	-6.189864e-10	-6.700302e+00	-4.173219e+01
2.570000e-06	-1.073794e-06	-9.130235e-10	-7.595415e+00	-6.020560e+01
2.580000e-06	-1.199996e-06	-1.191648e-09	-8.488098e+00	-7.833006e+01
2.590000e-06	-1.325834e-06	-1.454663e-09	-9.378208e+00	-9.589819e+01
2.600000e-06	-1.451229e-06	-1.714362e-09	-1.026518e+01	-1.127272e+02
2.610000e-06	-1.576059e-06	-1.966667e-09	-1.114816e+01	-1.286672e+02
2.620000e-06	-1.700182e-06	-2.196026e-09	-1.202614e+01	-1.436072e+02
2.630000e-06	-1.823573e-06	-2.399416e-09	-1.289893e+01	-1.574779e+02
2.640000e-06	-1.946319e-06	-2.590171e-09	-1.376717e+01	-1.702512e+02
2.650000e-06	-2.068461e-06	-2.771000e-09	-1.463113e+01	-1.819380e+02
2.660000e-06	-2.189949e-06	-2.936890e-09	-1.549047e+01	-1.925817e+02
2.670000e-06	-2.310618e-06	-3.085811e-09	-1.634401e+01	-2.022519e+02
2.680000e-06	-2.430390e-06	-3.218604e-09	-1.719121e+01	-2.110360e+02
2.690000e-06	-2.549219e-06	-3.342378e-09	-1.803174e+01	-2.190309e+02
2.700000e-06	-2.667111e-06	-3.459519e-09	-1.886565e+01	-2.263352e+02
2.710000e-06	-2.783927e-06	-3.567254e-09	-1.969194e+01	-2.330431e+02
2.720000e-06	-2.899498e-06	-3.659155e-09	-2.050942e+01	-2.392389e+02
2.730000e-06	-3.013909e-06	-3.742610e-09	-2.131870e+01	-2.449944e+02
2.740000e-06	-3.127129e-06	-3.824611e-09	-2.211956e+01	-2.503675e+02
2.750000e-06	-3.239088e-06	-3.902752e-09	-2.291149e+01	-2.554024e+02
2.760000e-06	-3.349670e-06	-3.974139e-09	-2.369369e+01	-2.601315e+02
2.770000e-06	-3.459025e-06	-4.037962e-09	-2.446720e+01	-2.645778e+02
2.780000e-06	-3.567326e-06	-4.100310e-09	-2.523326e+01	-2.687576e+02
2.790000e-06	-3.674456e-06	-4.162470e-09	-2.599104e+01	-2.726833e+02
2.800000e-06	-3.780441e-06	-4.221325e-09	-2.674072e+01	-2.763660e+02
2.810000e-06	-3.885087e-06	-4.275224e-09	-2.748092e+01	-2.798173e+02
2.820000e-06	-3.988141e-06	-4.327255e-09	-2.820987e+01	-2.830499e+02
2.830000e-06	-4.089720e-06	-4.378309e-09	-2.892838e+01	-2.860784e+02
2.840000e-06	-4.189864e-06	-4.425181e-09	-2.963674e+01	-2.889185e+02
2.850000e-06	-4.288555e-06	-4.467804e-09	-3.033483e+01	-2.915866e+02
2.860000e-06	-4.385852e-06	-4.506218e-09	-3.102306e+01	-2.940988e+02
2.870000e-06	-4.481632e-06	-4.541701e-09	-3.170055e+01	-2.964698e+02
2.880000e-06	-4.575852e-06	-4.577472e-09	-3.236701e+01	-2.987122e+02
2.890000e-06	-4.668418e-06	-4.612546e-09	-3.302177e+01	-3.008365e+02
2.900000e-06	-4.759242e-06	-4.643878e-09	-3.366420e+01	-3.028505e+02
2.910000e-06	-4.848408e-06	-4.672081e-09	-3.429492e+01	-3.047600e+02
2.920000e-06	-4.935902e-06	-4.700573e-09	-3.491380e+01	-3.065692e+02
2.930000e-06	-5.021585e-06	-4.727957e-09	-3.551987e+01	-3.082817e+02
2.940000e-06	-5.105448e-06	-4.752404e-09	-3.611307e+01	-3.099007e+02
