# Temperatura_=_20.0
# Concentracion g/m^3_=_9000.0
# C_Vs_to_Am_M_A/Vsm_=_65563218390.804596
# pendiente_HvsI_1/m_=_3716.3
# ordenada_HvsI_A/m_=_1297.0
# frecuencia_Hz_=_301068.98229859915

Tiempo_(s)	Campo_(V.s)	Magnetizacion_(V.s)	Campo_(kA/m)	Magnetizacion_(A/m)
0.000000e+00	-6.694475e-06	-5.088731e-09	-4.746309e+01	-3.329298e+02
1.000000e-08	-6.690774e-06	-5.088440e-09	-4.743685e+01	-3.328420e+02
2.000000e-08	-6.684965e-06	-5.083090e-09	-4.739567e+01	-3.327201e+02
3.000000e-08	-6.677061e-06	-5.079955e-09	-4.733963e+01	-3.325695e+02
4.000000e-08	-6.666808e-06	-5.073309e-09	-4.726694e+01	-3.323960e+02
5.000000e-08	-6.654034e-06	-5.067649e-09	-4.717637e+01	-3.322052e+02
6.000000e-08	-6.638765e-06	-5.056159e-09	-4.706811e+01	-3.320016e+02
7.000000e-08	-6.621236e-06	-5.044666e-09	-4.694384e+01	-3.317884e+02
8.000000e-08	-6.601670e-06	-5.112948e-09	-4.680512e+01	-3.315669e+02
9.000000e-08	-6.579725e-06	-5.160998e-09	-4.664953e+01	-3.313361e+02
1.000000e-07	-6.554993e-06	-5.107579e-09	-4.647418e+01	-3.310928e+02
1.100000e-07	-6.527644e-06	-5.056866e-09	-4.628028e+01	-3.308316e+02
1.200000e-07	-6.498112e-06	-5.026523e-09	-4.607090e+01	-3.305451e+02
1.300000e-07	-6.466789e-06	-4.932854e-09	-4.584883e+01	-3.302245e+02
1.400000e-07	-6.433726e-06	-4.967418e-09	-4.561441e+01	-3.298604e+02
1.500000e-07	-6.398601e-06	-5.161950e-09	-4.536538e+01	-3.294434e+02
1.600000e-07	-6.361352e-06	-5.018563e-09	-4.510129e+01	-3.289651e+02
1.700000e-07	-6.322058e-06	-4.962131e-09	-4.482270e+01	-3.284186e+02
1.800000e-07	-6.280353e-06	-5.007808e-09	-4.452701e+01	-3.277993e+02
1.900000e-07	-6.236169e-06	-4.929585e-09	-4.421375e+01	-3.271054e+02
2.000000e-07	-6.189807e-06	-5.023909e-09	-4.388506e+01	-3.263380e+02
2.100000e-07	-6.141005e-06	-4.968933e-09	-4.353905e+01	-3.255007e+02
2.200000e-07	-6.089544e-06	-4.884941e-09	-4.317420e+01	-3.245994e+02
2.300000e-07	-6.035644e-06	-4.891412e-09	-4.279205e+01	-3.236416e+02
2.400000e-07	-5.979569e-06	-4.895537e-09	-4.239449e+01	-3.226353e+02
2.500000e-07	-5.921310e-06	-4.966622e-09	-4.198144e+01	-3.215881e+02
2.600000e-07	-5.860807e-06	-4.918338e-09	-4.155248e+01	-3.205063e+02
2.700000e-07	-5.798190e-06	-4.826056e-09	-4.110853e+01	-3.193941e+02
2.800000e-07	-5.733580e-06	-4.823971e-09	-4.065045e+01	-3.182532e+02
2.900000e-07	-5.666878e-06	-4.885799e-09	-4.017754e+01	-3.170824e+02
3.000000e-07	-5.598014e-06	-4.883873e-09	-3.968930e+01	-3.158778e+02
3.100000e-07	-5.527192e-06	-4.756146e-09	-3.918719e+01	-3.146337e+02
3.200000e-07	-5.454410e-06	-4.747564e-09	-3.867117e+01	-3.133428e+02
3.300000e-07	-5.379431e-06	-4.742434e-09	-3.813958e+01	-3.119977e+02
3.400000e-07	-5.302276e-06	-4.721180e-09	-3.759256e+01	-3.105915e+02
3.500000e-07	-5.222963e-06	-4.726515e-09	-3.703024e+01	-3.091189e+02
3.600000e-07	-5.141596e-06	-4.671938e-09	-3.645335e+01	-3.075770e+02
3.700000e-07	-5.058480e-06	-4.618511e-09	-3.586407e+01	-3.059650e+02
3.800000e-07	-4.973764e-06	-4.601554e-09	-3.526344e+01	-3.042848e+02
3.900000e-07	-4.887503e-06	-4.645710e-09	-3.465186e+01	-3.025401e+02
4.000000e-07	-4.799623e-06	-4.601388e-09	-3.402880e+01	-3.007358e+02
4.100000e-07	-4.710000e-06	-4.513688e-09	-3.339339e+01	-2.988768e+02
4.200000e-07	-4.618585e-06	-4.510455e-09	-3.274526e+01	-2.969671e+02
4.300000e-07	-4.525507e-06	-4.533425e-09	-3.208535e+01	-2.950086e+02
4.400000e-07	-4.430853e-06	-4.491925e-09	-3.141427e+01	-2.930006e+02
4.500000e-07	-4.334558e-06	-4.418315e-09	-3.073154e+01	-2.909394e+02
4.600000e-07	-4.236623e-06	-4.407964e-09	-3.003719e+01	-2.888181e+02
4.700000e-07	-4.137102e-06	-4.381385e-09	-2.933160e+01	-2.866274e+02
4.800000e-07	-4.036171e-06	-4.327136e-09	-2.861601e+01	-2.843564e+02
4.900000e-07	-3.933835e-06	-4.293314e-09	-2.789046e+01	-2.819935e+02
5.000000e-07	-3.830033e-06	-4.257196e-09	-2.715452e+01	-2.795277e+02
5.100000e-07	-3.724924e-06	-4.191749e-09	-2.640930e+01	-2.769497e+02
5.200000e-07	-3.618439e-06	-4.152417e-09	-2.565433e+01	-2.742527e+02
5.300000e-07	-3.510524e-06	-4.143851e-09	-2.488923e+01	-2.714326e+02
5.400000e-07	-3.401389e-06	-4.092003e-09	-2.411547e+01	-2.684879e+02
5.500000e-07	-3.291187e-06	-4.029013e-09	-2.333415e+01	-2.654195e+02
5.600000e-07	-3.179784e-06	-4.002399e-09	-2.254432e+01	-2.622290e+02
5.700000e-07	-3.067136e-06	-3.973185e-09	-2.174566e+01	-2.589180e+02
5.800000e-07	-2.953295e-06	-3.903182e-09	-2.093854e+01	-2.554863e+02
5.900000e-07	-2.838190e-06	-3.841744e-09	-2.012246e+01	-2.519312e+02
6.000000e-07	-2.721900e-06	-3.798547e-09	-1.929798e+01	-2.482460e+02
6.100000e-07	-2.604631e-06	-3.737262e-09	-1.846655e+01	-2.444197e+02
6.200000e-07	-2.486541e-06	-3.658845e-09	-1.762930e+01	-2.404374e+02
6.300000e-07	-2.367519e-06	-3.588237e-09	-1.678545e+01	-2.362804e+02
6.400000e-07	-2.247511e-06	-3.525353e-09	-1.593461e+01	-2.319276e+02
6.500000e-07	-2.126747e-06	-3.452095e-09	-1.507840e+01	-2.273559e+02
6.600000e-07	-2.005376e-06	-3.374410e-09	-1.421790e+01	-2.225423e+02
6.700000e-07	-1.883233e-06	-3.299891e-09	-1.335192e+01	-2.174639e+02
6.800000e-07	-1.760181e-06	-3.223006e-09	-1.247949e+01	-2.120986e+02
6.900000e-07	-1.636368e-06	-3.137773e-09	-1.160167e+01	-2.064246e+02
7.000000e-07	-1.512023e-06	-3.051714e-09	-1.072007e+01	-2.004195e+02
7.100000e-07	-1.387232e-06	-2.959321e-09	-9.835324e+00	-1.940585e+02
7.200000e-07	-1.262035e-06	-2.854540e-09	-8.947693e+00	-1.873123e+02
7.300000e-07	-1.136431e-06	-2.742309e-09	-8.057171e+00	-1.801454e+02
7.400000e-07	-1.010428e-06	-2.628701e-09	-7.163826e+00	-1.725135e+02
7.500000e-07	-8.840669e-07	-2.502455e-09	-6.267938e+00	-1.643634e+02
7.600000e-07	-7.573882e-07	-2.354058e-09	-5.369799e+00	-1.556326e+02
7.700000e-07	-6.304709e-07	-2.203871e-09	-4.469969e+00	-1.462509e+02
7.800000e-07	-5.033854e-07	-2.055035e-09	-3.568947e+00	-1.361438e+02
7.900000e-07	-3.761372e-07	-1.889473e-09	-2.666772e+00	-1.252373e+02
8.000000e-07	-2.486779e-07	-1.703262e-09	-1.763099e+00	-1.134640e+02
8.100000e-07	-1.210850e-07	-1.510819e-09	-8.584791e-01	-1.007698e+02
8.200000e-07	6.558007e-09	-1.308569e-09	4.649555e-02	-8.712185e+01
8.300000e-07	1.342151e-07	-1.083939e-09	9.515701e-01	-7.251467e+01
8.400000e-07	2.617883e-07	-8.432498e-10	1.856051e+00	-5.697637e+01
8.500000e-07	3.892380e-07	-5.961197e-10	2.759655e+00	-4.057226e+01
8.600000e-07	5.165433e-07	-3.390281e-10	3.662235e+00	-2.340625e+01
8.700000e-07	6.436301e-07	-6.909085e-11	4.563267e+00	-5.619474e+00
8.800000e-07	7.704860e-07	2.075140e-10	5.462661e+00	1.261399e+01
8.900000e-07	8.971145e-07	4.898966e-10	6.360443e+00	3.109403e+01
9.000000e-07	1.023454e-06	7.751147e-10	7.256176e+00	4.960376e+01
9.100000e-07	1.149400e-06	1.054017e-09	8.149120e+00	6.792017e+01
9.200000e-07	1.274932e-06	1.323802e-09	9.039125e+00	8.582558e+01
9.300000e-07	1.400067e-06	1.588938e-09	9.926322e+00	1.031188e+02
9.400000e-07	1.524819e-06	1.843485e-09	1.081080e+01	1.196251e+02
9.500000e-07	1.649142e-06	2.078864e-09	1.169224e+01	1.352042e+02
9.600000e-07	1.772912e-06	2.295434e-09	1.256975e+01	1.497556e+02
9.700000e-07	1.896037e-06	2.497663e-09	1.344269e+01	1.632211e+02
9.800000e-07	2.018395e-06	2.684122e-09	1.431020e+01	1.755842e+02
9.900000e-07	2.139966e-06	2.849590e-09	1.517213e+01	1.868664e+02
1.000000e-06	2.260805e-06	2.999319e-09	1.602886e+01	1.971213e+02
1.010000e-06	2.380801e-06	3.139972e-09	1.687962e+01	2.064276e+02
1.020000e-06	2.499917e-06	3.272676e-09	1.772414e+01	2.148798e+02
1.030000e-06	2.618155e-06	3.390883e-09	1.856243e+01	2.225803e+02
1.040000e-06	2.735487e-06	3.496876e-09	1.939431e+01	2.296310e+02
1.050000e-06	2.851811e-06	3.596737e-09	2.021903e+01	2.361269e+02
1.060000e-06	2.966861e-06	3.692696e-09	2.103472e+01	2.421513e+02
1.070000e-06	3.080627e-06	3.783694e-09	2.184131e+01	2.477726e+02
1.080000e-06	3.193236e-06	3.863386e-09	2.263969e+01	2.530435e+02
1.090000e-06	3.304708e-06	3.935149e-09	2.343002e+01	2.580020e+02
1.100000e-06	3.415001e-06	4.003744e-09	2.421198e+01	2.626731e+02
1.110000e-06	3.524148e-06	4.070793e-09	2.498583e+01	2.670726e+02
1.120000e-06	3.632217e-06	4.132210e-09	2.575202e+01	2.712097e+02
1.130000e-06	3.739054e-06	4.188283e-09	2.650948e+01	2.750910e+02
1.140000e-06	3.844447e-06	4.239973e-09	2.725671e+01	2.787233e+02
1.150000e-06	3.948352e-06	4.289199e-09	2.799338e+01	2.821151e+02
1.160000e-06	4.050802e-06	4.337207e-09	2.871974e+01	2.852785e+02
1.170000e-06	4.151858e-06	4.380844e-09	2.943622e+01	2.882287e+02
1.180000e-06	4.251523e-06	4.418879e-09	3.014283e+01	2.909839e+02
1.190000e-06	4.349600e-06	4.454299e-09	3.083819e+01	2.935637e+02
1.200000e-06	4.445988e-06	4.490164e-09	3.152157e+01	2.959881e+02
1.210000e-06	4.540755e-06	4.525116e-09	3.219346e+01	2.982754e+02
1.220000e-06	4.634001e-06	4.557551e-09	3.285456e+01	3.004418e+02
1.230000e-06	4.725772e-06	4.587118e-09	3.350521e+01	3.024998e+02
1.240000e-06	4.815856e-06	4.614968e-09	3.414389e+01	3.044587e+02
1.250000e-06	4.904123e-06	4.642744e-09	3.476969e+01	3.063240e+02
1.260000e-06	4.990672e-06	4.671431e-09	3.538331e+01	3.080987e+02
1.270000e-06	5.075564e-06	4.697550e-09	3.598519e+01	3.097841e+02
1.280000e-06	5.158737e-06	4.719093e-09	3.657488e+01	3.113808e+02
1.290000e-06	5.240030e-06	4.739372e-09	3.715124e+01	3.128898e+02
1.300000e-06	5.319420e-06	4.761360e-09	3.771411e+01	3.143133e+02
1.310000e-06	5.396934e-06	4.781751e-09	3.826367e+01	3.156551e+02
1.320000e-06	5.472433e-06	4.800538e-09	3.879895e+01	3.169208e+02
1.330000e-06	5.545777e-06	4.819121e-09	3.931895e+01	3.181173e+02
1.340000e-06	5.617056e-06	4.837359e-09	3.982431e+01	3.192523e+02
1.350000e-06	5.686435e-06	4.855707e-09	4.031620e+01	3.203337e+02
1.360000e-06	5.753869e-06	4.873169e-09	4.079430e+01	3.213685e+02
1.370000e-06	5.819146e-06	4.888450e-09	4.125711e+01	3.223623e+02
1.380000e-06	5.882295e-06	4.901986e-09	4.170483e+01	3.233185e+02
1.390000e-06	5.943571e-06	4.915440e-09	4.213927e+01	3.242387e+02
1.400000e-06	6.002913e-06	4.929425e-09	4.255999e+01	3.251219e+02
1.410000e-06	6.059989e-06	4.942858e-09	4.296466e+01	3.259656e+02
1.420000e-06	6.114830e-06	4.954907e-09	4.335347e+01	3.267663e+02
1.430000e-06	6.167428e-06	4.966381e-09	4.372639e+01	3.275199e+02
1.440000e-06	6.217426e-06	4.978412e-09	4.408087e+01	3.282230e+02
1.450000e-06	6.264895e-06	4.991482e-09	4.441742e+01	3.288732e+02
1.460000e-06	6.310213e-06	5.003658e-09	4.473872e+01	3.294700e+02
1.470000e-06	6.353415e-06	5.012070e-09	4.504502e+01	3.300145e+02
1.480000e-06	6.394292e-06	5.020110e-09	4.533483e+01	3.305100e+02
1.490000e-06	6.432831e-06	5.028983e-09	4.560807e+01	3.309613e+02
1.500000e-06	6.469263e-06	5.036702e-09	4.586637e+01	3.313744e+02
1.510000e-06	6.503460e-06	5.042906e-09	4.610882e+01	3.317556e+02
1.520000e-06	6.535217e-06	5.049089e-09	4.633397e+01	3.321112e+02
1.530000e-06	6.564750e-06	5.057749e-09	4.654336e+01	3.324464e+02
1.540000e-06	6.592091e-06	5.067000e-09	4.673720e+01	3.327651e+02
1.550000e-06	6.616994e-06	5.074199e-09	4.691376e+01	3.330692e+02
1.560000e-06	6.639469e-06	5.078861e-09	4.707311e+01	3.333589e+02
1.570000e-06	6.659760e-06	5.082087e-09	4.721697e+01	3.336323e+02
1.580000e-06	6.677812e-06	5.085738e-09	4.734495e+01	3.338859e+02
1.590000e-06	6.693463e-06	5.089978e-09	4.745592e+01	3.341153e+02
1.600000e-06	6.706677e-06	5.094545e-09	4.754960e+01	3.343152e+02
1.610000e-06	6.717209e-06	5.098351e-09	4.762427e+01	3.344807e+02
1.620000e-06	6.725116e-06	5.101666e-09	4.768034e+01	3.346073e+02
1.630000e-06	6.730753e-06	5.107335e-09	4.772030e+01	3.346916e+02
1.640000e-06	6.734127e-06	5.112711e-09	4.774423e+01	3.347318e+02
1.650000e-06	6.735048e-06	5.117481e-09	4.775075e+01	3.347280e+02
1.660000e-06	6.733637e-06	5.111387e-09	4.774075e+01	3.346817e+02
1.670000e-06	6.730164e-06	5.107573e-09	4.771612e+01	3.345962e+02
1.680000e-06	6.724479e-06	5.106860e-09	4.767582e+01	3.344762e+02
1.690000e-06	6.716461e-06	5.106294e-09	4.761897e+01	3.343271e+02
1.700000e-06	6.706297e-06	5.107715e-09	4.754691e+01	3.341547e+02
1.710000e-06	6.693953e-06	5.110528e-09	4.745939e+01	3.339646e+02
1.720000e-06	6.679214e-06	5.131472e-09	4.735490e+01	3.337615e+02
1.730000e-06	6.662286e-06	5.104403e-09	4.723488e+01	3.335486e+02
1.740000e-06	6.643208e-06	4.991477e-09	4.709962e+01	3.333273e+02
1.750000e-06	6.621216e-06	5.005000e-09	4.694370e+01	3.330969e+02
1.760000e-06	6.595984e-06	5.051559e-09	4.676481e+01	3.328544e+02
1.770000e-06	6.568301e-06	5.049082e-09	4.656853e+01	3.325943e+02
1.780000e-06	6.538590e-06	5.177312e-09	4.635789e+01	3.323095e+02
1.790000e-06	6.507023e-06	5.171863e-09	4.613408e+01	3.319913e+02
1.800000e-06	6.473908e-06	4.955582e-09	4.589930e+01	3.316303e+02
1.810000e-06	6.438763e-06	5.071328e-09	4.565012e+01	3.312171e+02
1.820000e-06	6.401254e-06	5.048176e-09	4.538419e+01	3.307430e+02
1.830000e-06	6.361583e-06	5.027338e-09	4.510293e+01	3.302012e+02
1.840000e-06	6.319631e-06	5.185193e-09	4.480549e+01	3.295868e+02
1.850000e-06	6.275550e-06	4.934022e-09	4.449296e+01	3.288980e+02
1.860000e-06	6.229292e-06	4.960349e-09	4.416499e+01	3.281354e+02
1.870000e-06	6.180644e-06	5.034876e-09	4.382009e+01	3.273025e+02
1.880000e-06	6.129857e-06	5.020540e-09	4.346002e+01	3.264053e+02
1.890000e-06	6.076511e-06	5.090443e-09	4.308180e+01	3.254509e+02
1.900000e-06	6.020610e-06	4.829634e-09	4.268546e+01	3.244474e+02
1.910000e-06	5.962665e-06	4.845963e-09	4.227464e+01	3.234026e+02
1.920000e-06	5.902655e-06	4.982691e-09	4.184917e+01	3.223227e+02
1.930000e-06	5.840467e-06	4.945839e-09	4.140827e+01	3.212123e+02
1.940000e-06	5.776037e-06	4.905133e-09	4.095147e+01	3.200731e+02
1.950000e-06	5.709640e-06	4.748427e-09	4.048072e+01	3.189042e+02
1.960000e-06	5.641171e-06	4.857836e-09	3.999528e+01	3.177019e+02
1.970000e-06	5.570351e-06	4.866436e-09	3.949318e+01	3.164604e+02
1.980000e-06	5.497483e-06	4.865690e-09	3.897655e+01	3.151728e+02
1.990000e-06	5.422614e-06	4.816631e-09	3.844574e+01	3.138314e+02
2.000000e-06	5.345643e-06	4.659170e-09	3.790002e+01	3.124294e+02
2.010000e-06	5.266545e-06	4.773914e-09	3.733923e+01	3.109614e+02
2.020000e-06	5.185492e-06	4.794891e-09	3.676457e+01	3.094241e+02
2.030000e-06	5.102669e-06	4.750339e-09	3.617736e+01	3.078168e+02
2.040000e-06	5.018102e-06	4.610858e-09	3.557780e+01	3.061410e+02
2.050000e-06	4.931772e-06	4.613127e-09	3.496572e+01	3.044004e+02
2.060000e-06	4.843577e-06	4.693457e-09	3.434043e+01	3.025999e+02
2.070000e-06	4.753725e-06	4.616150e-09	3.370339e+01	3.007443e+02
2.080000e-06	4.662286e-06	4.548568e-09	3.305510e+01	2.988377e+02
2.090000e-06	4.569240e-06	4.483614e-09	3.239541e+01	2.968824e+02
2.100000e-06	4.474434e-06	4.507558e-09	3.172325e+01	2.948777e+02
2.110000e-06	4.377906e-06	4.485797e-09	3.103887e+01	2.928201e+02
2.120000e-06	4.280010e-06	4.451496e-09	3.034480e+01	2.907030e+02
2.130000e-06	4.180696e-06	4.383708e-09	2.964068e+01	2.885173e+02
2.140000e-06	4.079872e-06	4.333001e-09	2.892585e+01	2.862521e+02
2.150000e-06	3.977471e-06	4.355689e-09	2.819983e+01	2.838958e+02
2.160000e-06	3.873525e-06	4.343240e-09	2.746287e+01	2.814373e+02
2.170000e-06	3.768211e-06	4.274300e-09	2.671620e+01	2.788673e+02
2.180000e-06	3.661690e-06	4.191752e-09	2.596098e+01	2.761786e+02
2.190000e-06	3.553977e-06	4.189920e-09	2.519731e+01	2.733670e+02
2.200000e-06	3.445064e-06	4.159997e-09	2.442512e+01	2.704309e+02
2.210000e-06	3.334888e-06	4.079762e-09	2.364399e+01	2.673709e+02
2.220000e-06	3.223394e-06	4.005647e-09	2.285351e+01	2.641887e+02
2.230000e-06	3.110751e-06	3.976376e-09	2.205488e+01	2.608859e+02
2.240000e-06	2.996952e-06	3.936615e-09	2.124806e+01	2.574626e+02
2.250000e-06	2.882014e-06	3.870588e-09	2.043316e+01	2.539162e+02
2.260000e-06	2.765963e-06	3.815517e-09	1.961037e+01	2.502401e+02
2.270000e-06	2.648784e-06	3.767697e-09	1.877959e+01	2.464241e+02
2.280000e-06	2.530473e-06	3.715927e-09	1.794077e+01	2.424531e+02
2.290000e-06	2.411091e-06	3.646893e-09	1.709437e+01	2.383090e+02
2.300000e-06	2.290777e-06	3.580355e-09	1.624136e+01	2.339705e+02
2.310000e-06	2.169704e-06	3.508734e-09	1.538297e+01	2.294149e+02
2.320000e-06	2.048010e-06	3.437739e-09	1.452016e+01	2.246190e+02
2.330000e-06	1.925722e-06	3.363112e-09	1.365316e+01	2.195600e+02
2.340000e-06	1.802776e-06	3.278934e-09	1.278149e+01	2.142155e+02
2.350000e-06	1.679110e-06	3.182935e-09	1.190471e+01	2.085640e+02
2.360000e-06	1.554876e-06	3.097876e-09	1.102390e+01	2.025830e+02
2.370000e-06	1.430149e-06	3.017746e-09	1.013960e+01	1.962479e+02
2.380000e-06	1.304944e-06	2.910347e-09	9.251911e+00	1.895300e+02
2.390000e-06	1.179306e-06	2.785221e-09	8.361153e+00	1.823941e+02
2.400000e-06	1.053252e-06	2.670665e-09	7.467444e+00	1.747968e+02
2.410000e-06	9.267954e-07	2.564986e-09	6.570878e+00	1.666853e+02
2.420000e-06	7.999629e-07	2.431783e-09	5.671649e+00	1.579979e+02
2.430000e-06	6.728200e-07	2.276188e-09	4.770220e+00	1.486647e+02
2.440000e-06	5.454140e-07	2.125421e-09	3.866926e+00	1.386116e+02
2.450000e-06	4.177201e-07	1.973194e-09	2.961590e+00	1.277643e+02
2.460000e-06	2.898223e-07	1.798682e-09	2.054808e+00	1.160545e+02
2.470000e-06	1.618612e-07	1.599931e-09	1.147578e+00	1.034272e+02
2.480000e-06	3.385831e-08	1.388359e-09	2.400517e-01	8.984751e+01
2.490000e-06	-9.411160e-08	1.168049e-09	-6.672409e-01	7.530799e+01
2.500000e-06	-2.220124e-07	9.384662e-10	-1.574044e+00	5.983415e+01
2.510000e-06	-3.498198e-07	6.927659e-10	-2.480184e+00	4.348855e+01
2.520000e-06	-4.775143e-07	4.270176e-10	-3.385524e+00	2.637236e+01
2.530000e-06	-6.050223e-07	1.528962e-10	-4.289541e+00	8.624160e+00
2.540000e-06	-7.322343e-07	-1.191483e-10	-5.191461e+00	-9.584113e+00
2.550000e-06	-8.591259e-07	-3.979428e-10	-6.091109e+00	-2.805394e+01
2.560000e-06	-9.856692e-07	-6.893739e-10	-6.988287e+00	-4.656928e+01
2.570000e-06	-1.111836e-06	-9.782822e-10	-7.882795e+00	-6.490719e+01
2.580000e-06	-1.237559e-06	-1.250206e-09	-8.774157e+00	-8.284923e+01
2.590000e-06	-1.362818e-06	-1.510966e-09	-9.662232e+00	-1.001927e+02
2.600000e-06	-1.487612e-06	-1.768501e-09	-1.054700e+01	-1.167606e+02
2.610000e-06	-1.611864e-06	-2.012751e-09	-1.142794e+01	-1.324101e+02
2.620000e-06	-1.735510e-06	-2.234114e-09	-1.230458e+01	-1.470377e+02
2.630000e-06	-1.858461e-06	-2.436876e-09	-1.317629e+01	-1.605822e+02
2.640000e-06	-1.980685e-06	-2.628826e-09	-1.404284e+01	-1.730241e+02
2.650000e-06	-2.102283e-06	-2.805742e-09	-1.490496e+01	-1.843823e+02
2.660000e-06	-2.223266e-06	-2.963356e-09	-1.576271e+01	-1.947086e+02
2.670000e-06	-2.343490e-06	-3.105863e-09	-1.661509e+01	-2.040800e+02
2.680000e-06	-2.462749e-06	-3.235256e-09	-1.746062e+01	-2.125902e+02
2.690000e-06	-2.580958e-06	-3.355011e-09	-1.829871e+01	-2.203413e+02
2.700000e-06	-2.698122e-06	-3.468949e-09	-1.912939e+01	-2.274355e+02
2.710000e-06	-2.814192e-06	-3.572910e-09	-1.995232e+01	-2.339685e+02
2.720000e-06	-2.929102e-06	-3.661983e-09	-2.076701e+01	-2.400245e+02
2.730000e-06	-3.042813e-06	-3.743897e-09	-2.157321e+01	-2.456729e+02
2.740000e-06	-3.155307e-06	-3.825274e-09	-2.237078e+01	-2.509678e+02
2.750000e-06	-3.266518e-06	-3.902248e-09	-2.315926e+01	-2.559480e+02
2.760000e-06	-3.376495e-06	-3.971296e-09	-2.393898e+01	-2.606394e+02
2.770000e-06	-3.485382e-06	-4.035066e-09	-2.471098e+01	-2.650582e+02
2.780000e-06	-3.593164e-06	-4.098481e-09	-2.547514e+01	-2.692142e+02
2.790000e-06	-3.699735e-06	-4.160340e-09	-2.623072e+01	-2.731139e+02
2.800000e-06	-3.805043e-06	-4.219350e-09	-2.697734e+01	-2.767640e+02
2.810000e-06	-3.908978e-06	-4.276330e-09	-2.771422e+01	-2.801730e+02
2.820000e-06	-4.011373e-06	-4.330452e-09	-2.844019e+01	-2.833526e+02
2.830000e-06	-4.112263e-06	-4.379704e-09	-2.915549e+01	-2.863179e+02
2.840000e-06	-4.211742e-06	-4.424489e-09	-2.986079e+01	-2.890867e+02
2.850000e-06	-4.309814e-06	-4.466158e-09	-3.055611e+01	-2.916787e+02
2.860000e-06	-4.406472e-06	-4.503080e-09	-3.124141e+01	-2.941138e+02
2.870000e-06	-4.501517e-06	-4.536727e-09	-3.191526e+01	-2.964107e+02
2.880000e-06	-4.594900e-06	-4.571356e-09	-3.257734e+01	-2.985856e+02
2.890000e-06	-4.686709e-06	-4.605960e-09	-3.322825e+01	-3.006514e+02
2.900000e-06	-4.776873e-06	-4.637066e-09	-3.386750e+01	-3.026175e+02
2.910000e-06	-4.865415e-06	-4.665966e-09	-3.449526e+01	-3.044897e+02
2.920000e-06	-4.952201e-06	-4.694227e-09	-3.511056e+01	-3.062711e+02
2.930000e-06	-5.037114e-06	-4.720594e-09	-3.571258e+01	-3.079632e+02
2.940000e-06	-5.120247e-06	-4.744539e-09	-3.630199e+01	-3.095666e+02
