# Temperatura_=_20.0
# Concentracion g/m^3_=_9000.0
# C_Vs_to_Am_M_A/Vsm_=_65563218390.804596
# pendiente_HvsI_1/m_=_3716.3
# ordenada_HvsI_A/m_=_1297.0
# frecuencia_Hz_=_301068.87899297226

Tiempo_(s)	Campo_(V.s)	Magnetizacion_(V.s)	Campo_(kA/m)	Magnetizacion_(A/m)
0.000000e+00	-6.718715e-06	-5.119580e-09	-4.746866e+01	-3.356755e+02
1.000000e-08	-6.715436e-06	-5.120167e-09	-4.744549e+01	-3.355513e+02
2.000000e-08	-6.709919e-06	-5.117182e-09	-4.740651e+01	-3.353927e+02
3.000000e-08	-6.702394e-06	-5.112939e-09	-4.735335e+01	-3.352038e+02
4.000000e-08	-6.692619e-06	-5.108233e-09	-4.728428e+01	-3.349888e+02
5.000000e-08	-6.680320e-06	-5.104531e-09	-4.719738e+01	-3.347522e+02
6.000000e-08	-6.665548e-06	-5.098750e-09	-4.709302e+01	-3.344982e+02
7.000000e-08	-6.648515e-06	-5.099010e-09	-4.697268e+01	-3.342303e+02
8.000000e-08	-6.629380e-06	-5.121398e-09	-4.683749e+01	-3.339507e+02
9.000000e-08	-6.607872e-06	-5.128670e-09	-4.668553e+01	-3.336604e+02
1.000000e-07	-6.583620e-06	-5.112803e-09	-4.651419e+01	-3.333581e+02
1.100000e-07	-6.556700e-06	-5.098727e-09	-4.632400e+01	-3.330408e+02
1.200000e-07	-6.527451e-06	-5.077609e-09	-4.611735e+01	-3.327032e+02
1.300000e-07	-6.496276e-06	-5.023949e-09	-4.589709e+01	-3.323382e+02
1.400000e-07	-6.463347e-06	-5.008892e-09	-4.566445e+01	-3.319371e+02
1.500000e-07	-6.428476e-06	-5.064840e-09	-4.541808e+01	-3.314907e+02
1.600000e-07	-6.391507e-06	-5.083610e-09	-4.515688e+01	-3.309896e+02
1.700000e-07	-6.352469e-06	-5.053473e-09	-4.488107e+01	-3.304257e+02
1.800000e-07	-6.311105e-06	-4.979747e-09	-4.458883e+01	-3.297924e+02
1.900000e-07	-6.267264e-06	-4.975982e-09	-4.427909e+01	-3.290861e+02
2.000000e-07	-6.221226e-06	-5.024327e-09	-4.395383e+01	-3.283060e+02
2.100000e-07	-6.172759e-06	-4.991741e-09	-4.361140e+01	-3.274546e+02
2.200000e-07	-6.121603e-06	-4.951575e-09	-4.324997e+01	-3.265376e+02
2.300000e-07	-6.067955e-06	-4.908548e-09	-4.287095e+01	-3.255630e+02
2.400000e-07	-6.012077e-06	-4.900834e-09	-4.247616e+01	-3.245402e+02
2.500000e-07	-5.953984e-06	-4.953586e-09	-4.206572e+01	-3.234790e+02
2.600000e-07	-5.893680e-06	-4.944195e-09	-4.163967e+01	-3.223882e+02
2.700000e-07	-5.831314e-06	-4.879085e-09	-4.119904e+01	-3.212746e+02
2.800000e-07	-5.766937e-06	-4.835816e-09	-4.074421e+01	-3.201419e+02
2.900000e-07	-5.700467e-06	-4.861582e-09	-4.027459e+01	-3.189905e+02
3.000000e-07	-5.631825e-06	-4.890180e-09	-3.978962e+01	-3.178167e+02
3.100000e-07	-5.561202e-06	-4.833892e-09	-3.929067e+01	-3.166141e+02
3.200000e-07	-5.488655e-06	-4.761725e-09	-3.877811e+01	-3.153733e+02
3.300000e-07	-5.413899e-06	-4.740241e-09	-3.824994e+01	-3.140840e+02
3.400000e-07	-5.336905e-06	-4.765112e-09	-3.770597e+01	-3.127358e+02
3.500000e-07	-5.257757e-06	-4.749429e-09	-3.714678e+01	-3.113193e+02
3.600000e-07	-5.176555e-06	-4.697788e-09	-3.657308e+01	-3.098279e+02
3.700000e-07	-5.093571e-06	-4.658748e-09	-3.598678e+01	-3.082576e+02
3.800000e-07	-5.008934e-06	-4.632612e-09	-3.538881e+01	-3.066082e+02
3.900000e-07	-4.922721e-06	-4.645116e-09	-3.477971e+01	-3.048821e+02
4.000000e-07	-4.834896e-06	-4.632082e-09	-3.415921e+01	-3.030843e+02
4.100000e-07	-4.745283e-06	-4.563798e-09	-3.352608e+01	-3.012211e+02
4.200000e-07	-4.653882e-06	-4.520808e-09	-3.288033e+01	-2.992982e+02
4.300000e-07	-4.560792e-06	-4.536784e-09	-3.222263e+01	-2.973205e+02
4.400000e-07	-4.466144e-06	-4.524476e-09	-3.155393e+01	-2.952898e+02
4.500000e-07	-4.369892e-06	-4.459892e-09	-3.087389e+01	-2.932050e+02
4.600000e-07	-4.271943e-06	-4.424808e-09	-3.018187e+01	-2.910613e+02
4.700000e-07	-4.172406e-06	-4.402622e-09	-2.947863e+01	-2.888504e+02
4.800000e-07	-4.071392e-06	-4.359852e-09	-2.876495e+01	-2.865619e+02
4.900000e-07	-3.969029e-06	-4.320574e-09	-2.804174e+01	-2.841839e+02
5.000000e-07	-3.865248e-06	-4.281665e-09	-2.730851e+01	-2.817044e+02
5.100000e-07	-3.759926e-06	-4.224170e-09	-2.656440e+01	-2.791129e+02
5.200000e-07	-3.653185e-06	-4.183514e-09	-2.581026e+01	-2.764012e+02
5.300000e-07	-3.545140e-06	-4.164835e-09	-2.504691e+01	-2.735642e+02
5.400000e-07	-3.435883e-06	-4.117093e-09	-2.427499e+01	-2.706001e+02
5.500000e-07	-3.325589e-06	-4.056862e-09	-2.349575e+01	-2.675096e+02
5.600000e-07	-3.214149e-06	-4.022059e-09	-2.270841e+01	-2.642951e+02
5.700000e-07	-3.101333e-06	-3.986680e-09	-2.191135e+01	-2.609593e+02
5.800000e-07	-2.987177e-06	-3.924462e-09	-2.110482e+01	-2.575036e+02
5.900000e-07	-2.871821e-06	-3.864216e-09	-2.028982e+01	-2.539265e+02
6.000000e-07	-2.755333e-06	-3.815482e-09	-1.946681e+01	-2.502225e+02
6.100000e-07	-2.637793e-06	-3.756733e-09	-1.863637e+01	-2.463810e+02
6.200000e-07	-2.519400e-06	-3.687299e-09	-1.779991e+01	-2.423871e+02
6.300000e-07	-2.400188e-06	-3.618298e-09	-1.695766e+01	-2.382209e+02
6.400000e-07	-2.280062e-06	-3.551436e-09	-1.610896e+01	-2.338598e+02
6.500000e-07	-2.159045e-06	-3.481059e-09	-1.525395e+01	-2.292789e+02
6.600000e-07	-2.037208e-06	-3.405263e-09	-1.439316e+01	-2.244529e+02
6.700000e-07	-1.914590e-06	-3.323498e-09	-1.352685e+01	-2.193573e+02
6.800000e-07	-1.791272e-06	-3.241678e-09	-1.265559e+01	-2.139692e+02
6.900000e-07	-1.667340e-06	-3.162213e-09	-1.177999e+01	-2.082668e+02
7.000000e-07	-1.542812e-06	-3.075475e-09	-1.090018e+01	-2.022291e+02
7.100000e-07	-1.417732e-06	-2.978505e-09	-1.001648e+01	-1.958341e+02
7.200000e-07	-1.292171e-06	-2.874673e-09	-9.129365e+00	-1.890563e+02
7.300000e-07	-1.166218e-06	-2.766771e-09	-8.239495e+00	-1.818647e+02
7.400000e-07	-1.039934e-06	-2.652733e-09	-7.347277e+00	-1.742203e+02
7.500000e-07	-9.133271e-07	-2.525961e-09	-6.452783e+00	-1.660744e+02
7.600000e-07	-7.864002e-07	-2.382545e-09	-5.556027e+00	-1.573685e+02
7.700000e-07	-6.591339e-07	-2.232644e-09	-4.656873e+00	-1.480349e+02
7.800000e-07	-5.316216e-07	-2.082269e-09	-3.755980e+00	-1.379999e+02
7.900000e-07	-4.039651e-07	-1.919438e-09	-2.854069e+00	-1.271881e+02
8.000000e-07	-2.762242e-07	-1.737753e-09	-1.951562e+00	-1.155283e+02
8.100000e-07	-1.483824e-07	-1.544206e-09	-1.048342e+00	-1.029610e+02
8.200000e-07	-2.036479e-08	-1.342226e-09	-1.438801e-01	-8.944589e+01
8.300000e-07	1.076911e-07	-1.123090e-09	7.608526e-01	-7.496927e+01
8.400000e-07	2.356349e-07	-8.853320e-10	1.664793e+00	-5.955026e+01
8.500000e-07	3.634648e-07	-6.356478e-10	2.567929e+00	-4.324536e+01
8.600000e-07	4.911458e-07	-3.766769e-10	3.470013e+00	-2.615050e+01
8.700000e-07	6.186431e-07	-1.096354e-10	4.370799e+00	-8.400142e+00
8.800000e-07	7.459365e-07	1.651486e-10	5.270145e+00	9.836516e+00
8.900000e-07	8.730053e-07	4.490946e-10	6.167904e+00	2.836227e+01
9.000000e-07	9.998068e-07	7.365877e-10	7.063774e+00	4.696098e+01
9.100000e-07	1.126251e-06	1.016468e-09	7.957118e+00	6.540843e+01
9.200000e-07	1.252326e-06	1.287692e-09	8.847857e+00	8.348387e+01
9.300000e-07	1.378029e-06	1.555161e-09	9.735967e+00	1.009815e+02
9.400000e-07	1.503283e-06	1.812838e-09	1.062090e+01	1.177210e+02
9.500000e-07	1.628057e-06	2.052414e-09	1.150245e+01	1.335553e+02
9.600000e-07	1.752319e-06	2.272138e-09	1.238038e+01	1.483772e+02
9.700000e-07	1.875984e-06	2.476109e-09	1.325409e+01	1.621214e+02
9.800000e-07	1.998967e-06	2.666794e-09	1.412298e+01	1.747642e+02
9.900000e-07	2.121177e-06	2.840476e-09	1.498641e+01	1.863207e+02
1.000000e-06	2.242585e-06	2.996385e-09	1.584417e+01	1.968386e+02
1.010000e-06	2.363186e-06	3.139540e-09	1.669624e+01	2.063910e+02
1.020000e-06	2.482891e-06	3.274779e-09	1.754197e+01	2.150684e+02
1.030000e-06	2.601639e-06	3.398765e-09	1.838094e+01	2.229695e+02
1.040000e-06	2.719471e-06	3.509532e-09	1.921344e+01	2.301943e+02
1.050000e-06	2.836404e-06	3.608859e-09	2.003958e+01	2.368369e+02
1.060000e-06	2.952272e-06	3.701173e-09	2.085821e+01	2.429809e+02
1.070000e-06	3.066894e-06	3.790730e-09	2.166803e+01	2.486970e+02
1.080000e-06	3.180265e-06	3.873718e-09	2.246902e+01	2.540409e+02
1.090000e-06	3.292378e-06	3.947715e-09	2.326111e+01	2.590551e+02
1.100000e-06	3.403292e-06	4.016478e-09	2.404473e+01	2.637701e+02
1.110000e-06	3.513097e-06	4.083586e-09	2.482051e+01	2.682073e+02
1.120000e-06	3.621777e-06	4.146608e-09	2.558836e+01	2.723818e+02
1.130000e-06	3.729204e-06	4.204751e-09	2.634734e+01	2.763059e+02
1.140000e-06	3.835283e-06	4.258853e-09	2.709680e+01	2.799907e+02
1.150000e-06	3.939919e-06	4.309711e-09	2.783608e+01	2.834482e+02
1.160000e-06	4.043018e-06	4.356561e-09	2.856448e+01	2.866921e+02
1.170000e-06	4.144696e-06	4.400193e-09	2.928285e+01	2.897377e+02
1.180000e-06	4.245072e-06	4.441862e-09	2.999202e+01	2.926012e+02
1.190000e-06	4.343942e-06	4.481450e-09	3.069055e+01	2.952993e+02
1.200000e-06	4.441051e-06	4.517614e-09	3.137664e+01	2.978474e+02
1.210000e-06	4.536451e-06	4.552620e-09	3.205066e+01	3.002592e+02
1.220000e-06	4.630293e-06	4.588518e-09	3.271367e+01	3.025455e+02
1.230000e-06	4.722679e-06	4.621252e-09	3.336638e+01	3.047145e+02
1.240000e-06	4.813482e-06	4.649285e-09	3.400792e+01	3.067716e+02
1.250000e-06	4.902461e-06	4.675834e-09	3.463657e+01	3.087200e+02
1.260000e-06	4.989618e-06	4.703716e-09	3.525235e+01	3.105620e+02
1.270000e-06	5.075066e-06	4.729681e-09	3.585605e+01	3.122995e+02
1.280000e-06	5.158842e-06	4.751526e-09	3.644794e+01	3.139349e+02
1.290000e-06	5.240904e-06	4.772116e-09	3.702771e+01	3.154723e+02
1.300000e-06	5.321003e-06	4.794887e-09	3.759363e+01	3.169176e+02
1.310000e-06	5.399093e-06	4.816518e-09	3.814534e+01	3.182780e+02
1.320000e-06	5.475289e-06	4.835594e-09	3.868368e+01	3.195626e+02
1.330000e-06	5.549396e-06	4.854474e-09	3.920725e+01	3.207810e+02
1.340000e-06	5.621364e-06	4.873486e-09	3.971572e+01	3.219424e+02
1.350000e-06	5.691388e-06	4.890876e-09	4.021045e+01	3.230555e+02
1.360000e-06	5.759499e-06	4.907491e-09	4.069166e+01	3.241267e+02
1.370000e-06	5.825503e-06	4.923239e-09	4.115799e+01	3.251605e+02
1.380000e-06	5.889326e-06	4.937423e-09	4.160890e+01	3.261586e+02
1.390000e-06	5.951114e-06	4.952064e-09	4.204544e+01	3.271203e+02
1.400000e-06	6.011006e-06	4.967680e-09	4.246859e+01	3.280431e+02
1.410000e-06	6.068831e-06	4.982909e-09	4.287713e+01	3.289229e+02
1.420000e-06	6.124389e-06	4.996664e-09	4.326966e+01	3.297553e+02
1.430000e-06	6.177690e-06	5.010043e-09	4.364624e+01	3.305363e+02
1.440000e-06	6.228543e-06	5.023398e-09	4.400552e+01	3.312627e+02
1.450000e-06	6.276821e-06	5.035972e-09	4.434661e+01	3.319331e+02
1.460000e-06	6.322727e-06	5.047794e-09	4.467094e+01	3.325481e+02
1.470000e-06	6.366530e-06	5.056702e-09	4.498042e+01	3.331098e+02
1.480000e-06	6.408106e-06	5.064705e-09	4.527416e+01	3.336224e+02
1.490000e-06	6.447264e-06	5.073048e-09	4.555081e+01	3.340908e+02
1.500000e-06	6.484240e-06	5.080554e-09	4.581206e+01	3.345205e+02
1.510000e-06	6.519106e-06	5.088737e-09	4.605839e+01	3.349172e+02
1.520000e-06	6.551595e-06	5.096601e-09	4.628793e+01	3.352854e+02
1.530000e-06	6.581719e-06	5.104882e-09	4.650076e+01	3.356289e+02
1.540000e-06	6.609676e-06	5.113037e-09	4.669828e+01	3.359498e+02
1.550000e-06	6.635250e-06	5.119838e-09	4.687896e+01	3.362488e+02
1.560000e-06	6.658333e-06	5.124757e-09	4.704205e+01	3.365248e+02
1.570000e-06	6.679150e-06	5.128973e-09	4.718912e+01	3.367761e+02
1.580000e-06	6.697715e-06	5.133775e-09	4.732029e+01	3.369996e+02
1.590000e-06	6.713839e-06	5.137333e-09	4.743420e+01	3.371921e+02
1.600000e-06	6.727509e-06	5.141924e-09	4.753079e+01	3.373503e+02
1.610000e-06	6.738665e-06	5.146054e-09	4.760960e+01	3.374710e+02
1.620000e-06	6.747220e-06	5.147659e-09	4.767005e+01	3.375518e+02
1.630000e-06	6.753328e-06	5.150455e-09	4.771320e+01	3.375913e+02
1.640000e-06	6.757157e-06	5.153855e-09	4.774025e+01	3.375887e+02
1.650000e-06	6.758643e-06	5.155479e-09	4.775075e+01	3.375445e+02
1.660000e-06	6.757765e-06	5.153204e-09	4.774455e+01	3.374601e+02
1.670000e-06	6.754713e-06	5.150720e-09	4.772299e+01	3.373379e+02
1.680000e-06	6.749444e-06	5.147291e-09	4.768576e+01	3.371812e+02
1.690000e-06	6.741847e-06	5.144897e-09	4.763208e+01	3.369937e+02
1.700000e-06	6.732048e-06	5.143838e-09	4.756285e+01	3.367799e+02
1.710000e-06	6.720100e-06	5.144246e-09	4.747844e+01	3.365442e+02
1.720000e-06	6.705792e-06	5.145106e-09	4.737735e+01	3.362908e+02
1.730000e-06	6.689293e-06	5.125667e-09	4.726079e+01	3.360232e+02
1.740000e-06	6.670692e-06	5.088204e-09	4.712936e+01	3.357439e+02
1.750000e-06	6.649335e-06	5.081238e-09	4.697847e+01	3.354538e+02
1.760000e-06	6.624759e-06	5.085907e-09	4.680484e+01	3.351520e+02
1.770000e-06	6.597512e-06	5.084619e-09	4.661234e+01	3.348354e+02
1.780000e-06	6.568170e-06	5.116027e-09	4.640504e+01	3.344989e+02
1.790000e-06	6.536961e-06	5.140776e-09	4.618454e+01	3.341355e+02
1.800000e-06	6.504185e-06	5.119682e-09	4.595297e+01	3.337368e+02
1.810000e-06	6.469427e-06	5.082400e-09	4.570740e+01	3.332934e+02
1.820000e-06	6.432236e-06	5.038994e-09	4.544464e+01	3.327960e+02
1.830000e-06	6.392824e-06	5.091764e-09	4.516619e+01	3.322362e+02
1.840000e-06	6.351227e-06	5.127761e-09	4.487230e+01	3.316076e+02
1.850000e-06	6.307508e-06	5.058712e-09	4.456342e+01	3.309060e+02
1.860000e-06	6.261583e-06	5.025095e-09	4.423895e+01	3.301305e+02
1.870000e-06	6.213276e-06	4.980295e-09	4.389766e+01	3.292836e+02
1.880000e-06	6.162767e-06	5.049121e-09	4.354080e+01	3.283705e+02
1.890000e-06	6.109722e-06	5.120467e-09	4.316603e+01	3.273992e+02
1.900000e-06	6.054116e-06	4.969033e-09	4.277317e+01	3.263790e+02
1.910000e-06	5.996357e-06	4.869508e-09	4.236509e+01	3.253196e+02
1.920000e-06	5.936517e-06	4.930195e-09	4.194232e+01	3.242302e+02
1.930000e-06	5.874565e-06	5.023532e-09	4.150462e+01	3.231175e+02
1.940000e-06	5.810365e-06	4.965325e-09	4.105104e+01	3.219856e+02
1.950000e-06	5.744057e-06	4.815827e-09	4.058256e+01	3.208350e+02
1.960000e-06	5.675687e-06	4.833491e-09	4.009952e+01	3.196626e+02
1.970000e-06	5.605066e-06	4.895042e-09	3.960057e+01	3.184617e+02
1.980000e-06	5.532400e-06	4.920459e-09	3.908718e+01	3.172235e+02
1.990000e-06	5.457798e-06	4.843493e-09	3.856010e+01	3.159375e+02
2.000000e-06	5.381032e-06	4.740893e-09	3.801774e+01	3.145932e+02
2.010000e-06	5.302011e-06	4.761425e-09	3.745944e+01	3.131814e+02
2.020000e-06	5.221076e-06	4.815837e-09	3.688763e+01	3.116949e+02
2.030000e-06	5.138482e-06	4.808126e-09	3.630409e+01	3.101298e+02
2.040000e-06	5.054031e-06	4.676366e-09	3.570743e+01	3.084854e+02
2.050000e-06	4.967663e-06	4.633490e-09	3.509723e+01	3.067641e+02
2.060000e-06	4.879429e-06	4.694888e-09	3.447384e+01	3.049708e+02
2.070000e-06	4.789489e-06	4.690260e-09	3.383841e+01	3.031114e+02
2.080000e-06	4.698055e-06	4.603294e-09	3.319241e+01	3.011922e+02
2.090000e-06	4.605006e-06	4.521596e-09	3.253501e+01	2.992177e+02
2.100000e-06	4.510176e-06	4.528479e-09	3.186502e+01	2.971903e+02
2.110000e-06	4.413699e-06	4.532520e-09	3.118340e+01	2.951089e+02
2.120000e-06	4.315759e-06	4.497197e-09	3.049144e+01	2.929691e+02
2.130000e-06	4.216460e-06	4.419417e-09	2.978987e+01	2.907628e+02
2.140000e-06	4.115651e-06	4.371552e-09	2.907764e+01	2.884797e+02
2.150000e-06	4.013174e-06	4.381432e-09	2.835363e+01	2.861080e+02
2.160000e-06	3.909182e-06	4.374114e-09	2.761891e+01	2.836355e+02
2.170000e-06	3.803804e-06	4.307166e-09	2.687440e+01	2.810518e+02
2.180000e-06	3.697208e-06	4.233243e-09	2.612129e+01	2.783484e+02
2.190000e-06	3.589442e-06	4.218164e-09	2.535991e+01	2.755199e+02
2.200000e-06	3.480416e-06	4.194466e-09	2.458962e+01	2.725643e+02
2.210000e-06	3.370063e-06	4.125540e-09	2.380996e+01	2.694822e+02
2.220000e-06	3.258391e-06	4.049461e-09	2.302098e+01	2.662760e+02
2.230000e-06	3.145531e-06	4.008091e-09	2.222362e+01	2.629483e+02
2.240000e-06	3.031527e-06	3.971884e-09	2.141816e+01	2.595006e+02
2.250000e-06	2.916482e-06	3.912449e-09	2.060535e+01	2.559318e+02
2.260000e-06	2.800249e-06	3.845564e-09	1.978415e+01	2.522365e+02
2.270000e-06	2.682776e-06	3.791971e-09	1.895418e+01	2.484048e+02
2.280000e-06	2.564235e-06	3.745284e-09	1.811667e+01	2.444218e+02
2.290000e-06	2.444716e-06	3.681541e-09	1.727226e+01	2.402682e+02
2.300000e-06	2.324283e-06	3.605655e-09	1.642138e+01	2.359213e+02
2.310000e-06	2.202991e-06	3.534553e-09	1.556444e+01	2.313563e+02
2.320000e-06	2.080998e-06	3.472725e-09	1.470254e+01	2.265481e+02
2.330000e-06	1.958401e-06	3.399789e-09	1.383637e+01	2.214721e+02
2.340000e-06	1.835223e-06	3.308992e-09	1.296610e+01	2.161050e+02
2.350000e-06	1.711413e-06	3.212735e-09	1.209137e+01	2.104252e+02
2.360000e-06	1.586992e-06	3.127831e-09	1.121232e+01	2.044117e+02
2.370000e-06	1.461911e-06	3.045371e-09	1.032860e+01	1.980424e+02
2.380000e-06	1.336204e-06	2.939646e-09	9.440467e+00	1.912924e+02
2.390000e-06	1.210064e-06	2.814849e-09	8.549271e+00	1.841310e+02
2.400000e-06	1.083514e-06	2.697174e-09	7.655180e+00	1.765199e+02
2.410000e-06	9.565605e-07	2.589264e-09	6.758233e+00	1.684112e+02
2.420000e-06	8.292884e-07	2.461347e-09	5.859037e+00	1.597469e+02
2.430000e-06	7.017317e-07	2.306139e-09	4.957832e+00	1.504600e+02
2.440000e-06	5.739387e-07	2.149651e-09	4.054957e+00	1.404771e+02
2.450000e-06	4.459169e-07	1.998808e-09	3.150464e+00	1.297226e+02
2.460000e-06	3.176724e-07	1.832311e-09	2.244400e+00	1.181250e+02
2.470000e-06	1.893254e-07	1.634530e-09	1.337611e+00	1.056236e+02
2.480000e-06	6.094320e-08	1.417452e-09	4.305721e-01	9.217649e+01
2.490000e-06	-6.746633e-08	1.198713e-09	-4.766589e-01	7.776781e+01
2.500000e-06	-1.958562e-07	9.766199e-10	-1.383751e+00	6.241416e+01
2.510000e-06	-3.241693e-07	7.344231e-10	-2.290301e+00	4.616929e+01
2.520000e-06	-4.523433e-07	4.671338e-10	-3.195868e+00	2.912631e+01
2.530000e-06	-5.802950e-07	1.917413e-10	-4.099865e+00	1.141701e+01
2.540000e-06	-7.080016e-07	-7.946887e-11	-5.002130e+00	-6.791706e+00
2.550000e-06	-8.354642e-07	-3.557299e-10	-5.902670e+00	-2.530434e+01
2.560000e-06	-9.626153e-07	-6.468829e-10	-6.801011e+00	-4.390579e+01
2.570000e-06	-1.089413e-06	-9.397341e-10	-7.696851e+00	-6.237200e+01
2.580000e-06	-1.215813e-06	-1.218291e-09	-8.589890e+00	-8.048162e+01
2.590000e-06	-1.341740e-06	-1.481220e-09	-9.479576e+00	-9.802743e+01
2.600000e-06	-1.467126e-06	-1.739014e-09	-1.036545e+01	-1.148269e+02
2.610000e-06	-1.591901e-06	-1.989946e-09	-1.124700e+01	-1.307305e+02
2.620000e-06	-1.716009e-06	-2.219819e-09	-1.212384e+01	-1.456279e+02
2.630000e-06	-1.839485e-06	-2.424945e-09	-1.299622e+01	-1.594508e+02
2.640000e-06	-1.962350e-06	-2.614957e-09	-1.386428e+01	-1.721728e+02
2.650000e-06	-2.084511e-06	-2.796286e-09	-1.472736e+01	-1.838061e+02
2.660000e-06	-2.205958e-06	-2.962342e-09	-1.558540e+01	-1.943966e+02
2.670000e-06	-2.326648e-06	-3.110127e-09	-1.643809e+01	-2.040157e+02
2.680000e-06	-2.446457e-06	-3.242932e-09	-1.728456e+01	-2.127528e+02
2.690000e-06	-2.565333e-06	-3.366184e-09	-1.812444e+01	-2.207066e+02
2.700000e-06	-2.683221e-06	-3.482183e-09	-1.895733e+01	-2.279770e+02
2.710000e-06	-2.799964e-06	-3.587973e-09	-1.978214e+01	-2.346588e+02
2.720000e-06	-2.915540e-06	-3.679538e-09	-2.059869e+01	-2.408365e+02
2.730000e-06	-3.029981e-06	-3.762509e-09	-2.140724e+01	-2.465816e+02
2.740000e-06	-3.143185e-06	-3.844789e-09	-2.220704e+01	-2.519511e+02
2.750000e-06	-3.255098e-06	-3.924510e-09	-2.299772e+01	-2.569883e+02
2.760000e-06	-3.365725e-06	-3.996467e-09	-2.377932e+01	-2.617244e+02
2.770000e-06	-3.475139e-06	-4.060105e-09	-2.455234e+01	-2.661813e+02
2.780000e-06	-3.583436e-06	-4.123046e-09	-2.531747e+01	-2.703748e+02
2.790000e-06	-3.690609e-06	-4.188200e-09	-2.607467e+01	-2.743169e+02
2.800000e-06	-3.796609e-06	-4.248295e-09	-2.682357e+01	-2.780189e+02
2.810000e-06	-3.901217e-06	-4.301248e-09	-2.756264e+01	-2.814928e+02
2.820000e-06	-4.004249e-06	-4.352851e-09	-2.829057e+01	-2.847520e+02
2.830000e-06	-4.105762e-06	-4.404048e-09	-2.900778e+01	-2.878117e+02
2.840000e-06	-4.205841e-06	-4.451477e-09	-2.971485e+01	-2.906883e+02
2.850000e-06	-4.304507e-06	-4.494561e-09	-3.041194e+01	-2.933982e+02
2.860000e-06	-4.401738e-06	-4.533934e-09	-3.109889e+01	-2.959570e+02
2.870000e-06	-4.497463e-06	-4.570854e-09	-3.177520e+01	-2.983787e+02
2.880000e-06	-4.591550e-06	-4.607684e-09	-3.243994e+01	-3.006742e+02
2.890000e-06	-4.684017e-06	-4.643964e-09	-3.309323e+01	-3.028519e+02
2.900000e-06	-4.774903e-06	-4.677685e-09	-3.373535e+01	-3.049174e+02
2.910000e-06	-4.864139e-06	-4.707815e-09	-3.436582e+01	-3.068740e+02
2.920000e-06	-4.951567e-06	-4.737119e-09	-3.498351e+01	-3.087241e+02
2.930000e-06	-5.037089e-06	-4.766309e-09	-3.558773e+01	-3.104695e+02
2.940000e-06	-5.120827e-06	-4.792754e-09	-3.617935e+01	-3.121126e+02
