# Temperatura_=_20.0
# Concentracion g/m^3_=_9000.0
# C_Vs_to_Am_M_A/Vsm_=_65563218390.804596
# pendiente_HvsI_1/m_=_3716.3
# ordenada_HvsI_A/m_=_1297.0
# frecuencia_Hz_=_301073.7789684232

Tiempo_(s)	Campo_(V.s)	Magnetizacion_(V.s)	Campo_(kA/m)	Magnetizacion_(A/m)
0.000000e+00	-6.747645e-06	-5.078367e-09	-4.746991e+01	-3.331122e+02
1.000000e-08	-6.744330e-06	-5.080482e-09	-4.744659e+01	-3.330107e+02
2.000000e-08	-6.738869e-06	-5.077427e-09	-4.740817e+01	-3.328640e+02
3.000000e-08	-6.731329e-06	-5.074037e-09	-4.735513e+01	-3.326779e+02
4.000000e-08	-6.721474e-06	-5.070717e-09	-4.728580e+01	-3.324598e+02
5.000000e-08	-6.709099e-06	-5.068789e-09	-4.719874e+01	-3.322185e+02
6.000000e-08	-6.694238e-06	-5.063334e-09	-4.709420e+01	-3.319632e+02
7.000000e-08	-6.677011e-06	-5.059709e-09	-4.697300e+01	-3.317027e+02
8.000000e-08	-6.657675e-06	-5.097584e-09	-4.683697e+01	-3.314442e+02
9.000000e-08	-6.636023e-06	-5.117729e-09	-4.668465e+01	-3.311923e+02
1.000000e-07	-6.611664e-06	-5.085644e-09	-4.651328e+01	-3.309484e+02
1.100000e-07	-6.584671e-06	-5.058743e-09	-4.632338e+01	-3.307098e+02
1.200000e-07	-6.555392e-06	-5.038580e-09	-4.611741e+01	-3.304700e+02
1.300000e-07	-6.524202e-06	-4.971068e-09	-4.589798e+01	-3.302184e+02
1.400000e-07	-6.491131e-06	-4.957681e-09	-4.566533e+01	-3.299416e+02
1.500000e-07	-6.456059e-06	-5.079653e-09	-4.541860e+01	-3.296244e+02
1.600000e-07	-6.418918e-06	-5.046411e-09	-4.515731e+01	-3.292508e+02
1.700000e-07	-6.379751e-06	-5.002837e-09	-4.488177e+01	-3.288060e+02
1.800000e-07	-6.338287e-06	-4.987872e-09	-4.459007e+01	-3.282780e+02
1.900000e-07	-6.294233e-06	-4.934201e-09	-4.428015e+01	-3.276581e+02
2.000000e-07	-6.247823e-06	-4.993394e-09	-4.395365e+01	-3.269426e+02
2.100000e-07	-6.199007e-06	-4.970860e-09	-4.361023e+01	-3.261326e+02
2.200000e-07	-6.147608e-06	-4.917825e-09	-4.324863e+01	-3.252343e+02
2.300000e-07	-6.093799e-06	-4.884773e-09	-4.287008e+01	-3.242574e+02
2.400000e-07	-6.037706e-06	-4.874008e-09	-4.247547e+01	-3.232148e+02
2.500000e-07	-5.979353e-06	-4.942399e-09	-4.206495e+01	-3.221201e+02
2.600000e-07	-5.918817e-06	-4.923634e-09	-4.163908e+01	-3.209867e+02
2.700000e-07	-5.856172e-06	-4.847706e-09	-4.119837e+01	-3.198256e+02
2.800000e-07	-5.791403e-06	-4.814513e-09	-4.074272e+01	-3.186444e+02
2.900000e-07	-5.724498e-06	-4.843934e-09	-4.027204e+01	-3.174466e+02
3.000000e-07	-5.655525e-06	-4.873458e-09	-3.978681e+01	-3.162309e+02
3.100000e-07	-5.584558e-06	-4.795475e-09	-3.928756e+01	-3.149920e+02
3.200000e-07	-5.511625e-06	-4.741808e-09	-3.877447e+01	-3.137215e+02
3.300000e-07	-5.436497e-06	-4.721729e-09	-3.824594e+01	-3.124088e+02
3.400000e-07	-5.359099e-06	-4.730284e-09	-3.770144e+01	-3.110431e+02
3.500000e-07	-5.279546e-06	-4.730537e-09	-3.714179e+01	-3.096146e+02
3.600000e-07	-5.198028e-06	-4.678281e-09	-3.656830e+01	-3.081162e+02
3.700000e-07	-5.114757e-06	-4.628788e-09	-3.598249e+01	-3.065438e+02
3.800000e-07	-5.029772e-06	-4.597592e-09	-3.538462e+01	-3.048972e+02
3.900000e-07	-4.943173e-06	-4.625674e-09	-3.477539e+01	-3.031794e+02
4.000000e-07	-4.854950e-06	-4.608461e-09	-3.415474e+01	-3.013960e+02
4.100000e-07	-4.764893e-06	-4.531606e-09	-3.352119e+01	-2.995540e+02
4.200000e-07	-4.673051e-06	-4.496873e-09	-3.287508e+01	-2.976603e+02
4.300000e-07	-4.579550e-06	-4.519703e-09	-3.221729e+01	-2.957200e+02
4.400000e-07	-4.484476e-06	-4.506197e-09	-3.154844e+01	-2.937355e+02
4.500000e-07	-4.387741e-06	-4.439921e-09	-3.086791e+01	-2.917056e+02
4.600000e-07	-4.289324e-06	-4.411329e-09	-3.017554e+01	-2.896251e+02
4.700000e-07	-4.189402e-06	-4.389154e-09	-2.947259e+01	-2.874850e+02
4.800000e-07	-4.087980e-06	-4.344793e-09	-2.875908e+01	-2.852739e+02
4.900000e-07	-3.985165e-06	-4.305475e-09	-2.803577e+01	-2.829785e+02
5.000000e-07	-3.880908e-06	-4.270269e-09	-2.730232e+01	-2.805856e+02
5.100000e-07	-3.775092e-06	-4.211091e-09	-2.655790e+01	-2.780834e+02
5.200000e-07	-3.667875e-06	-4.169036e-09	-2.580363e+01	-2.754627e+02
5.300000e-07	-3.559359e-06	-4.156010e-09	-2.504021e+01	-2.727175e+02
5.400000e-07	-3.449624e-06	-4.111503e-09	-2.426822e+01	-2.698452e+02
5.500000e-07	-3.338804e-06	-4.048900e-09	-2.348860e+01	-2.668461e+02
5.600000e-07	-3.226814e-06	-4.015018e-09	-2.270075e+01	-2.637223e+02
5.700000e-07	-3.113405e-06	-3.986715e-09	-2.190291e+01	-2.604762e+02
5.800000e-07	-2.998582e-06	-3.925573e-09	-2.109513e+01	-2.571090e+02
5.900000e-07	-2.882565e-06	-3.864129e-09	-2.027895e+01	-2.536191e+02
6.000000e-07	-2.765472e-06	-3.817596e-09	-1.945519e+01	-2.500007e+02
6.100000e-07	-2.647420e-06	-3.763748e-09	-1.862469e+01	-2.462432e+02
6.200000e-07	-2.528543e-06	-3.694025e-09	-1.778839e+01	-2.423312e+02
6.300000e-07	-2.408878e-06	-3.624107e-09	-1.694654e+01	-2.382447e+02
6.400000e-07	-2.288255e-06	-3.560522e-09	-1.609795e+01	-2.339607e+02
6.500000e-07	-2.166542e-06	-3.493521e-09	-1.524170e+01	-2.294543e+02
6.600000e-07	-2.043907e-06	-3.418728e-09	-1.437896e+01	-2.246999e+02
6.700000e-07	-1.920632e-06	-3.338407e-09	-1.351171e+01	-2.196731e+02
6.800000e-07	-1.796799e-06	-3.260023e-09	-1.264054e+01	-2.143506e+02
6.900000e-07	-1.672320e-06	-3.179627e-09	-1.176483e+01	-2.087105e+02
7.000000e-07	-1.547228e-06	-3.093011e-09	-1.088480e+01	-2.027313e+02
7.100000e-07	-1.421656e-06	-2.998768e-09	-1.000140e+01	-1.963901e+02
7.200000e-07	-1.295677e-06	-2.896487e-09	-9.115130e+00	-1.896605e+02
7.300000e-07	-1.169285e-06	-2.787423e-09	-8.225957e+00	-1.825101e+02
7.400000e-07	-1.042490e-06	-2.675342e-09	-7.333953e+00	-1.748982e+02
7.500000e-07	-9.153506e-07	-2.551714e-09	-6.439523e+00	-1.667743e+02
7.600000e-07	-7.879049e-07	-2.407977e-09	-5.542938e+00	-1.580778e+02
7.700000e-07	-6.602270e-07	-2.256961e-09	-4.644719e+00	-1.487394e+02
7.800000e-07	-5.323329e-07	-2.104198e-09	-3.744980e+00	-1.386838e+02
7.900000e-07	-4.041939e-07	-1.938858e-09	-2.843518e+00	-1.278347e+02
8.000000e-07	-2.759241e-07	-1.753867e-09	-1.941136e+00	-1.161209e+02
8.100000e-07	-1.476064e-07	-1.559656e-09	-1.038416e+00	-1.034834e+02
8.200000e-07	-1.921889e-08	-1.357680e-09	-1.352056e-01	-8.988364e+01
8.300000e-07	1.092363e-07	-1.138053e-09	7.684813e-01	-7.531045e+01
8.400000e-07	2.376145e-07	-8.997595e-10	1.671626e+00	-5.978640e+01
8.500000e-07	3.658189e-07	-6.503044e-10	2.573548e+00	-4.337212e+01
8.600000e-07	4.939130e-07	-3.918257e-10	3.474695e+00	-2.616810e+01
8.700000e-07	6.218217e-07	-1.223582e-10	4.374537e+00	-8.313580e+00
8.800000e-07	7.494932e-07	1.568448e-10	5.272710e+00	1.001758e+01
8.900000e-07	8.769331e-07	4.437745e-10	6.169254e+00	2.862388e+01
9.000000e-07	1.004124e-06	7.319955e-10	7.064045e+00	4.728555e+01
9.100000e-07	1.131064e-06	1.013387e-09	7.957073e+00	6.577553e+01
9.200000e-07	1.257643e-06	1.285714e-09	8.847560e+00	8.387125e+01
9.300000e-07	1.383797e-06	1.553357e-09	9.735059e+00	1.013662e+02
9.400000e-07	1.509534e-06	1.810526e-09	1.061962e+01	1.180800e+02
9.500000e-07	1.634784e-06	2.048703e-09	1.150076e+01	1.338674e+02
9.600000e-07	1.759423e-06	2.267292e-09	1.237760e+01	1.486229e+02
9.700000e-07	1.883438e-06	2.471293e-09	1.325005e+01	1.622843e+02
9.800000e-07	2.006893e-06	2.662262e-09	1.411856e+01	1.748314e+02
9.900000e-07	2.129810e-06	2.833315e-09	1.498329e+01	1.862831e+02
1.000000e-06	2.252001e-06	2.985537e-09	1.584291e+01	1.966911e+02
1.010000e-06	2.373130e-06	3.127574e-09	1.669505e+01	2.061326e+02
1.020000e-06	2.493159e-06	3.263487e-09	1.753946e+01	2.147015e+02
1.030000e-06	2.612338e-06	3.386021e-09	1.837789e+01	2.224999e+02
1.040000e-06	2.730720e-06	3.493083e-09	1.921071e+01	2.296302e+02
1.050000e-06	2.848145e-06	3.590636e-09	2.003680e+01	2.361882e+02
1.060000e-06	2.964542e-06	3.684250e-09	2.085565e+01	2.422583e+02
1.070000e-06	3.079860e-06	3.776631e-09	2.166692e+01	2.479107e+02
1.080000e-06	3.193885e-06	3.859588e-09	2.246909e+01	2.532000e+02
1.090000e-06	3.306432e-06	3.932372e-09	2.326086e+01	2.581662e+02
1.100000e-06	3.417673e-06	4.000130e-09	2.404344e+01	2.628366e+02
1.110000e-06	3.527804e-06	4.068289e-09	2.481822e+01	2.672288e+02
1.120000e-06	3.636796e-06	4.132341e-09	2.558499e+01	2.713542e+02
1.130000e-06	3.744668e-06	4.188160e-09	2.634387e+01	2.752208e+02
1.140000e-06	3.851404e-06	4.239011e-09	2.709476e+01	2.788363e+02
1.150000e-06	3.956595e-06	4.288286e-09	2.783478e+01	2.822102e+02
1.160000e-06	4.060099e-06	4.335740e-09	2.856294e+01	2.853543e+02
1.170000e-06	4.162177e-06	4.378402e-09	2.928106e+01	2.882840e+02
1.180000e-06	4.262881e-06	4.416747e-09	2.998952e+01	2.910169e+02
1.190000e-06	4.362216e-06	4.452457e-09	3.068834e+01	2.935721e+02
1.200000e-06	4.459875e-06	4.487461e-09	3.137538e+01	2.959694e+02
1.210000e-06	4.555700e-06	4.522842e-09	3.204950e+01	2.982270e+02
1.220000e-06	4.649907e-06	4.557217e-09	3.271225e+01	3.003616e+02
1.230000e-06	4.742585e-06	4.586679e-09	3.336425e+01	3.023867e+02
1.240000e-06	4.833826e-06	4.612245e-09	3.400613e+01	3.043125e+02
1.250000e-06	4.923280e-06	4.638309e-09	3.463544e+01	3.061465e+02
1.260000e-06	5.010775e-06	4.665129e-09	3.525098e+01	3.078934e+02
1.270000e-06	5.096574e-06	4.688569e-09	3.585457e+01	3.095561e+02
1.280000e-06	5.180752e-06	4.709434e-09	3.644677e+01	3.111366e+02
1.290000e-06	5.263175e-06	4.730202e-09	3.702662e+01	3.126367e+02
1.300000e-06	5.343592e-06	4.754155e-09	3.759235e+01	3.140587e+02
1.310000e-06	5.422071e-06	4.777453e-09	3.814445e+01	3.154058e+02
1.320000e-06	5.498739e-06	4.796349e-09	3.868382e+01	3.166822e+02
1.330000e-06	5.573271e-06	4.813674e-09	3.920815e+01	3.178930e+02
1.340000e-06	5.645579e-06	4.831955e-09	3.971684e+01	3.190438e+02
1.350000e-06	5.715878e-06	4.850628e-09	4.021140e+01	3.201402e+02
1.360000e-06	5.784222e-06	4.867137e-09	4.069220e+01	3.211874e+02
1.370000e-06	5.850479e-06	4.881304e-09	4.115832e+01	3.221897e+02
1.380000e-06	5.914531e-06	4.895454e-09	4.160893e+01	3.231501e+02
1.390000e-06	5.976582e-06	4.911541e-09	4.204546e+01	3.240701e+02
1.400000e-06	6.036749e-06	4.927457e-09	4.246873e+01	3.249500e+02
1.410000e-06	6.094763e-06	4.941240e-09	4.287687e+01	3.257892e+02
1.420000e-06	6.150536e-06	4.953059e-09	4.326923e+01	3.265860e+02
1.430000e-06	6.204141e-06	4.964590e-09	4.364634e+01	3.273389e+02
1.440000e-06	6.255255e-06	4.977401e-09	4.400594e+01	3.280462e+02
1.450000e-06	6.303754e-06	4.990174e-09	4.434713e+01	3.287072e+02
1.460000e-06	6.349895e-06	5.001021e-09	4.467173e+01	3.293217e+02
1.470000e-06	6.393908e-06	5.009564e-09	4.498136e+01	3.298907e+02
1.480000e-06	6.435654e-06	5.018917e-09	4.527504e+01	3.304164e+02
1.490000e-06	6.474970e-06	5.029073e-09	4.555164e+01	3.309017e+02
1.500000e-06	6.512089e-06	5.038312e-09	4.581277e+01	3.313503e+02
1.510000e-06	6.547015e-06	5.046692e-09	4.605847e+01	3.317663e+02
1.520000e-06	6.579541e-06	5.053833e-09	4.628729e+01	3.321536e+02
1.530000e-06	6.609757e-06	5.061546e-09	4.649987e+01	3.325159e+02
1.540000e-06	6.637842e-06	5.069540e-09	4.669744e+01	3.328562e+02
1.550000e-06	6.663563e-06	5.076840e-09	4.687839e+01	3.331765e+02
1.560000e-06	6.686717e-06	5.082399e-09	4.704128e+01	3.334777e+02
1.570000e-06	6.707633e-06	5.085471e-09	4.718843e+01	3.337591e+02
1.580000e-06	6.726336e-06	5.088640e-09	4.732000e+01	3.340193e+02
1.590000e-06	6.742554e-06	5.093251e-09	4.743410e+01	3.342551e+02
1.600000e-06	6.756322e-06	5.099320e-09	4.753095e+01	3.344627e+02
1.610000e-06	6.767526e-06	5.103796e-09	4.760978e+01	3.346376e+02
1.620000e-06	6.776056e-06	5.106197e-09	4.766978e+01	3.347748e+02
1.630000e-06	6.782169e-06	5.109797e-09	4.771279e+01	3.348699e+02
1.640000e-06	6.786063e-06	5.113618e-09	4.774018e+01	3.349187e+02
1.650000e-06	6.787565e-06	5.116657e-09	4.775075e+01	3.349188e+02
1.660000e-06	6.786639e-06	5.111038e-09	4.774424e+01	3.348690e+02
1.670000e-06	6.783563e-06	5.106749e-09	4.772260e+01	3.347704e+02
1.680000e-06	6.778303e-06	5.105857e-09	4.768559e+01	3.346265e+02
1.690000e-06	6.770708e-06	5.105210e-09	4.763216e+01	3.344425e+02
1.700000e-06	6.760931e-06	5.105349e-09	4.756338e+01	3.342261e+02
1.710000e-06	6.748979e-06	5.106606e-09	4.747930e+01	3.339857e+02
1.720000e-06	6.734592e-06	5.113910e-09	4.737809e+01	3.337307e+02
1.730000e-06	6.717948e-06	5.092008e-09	4.726099e+01	3.334699e+02
1.740000e-06	6.699250e-06	5.019453e-09	4.712945e+01	3.332107e+02
1.750000e-06	6.677740e-06	5.018513e-09	4.697813e+01	3.329579e+02
1.760000e-06	6.652871e-06	5.038032e-09	4.680317e+01	3.327131e+02
1.770000e-06	6.625364e-06	5.035558e-09	4.660967e+01	3.324739e+02
1.780000e-06	6.595816e-06	5.106651e-09	4.640179e+01	3.322341e+02
1.790000e-06	6.564424e-06	5.141764e-09	4.618094e+01	3.319834e+02
1.800000e-06	6.531507e-06	5.040037e-09	4.594937e+01	3.317085e+02
1.810000e-06	6.496627e-06	5.060932e-09	4.570400e+01	3.313943e+02
1.820000e-06	6.459266e-06	5.037966e-09	4.544115e+01	3.310248e+02
1.830000e-06	6.419671e-06	5.052114e-09	4.516261e+01	3.305853e+02
1.840000e-06	6.377907e-06	5.163644e-09	4.486879e+01	3.300631e+02
1.850000e-06	6.333984e-06	5.030543e-09	4.455980e+01	3.294496e+02
1.860000e-06	6.287865e-06	5.004110e-09	4.423535e+01	3.287405e+02
1.870000e-06	6.239340e-06	4.996165e-09	4.389397e+01	3.279368e+02
1.880000e-06	6.188633e-06	5.026646e-09	4.353725e+01	3.270441e+02
1.890000e-06	6.135438e-06	5.125424e-09	4.316302e+01	3.260721e+02
1.900000e-06	6.079619e-06	4.933289e-09	4.277033e+01	3.250333e+02
1.910000e-06	6.021624e-06	4.861207e-09	4.236233e+01	3.239415e+02
1.920000e-06	5.961563e-06	4.948725e-09	4.193980e+01	3.228100e+02
1.930000e-06	5.899342e-06	4.993290e-09	4.150207e+01	3.216502e+02
1.940000e-06	5.834830e-06	4.956703e-09	4.104823e+01	3.204700e+02
1.950000e-06	5.768300e-06	4.788386e-09	4.058019e+01	3.192729e+02
1.960000e-06	5.699714e-06	4.828384e-09	4.009769e+01	3.180582e+02
1.970000e-06	5.628753e-06	4.863353e-09	3.959847e+01	3.168209e+02
1.980000e-06	5.555704e-06	4.889162e-09	3.908457e+01	3.155526e+02
1.990000e-06	5.480704e-06	4.842248e-09	3.855694e+01	3.142429e+02
2.000000e-06	5.403551e-06	4.707616e-09	3.801416e+01	3.128809e+02
2.010000e-06	5.324209e-06	4.752300e-09	3.745599e+01	3.114568e+02
2.020000e-06	5.242929e-06	4.794420e-09	3.688419e+01	3.099632e+02
2.030000e-06	5.159914e-06	4.788468e-09	3.630017e+01	3.083958e+02
2.040000e-06	5.075042e-06	4.649146e-09	3.570309e+01	3.067540e+02
2.050000e-06	4.988257e-06	4.609922e-09	3.509256e+01	3.050407e+02
2.060000e-06	4.899643e-06	4.680197e-09	3.446916e+01	3.032614e+02
2.070000e-06	4.809432e-06	4.653181e-09	3.383452e+01	3.014230e+02
2.080000e-06	4.717693e-06	4.575566e-09	3.318913e+01	2.995324e+02
2.090000e-06	4.624267e-06	4.497768e-09	3.253188e+01	2.975949e+02
2.100000e-06	4.529039e-06	4.511991e-09	3.186194e+01	2.956132e+02
2.110000e-06	4.432121e-06	4.504014e-09	3.118012e+01	2.935863e+02
2.120000e-06	4.333765e-06	4.470947e-09	3.048818e+01	2.915092e+02
2.130000e-06	4.233994e-06	4.400071e-09	2.978630e+01	2.893734e+02
2.140000e-06	4.132648e-06	4.351385e-09	2.907332e+01	2.871674e+02
2.150000e-06	4.029675e-06	4.362598e-09	2.834890e+01	2.848780e+02
2.160000e-06	3.925305e-06	4.353595e-09	2.761465e+01	2.824922e+02
2.170000e-06	3.819586e-06	4.288911e-09	2.687092e+01	2.799978e+02
2.180000e-06	3.712584e-06	4.208682e-09	2.611816e+01	2.773854e+02
2.190000e-06	3.604409e-06	4.198935e-09	2.535714e+01	2.746488e+02
2.200000e-06	3.494959e-06	4.182380e-09	2.458715e+01	2.717853e+02
2.210000e-06	3.384136e-06	4.118062e-09	2.380751e+01	2.687948e+02
2.220000e-06	3.271996e-06	4.040148e-09	2.301861e+01	2.656794e+02
2.230000e-06	3.158693e-06	3.999284e-09	2.222152e+01	2.624415e+02
2.240000e-06	3.044204e-06	3.963468e-09	2.141608e+01	2.590827e+02
2.250000e-06	2.928576e-06	3.903780e-09	2.060263e+01	2.556013e+02
2.260000e-06	2.811802e-06	3.838348e-09	1.978112e+01	2.519920e+02
2.270000e-06	2.693769e-06	3.785667e-09	1.895076e+01	2.482445e+02
2.280000e-06	2.574579e-06	3.739153e-09	1.811225e+01	2.443437e+02
2.290000e-06	2.454466e-06	3.676757e-09	1.726725e+01	2.402700e+02
2.300000e-06	2.333533e-06	3.607284e-09	1.641649e+01	2.360006e+02
2.310000e-06	2.211827e-06	3.536853e-09	1.556028e+01	2.315105e+02
2.320000e-06	2.089438e-06	3.469875e-09	1.469927e+01	2.267743e+02
2.330000e-06	1.966404e-06	3.393350e-09	1.383372e+01	2.217674e+02
2.340000e-06	1.842744e-06	3.306794e-09	1.296376e+01	2.164663e+02
2.350000e-06	1.718447e-06	3.213114e-09	1.208933e+01	2.108492e+02
2.360000e-06	1.593542e-06	3.125692e-09	1.121063e+01	2.048946e+02
2.370000e-06	1.468011e-06	3.041187e-09	1.032751e+01	1.985797e+02
2.380000e-06	1.341841e-06	2.937300e-09	9.439895e+00	1.918784e+02
2.390000e-06	1.215084e-06	2.817596e-09	8.548160e+00	1.847590e+02
2.400000e-06	1.087845e-06	2.704282e-09	7.653030e+00	1.771812e+02
2.410000e-06	9.602373e-07	2.599017e-09	6.755302e+00	1.690953e+02
2.420000e-06	8.323250e-07	2.469836e-09	5.855435e+00	1.604416e+02
2.430000e-06	7.041661e-07	2.313724e-09	4.953833e+00	1.511511e+02
2.440000e-06	5.758098e-07	2.157854e-09	4.050841e+00	1.411489e+02
2.450000e-06	4.472974e-07	2.004847e-09	3.146753e+00	1.303586e+02
2.460000e-06	3.186083e-07	1.833359e-09	2.241420e+00	1.187082e+02
2.470000e-06	1.898022e-07	1.633510e-09	1.335265e+00	1.061379e+02
2.480000e-06	6.100169e-08	1.420613e-09	4.291490e-01	9.260726e+01
2.490000e-06	-6.783782e-08	1.205116e-09	-4.772414e-01	7.810290e+01
2.500000e-06	-1.967150e-07	9.815713e-10	-1.383897e+00	6.264484e+01
2.510000e-06	-3.254954e-07	7.361251e-10	-2.289871e+00	4.629090e+01
2.520000e-06	-4.541520e-07	4.677486e-10	-3.194975e+00	2.913874e+01
2.530000e-06	-5.826533e-07	1.914593e-10	-4.098986e+00	1.132491e+01
2.540000e-06	-7.109550e-07	-8.342409e-11	-5.001593e+00	-6.978989e+00
2.550000e-06	-8.390572e-07	-3.647440e-10	-5.902796e+00	-2.557315e+01
2.560000e-06	-9.669399e-07	-6.586546e-10	-6.802455e+00	-4.423876e+01
2.570000e-06	-1.094565e-06	-9.503021e-10	-7.700303e+00	-6.274889e+01
2.580000e-06	-1.221769e-06	-1.225345e-09	-8.595185e+00	-8.088026e+01
2.590000e-06	-1.348355e-06	-1.485356e-09	-9.485721e+00	-9.842481e+01
2.600000e-06	-1.474219e-06	-1.741624e-09	-1.037118e+01	-1.152001e+02
2.610000e-06	-1.599342e-06	-1.991240e-09	-1.125142e+01	-1.310580e+02
2.620000e-06	-1.723776e-06	-2.219738e-09	-1.212682e+01	-1.458902e+02
2.630000e-06	-1.847647e-06	-2.425197e-09	-1.299826e+01	-1.596313e+02
2.640000e-06	-1.970986e-06	-2.618293e-09	-1.386595e+01	-1.722582e+02
2.650000e-06	-2.093651e-06	-2.801204e-09	-1.472891e+01	-1.837872e+02
2.660000e-06	-2.215578e-06	-2.966453e-09	-1.558667e+01	-1.942678e+02
2.670000e-06	-2.336698e-06	-3.110949e-09	-1.643875e+01	-2.037757e+02
2.680000e-06	-2.457016e-06	-3.238285e-09	-1.728519e+01	-2.124040e+02
2.690000e-06	-2.576603e-06	-3.356210e-09	-1.812649e+01	-2.202544e+02
2.700000e-06	-2.695195e-06	-3.469569e-09	-1.896079e+01	-2.274295e+02
2.710000e-06	-2.812489e-06	-3.573916e-09	-1.978595e+01	-2.340258e+02
2.720000e-06	-2.928551e-06	-3.663766e-09	-2.060246e+01	-2.401287e+02
2.730000e-06	-3.043557e-06	-3.746747e-09	-2.141153e+01	-2.458093e+02
2.740000e-06	-3.157433e-06	-3.829922e-09	-2.221265e+01	-2.511234e+02
2.750000e-06	-3.269897e-06	-3.910788e-09	-2.300383e+01	-2.561120e+02
2.760000e-06	-3.380914e-06	-3.982969e-09	-2.378485e+01	-2.608032e+02
2.770000e-06	-3.490714e-06	-4.045775e-09	-2.455729e+01	-2.652153e+02
2.780000e-06	-3.599410e-06	-4.105923e-09	-2.532197e+01	-2.693598e+02
2.790000e-06	-3.707048e-06	-4.166938e-09	-2.607921e+01	-2.732451e+02
2.800000e-06	-3.813442e-06	-4.225290e-09	-2.682770e+01	-2.768786e+02
2.810000e-06	-3.918364e-06	-4.277783e-09	-2.756583e+01	-2.802697e+02
2.820000e-06	-4.021863e-06	-4.327766e-09	-2.829394e+01	-2.834302e+02
2.830000e-06	-4.123794e-06	-4.376877e-09	-2.901103e+01	-2.863751e+02
2.840000e-06	-4.224155e-06	-4.423784e-09	-2.971708e+01	-2.891217e+02
2.850000e-06	-4.323191e-06	-4.468538e-09	-3.041379e+01	-2.916894e+02
2.860000e-06	-4.420825e-06	-4.507655e-09	-3.110066e+01	-2.940977e+02
2.870000e-06	-4.517029e-06	-4.540679e-09	-3.177745e+01	-2.963651e+02
2.880000e-06	-4.611570e-06	-4.572676e-09	-3.244255e+01	-2.985084e+02
2.890000e-06	-4.704310e-06	-4.605630e-09	-3.309498e+01	-3.005413e+02
2.900000e-06	-4.795516e-06	-4.636430e-09	-3.373662e+01	-3.024743e+02
2.910000e-06	-4.885126e-06	-4.663514e-09	-3.436703e+01	-3.043151e+02
2.920000e-06	-4.973018e-06	-4.690766e-09	-3.498535e+01	-3.060684e+02
2.930000e-06	-5.058994e-06	-4.718533e-09	-3.559020e+01	-3.077375e+02
2.940000e-06	-5.143039e-06	-4.745252e-09	-3.618145e+01	-3.093242e+02
