# Temperatura_=_20.0
# Concentracion g/m^3_=_12600.0
# C_Vs_to_Am_M_A/Vsm_=_65563218390.804596
# pendiente_HvsI_1/m_=_3716.3
# ordenada_HvsI_A/m_=_1297.0
# frecuencia_Hz_=_134895.51676541285

Tiempo_(s)	Campo_(V.s)	Magnetizacion_(V.s)	Campo_(kA/m)	Magnetizacion_(A/m)
0.000000e+00	-2.500680e-06	-1.407725e-09	-1.983026e+01	-9.681101e+01
1.000000e-08	-2.500926e-06	-1.366016e-09	-1.983221e+01	-9.673414e+01
2.000000e-08	-2.501043e-06	-1.356178e-09	-1.983314e+01	-9.664575e+01
3.000000e-08	-2.500998e-06	-1.415658e-09	-1.983278e+01	-9.654614e+01
4.000000e-08	-2.500857e-06	-1.515325e-09	-1.983166e+01	-9.643565e+01
5.000000e-08	-2.500602e-06	-1.538962e-09	-1.982964e+01	-9.631470e+01
6.000000e-08	-2.500301e-06	-1.618761e-09	-1.982725e+01	-9.618375e+01
7.000000e-08	-2.499880e-06	-1.606848e-09	-1.982391e+01	-9.604328e+01
8.000000e-08	-2.499300e-06	-1.472113e-09	-1.981931e+01	-9.589387e+01
9.000000e-08	-2.498500e-06	-1.359154e-09	-1.981297e+01	-9.573608e+01
1.000000e-07	-2.497408e-06	-1.307491e-09	-1.980431e+01	-9.557054e+01
1.100000e-07	-2.496025e-06	-1.311514e-09	-1.979334e+01	-9.539788e+01
1.200000e-07	-2.494332e-06	-1.361962e-09	-1.977992e+01	-9.521874e+01
1.300000e-07	-2.492287e-06	-1.462977e-09	-1.976370e+01	-9.503377e+01
1.400000e-07	-2.489816e-06	-1.404413e-09	-1.974411e+01	-9.484362e+01
1.500000e-07	-2.486933e-06	-1.396636e-09	-1.972124e+01	-9.464892e+01
1.600000e-07	-2.483756e-06	-1.448463e-09	-1.969605e+01	-9.445027e+01
1.700000e-07	-2.480479e-06	-1.529832e-09	-1.967006e+01	-9.424825e+01
1.800000e-07	-2.477038e-06	-1.435620e-09	-1.964277e+01	-9.404340e+01
1.900000e-07	-2.473436e-06	-1.383793e-09	-1.961421e+01	-9.383620e+01
2.000000e-07	-2.469718e-06	-1.443968e-09	-1.958473e+01	-9.362711e+01
2.100000e-07	-2.465911e-06	-1.538865e-09	-1.955454e+01	-9.341649e+01
2.200000e-07	-2.462021e-06	-1.472177e-09	-1.952369e+01	-9.320467e+01
2.300000e-07	-2.458044e-06	-1.333763e-09	-1.949216e+01	-9.299191e+01
2.400000e-07	-2.453998e-06	-1.346136e-09	-1.946007e+01	-9.277840e+01
2.500000e-07	-2.449899e-06	-1.440297e-09	-1.942757e+01	-9.256428e+01
2.600000e-07	-2.445708e-06	-1.479801e-09	-1.939433e+01	-9.234960e+01
2.700000e-07	-2.441381e-06	-1.369338e-09	-1.936002e+01	-9.213436e+01
2.800000e-07	-2.436894e-06	-1.312104e-09	-1.932444e+01	-9.191853e+01
2.900000e-07	-2.432193e-06	-1.354317e-09	-1.928716e+01	-9.170197e+01
3.000000e-07	-2.427284e-06	-1.482764e-09	-1.924823e+01	-9.148454e+01
3.100000e-07	-2.422250e-06	-1.458158e-09	-1.920831e+01	-9.126603e+01
3.200000e-07	-2.416949e-06	-1.327319e-09	-1.916627e+01	-9.104620e+01
3.300000e-07	-2.411367e-06	-1.265034e-09	-1.912201e+01	-9.082480e+01
3.400000e-07	-2.405614e-06	-1.407448e-09	-1.907639e+01	-9.060152e+01
3.500000e-07	-2.399698e-06	-1.492203e-09	-1.902948e+01	-9.037607e+01
3.600000e-07	-2.393697e-06	-1.376873e-09	-1.898189e+01	-9.014813e+01
3.700000e-07	-2.387543e-06	-1.235045e-09	-1.893309e+01	-8.991739e+01
3.800000e-07	-2.381190e-06	-1.318484e-09	-1.888270e+01	-8.968354e+01
3.900000e-07	-2.374761e-06	-1.470809e-09	-1.883173e+01	-8.944629e+01
4.000000e-07	-2.368227e-06	-1.436550e-09	-1.877992e+01	-8.920536e+01
4.100000e-07	-2.361429e-06	-1.278699e-09	-1.872600e+01	-8.896050e+01
4.200000e-07	-2.354409e-06	-1.262885e-09	-1.867033e+01	-8.871146e+01
4.300000e-07	-2.347186e-06	-1.388397e-09	-1.861306e+01	-8.845803e+01
4.400000e-07	-2.339818e-06	-1.425213e-09	-1.855463e+01	-8.820006e+01
4.500000e-07	-2.332314e-06	-1.317445e-09	-1.849512e+01	-8.793737e+01
4.600000e-07	-2.324641e-06	-1.247052e-09	-1.843427e+01	-8.766986e+01
4.700000e-07	-2.316844e-06	-1.310076e-09	-1.837245e+01	-8.739742e+01
4.800000e-07	-2.308993e-06	-1.375126e-09	-1.831019e+01	-8.711999e+01
4.900000e-07	-2.301061e-06	-1.338154e-09	-1.824729e+01	-8.683753e+01
5.000000e-07	-2.293016e-06	-1.268639e-09	-1.818349e+01	-8.655001e+01
5.100000e-07	-2.284903e-06	-1.270412e-09	-1.811916e+01	-8.625742e+01
5.200000e-07	-2.276704e-06	-1.318722e-09	-1.805414e+01	-8.595975e+01
5.300000e-07	-2.268342e-06	-1.333914e-09	-1.798783e+01	-8.565703e+01
5.400000e-07	-2.259794e-06	-1.297028e-09	-1.792004e+01	-8.534927e+01
5.500000e-07	-2.251098e-06	-1.262949e-09	-1.785108e+01	-8.503647e+01
5.600000e-07	-2.242139e-06	-1.270004e-09	-1.778004e+01	-8.471865e+01
5.700000e-07	-2.232927e-06	-1.304098e-09	-1.770699e+01	-8.439582e+01
5.800000e-07	-2.223479e-06	-1.300619e-09	-1.763206e+01	-8.406796e+01
5.900000e-07	-2.213625e-06	-1.254675e-09	-1.755393e+01	-8.373506e+01
6.000000e-07	-2.203457e-06	-1.227688e-09	-1.747330e+01	-8.339709e+01
6.100000e-07	-2.193109e-06	-1.259451e-09	-1.739123e+01	-8.305400e+01
6.200000e-07	-2.182581e-06	-1.276668e-09	-1.730775e+01	-8.270574e+01
6.300000e-07	-2.171801e-06	-1.238840e-09	-1.722226e+01	-8.235222e+01
6.400000e-07	-2.160699e-06	-1.204923e-09	-1.713422e+01	-8.199337e+01
6.500000e-07	-2.149386e-06	-1.230959e-09	-1.704451e+01	-8.162910e+01
6.600000e-07	-2.137888e-06	-1.249404e-09	-1.695334e+01	-8.125929e+01
6.700000e-07	-2.126193e-06	-1.220244e-09	-1.686060e+01	-8.088385e+01
6.800000e-07	-2.114391e-06	-1.194968e-09	-1.676700e+01	-8.050267e+01
6.900000e-07	-2.102509e-06	-1.213952e-09	-1.667278e+01	-8.011564e+01
7.000000e-07	-2.090515e-06	-1.220667e-09	-1.657767e+01	-7.972266e+01
7.100000e-07	-2.078439e-06	-1.194048e-09	-1.648191e+01	-7.932364e+01
7.200000e-07	-2.066239e-06	-1.179066e-09	-1.638517e+01	-7.891852e+01
7.300000e-07	-2.053909e-06	-1.191056e-09	-1.628739e+01	-7.850722e+01
7.400000e-07	-2.041471e-06	-1.186514e-09	-1.618876e+01	-7.808972e+01
7.500000e-07	-2.028847e-06	-1.165919e-09	-1.608865e+01	-7.766599e+01
7.600000e-07	-2.016032e-06	-1.161694e-09	-1.598702e+01	-7.723604e+01
7.700000e-07	-2.002977e-06	-1.170216e-09	-1.588350e+01	-7.679991e+01
7.800000e-07	-1.989705e-06	-1.164875e-09	-1.577825e+01	-7.635765e+01
7.900000e-07	-1.976265e-06	-1.151053e-09	-1.567167e+01	-7.590934e+01
8.000000e-07	-1.962653e-06	-1.144774e-09	-1.556373e+01	-7.545510e+01
8.100000e-07	-1.948974e-06	-1.144238e-09	-1.545526e+01	-7.499506e+01
8.200000e-07	-1.935169e-06	-1.146314e-09	-1.534579e+01	-7.452936e+01
8.300000e-07	-1.921153e-06	-1.143386e-09	-1.523464e+01	-7.405819e+01
8.400000e-07	-1.907060e-06	-1.131383e-09	-1.512289e+01	-7.358172e+01
8.500000e-07	-1.892814e-06	-1.119416e-09	-1.500991e+01	-7.310015e+01
8.600000e-07	-1.878319e-06	-1.122138e-09	-1.489496e+01	-7.261369e+01
8.700000e-07	-1.863699e-06	-1.125839e-09	-1.477904e+01	-7.212253e+01
8.800000e-07	-1.849000e-06	-1.113223e-09	-1.466247e+01	-7.162688e+01
8.900000e-07	-1.834106e-06	-1.091532e-09	-1.454436e+01	-7.112693e+01
9.000000e-07	-1.818997e-06	-1.083402e-09	-1.442455e+01	-7.062286e+01
9.100000e-07	-1.803752e-06	-1.082464e-09	-1.430365e+01	-7.011485e+01
9.200000e-07	-1.788289e-06	-1.072977e-09	-1.418104e+01	-6.960303e+01
9.300000e-07	-1.772561e-06	-1.054979e-09	-1.405631e+01	-6.908754e+01
9.400000e-07	-1.756535e-06	-1.046734e-09	-1.392923e+01	-6.856848e+01
9.500000e-07	-1.740260e-06	-1.047408e-09	-1.380017e+01	-6.804591e+01
9.600000e-07	-1.723872e-06	-1.043518e-09	-1.367021e+01	-6.751989e+01
9.700000e-07	-1.707344e-06	-1.030583e-09	-1.353914e+01	-6.699042e+01
9.800000e-07	-1.690728e-06	-1.020318e-09	-1.340738e+01	-6.645750e+01
9.900000e-07	-1.674094e-06	-1.012885e-09	-1.327547e+01	-6.592108e+01
1.000000e-06	-1.657392e-06	-1.001600e-09	-1.314303e+01	-6.538108e+01
1.010000e-06	-1.640480e-06	-9.904441e-10	-1.300892e+01	-6.483743e+01
1.020000e-06	-1.623447e-06	-9.874196e-10	-1.287385e+01	-6.429000e+01
1.030000e-06	-1.606349e-06	-9.843087e-10	-1.273826e+01	-6.373865e+01
1.040000e-06	-1.589153e-06	-9.744788e-10	-1.260190e+01	-6.318324e+01
1.050000e-06	-1.571885e-06	-9.630521e-10	-1.246496e+01	-6.262360e+01
1.060000e-06	-1.554549e-06	-9.578546e-10	-1.232749e+01	-6.205956e+01
1.070000e-06	-1.537140e-06	-9.549983e-10	-1.218944e+01	-6.149096e+01
1.080000e-06	-1.519666e-06	-9.453137e-10	-1.205087e+01	-6.091760e+01
1.090000e-06	-1.502082e-06	-9.310991e-10	-1.191143e+01	-6.033934e+01
1.100000e-06	-1.484387e-06	-9.205206e-10	-1.177110e+01	-5.975599e+01
1.110000e-06	-1.466624e-06	-9.165235e-10	-1.163025e+01	-5.916742e+01
1.120000e-06	-1.448820e-06	-9.111109e-10	-1.148907e+01	-5.857348e+01
1.130000e-06	-1.431026e-06	-9.009323e-10	-1.134795e+01	-5.797405e+01
1.140000e-06	-1.413127e-06	-8.883241e-10	-1.120602e+01	-5.736903e+01
1.150000e-06	-1.395101e-06	-8.796281e-10	-1.106307e+01	-5.675833e+01
1.160000e-06	-1.377017e-06	-8.742196e-10	-1.091967e+01	-5.614189e+01
1.170000e-06	-1.358843e-06	-8.648892e-10	-1.077555e+01	-5.551967e+01
1.180000e-06	-1.340489e-06	-8.499000e-10	-1.063000e+01	-5.489163e+01
1.190000e-06	-1.321983e-06	-8.358390e-10	-1.048326e+01	-5.425778e+01
1.200000e-06	-1.303454e-06	-8.262122e-10	-1.033632e+01	-5.361813e+01
1.210000e-06	-1.284877e-06	-8.168606e-10	-1.018900e+01	-5.297272e+01
1.220000e-06	-1.266135e-06	-8.038094e-10	-1.004038e+01	-5.232159e+01
1.230000e-06	-1.247346e-06	-7.879707e-10	-9.891383e+00	-5.166482e+01
1.240000e-06	-1.228538e-06	-7.746084e-10	-9.742238e+00	-5.100247e+01
1.250000e-06	-1.209489e-06	-7.664302e-10	-9.591183e+00	-5.033463e+01
1.260000e-06	-1.190179e-06	-7.601231e-10	-9.438056e+00	-4.966142e+01
1.270000e-06	-1.170718e-06	-7.517949e-10	-9.283728e+00	-4.898294e+01
1.280000e-06	-1.151154e-06	-7.420879e-10	-9.128587e+00	-4.829930e+01
1.290000e-06	-1.131635e-06	-7.340984e-10	-8.973806e+00	-4.761064e+01
1.300000e-06	-1.112150e-06	-7.259322e-10	-8.819289e+00	-4.691709e+01
1.310000e-06	-1.092573e-06	-7.170672e-10	-8.664046e+00	-4.621878e+01
1.320000e-06	-1.072873e-06	-7.091092e-10	-8.507828e+00	-4.551587e+01
1.330000e-06	-1.053138e-06	-7.002026e-10	-8.351330e+00	-4.480852e+01
1.340000e-06	-1.033376e-06	-6.882509e-10	-8.194613e+00	-4.409688e+01
1.350000e-06	-1.013555e-06	-6.776194e-10	-8.037437e+00	-4.338113e+01
1.360000e-06	-9.936865e-07	-6.708615e-10	-7.879880e+00	-4.266146e+01
1.370000e-06	-9.737911e-07	-6.637661e-10	-7.722110e+00	-4.193807e+01
1.380000e-06	-9.539507e-07	-6.528971e-10	-7.564777e+00	-4.121115e+01
1.390000e-06	-9.341120e-07	-6.407305e-10	-7.407457e+00	-4.048095e+01
1.400000e-06	-9.142276e-07	-6.325610e-10	-7.249775e+00	-3.974769e+01
1.410000e-06	-8.942965e-07	-6.234649e-10	-7.091723e+00	-3.901164e+01
1.420000e-06	-8.742987e-07	-6.093350e-10	-6.933141e+00	-3.827304e+01
1.430000e-06	-8.542825e-07	-5.957594e-10	-6.774414e+00	-3.753220e+01
1.440000e-06	-8.342721e-07	-5.850349e-10	-6.615732e+00	-3.678941e+01
1.450000e-06	-8.142031e-07	-5.752418e-10	-6.456587e+00	-3.604498e+01
1.460000e-06	-7.941381e-07	-5.645946e-10	-6.297472e+00	-3.529922e+01
1.470000e-06	-7.741089e-07	-5.552554e-10	-6.138642e+00	-3.455246e+01
1.480000e-06	-7.540018e-07	-5.466380e-10	-5.979193e+00	-3.380502e+01
1.490000e-06	-7.338540e-07	-5.368105e-10	-5.819423e+00	-3.305725e+01
1.500000e-06	-7.136972e-07	-5.260235e-10	-5.659580e+00	-3.230946e+01
1.510000e-06	-6.935120e-07	-5.128394e-10	-5.499512e+00	-3.156196e+01
1.520000e-06	-6.732823e-07	-4.989597e-10	-5.339092e+00	-3.081504e+01
1.530000e-06	-6.528862e-07	-4.872876e-10	-5.177352e+00	-3.006900e+01
1.540000e-06	-6.324656e-07	-4.779435e-10	-5.015418e+00	-2.932407e+01
1.550000e-06	-6.121288e-07	-4.673456e-10	-4.854148e+00	-2.858046e+01
1.560000e-06	-5.917993e-07	-4.561675e-10	-4.692936e+00	-2.783837e+01
1.570000e-06	-5.714220e-07	-4.464693e-10	-4.531345e+00	-2.709790e+01
1.580000e-06	-5.509210e-07	-4.357591e-10	-4.368774e+00	-2.635916e+01
1.590000e-06	-5.304236e-07	-4.211341e-10	-4.206230e+00	-2.562217e+01
1.600000e-06	-5.099158e-07	-4.084803e-10	-4.043604e+00	-2.488690e+01
1.610000e-06	-4.894286e-07	-3.987455e-10	-3.881142e+00	-2.415326e+01
1.620000e-06	-4.689190e-07	-3.901644e-10	-3.718502e+00	-2.342112e+01
1.630000e-06	-4.482641e-07	-3.793254e-10	-3.554710e+00	-2.269026e+01
1.640000e-06	-4.275839e-07	-3.684669e-10	-3.390717e+00	-2.196042e+01
1.650000e-06	-4.067812e-07	-3.612601e-10	-3.225753e+00	-2.123127e+01
1.660000e-06	-3.859358e-07	-3.522012e-10	-3.060450e+00	-2.050244e+01
1.670000e-06	-3.651442e-07	-3.411435e-10	-2.895574e+00	-1.977349e+01
1.680000e-06	-3.442775e-07	-3.300143e-10	-2.730102e+00	-1.904396e+01
1.690000e-06	-3.234131e-07	-3.195005e-10	-2.564648e+00	-1.831333e+01
1.700000e-06	-3.024985e-07	-3.044396e-10	-2.398797e+00	-1.758106e+01
1.710000e-06	-2.814598e-07	-2.861901e-10	-2.231961e+00	-1.684660e+01
1.720000e-06	-2.604397e-07	-2.709396e-10	-2.065273e+00	-1.610937e+01
1.730000e-06	-2.394206e-07	-2.593981e-10	-1.898592e+00	-1.536881e+01
1.740000e-06	-2.183528e-07	-2.482461e-10	-1.731526e+00	-1.462433e+01
1.750000e-06	-1.972059e-07	-2.347336e-10	-1.563832e+00	-1.387541e+01
1.760000e-06	-1.761341e-07	-2.203522e-10	-1.396734e+00	-1.312152e+01
1.770000e-06	-1.551174e-07	-2.088794e-10	-1.230073e+00	-1.236219e+01
1.780000e-06	-1.339112e-07	-1.978581e-10	-1.061909e+00	-1.159698e+01
1.790000e-06	-1.126791e-07	-1.860812e-10	-8.935395e-01	-1.082553e+01
1.800000e-06	-9.153218e-08	-1.719279e-10	-7.258452e-01	-1.004751e+01
1.810000e-06	-7.039020e-08	-1.583647e-10	-5.581905e-01	-9.262698e+00
1.820000e-06	-4.922974e-08	-1.472342e-10	-3.903892e-01	-8.470922e+00
1.830000e-06	-2.805327e-08	-1.359478e-10	-2.224609e-01	-7.672095e+00
1.840000e-06	-6.864799e-09	-1.216157e-10	-5.443748e-02	-6.866213e+00
1.850000e-06	1.429914e-08	-1.071957e-10	1.133914e-01	-6.053350e+00
1.860000e-06	3.540394e-08	-9.539980e-11	2.807513e-01	-5.233664e+00
1.870000e-06	5.645698e-08	-8.588469e-11	4.477008e-01	-4.407390e+00
1.880000e-06	7.760274e-08	-7.585540e-11	6.153855e-01	-3.574835e+00
1.890000e-06	9.886082e-08	-6.285555e-11	7.839610e-01	-2.736378e+00
1.900000e-06	1.200809e-07	-5.028462e-11	9.522351e-01	-1.892459e+00
1.910000e-06	1.412258e-07	-3.744627e-11	1.119913e+00	-1.043572e+00
1.920000e-06	1.622793e-07	-2.338996e-11	1.286866e+00	-1.902581e-01
1.930000e-06	1.833254e-07	-7.905997e-12	1.453761e+00	6.669049e-01
1.940000e-06	2.044067e-07	6.437065e-12	1.620934e+00	1.527313e+00
1.950000e-06	2.254019e-07	1.744066e-11	1.787425e+00	2.390345e+00
1.960000e-06	2.464386e-07	2.962939e-11	1.954244e+00	3.255373e+00
1.970000e-06	2.674729e-07	4.286871e-11	2.121046e+00	4.121775e+00
1.980000e-06	2.884054e-07	5.566222e-11	2.287039e+00	4.988940e+00
1.990000e-06	3.093543e-07	6.947477e-11	2.453163e+00	5.856280e+00
2.000000e-06	3.302767e-07	8.475510e-11	2.619076e+00	6.723242e+00
2.010000e-06	3.511295e-07	9.962423e-11	2.784438e+00	7.589306e+00
2.020000e-06	3.719201e-07	1.124132e-10	2.949306e+00	8.454000e+00
2.030000e-06	3.927468e-07	1.266631e-10	3.114461e+00	9.316904e+00
2.040000e-06	4.135245e-07	1.404093e-10	3.279227e+00	1.017765e+01
2.050000e-06	4.342058e-07	1.509962e-10	3.443229e+00	1.103593e+01
2.060000e-06	4.548712e-07	1.597941e-10	3.607104e+00	1.189148e+01
2.070000e-06	4.755656e-07	1.717019e-10	3.771209e+00	1.274412e+01
2.080000e-06	4.962727e-07	1.862682e-10	3.935415e+00	1.359371e+01
2.090000e-06	5.168779e-07	1.994703e-10	4.098814e+00	1.444017e+01
2.100000e-06	5.373674e-07	2.096087e-10	4.261294e+00	1.528345e+01
2.110000e-06	5.577805e-07	2.230979e-10	4.423169e+00	1.612358e+01
2.120000e-06	5.781422e-07	2.398647e-10	4.584636e+00	1.696062e+01
2.130000e-06	5.984931e-07	2.545684e-10	4.746018e+00	1.779464e+01
2.140000e-06	6.188738e-07	2.675179e-10	4.907636e+00	1.862576e+01
2.150000e-06	6.392108e-07	2.783045e-10	5.068907e+00	1.945413e+01
2.160000e-06	6.594284e-07	2.886836e-10	5.229231e+00	2.027990e+01
2.170000e-06	6.796205e-07	3.000482e-10	5.389354e+00	2.110322e+01
2.180000e-06	6.998416e-07	3.145363e-10	5.549706e+00	2.192425e+01
2.190000e-06	7.199648e-07	3.293551e-10	5.709282e+00	2.274315e+01
2.200000e-06	7.400319e-07	3.424519e-10	5.868412e+00	2.356007e+01
2.210000e-06	7.600702e-07	3.570954e-10	6.027316e+00	2.437512e+01
2.220000e-06	7.800901e-07	3.728967e-10	6.186072e+00	2.518842e+01
2.230000e-06	8.000983e-07	3.873786e-10	6.344736e+00	2.600004e+01
2.240000e-06	8.200636e-07	3.993482e-10	6.503060e+00	2.681006e+01
2.250000e-06	8.400259e-07	4.098413e-10	6.661360e+00	2.761850e+01
2.260000e-06	8.599666e-07	4.222475e-10	6.819488e+00	2.842536e+01
2.270000e-06	8.798863e-07	4.349300e-10	6.977451e+00	2.923063e+01
2.280000e-06	8.997973e-07	4.447724e-10	7.135343e+00	3.003426e+01
2.290000e-06	9.196742e-07	4.563462e-10	7.292966e+00	3.083618e+01
2.300000e-06	9.395082e-07	4.704153e-10	7.450249e+00	3.163629e+01
2.310000e-06	9.593242e-07	4.836816e-10	7.607389e+00	3.243451e+01
2.320000e-06	9.791565e-07	4.948874e-10	7.764658e+00	3.323070e+01
2.330000e-06	9.990052e-07	5.065886e-10	7.922057e+00	3.402474e+01
2.340000e-06	1.018815e-06	5.205897e-10	8.079150e+00	3.481651e+01
2.350000e-06	1.038571e-06	5.350002e-10	8.235809e+00	3.560588e+01
2.360000e-06	1.058317e-06	5.495154e-10	8.392399e+00	3.639272e+01
2.370000e-06	1.078033e-06	5.630647e-10	8.548744e+00	3.717692e+01
2.380000e-06	1.097677e-06	5.752966e-10	8.704520e+00	3.795839e+01
2.390000e-06	1.117217e-06	5.883519e-10	8.859471e+00	3.873703e+01
2.400000e-06	1.136677e-06	6.030829e-10	9.013789e+00	3.951279e+01
2.410000e-06	1.156087e-06	6.177593e-10	9.167707e+00	4.028561e+01
2.420000e-06	1.175411e-06	6.306966e-10	9.320949e+00	4.105549e+01
2.430000e-06	1.194618e-06	6.411547e-10	9.473258e+00	4.182242e+01
2.440000e-06	1.213719e-06	6.519501e-10	9.624727e+00	4.258643e+01
2.450000e-06	1.232697e-06	6.637518e-10	9.775218e+00	4.334756e+01
2.460000e-06	1.251591e-06	6.757082e-10	9.925049e+00	4.410589e+01
2.470000e-06	1.270466e-06	6.868859e-10	1.007473e+01	4.486150e+01
2.480000e-06	1.289194e-06	6.976214e-10	1.022324e+01	4.561450e+01
2.490000e-06	1.307729e-06	7.106147e-10	1.037022e+01	4.636499e+01
2.500000e-06	1.326153e-06	7.251267e-10	1.051632e+01	4.711310e+01
2.510000e-06	1.344527e-06	7.372092e-10	1.066203e+01	4.785897e+01
2.520000e-06	1.362790e-06	7.471886e-10	1.080685e+01	4.860270e+01
2.530000e-06	1.380895e-06	7.591242e-10	1.095043e+01	4.934444e+01
2.540000e-06	1.398975e-06	7.726915e-10	1.109379e+01	5.008429e+01
2.550000e-06	1.416984e-06	7.837369e-10	1.123661e+01	5.082235e+01
2.560000e-06	1.434799e-06	7.920662e-10	1.137788e+01	5.155870e+01
2.570000e-06	1.452542e-06	8.001143e-10	1.151858e+01	5.229342e+01
2.580000e-06	1.470220e-06	8.106354e-10	1.165876e+01	5.302653e+01
2.590000e-06	1.487797e-06	8.227655e-10	1.179815e+01	5.375806e+01
2.600000e-06	1.505376e-06	8.335580e-10	1.193755e+01	5.448797e+01
2.610000e-06	1.522964e-06	8.445903e-10	1.207702e+01	5.521623e+01
2.620000e-06	1.540408e-06	8.561093e-10	1.221535e+01	5.594275e+01
2.630000e-06	1.557619e-06	8.696194e-10	1.235183e+01	5.666741e+01
2.640000e-06	1.574810e-06	8.820987e-10	1.248816e+01	5.739008e+01
2.650000e-06	1.591967e-06	8.906169e-10	1.262421e+01	5.811057e+01
2.660000e-06	1.609005e-06	8.974503e-10	1.275932e+01	5.882867e+01
2.670000e-06	1.626009e-06	9.045961e-10	1.289416e+01	5.954414e+01
2.680000e-06	1.642937e-06	9.130559e-10	1.302840e+01	6.025672e+01
2.690000e-06	1.659742e-06	9.231723e-10	1.316166e+01	6.096613e+01
2.700000e-06	1.676384e-06	9.353670e-10	1.329364e+01	6.167204e+01
2.710000e-06	1.692932e-06	9.499892e-10	1.342486e+01	6.237414e+01
2.720000e-06	1.709337e-06	9.632318e-10	1.355495e+01	6.307208e+01
2.730000e-06	1.725520e-06	9.745064e-10	1.368328e+01	6.376551e+01
2.740000e-06	1.741472e-06	9.831533e-10	1.380978e+01	6.445407e+01
2.750000e-06	1.757257e-06	9.915246e-10	1.393496e+01	6.513741e+01
2.760000e-06	1.772938e-06	1.000042e-09	1.405930e+01	6.581516e+01
2.770000e-06	1.788413e-06	1.008027e-09	1.418202e+01	6.648698e+01
2.780000e-06	1.803696e-06	1.016543e-09	1.430321e+01	6.715251e+01
2.790000e-06	1.818709e-06	1.027125e-09	1.442226e+01	6.781142e+01
2.800000e-06	1.833498e-06	1.039947e-09	1.453954e+01	6.846341e+01
2.810000e-06	1.848160e-06	1.050777e-09	1.465580e+01	6.910816e+01
2.820000e-06	1.862588e-06	1.061607e-09	1.477022e+01	6.974540e+01
2.830000e-06	1.876850e-06	1.074354e-09	1.488332e+01	7.037487e+01
2.840000e-06	1.891057e-06	1.086379e-09	1.499598e+01	7.099634e+01
2.850000e-06	1.905181e-06	1.093044e-09	1.510798e+01	7.160961e+01
2.860000e-06	1.919128e-06	1.099559e-09	1.521858e+01	7.221449e+01
2.870000e-06	1.933007e-06	1.107904e-09	1.532864e+01	7.281085e+01
2.880000e-06	1.946829e-06	1.116802e-09	1.543825e+01	7.339855e+01
2.890000e-06	1.960430e-06	1.126724e-09	1.554611e+01	7.397751e+01
2.900000e-06	1.973914e-06	1.138957e-09	1.565303e+01	7.454766e+01
