# Temperatura_=_20.0
# Concentracion g/m^3_=_12600.0
# C_Vs_to_Am_M_A/Vsm_=_65563218390.804596
# pendiente_HvsI_1/m_=_3716.3
# ordenada_HvsI_A/m_=_1297.0
# frecuencia_Hz_=_134889.92148304204

Tiempo_(s)	Campo_(V.s)	Magnetizacion_(V.s)	Campo_(kA/m)	Magnetizacion_(A/m)
0.000000e+00	-2.507253e-06	-1.464873e-09	-1.984844e+01	-9.940961e+01
1.000000e-08	-2.507517e-06	-1.454867e-09	-1.985053e+01	-9.942133e+01
2.000000e-08	-2.507669e-06	-1.439253e-09	-1.985174e+01	-9.943080e+01
3.000000e-08	-2.507725e-06	-1.409816e-09	-1.985218e+01	-9.943823e+01
4.000000e-08	-2.507634e-06	-1.424411e-09	-1.985146e+01	-9.944371e+01
5.000000e-08	-2.507437e-06	-1.439403e-09	-1.984990e+01	-9.944725e+01
6.000000e-08	-2.507076e-06	-1.431069e-09	-1.984704e+01	-9.944873e+01
7.000000e-08	-2.506527e-06	-1.555898e-09	-1.984270e+01	-9.944790e+01
8.000000e-08	-2.505889e-06	-1.502961e-09	-1.983764e+01	-9.944444e+01
9.000000e-08	-2.505051e-06	-1.442710e-09	-1.983101e+01	-9.943792e+01
1.000000e-07	-2.503891e-06	-1.482075e-09	-1.982183e+01	-9.942779e+01
1.100000e-07	-2.502321e-06	-1.478595e-09	-1.980940e+01	-9.941346e+01
1.200000e-07	-2.500467e-06	-1.392178e-09	-1.979472e+01	-9.939426e+01
1.300000e-07	-2.498382e-06	-1.429099e-09	-1.977821e+01	-9.936945e+01
1.400000e-07	-2.495979e-06	-1.439630e-09	-1.975920e+01	-9.933828e+01
1.500000e-07	-2.493301e-06	-1.419839e-09	-1.973799e+01	-9.929996e+01
1.600000e-07	-2.490289e-06	-1.501073e-09	-1.971415e+01	-9.925372e+01
1.700000e-07	-2.487024e-06	-1.522369e-09	-1.968830e+01	-9.919878e+01
1.800000e-07	-2.483623e-06	-1.463082e-09	-1.966138e+01	-9.913441e+01
1.900000e-07	-2.480082e-06	-1.406295e-09	-1.963335e+01	-9.905993e+01
2.000000e-07	-2.476408e-06	-1.507655e-09	-1.960426e+01	-9.897471e+01
2.100000e-07	-2.472608e-06	-1.566527e-09	-1.957418e+01	-9.887821e+01
2.200000e-07	-2.468719e-06	-1.509474e-09	-1.954339e+01	-9.876998e+01
2.300000e-07	-2.464769e-06	-1.388174e-09	-1.951212e+01	-9.864968e+01
2.400000e-07	-2.460772e-06	-1.452617e-09	-1.948048e+01	-9.851707e+01
2.500000e-07	-2.456655e-06	-1.572623e-09	-1.944788e+01	-9.837202e+01
2.600000e-07	-2.452351e-06	-1.553340e-09	-1.941381e+01	-9.821454e+01
2.700000e-07	-2.447972e-06	-1.427876e-09	-1.937915e+01	-9.804476e+01
2.800000e-07	-2.443392e-06	-1.408525e-09	-1.934290e+01	-9.786291e+01
2.900000e-07	-2.438577e-06	-1.494019e-09	-1.930478e+01	-9.766936e+01
3.000000e-07	-2.433626e-06	-1.566522e-09	-1.926558e+01	-9.746457e+01
3.100000e-07	-2.428472e-06	-1.518406e-09	-1.922478e+01	-9.724911e+01
3.200000e-07	-2.423079e-06	-1.403984e-09	-1.918208e+01	-9.702364e+01
3.300000e-07	-2.417555e-06	-1.395674e-09	-1.913835e+01	-9.678891e+01
3.400000e-07	-2.411952e-06	-1.524012e-09	-1.909400e+01	-9.654570e+01
3.500000e-07	-2.406154e-06	-1.578074e-09	-1.904810e+01	-9.629488e+01
3.600000e-07	-2.400140e-06	-1.441560e-09	-1.900049e+01	-9.603731e+01
3.700000e-07	-2.393984e-06	-1.328525e-09	-1.895176e+01	-9.577390e+01
3.800000e-07	-2.387665e-06	-1.436927e-09	-1.890173e+01	-9.550554e+01
3.900000e-07	-2.381219e-06	-1.589382e-09	-1.885070e+01	-9.523311e+01
4.000000e-07	-2.374728e-06	-1.519527e-09	-1.879932e+01	-9.495744e+01
4.100000e-07	-2.367930e-06	-1.349401e-09	-1.874550e+01	-9.467933e+01
4.200000e-07	-2.360882e-06	-1.363882e-09	-1.868971e+01	-9.439950e+01
4.300000e-07	-2.353752e-06	-1.522795e-09	-1.863326e+01	-9.411860e+01
4.400000e-07	-2.346397e-06	-1.545472e-09	-1.857504e+01	-9.383720e+01
4.500000e-07	-2.338878e-06	-1.404748e-09	-1.851552e+01	-9.355576e+01
4.600000e-07	-2.331274e-06	-1.333961e-09	-1.845532e+01	-9.327462e+01
4.700000e-07	-2.323579e-06	-1.428929e-09	-1.839440e+01	-9.299405e+01
4.800000e-07	-2.315800e-06	-1.505306e-09	-1.833282e+01	-9.271418e+01
4.900000e-07	-2.307959e-06	-1.442543e-09	-1.827075e+01	-9.243503e+01
5.000000e-07	-2.299960e-06	-1.349503e-09	-1.820742e+01	-9.215650e+01
5.100000e-07	-2.291778e-06	-1.367763e-09	-1.814265e+01	-9.187839e+01
5.200000e-07	-2.283521e-06	-1.439608e-09	-1.807729e+01	-9.160041e+01
5.300000e-07	-2.275115e-06	-1.446832e-09	-1.801074e+01	-9.132214e+01
5.400000e-07	-2.266418e-06	-1.385750e-09	-1.794189e+01	-9.104310e+01
5.500000e-07	-2.257463e-06	-1.352434e-09	-1.787100e+01	-9.076271e+01
5.600000e-07	-2.248383e-06	-1.378345e-09	-1.779912e+01	-9.048035e+01
5.700000e-07	-2.239086e-06	-1.419211e-09	-1.772553e+01	-9.019532e+01
5.800000e-07	-2.229538e-06	-1.408376e-09	-1.764994e+01	-8.990689e+01
5.900000e-07	-2.219750e-06	-1.354913e-09	-1.757245e+01	-8.961429e+01
6.000000e-07	-2.209674e-06	-1.331216e-09	-1.749269e+01	-8.931676e+01
6.100000e-07	-2.199366e-06	-1.372776e-09	-1.741109e+01	-8.901351e+01
6.200000e-07	-2.188843e-06	-1.400025e-09	-1.732778e+01	-8.870379e+01
6.300000e-07	-2.178033e-06	-1.354428e-09	-1.724220e+01	-8.838684e+01
6.400000e-07	-2.166977e-06	-1.305333e-09	-1.715468e+01	-8.806196e+01
6.500000e-07	-2.155725e-06	-1.330067e-09	-1.706560e+01	-8.772850e+01
6.600000e-07	-2.144310e-06	-1.369423e-09	-1.697524e+01	-8.738586e+01
6.700000e-07	-2.132762e-06	-1.342513e-09	-1.688382e+01	-8.703349e+01
6.800000e-07	-2.121006e-06	-1.299659e-09	-1.679076e+01	-8.667094e+01
6.900000e-07	-2.109065e-06	-1.312326e-09	-1.669622e+01	-8.629782e+01
7.000000e-07	-2.097029e-06	-1.336678e-09	-1.660094e+01	-8.591383e+01
7.100000e-07	-2.084850e-06	-1.318582e-09	-1.650452e+01	-8.551876e+01
7.200000e-07	-2.072572e-06	-1.297066e-09	-1.640733e+01	-8.511249e+01
7.300000e-07	-2.060164e-06	-1.301516e-09	-1.630910e+01	-8.469497e+01
7.400000e-07	-2.047498e-06	-1.301449e-09	-1.620883e+01	-8.426627e+01
7.500000e-07	-2.034717e-06	-1.281895e-09	-1.610765e+01	-8.382651e+01
7.600000e-07	-2.021848e-06	-1.275481e-09	-1.600578e+01	-8.337592e+01
7.700000e-07	-2.008789e-06	-1.278491e-09	-1.590240e+01	-8.291479e+01
7.800000e-07	-1.995521e-06	-1.269443e-09	-1.579737e+01	-8.244350e+01
7.900000e-07	-1.982034e-06	-1.256186e-09	-1.569059e+01	-8.196249e+01
8.000000e-07	-1.968410e-06	-1.252660e-09	-1.558274e+01	-8.147224e+01
8.100000e-07	-1.954729e-06	-1.248584e-09	-1.547444e+01	-8.097329e+01
8.200000e-07	-1.940827e-06	-1.243157e-09	-1.536438e+01	-8.046625e+01
8.300000e-07	-1.926731e-06	-1.238618e-09	-1.525280e+01	-7.995171e+01
8.400000e-07	-1.912532e-06	-1.228445e-09	-1.514038e+01	-7.943034e+01
8.500000e-07	-1.898179e-06	-1.210471e-09	-1.502676e+01	-7.890278e+01
8.600000e-07	-1.883741e-06	-1.205585e-09	-1.491247e+01	-7.836970e+01
8.700000e-07	-1.869201e-06	-1.211197e-09	-1.479736e+01	-7.783175e+01
8.800000e-07	-1.854388e-06	-1.201114e-09	-1.468009e+01	-7.728959e+01
8.900000e-07	-1.839397e-06	-1.176821e-09	-1.456142e+01	-7.674384e+01
9.000000e-07	-1.824387e-06	-1.165774e-09	-1.444259e+01	-7.619510e+01
9.100000e-07	-1.809240e-06	-1.170124e-09	-1.432268e+01	-7.564392e+01
9.200000e-07	-1.793833e-06	-1.166229e-09	-1.420072e+01	-7.509081e+01
9.300000e-07	-1.778069e-06	-1.144609e-09	-1.407593e+01	-7.453624e+01
9.400000e-07	-1.762152e-06	-1.125155e-09	-1.394992e+01	-7.398060e+01
9.500000e-07	-1.746183e-06	-1.124667e-09	-1.382350e+01	-7.342425e+01
9.600000e-07	-1.729909e-06	-1.126202e-09	-1.369467e+01	-7.286744e+01
9.700000e-07	-1.713369e-06	-1.113935e-09	-1.356373e+01	-7.231040e+01
9.800000e-07	-1.696728e-06	-1.097549e-09	-1.343199e+01	-7.175325e+01
9.900000e-07	-1.679997e-06	-1.091351e-09	-1.329954e+01	-7.119604e+01
1.000000e-06	-1.663107e-06	-1.089515e-09	-1.316584e+01	-7.063877e+01
1.010000e-06	-1.646168e-06	-1.082596e-09	-1.303174e+01	-7.008135e+01
1.020000e-06	-1.629193e-06	-1.074062e-09	-1.289736e+01	-6.952362e+01
1.030000e-06	-1.611982e-06	-1.067750e-09	-1.276111e+01	-6.896536e+01
1.040000e-06	-1.594690e-06	-1.060594e-09	-1.262422e+01	-6.840627e+01
1.050000e-06	-1.577372e-06	-1.052498e-09	-1.248712e+01	-6.784601e+01
1.060000e-06	-1.559921e-06	-1.045947e-09	-1.234897e+01	-6.728419e+01
1.070000e-06	-1.542411e-06	-1.040889e-09	-1.221036e+01	-6.672035e+01
1.080000e-06	-1.524861e-06	-1.033686e-09	-1.207143e+01	-6.615401e+01
1.090000e-06	-1.507251e-06	-1.025395e-09	-1.193201e+01	-6.558466e+01
1.100000e-06	-1.489588e-06	-1.016551e-09	-1.179219e+01	-6.501176e+01
1.110000e-06	-1.471947e-06	-1.009105e-09	-1.165254e+01	-6.443476e+01
1.120000e-06	-1.454262e-06	-1.000802e-09	-1.151253e+01	-6.385311e+01
1.130000e-06	-1.436456e-06	-9.901271e-10	-1.137158e+01	-6.326626e+01
1.140000e-06	-1.418585e-06	-9.793890e-10	-1.123010e+01	-6.267369e+01
1.150000e-06	-1.400635e-06	-9.674721e-10	-1.108800e+01	-6.207489e+01
1.160000e-06	-1.382547e-06	-9.599082e-10	-1.094481e+01	-6.146939e+01
1.170000e-06	-1.364375e-06	-9.541376e-10	-1.080095e+01	-6.085675e+01
1.180000e-06	-1.346091e-06	-9.419563e-10	-1.065621e+01	-6.023661e+01
1.190000e-06	-1.327688e-06	-9.280542e-10	-1.051052e+01	-5.960863e+01
1.200000e-06	-1.309167e-06	-9.175027e-10	-1.036390e+01	-5.897255e+01
1.210000e-06	-1.290464e-06	-9.097974e-10	-1.021584e+01	-5.832819e+01
1.220000e-06	-1.271641e-06	-9.003517e-10	-1.006683e+01	-5.767542e+01
1.230000e-06	-1.252711e-06	-8.868887e-10	-9.916974e+00	-5.701420e+01
1.240000e-06	-1.233657e-06	-8.723946e-10	-9.766134e+00	-5.634454e+01
1.250000e-06	-1.214449e-06	-8.639843e-10	-9.614079e+00	-5.566654e+01
1.260000e-06	-1.195181e-06	-8.560950e-10	-9.461546e+00	-5.498039e+01
1.270000e-06	-1.175887e-06	-8.444967e-10	-9.308800e+00	-5.428632e+01
1.280000e-06	-1.156483e-06	-8.323416e-10	-9.155192e+00	-5.358465e+01
1.290000e-06	-1.137002e-06	-8.231653e-10	-9.000973e+00	-5.287573e+01
1.300000e-06	-1.117453e-06	-8.146183e-10	-8.846212e+00	-5.216000e+01
1.310000e-06	-1.097893e-06	-8.037952e-10	-8.691367e+00	-5.143792e+01
1.320000e-06	-1.078290e-06	-7.939145e-10	-8.536184e+00	-5.071001e+01
1.330000e-06	-1.058625e-06	-7.845866e-10	-8.380506e+00	-4.997680e+01
1.340000e-06	-1.038874e-06	-7.727762e-10	-8.224149e+00	-4.923885e+01
1.350000e-06	-1.019075e-06	-7.587729e-10	-8.067413e+00	-4.849674e+01
1.360000e-06	-9.993266e-07	-7.464457e-10	-7.911079e+00	-4.775104e+01
1.370000e-06	-9.795563e-07	-7.372935e-10	-7.754569e+00	-4.700231e+01
1.380000e-06	-9.597327e-07	-7.268280e-10	-7.597637e+00	-4.625111e+01
1.390000e-06	-9.398346e-07	-7.134627e-10	-7.440116e+00	-4.549796e+01
1.400000e-06	-9.199398e-07	-7.036467e-10	-7.282620e+00	-4.474335e+01
1.410000e-06	-9.000816e-07	-6.952443e-10	-7.125415e+00	-4.398774e+01
1.420000e-06	-8.801768e-07	-6.848364e-10	-6.967840e+00	-4.323152e+01
1.430000e-06	-8.602286e-07	-6.704031e-10	-6.809922e+00	-4.247505e+01
1.440000e-06	-8.402918e-07	-6.571464e-10	-6.652095e+00	-4.171864e+01
1.450000e-06	-8.203347e-07	-6.458224e-10	-6.494106e+00	-4.096251e+01
1.460000e-06	-8.003188e-07	-6.403595e-10	-6.335652e+00	-4.020685e+01
1.470000e-06	-7.802641e-07	-6.355808e-10	-6.176890e+00	-3.945177e+01
1.480000e-06	-7.601887e-07	-6.247972e-10	-6.017965e+00	-3.869735e+01
1.490000e-06	-7.400912e-07	-6.131137e-10	-5.858865e+00	-3.794358e+01
1.500000e-06	-7.199487e-07	-6.030114e-10	-5.699409e+00	-3.719042e+01
1.510000e-06	-6.997646e-07	-5.915822e-10	-5.539623e+00	-3.643776e+01
1.520000e-06	-6.794846e-07	-5.767898e-10	-5.379079e+00	-3.568546e+01
1.530000e-06	-6.592063e-07	-5.629872e-10	-5.218547e+00	-3.493335e+01
1.540000e-06	-6.389681e-07	-5.515594e-10	-5.058334e+00	-3.418119e+01
1.550000e-06	-6.185708e-07	-5.414922e-10	-4.896860e+00	-3.342876e+01
1.560000e-06	-5.980511e-07	-5.313468e-10	-4.734418e+00	-3.267579e+01
1.570000e-06	-5.775269e-07	-5.226329e-10	-4.571940e+00	-3.192201e+01
1.580000e-06	-5.569514e-07	-5.127575e-10	-4.409055e+00	-3.116713e+01
1.590000e-06	-5.363543e-07	-5.007871e-10	-4.246000e+00	-3.041089e+01
1.600000e-06	-5.157556e-07	-4.895913e-10	-4.082932e+00	-2.965301e+01
1.610000e-06	-4.950864e-07	-4.794083e-10	-3.919307e+00	-2.889323e+01
1.620000e-06	-4.743877e-07	-4.696094e-10	-3.755448e+00	-2.813130e+01
1.630000e-06	-4.536941e-07	-4.591195e-10	-3.591628e+00	-2.736699e+01
1.640000e-06	-4.330068e-07	-4.497391e-10	-3.427859e+00	-2.660012e+01
1.650000e-06	-4.122148e-07	-4.412655e-10	-3.263261e+00	-2.583049e+01
1.660000e-06	-3.913159e-07	-4.289327e-10	-3.097817e+00	-2.505796e+01
1.670000e-06	-3.703913e-07	-4.150287e-10	-2.932169e+00	-2.428240e+01
1.680000e-06	-3.495069e-07	-4.050846e-10	-2.766839e+00	-2.350372e+01
1.690000e-06	-3.285954e-07	-3.966333e-10	-2.601296e+00	-2.272184e+01
1.700000e-06	-3.076800e-07	-3.819428e-10	-2.435721e+00	-2.193672e+01
1.710000e-06	-2.867938e-07	-3.633344e-10	-2.270377e+00	-2.114832e+01
1.720000e-06	-2.657585e-07	-3.490490e-10	-2.103853e+00	-2.035664e+01
1.730000e-06	-2.446072e-07	-3.400307e-10	-1.936411e+00	-1.956167e+01
1.740000e-06	-2.234547e-07	-3.283931e-10	-1.768959e+00	-1.876344e+01
1.750000e-06	-2.023873e-07	-3.113677e-10	-1.602181e+00	-1.796196e+01
1.760000e-06	-1.813562e-07	-2.959458e-10	-1.435690e+00	-1.715727e+01
1.770000e-06	-1.602598e-07	-2.854177e-10	-1.268682e+00	-1.634939e+01
1.780000e-06	-1.390704e-07	-2.766110e-10	-1.100938e+00	-1.553835e+01
1.790000e-06	-1.179045e-07	-2.646965e-10	-9.333805e-01	-1.472418e+01
1.800000e-06	-9.669964e-08	-2.508055e-10	-7.655140e-01	-1.390690e+01
1.810000e-06	-7.545124e-08	-2.374198e-10	-5.973030e-01	-1.308653e+01
1.820000e-06	-5.427249e-08	-2.257559e-10	-4.296432e-01	-1.226306e+01
1.830000e-06	-3.312385e-08	-2.151510e-10	-2.622220e-01	-1.143651e+01
1.840000e-06	-1.197246e-08	-2.020654e-10	-9.477887e-02	-1.060685e+01
1.850000e-06	9.266917e-09	-1.862617e-10	7.336071e-02	-9.774081e+00
1.860000e-06	3.050551e-08	-1.733461e-10	2.414941e-01	-8.938186e+00
1.870000e-06	5.163609e-08	-1.659998e-10	4.087725e-01	-8.099145e+00
1.880000e-06	7.273865e-08	-1.571827e-10	5.758289e-01	-7.256942e+00
1.890000e-06	9.388694e-08	-1.427394e-10	7.432475e-01	-6.411564e+00
1.900000e-06	1.150122e-07	-1.271945e-10	9.104840e-01	-5.563007e+00
1.910000e-06	1.361187e-07	-1.130755e-10	1.077572e+00	-4.711275e+00
1.920000e-06	1.572083e-07	-9.897674e-11	1.244526e+00	-3.856389e+00
1.930000e-06	1.782600e-07	-8.355541e-11	1.411179e+00	-2.998383e+00
1.940000e-06	1.993186e-07	-6.713731e-11	1.577888e+00	-2.137315e+00
1.950000e-06	2.203876e-07	-5.403513e-11	1.744679e+00	-1.273261e+00
1.960000e-06	2.414978e-07	-4.307989e-11	1.911796e+00	-4.063239e-01
1.970000e-06	2.625694e-07	-3.133567e-11	2.078607e+00	4.633688e-01
1.980000e-06	2.835231e-07	-1.796489e-11	2.244485e+00	1.335664e+00
1.990000e-06	3.044643e-07	-3.979467e-12	2.410264e+00	2.210380e+00
2.000000e-06	3.254553e-07	1.032567e-11	2.576438e+00	3.087313e+00
2.010000e-06	3.464485e-07	2.499994e-11	2.742628e+00	3.966231e+00
2.020000e-06	3.673269e-07	4.008666e-11	2.907910e+00	4.846881e+00
2.030000e-06	3.881821e-07	5.540388e-11	3.073009e+00	5.728988e+00
2.040000e-06	4.089999e-07	6.905717e-11	3.237811e+00	6.612263e+00
2.050000e-06	4.296591e-07	8.219596e-11	3.401357e+00	7.496400e+00
2.060000e-06	4.502614e-07	9.370599e-11	3.564454e+00	8.381085e+00
2.070000e-06	4.708268e-07	1.056843e-10	3.727258e+00	9.265999e+00
2.080000e-06	4.914204e-07	1.202704e-10	3.890285e+00	1.015082e+01
2.090000e-06	5.120638e-07	1.363677e-10	4.053707e+00	1.103524e+01
2.100000e-06	5.326753e-07	1.510044e-10	4.216876e+00	1.191894e+01
2.110000e-06	5.531788e-07	1.636780e-10	4.379190e+00	1.280162e+01
2.120000e-06	5.735811e-07	1.762772e-10	4.540703e+00	1.368302e+01
2.130000e-06	5.939411e-07	1.900126e-10	4.701881e+00	1.456287e+01
2.140000e-06	6.142811e-07	2.058568e-10	4.862901e+00	1.544093e+01
2.150000e-06	6.345975e-07	2.209683e-10	5.023734e+00	1.631700e+01
2.160000e-06	6.548835e-07	2.321435e-10	5.184326e+00	1.719090e+01
2.170000e-06	6.751614e-07	2.422014e-10	5.344854e+00	1.806247e+01
2.180000e-06	6.954052e-07	2.573455e-10	5.505112e+00	1.893160e+01
2.190000e-06	7.155344e-07	2.727287e-10	5.664463e+00	1.979819e+01
2.200000e-06	7.355930e-07	2.852695e-10	5.823256e+00	2.066218e+01
2.210000e-06	7.556192e-07	2.986192e-10	5.981791e+00	2.152355e+01
2.220000e-06	7.756504e-07	3.150591e-10	6.140366e+00	2.238227e+01
2.230000e-06	7.956821e-07	3.330070e-10	6.298945e+00	2.323837e+01
2.240000e-06	8.156908e-07	3.480469e-10	6.457343e+00	2.409188e+01
2.250000e-06	8.356924e-07	3.612916e-10	6.615683e+00	2.494286e+01
2.260000e-06	8.556593e-07	3.732683e-10	6.773750e+00	2.579138e+01
2.270000e-06	8.756271e-07	3.854917e-10	6.931823e+00	2.663751e+01
2.280000e-06	8.955784e-07	3.987534e-10	7.089765e+00	2.748134e+01
2.290000e-06	9.154928e-07	4.127577e-10	7.247416e+00	2.832294e+01
2.300000e-06	9.353482e-07	4.259889e-10	7.404599e+00	2.916242e+01
2.310000e-06	9.551303e-07	4.373897e-10	7.561203e+00	2.999984e+01
2.320000e-06	9.748905e-07	4.486354e-10	7.717633e+00	3.083529e+01
2.330000e-06	9.946571e-07	4.614661e-10	7.874113e+00	3.166882e+01
2.340000e-06	1.014436e-06	4.754302e-10	8.030694e+00	3.250048e+01
2.350000e-06	1.034218e-06	4.869471e-10	8.187290e+00	3.333032e+01
2.360000e-06	1.053964e-06	4.987007e-10	8.343607e+00	3.415836e+01
2.370000e-06	1.073665e-06	5.121503e-10	8.499576e+00	3.498460e+01
2.380000e-06	1.093290e-06	5.260483e-10	8.654931e+00	3.580904e+01
2.390000e-06	1.112781e-06	5.380843e-10	8.809228e+00	3.663166e+01
2.400000e-06	1.132236e-06	5.489294e-10	8.963243e+00	3.745242e+01
2.410000e-06	1.151663e-06	5.600925e-10	9.117036e+00	3.827127e+01
2.420000e-06	1.170969e-06	5.744105e-10	9.269867e+00	3.908816e+01
2.430000e-06	1.190204e-06	5.909427e-10	9.422142e+00	3.990300e+01
2.440000e-06	1.209368e-06	6.041890e-10	9.573855e+00	4.071573e+01
2.450000e-06	1.228416e-06	6.148673e-10	9.724642e+00	4.152626e+01
2.460000e-06	1.247408e-06	6.269433e-10	9.874990e+00	4.233450e+01
2.470000e-06	1.266311e-06	6.405456e-10	1.002464e+01	4.314035e+01
2.480000e-06	1.285060e-06	6.544409e-10	1.017306e+01	4.394374e+01
2.490000e-06	1.303709e-06	6.653000e-10	1.032070e+01	4.474456e+01
2.500000e-06	1.322268e-06	6.742213e-10	1.046761e+01	4.554272e+01
2.510000e-06	1.340684e-06	6.855908e-10	1.061340e+01	4.633814e+01
2.520000e-06	1.358964e-06	6.992949e-10	1.075812e+01	4.713072e+01
2.530000e-06	1.377048e-06	7.118621e-10	1.090128e+01	4.792040e+01
2.540000e-06	1.395047e-06	7.208008e-10	1.104376e+01	4.870708e+01
2.550000e-06	1.412985e-06	7.304001e-10	1.118577e+01	4.949068e+01
2.560000e-06	1.430783e-06	7.424337e-10	1.132666e+01	5.027113e+01
2.570000e-06	1.448523e-06	7.553554e-10	1.146710e+01	5.104835e+01
2.580000e-06	1.466166e-06	7.657725e-10	1.160677e+01	5.182227e+01
2.590000e-06	1.483726e-06	7.753226e-10	1.174579e+01	5.259278e+01
2.600000e-06	1.501256e-06	7.851395e-10	1.188456e+01	5.335982e+01
2.610000e-06	1.518763e-06	7.984623e-10	1.202315e+01	5.412329e+01
2.620000e-06	1.536155e-06	8.128868e-10	1.216083e+01	5.488309e+01
2.630000e-06	1.553378e-06	8.252321e-10	1.229718e+01	5.563912e+01
2.640000e-06	1.570511e-06	8.343674e-10	1.243281e+01	5.639126e+01
2.650000e-06	1.587615e-06	8.427912e-10	1.256821e+01	5.713939e+01
2.660000e-06	1.604624e-06	8.546285e-10	1.270286e+01	5.788337e+01
2.670000e-06	1.621721e-06	8.672107e-10	1.283821e+01	5.862308e+01
2.680000e-06	1.638735e-06	8.775507e-10	1.297289e+01	5.935836e+01
2.690000e-06	1.655450e-06	8.891747e-10	1.310522e+01	6.008905e+01
2.700000e-06	1.672195e-06	9.005214e-10	1.323778e+01	6.081500e+01
2.710000e-06	1.688858e-06	9.130428e-10	1.336969e+01	6.153604e+01
2.720000e-06	1.705344e-06	9.252787e-10	1.350020e+01	6.225201e+01
2.730000e-06	1.721755e-06	9.350872e-10	1.363012e+01	6.296273e+01
2.740000e-06	1.738003e-06	9.454038e-10	1.375874e+01	6.366804e+01
2.750000e-06	1.754104e-06	9.553802e-10	1.388620e+01	6.436779e+01
2.760000e-06	1.770053e-06	9.679253e-10	1.401246e+01	6.506182e+01
2.770000e-06	1.785761e-06	9.798406e-10	1.413682e+01	6.574998e+01
2.780000e-06	1.801134e-06	9.911637e-10	1.425851e+01	6.643216e+01
2.790000e-06	1.816248e-06	1.001842e-09	1.437816e+01	6.710821e+01
2.800000e-06	1.831305e-06	1.013434e-09	1.449736e+01	6.777806e+01
2.810000e-06	1.846175e-06	1.024568e-09	1.461508e+01	6.844159e+01
2.820000e-06	1.860763e-06	1.035924e-09	1.473056e+01	6.909875e+01
2.830000e-06	1.875242e-06	1.048452e-09	1.484518e+01	6.974948e+01
2.840000e-06	1.889619e-06	1.059851e-09	1.495900e+01	7.039374e+01
2.850000e-06	1.903926e-06	1.067843e-09	1.507226e+01	7.103151e+01
2.860000e-06	1.918170e-06	1.078270e-09	1.518502e+01	7.166277e+01
2.870000e-06	1.932127e-06	1.091518e-09	1.529551e+01	7.228753e+01
2.880000e-06	1.945903e-06	1.102244e-09	1.540457e+01	7.290579e+01
2.890000e-06	1.959536e-06	1.108831e-09	1.551249e+01	7.351759e+01
2.900000e-06	1.973030e-06	1.116798e-09	1.561931e+01	7.412293e+01
