# Temperatura_=_20.0
# Concentracion g/m^3_=_12600.0
# C_Vs_to_Am_M_A/Vsm_=_65563218390.804596
# pendiente_HvsI_1/m_=_3716.3
# ordenada_HvsI_A/m_=_1297.0
# frecuencia_Hz_=_134895.25515782885

Tiempo_(s)	Campo_(V.s)	Magnetizacion_(V.s)	Campo_(kA/m)	Magnetizacion_(A/m)
0.000000e+00	-2.504923e-06	-1.449032e-09	-1.983288e+01	-9.559629e+01
1.000000e-08	-2.505172e-06	-1.443297e-09	-1.983485e+01	-9.554928e+01
2.000000e-08	-2.505265e-06	-1.443445e-09	-1.983559e+01	-9.548790e+01
3.000000e-08	-2.505274e-06	-1.458928e-09	-1.983565e+01	-9.541192e+01
4.000000e-08	-2.505207e-06	-1.488730e-09	-1.983513e+01	-9.532126e+01
5.000000e-08	-2.505057e-06	-1.481712e-09	-1.983394e+01	-9.521595e+01
6.000000e-08	-2.504828e-06	-1.403147e-09	-1.983213e+01	-9.509614e+01
7.000000e-08	-2.504429e-06	-1.409214e-09	-1.982897e+01	-9.496212e+01
8.000000e-08	-2.503781e-06	-1.441546e-09	-1.982383e+01	-9.481429e+01
9.000000e-08	-2.502922e-06	-1.520021e-09	-1.981703e+01	-9.465322e+01
1.000000e-07	-2.501933e-06	-1.522467e-09	-1.980920e+01	-9.447956e+01
1.100000e-07	-2.500758e-06	-1.439960e-09	-1.979990e+01	-9.429409e+01
1.200000e-07	-2.499239e-06	-1.395277e-09	-1.978787e+01	-9.409771e+01
1.300000e-07	-2.497364e-06	-1.396149e-09	-1.977303e+01	-9.389139e+01
1.400000e-07	-2.495178e-06	-1.450459e-09	-1.975572e+01	-9.367617e+01
1.500000e-07	-2.492665e-06	-1.437040e-09	-1.973582e+01	-9.345317e+01
1.600000e-07	-2.489892e-06	-1.410418e-09	-1.971387e+01	-9.322353e+01
1.700000e-07	-2.486852e-06	-1.408911e-09	-1.968980e+01	-9.298842e+01
1.800000e-07	-2.483562e-06	-1.499795e-09	-1.966375e+01	-9.274901e+01
1.900000e-07	-2.480064e-06	-1.447777e-09	-1.963605e+01	-9.250643e+01
2.000000e-07	-2.476388e-06	-1.353076e-09	-1.960695e+01	-9.226181e+01
2.100000e-07	-2.472598e-06	-1.355902e-09	-1.957694e+01	-9.201618e+01
2.200000e-07	-2.468706e-06	-1.465617e-09	-1.954613e+01	-9.177052e+01
2.300000e-07	-2.464738e-06	-1.464594e-09	-1.951471e+01	-9.152571e+01
2.400000e-07	-2.460681e-06	-1.351062e-09	-1.948259e+01	-9.128254e+01
2.500000e-07	-2.456537e-06	-1.293733e-09	-1.944978e+01	-9.104168e+01
2.600000e-07	-2.452338e-06	-1.349003e-09	-1.941653e+01	-9.080366e+01
2.700000e-07	-2.447988e-06	-1.432103e-09	-1.938209e+01	-9.056891e+01
2.800000e-07	-2.443430e-06	-1.384194e-09	-1.934600e+01	-9.033772e+01
2.900000e-07	-2.438687e-06	-1.298717e-09	-1.930845e+01	-9.011023e+01
3.000000e-07	-2.433768e-06	-1.281124e-09	-1.926950e+01	-8.988647e+01
3.100000e-07	-2.428694e-06	-1.376535e-09	-1.922933e+01	-8.966636e+01
3.200000e-07	-2.423484e-06	-1.414829e-09	-1.918808e+01	-8.944968e+01
3.300000e-07	-2.418134e-06	-1.340698e-09	-1.914572e+01	-8.923611e+01
3.400000e-07	-2.412500e-06	-1.251423e-09	-1.910111e+01	-8.902525e+01
3.500000e-07	-2.406646e-06	-1.311723e-09	-1.905476e+01	-8.881661e+01
3.600000e-07	-2.400665e-06	-1.404452e-09	-1.900741e+01	-8.860962e+01
3.700000e-07	-2.394561e-06	-1.374303e-09	-1.895908e+01	-8.840369e+01
3.800000e-07	-2.388345e-06	-1.266691e-09	-1.890987e+01	-8.819816e+01
3.900000e-07	-2.381903e-06	-1.276640e-09	-1.885886e+01	-8.799237e+01
4.000000e-07	-2.375281e-06	-1.372222e-09	-1.880643e+01	-8.778563e+01
4.100000e-07	-2.368533e-06	-1.380795e-09	-1.875300e+01	-8.757727e+01
4.200000e-07	-2.361629e-06	-1.287814e-09	-1.869834e+01	-8.736664e+01
4.300000e-07	-2.354571e-06	-1.259437e-09	-1.864246e+01	-8.715311e+01
4.400000e-07	-2.347290e-06	-1.325902e-09	-1.858481e+01	-8.693608e+01
4.500000e-07	-2.339823e-06	-1.352060e-09	-1.852569e+01	-8.671500e+01
4.600000e-07	-2.332251e-06	-1.291400e-09	-1.846573e+01	-8.648938e+01
4.700000e-07	-2.324535e-06	-1.255850e-09	-1.840464e+01	-8.625877e+01
4.800000e-07	-2.316660e-06	-1.295456e-09	-1.834229e+01	-8.602277e+01
4.900000e-07	-2.308691e-06	-1.324404e-09	-1.827920e+01	-8.578104e+01
5.000000e-07	-2.300675e-06	-1.294650e-09	-1.821573e+01	-8.553329e+01
5.100000e-07	-2.292529e-06	-1.263961e-09	-1.815123e+01	-8.527928e+01
5.200000e-07	-2.284295e-06	-1.275123e-09	-1.808604e+01	-8.501882e+01
5.300000e-07	-2.276019e-06	-1.292014e-09	-1.802052e+01	-8.475174e+01
5.400000e-07	-2.267619e-06	-1.283192e-09	-1.795401e+01	-8.447791e+01
5.500000e-07	-2.258999e-06	-1.265598e-09	-1.788575e+01	-8.419724e+01
5.600000e-07	-2.250130e-06	-1.261455e-09	-1.781553e+01	-8.390964e+01
5.700000e-07	-2.241129e-06	-1.264419e-09	-1.774428e+01	-8.361504e+01
5.800000e-07	-2.231894e-06	-1.270565e-09	-1.767116e+01	-8.331338e+01
5.900000e-07	-2.222364e-06	-1.266866e-09	-1.759570e+01	-8.300459e+01
6.000000e-07	-2.212686e-06	-1.248100e-09	-1.751908e+01	-8.268861e+01
6.100000e-07	-2.202739e-06	-1.234054e-09	-1.744032e+01	-8.236538e+01
6.200000e-07	-2.192461e-06	-1.248744e-09	-1.735894e+01	-8.203482e+01
6.300000e-07	-2.181899e-06	-1.261305e-09	-1.727531e+01	-8.169685e+01
6.400000e-07	-2.171095e-06	-1.239327e-09	-1.718977e+01	-8.135139e+01
6.500000e-07	-2.160066e-06	-1.206243e-09	-1.710245e+01	-8.099836e+01
6.600000e-07	-2.148747e-06	-1.209921e-09	-1.701283e+01	-8.063767e+01
6.700000e-07	-2.137176e-06	-1.228783e-09	-1.692122e+01	-8.026925e+01
6.800000e-07	-2.125482e-06	-1.221799e-09	-1.682863e+01	-7.989303e+01
6.900000e-07	-2.113733e-06	-1.196050e-09	-1.673560e+01	-7.950897e+01
7.000000e-07	-2.101814e-06	-1.192185e-09	-1.664124e+01	-7.911704e+01
7.100000e-07	-2.089745e-06	-1.202528e-09	-1.654568e+01	-7.871727e+01
7.200000e-07	-2.077539e-06	-1.200395e-09	-1.644904e+01	-7.830970e+01
7.300000e-07	-2.065163e-06	-1.185249e-09	-1.635105e+01	-7.789443e+01
7.400000e-07	-2.052618e-06	-1.172653e-09	-1.625173e+01	-7.747159e+01
7.500000e-07	-2.039940e-06	-1.161112e-09	-1.615135e+01	-7.704138e+01
7.600000e-07	-2.027148e-06	-1.156717e-09	-1.605007e+01	-7.660406e+01
7.700000e-07	-2.014150e-06	-1.161839e-09	-1.594715e+01	-7.615992e+01
7.800000e-07	-2.000969e-06	-1.158319e-09	-1.584279e+01	-7.570933e+01
7.900000e-07	-1.987671e-06	-1.138727e-09	-1.573750e+01	-7.525270e+01
8.000000e-07	-1.974227e-06	-1.129097e-09	-1.563106e+01	-7.479050e+01
8.100000e-07	-1.960570e-06	-1.138930e-09	-1.552293e+01	-7.432323e+01
8.200000e-07	-1.946794e-06	-1.140668e-09	-1.541385e+01	-7.385143e+01
8.300000e-07	-1.932950e-06	-1.120662e-09	-1.530425e+01	-7.337566e+01
8.400000e-07	-1.918928e-06	-1.102923e-09	-1.519322e+01	-7.289652e+01
8.500000e-07	-1.904749e-06	-1.103300e-09	-1.508097e+01	-7.241457e+01
8.600000e-07	-1.890329e-06	-1.103202e-09	-1.496679e+01	-7.193041e+01
8.700000e-07	-1.875736e-06	-1.091625e-09	-1.485125e+01	-7.144459e+01
8.800000e-07	-1.861115e-06	-1.077894e-09	-1.473549e+01	-7.095762e+01
8.900000e-07	-1.846355e-06	-1.070286e-09	-1.461863e+01	-7.046999e+01
9.000000e-07	-1.831373e-06	-1.064219e-09	-1.450001e+01	-6.998211e+01
9.100000e-07	-1.816200e-06	-1.058844e-09	-1.437987e+01	-6.949433e+01
9.200000e-07	-1.800783e-06	-1.053329e-09	-1.425781e+01	-6.900692e+01
9.300000e-07	-1.785089e-06	-1.043823e-09	-1.413354e+01	-6.852005e+01
9.400000e-07	-1.769333e-06	-1.030872e-09	-1.400880e+01	-6.803383e+01
9.500000e-07	-1.753482e-06	-1.024575e-09	-1.388330e+01	-6.754825e+01
9.600000e-07	-1.737392e-06	-1.021957e-09	-1.375591e+01	-6.706319e+01
9.700000e-07	-1.721030e-06	-1.013124e-09	-1.362635e+01	-6.657845e+01
9.800000e-07	-1.704537e-06	-9.984924e-10	-1.349577e+01	-6.609374e+01
9.900000e-07	-1.688024e-06	-9.902111e-10	-1.336503e+01	-6.560866e+01
1.000000e-06	-1.671391e-06	-9.889210e-10	-1.323334e+01	-6.512275e+01
1.010000e-06	-1.654528e-06	-9.840593e-10	-1.309983e+01	-6.463547e+01
1.020000e-06	-1.637508e-06	-9.732767e-10	-1.296507e+01	-6.414622e+01
1.030000e-06	-1.620403e-06	-9.642507e-10	-1.282964e+01	-6.365434e+01
1.040000e-06	-1.603198e-06	-9.593284e-10	-1.269342e+01	-6.315915e+01
1.050000e-06	-1.585900e-06	-9.549466e-10	-1.255646e+01	-6.265996e+01
1.060000e-06	-1.568539e-06	-9.464487e-10	-1.241900e+01	-6.215606e+01
1.070000e-06	-1.551132e-06	-9.376397e-10	-1.228118e+01	-6.164676e+01
1.080000e-06	-1.533621e-06	-9.324906e-10	-1.214254e+01	-6.113141e+01
1.090000e-06	-1.516055e-06	-9.292556e-10	-1.200346e+01	-6.060938e+01
1.100000e-06	-1.498401e-06	-9.246093e-10	-1.186367e+01	-6.008012e+01
1.110000e-06	-1.480678e-06	-9.174008e-10	-1.172336e+01	-5.954314e+01
1.120000e-06	-1.462917e-06	-9.076989e-10	-1.158273e+01	-5.899801e+01
1.130000e-06	-1.445073e-06	-8.981948e-10	-1.144145e+01	-5.844442e+01
1.140000e-06	-1.427152e-06	-8.913397e-10	-1.129956e+01	-5.788212e+01
1.150000e-06	-1.409178e-06	-8.813590e-10	-1.115725e+01	-5.731097e+01
1.160000e-06	-1.391120e-06	-8.702760e-10	-1.101428e+01	-5.673093e+01
1.170000e-06	-1.372968e-06	-8.628728e-10	-1.087056e+01	-5.614203e+01
1.180000e-06	-1.354718e-06	-8.588862e-10	-1.072606e+01	-5.554442e+01
1.190000e-06	-1.336408e-06	-8.529111e-10	-1.058109e+01	-5.493830e+01
1.200000e-06	-1.317971e-06	-8.421506e-10	-1.043511e+01	-5.432399e+01
1.210000e-06	-1.299330e-06	-8.320503e-10	-1.028752e+01	-5.370182e+01
1.220000e-06	-1.280579e-06	-8.240538e-10	-1.013906e+01	-5.307222e+01
1.230000e-06	-1.261759e-06	-8.138100e-10	-9.990054e+00	-5.243563e+01
1.240000e-06	-1.242863e-06	-8.009361e-10	-9.840439e+00	-5.179254e+01
1.250000e-06	-1.223862e-06	-7.888201e-10	-9.689997e+00	-5.114343e+01
1.260000e-06	-1.204755e-06	-7.797465e-10	-9.538717e+00	-5.048881e+01
1.270000e-06	-1.185519e-06	-7.726090e-10	-9.386420e+00	-4.982915e+01
1.280000e-06	-1.166158e-06	-7.651499e-10	-9.233122e+00	-4.916493e+01
1.290000e-06	-1.146742e-06	-7.567642e-10	-9.079396e+00	-4.849656e+01
1.300000e-06	-1.127230e-06	-7.494564e-10	-8.924909e+00	-4.782444e+01
1.310000e-06	-1.107612e-06	-7.420738e-10	-8.769582e+00	-4.714891e+01
1.320000e-06	-1.087932e-06	-7.332538e-10	-8.613767e+00	-4.647025e+01
1.330000e-06	-1.068163e-06	-7.234172e-10	-8.457243e+00	-4.578869e+01
1.340000e-06	-1.048360e-06	-7.115134e-10	-8.300452e+00	-4.510441e+01
1.350000e-06	-1.028573e-06	-6.982089e-10	-8.143786e+00	-4.441753e+01
1.360000e-06	-1.008739e-06	-6.851865e-10	-7.986749e+00	-4.372812e+01
1.370000e-06	-9.888233e-07	-6.745572e-10	-7.829067e+00	-4.303619e+01
1.380000e-06	-9.688885e-07	-6.649200e-10	-7.671232e+00	-4.234174e+01
1.390000e-06	-9.489626e-07	-6.547434e-10	-7.513468e+00	-4.164471e+01
1.400000e-06	-9.290045e-07	-6.454651e-10	-7.355448e+00	-4.094505e+01
1.410000e-06	-9.089927e-07	-6.361748e-10	-7.197003e+00	-4.024268e+01
1.420000e-06	-8.889790e-07	-6.261667e-10	-7.038544e+00	-3.953752e+01
1.430000e-06	-8.689785e-07	-6.149980e-10	-6.880189e+00	-3.882951e+01
1.440000e-06	-8.489498e-07	-6.039322e-10	-6.721610e+00	-3.811862e+01
1.450000e-06	-8.288766e-07	-5.923153e-10	-6.562680e+00	-3.740482e+01
1.460000e-06	-8.087297e-07	-5.815623e-10	-6.403166e+00	-3.668816e+01
1.470000e-06	-7.885762e-07	-5.740363e-10	-6.243599e+00	-3.596870e+01
1.480000e-06	-7.684652e-07	-5.674061e-10	-6.084369e+00	-3.524656e+01
1.490000e-06	-7.483466e-07	-5.589395e-10	-5.925079e+00	-3.452193e+01
1.500000e-06	-7.281896e-07	-5.484519e-10	-5.765485e+00	-3.379503e+01
1.510000e-06	-7.079840e-07	-5.363299e-10	-5.605505e+00	-3.306613e+01
1.520000e-06	-6.877600e-07	-5.231096e-10	-5.445380e+00	-3.233558e+01
1.530000e-06	-6.675057e-07	-5.096700e-10	-5.285016e+00	-3.160373e+01
1.540000e-06	-6.472047e-07	-4.958899e-10	-5.124281e+00	-3.087098e+01
1.550000e-06	-6.268612e-07	-4.819429e-10	-4.963211e+00	-3.013776e+01
1.560000e-06	-6.064516e-07	-4.684864e-10	-4.801616e+00	-2.940450e+01
1.570000e-06	-5.860105e-07	-4.573338e-10	-4.639773e+00	-2.867162e+01
1.580000e-06	-5.655418e-07	-4.479662e-10	-4.477711e+00	-2.793955e+01
1.590000e-06	-5.450595e-07	-4.396007e-10	-4.315541e+00	-2.720868e+01
1.600000e-06	-5.245090e-07	-4.298308e-10	-4.152831e+00	-2.647933e+01
1.610000e-06	-5.038820e-07	-4.174343e-10	-3.989516e+00	-2.575181e+01
1.620000e-06	-4.832348e-07	-4.059451e-10	-3.826040e+00	-2.502633e+01
1.630000e-06	-4.626297e-07	-3.975267e-10	-3.662898e+00	-2.430302e+01
1.640000e-06	-4.420516e-07	-3.884437e-10	-3.499970e+00	-2.358193e+01
1.650000e-06	-4.214038e-07	-3.779711e-10	-3.336490e+00	-2.286302e+01
1.660000e-06	-4.007074e-07	-3.664760e-10	-3.172624e+00	-2.214613e+01
1.670000e-06	-3.798994e-07	-3.551506e-10	-3.007876e+00	-2.143101e+01
1.680000e-06	-3.589941e-07	-3.461299e-10	-2.842357e+00	-2.071731e+01
1.690000e-06	-3.381055e-07	-3.375668e-10	-2.676970e+00	-2.000455e+01
1.700000e-06	-3.171592e-07	-3.262995e-10	-2.511127e+00	-1.929219e+01
1.710000e-06	-2.961934e-07	-3.115404e-10	-2.345129e+00	-1.857960e+01
1.720000e-06	-2.752486e-07	-2.980836e-10	-2.179297e+00	-1.786605e+01
1.730000e-06	-2.541921e-07	-2.877965e-10	-2.012581e+00	-1.715078e+01
1.740000e-06	-2.331137e-07	-2.766926e-10	-1.845691e+00	-1.643297e+01
1.750000e-06	-2.120391e-07	-2.634186e-10	-1.678832e+00	-1.571177e+01
1.760000e-06	-1.909163e-07	-2.501738e-10	-1.511591e+00	-1.498634e+01
1.770000e-06	-1.697666e-07	-2.390199e-10	-1.344137e+00	-1.425583e+01
1.780000e-06	-1.486097e-07	-2.301631e-10	-1.176626e+00	-1.351943e+01
1.790000e-06	-1.274812e-07	-2.206197e-10	-1.009340e+00	-1.277637e+01
1.800000e-06	-1.063202e-07	-2.084674e-10	-8.417963e-01	-1.202596e+01
1.810000e-06	-8.508156e-08	-1.960233e-10	-6.736383e-01	-1.126759e+01
1.820000e-06	-6.382737e-08	-1.854914e-10	-5.053570e-01	-1.050074e+01
1.830000e-06	-4.264813e-08	-1.761974e-10	-3.376691e-01	-9.725020e+00
1.840000e-06	-2.151220e-08	-1.642959e-10	-1.703241e-01	-8.940151e+00
1.850000e-06	-4.325553e-10	-1.483281e-10	-3.424782e-03	-8.145988e+00
1.860000e-06	2.057017e-08	-1.334719e-10	1.628656e-01	-7.342525e+00
1.870000e-06	4.159455e-08	-1.235215e-10	3.293273e-01	-6.529889e+00
1.880000e-06	6.268428e-08	-1.155783e-10	4.963065e-01	-5.708346e+00
1.890000e-06	8.382380e-08	-1.040283e-10	6.636799e-01	-4.878291e+00
1.900000e-06	1.049454e-07	-8.975072e-11	8.309114e-01	-4.040244e+00
1.910000e-06	1.259836e-07	-7.694138e-11	9.974827e-01	-3.194836e+00
1.920000e-06	1.470316e-07	-6.475093e-11	1.164132e+00	-2.342794e+00
1.930000e-06	1.681468e-07	-5.096029e-11	1.331312e+00	-1.484932e+00
1.940000e-06	1.891849e-07	-3.491410e-11	1.497883e+00	-6.221253e-01
1.950000e-06	2.102129e-07	-1.959126e-11	1.664373e+00	2.447022e-01
1.960000e-06	2.312946e-07	-7.065286e-12	1.831289e+00	1.114601e+00
1.970000e-06	2.523301e-07	4.734913e-12	1.997838e+00	1.986617e+00
1.980000e-06	2.733621e-07	1.697494e-11	2.164361e+00	2.859807e+00
1.990000e-06	2.943300e-07	3.084244e-11	2.330375e+00	3.733265e+00
2.000000e-06	3.152339e-07	4.455775e-11	2.495883e+00	4.606133e+00
2.010000e-06	3.360909e-07	5.654142e-11	2.661020e+00	5.477624e+00
2.020000e-06	3.568588e-07	6.942625e-11	2.825450e+00	6.347033e+00
2.030000e-06	3.777085e-07	8.351185e-11	2.990529e+00	7.213747e+00
2.040000e-06	3.985943e-07	9.755082e-11	3.155894e+00	8.077262e+00
2.050000e-06	4.193323e-07	1.114649e-10	3.320088e+00	8.937181e+00
2.060000e-06	4.399906e-07	1.251200e-10	3.483652e+00	9.793223e+00
2.070000e-06	4.606961e-07	1.383480e-10	3.647589e+00	1.064522e+01
2.080000e-06	4.814044e-07	1.507764e-10	3.811548e+00	1.149312e+01
2.090000e-06	5.020054e-07	1.643952e-10	3.974658e+00	1.233697e+01
2.100000e-06	5.225438e-07	1.788362e-10	4.137272e+00	1.317692e+01
2.110000e-06	5.431368e-07	1.915734e-10	4.300318e+00	1.401321e+01
2.120000e-06	5.636917e-07	2.034531e-10	4.463063e+00	1.484616e+01
2.130000e-06	5.841683e-07	2.166124e-10	4.625188e+00	1.567612e+01
2.140000e-06	6.046320e-07	2.317776e-10	4.787210e+00	1.650352e+01
2.150000e-06	6.250096e-07	2.468677e-10	4.948551e+00	1.732880e+01
2.160000e-06	6.452996e-07	2.602183e-10	5.109198e+00	1.815242e+01
2.170000e-06	6.655521e-07	2.717676e-10	5.269549e+00	1.897483e+01
2.180000e-06	6.857526e-07	2.846284e-10	5.429487e+00	1.979644e+01
2.190000e-06	7.059211e-07	2.989756e-10	5.589172e+00	2.061765e+01
2.200000e-06	7.260727e-07	3.123215e-10	5.748724e+00	2.143880e+01
2.210000e-06	7.461877e-07	3.253422e-10	5.907986e+00	2.226017e+01
2.220000e-06	7.662803e-07	3.378746e-10	6.067070e+00	2.308194e+01
2.230000e-06	7.863474e-07	3.513756e-10	6.225952e+00	2.390425e+01
2.240000e-06	8.063906e-07	3.658848e-10	6.384645e+00	2.472714e+01
2.250000e-06	8.264395e-07	3.789156e-10	6.543384e+00	2.555056e+01
2.260000e-06	8.464960e-07	3.911419e-10	6.702182e+00	2.637436e+01
2.270000e-06	8.665148e-07	4.046263e-10	6.860682e+00	2.719834e+01
2.280000e-06	8.864830e-07	4.181360e-10	7.018782e+00	2.802220e+01
2.290000e-06	9.064516e-07	4.307037e-10	7.176884e+00	2.884557e+01
2.300000e-06	9.264108e-07	4.440060e-10	7.334913e+00	2.966802e+01
2.310000e-06	9.463284e-07	4.577563e-10	7.492611e+00	3.048909e+01
2.320000e-06	9.662638e-07	4.704391e-10	7.650451e+00	3.130826e+01
2.330000e-06	9.862340e-07	4.834087e-10	7.808566e+00	3.212500e+01
2.340000e-06	1.006130e-06	4.982108e-10	7.966092e+00	3.293876e+01
2.350000e-06	1.025906e-06	5.132047e-10	8.122675e+00	3.374902e+01
2.360000e-06	1.045676e-06	5.264430e-10	8.279200e+00	3.455526e+01
2.370000e-06	1.065458e-06	5.370733e-10	8.435825e+00	3.535700e+01
2.380000e-06	1.085125e-06	5.478446e-10	8.591543e+00	3.615380e+01
2.390000e-06	1.104688e-06	5.607541e-10	8.746436e+00	3.694529e+01
2.400000e-06	1.124212e-06	5.737228e-10	8.901014e+00	3.773116e+01
2.410000e-06	1.143675e-06	5.860491e-10	9.055111e+00	3.851116e+01
2.420000e-06	1.163066e-06	5.982093e-10	9.208642e+00	3.928513e+01
2.430000e-06	1.182376e-06	6.120203e-10	9.361530e+00	4.005300e+01
2.440000e-06	1.201470e-06	6.254342e-10	9.512711e+00	4.081477e+01
2.450000e-06	1.220404e-06	6.361554e-10	9.662623e+00	4.157052e+01
2.460000e-06	1.239301e-06	6.467984e-10	9.812243e+00	4.232042e+01
2.470000e-06	1.258083e-06	6.592895e-10	9.960947e+00	4.306468e+01
2.480000e-06	1.276779e-06	6.719544e-10	1.010897e+01	4.380361e+01
2.490000e-06	1.295367e-06	6.844718e-10	1.025615e+01	4.453755e+01
2.500000e-06	1.313843e-06	6.972930e-10	1.040243e+01	4.526691e+01
2.510000e-06	1.332254e-06	7.089279e-10	1.054820e+01	4.599210e+01
2.520000e-06	1.350549e-06	7.202938e-10	1.069305e+01	4.671357e+01
2.530000e-06	1.368711e-06	7.316280e-10	1.083685e+01	4.743178e+01
2.540000e-06	1.386797e-06	7.435020e-10	1.098005e+01	4.814719e+01
2.550000e-06	1.404882e-06	7.540248e-10	1.112323e+01	4.886022e+01
2.560000e-06	1.422936e-06	7.637694e-10	1.126618e+01	4.957130e+01
2.570000e-06	1.440859e-06	7.744725e-10	1.140808e+01	5.028078e+01
2.580000e-06	1.458623e-06	7.857386e-10	1.154874e+01	5.098901e+01
2.590000e-06	1.476315e-06	7.963408e-10	1.168881e+01	5.169625e+01
2.600000e-06	1.493949e-06	8.077962e-10	1.182843e+01	5.240270e+01
2.610000e-06	1.511506e-06	8.197742e-10	1.196744e+01	5.310853e+01
2.620000e-06	1.528958e-06	8.308889e-10	1.210561e+01	5.381379e+01
2.630000e-06	1.546317e-06	8.423604e-10	1.224306e+01	5.451851e+01
2.640000e-06	1.563633e-06	8.536925e-10	1.238016e+01	5.522262e+01
2.650000e-06	1.580969e-06	8.636179e-10	1.251741e+01	5.592599e+01
2.660000e-06	1.598258e-06	8.724058e-10	1.265430e+01	5.662842e+01
2.670000e-06	1.615275e-06	8.831067e-10	1.278903e+01	5.732967e+01
2.680000e-06	1.632023e-06	8.950022e-10	1.292164e+01	5.802942e+01
2.690000e-06	1.648790e-06	9.044564e-10	1.305439e+01	5.872734e+01
2.700000e-06	1.665599e-06	9.117411e-10	1.318748e+01	5.942302e+01
2.710000e-06	1.682294e-06	9.223623e-10	1.331967e+01	6.011605e+01
2.720000e-06	1.698804e-06	9.364132e-10	1.345038e+01	6.080599e+01
2.730000e-06	1.715137e-06	9.487729e-10	1.357970e+01	6.149237e+01
2.740000e-06	1.731390e-06	9.577524e-10	1.370838e+01	6.217474e+01
2.750000e-06	1.747462e-06	9.674284e-10	1.383563e+01	6.285264e+01
2.760000e-06	1.763320e-06	9.793789e-10	1.396119e+01	6.352561e+01
2.770000e-06	1.779008e-06	9.917012e-10	1.408540e+01	6.419322e+01
2.780000e-06	1.794489e-06	1.002265e-09	1.420797e+01	6.485505e+01
2.790000e-06	1.809840e-06	1.010602e-09	1.432951e+01	6.551072e+01
2.800000e-06	1.825063e-06	1.019821e-09	1.445005e+01	6.615987e+01
2.810000e-06	1.840007e-06	1.031240e-09	1.456837e+01	6.680216e+01
2.820000e-06	1.854693e-06	1.042178e-09	1.468464e+01	6.743731e+01
2.830000e-06	1.869190e-06	1.052042e-09	1.479942e+01	6.806507e+01
2.840000e-06	1.883484e-06	1.061889e-09	1.491260e+01	6.868520e+01
2.850000e-06	1.897659e-06	1.070320e-09	1.502483e+01	6.929753e+01
2.860000e-06	1.911698e-06	1.080082e-09	1.513598e+01	6.990191e+01
2.870000e-06	1.925611e-06	1.093526e-09	1.524614e+01	7.049821e+01
2.880000e-06	1.939434e-06	1.105614e-09	1.535559e+01	7.108636e+01
2.890000e-06	1.953103e-06	1.113639e-09	1.546381e+01	7.166629e+01
2.900000e-06	1.966699e-06	1.120520e-09	1.557145e+01	7.223798e+01
