# Temperatura_=_20.0
# Concentracion g/m^3_=_12600.0
# C_Vs_to_Am_M_A/Vsm_=_65563218390.804596
# pendiente_HvsI_1/m_=_3716.3
# ordenada_HvsI_A/m_=_1297.0
# frecuencia_Hz_=_134897.03463839737

Tiempo_(s)	Campo_(V.s)	Magnetizacion_(V.s)	Campo_(kA/m)	Magnetizacion_(A/m)
0.000000e+00	-2.503661e-06	-1.338202e-09	-1.984102e+01	-9.130517e+01
1.000000e-08	-2.503871e-06	-1.281253e-09	-1.984269e+01	-9.128989e+01
2.000000e-08	-2.503985e-06	-1.228107e-09	-1.984360e+01	-9.126144e+01
3.000000e-08	-2.503944e-06	-1.272265e-09	-1.984327e+01	-9.121890e+01
4.000000e-08	-2.503785e-06	-1.448986e-09	-1.984201e+01	-9.116145e+01
5.000000e-08	-2.503545e-06	-1.592103e-09	-1.984011e+01	-9.108840e+01
6.000000e-08	-2.503223e-06	-1.532108e-09	-1.983755e+01	-9.099918e+01
7.000000e-08	-2.502809e-06	-1.471489e-09	-1.983427e+01	-9.089342e+01
8.000000e-08	-2.502178e-06	-1.344287e-09	-1.982928e+01	-9.077091e+01
9.000000e-08	-2.501263e-06	-1.269713e-09	-1.982202e+01	-9.063166e+01
1.000000e-07	-2.500258e-06	-1.320493e-09	-1.981406e+01	-9.047586e+01
1.100000e-07	-2.499086e-06	-1.296785e-09	-1.980477e+01	-9.030393e+01
1.200000e-07	-2.497567e-06	-1.243849e-09	-1.979273e+01	-9.011650e+01
1.300000e-07	-2.495571e-06	-1.299955e-09	-1.977692e+01	-8.991439e+01
1.400000e-07	-2.493231e-06	-1.429514e-09	-1.975837e+01	-8.969864e+01
1.500000e-07	-2.490603e-06	-1.353981e-09	-1.973754e+01	-8.947044e+01
1.600000e-07	-2.487615e-06	-1.322592e-09	-1.971386e+01	-8.923115e+01
1.700000e-07	-2.484344e-06	-1.361334e-09	-1.968794e+01	-8.898226e+01
1.800000e-07	-2.480853e-06	-1.463322e-09	-1.966028e+01	-8.872537e+01
1.900000e-07	-2.477262e-06	-1.423341e-09	-1.963182e+01	-8.846215e+01
2.000000e-07	-2.473554e-06	-1.317919e-09	-1.960243e+01	-8.819431e+01
2.100000e-07	-2.469712e-06	-1.265530e-09	-1.957199e+01	-8.792357e+01
2.200000e-07	-2.465755e-06	-1.325003e-09	-1.954063e+01	-8.765162e+01
2.300000e-07	-2.461718e-06	-1.378265e-09	-1.950864e+01	-8.738010e+01
2.400000e-07	-2.457587e-06	-1.299428e-09	-1.947590e+01	-8.711054e+01
2.500000e-07	-2.453363e-06	-1.222641e-09	-1.944242e+01	-8.684436e+01
2.600000e-07	-2.449108e-06	-1.198432e-09	-1.940870e+01	-8.658282e+01
2.700000e-07	-2.444796e-06	-1.312712e-09	-1.937453e+01	-8.632701e+01
2.800000e-07	-2.440259e-06	-1.351763e-09	-1.933858e+01	-8.607781e+01
2.900000e-07	-2.435465e-06	-1.277918e-09	-1.930059e+01	-8.583592e+01
3.000000e-07	-2.430419e-06	-1.178521e-09	-1.926060e+01	-8.560177e+01
3.100000e-07	-2.425217e-06	-1.265459e-09	-1.921937e+01	-8.537561e+01
3.200000e-07	-2.419896e-06	-1.362547e-09	-1.917721e+01	-8.515742e+01
3.300000e-07	-2.414442e-06	-1.303745e-09	-1.913399e+01	-8.494700e+01
3.400000e-07	-2.408789e-06	-1.172558e-09	-1.908918e+01	-8.474389e+01
3.500000e-07	-2.402865e-06	-1.199672e-09	-1.904224e+01	-8.454746e+01
3.600000e-07	-2.396799e-06	-1.323537e-09	-1.899417e+01	-8.435689e+01
3.700000e-07	-2.390662e-06	-1.328193e-09	-1.894553e+01	-8.417122e+01
3.800000e-07	-2.384380e-06	-1.229358e-09	-1.889575e+01	-8.398933e+01
3.900000e-07	-2.377862e-06	-1.209375e-09	-1.884409e+01	-8.381001e+01
4.000000e-07	-2.371205e-06	-1.293417e-09	-1.879134e+01	-8.363199e+01
4.100000e-07	-2.364354e-06	-1.321154e-09	-1.873704e+01	-8.345393e+01
4.200000e-07	-2.357274e-06	-1.258953e-09	-1.868094e+01	-8.327450e+01
4.300000e-07	-2.350005e-06	-1.212263e-09	-1.862334e+01	-8.309238e+01
4.400000e-07	-2.342572e-06	-1.242611e-09	-1.856443e+01	-8.290629e+01
4.500000e-07	-2.334942e-06	-1.274821e-09	-1.850396e+01	-8.271505e+01
4.600000e-07	-2.327196e-06	-1.258861e-09	-1.844258e+01	-8.251754e+01
4.700000e-07	-2.319415e-06	-1.220793e-09	-1.838091e+01	-8.231278e+01
4.800000e-07	-2.311522e-06	-1.216121e-09	-1.831837e+01	-8.209994e+01
4.900000e-07	-2.303566e-06	-1.240544e-09	-1.825532e+01	-8.187831e+01
5.000000e-07	-2.295523e-06	-1.259782e-09	-1.819158e+01	-8.164734e+01
5.100000e-07	-2.287400e-06	-1.245625e-09	-1.812720e+01	-8.140667e+01
5.200000e-07	-2.279182e-06	-1.214596e-09	-1.806208e+01	-8.115606e+01
5.300000e-07	-2.270865e-06	-1.205478e-09	-1.799616e+01	-8.089546e+01
5.400000e-07	-2.262398e-06	-1.230769e-09	-1.792907e+01	-8.062495e+01
5.500000e-07	-2.253754e-06	-1.244327e-09	-1.786057e+01	-8.034475e+01
5.600000e-07	-2.244905e-06	-1.212261e-09	-1.779044e+01	-8.005519e+01
5.700000e-07	-2.235733e-06	-1.180509e-09	-1.771775e+01	-7.975673e+01
5.800000e-07	-2.226276e-06	-1.198888e-09	-1.764281e+01	-7.944990e+01
5.900000e-07	-2.216645e-06	-1.224801e-09	-1.756648e+01	-7.913528e+01
6.000000e-07	-2.206819e-06	-1.204561e-09	-1.748862e+01	-7.881352e+01
6.100000e-07	-2.196663e-06	-1.167668e-09	-1.740813e+01	-7.848527e+01
6.200000e-07	-2.186162e-06	-1.168607e-09	-1.732491e+01	-7.815118e+01
6.300000e-07	-2.175326e-06	-1.184554e-09	-1.723904e+01	-7.781189e+01
6.400000e-07	-2.164361e-06	-1.179158e-09	-1.715214e+01	-7.746798e+01
6.500000e-07	-2.153234e-06	-1.164730e-09	-1.706396e+01	-7.712001e+01
6.600000e-07	-2.141784e-06	-1.163922e-09	-1.697322e+01	-7.676844e+01
6.700000e-07	-2.130202e-06	-1.156724e-09	-1.688144e+01	-7.641366e+01
6.800000e-07	-2.118509e-06	-1.155389e-09	-1.678877e+01	-7.605598e+01
6.900000e-07	-2.106665e-06	-1.174615e-09	-1.669491e+01	-7.569561e+01
7.000000e-07	-2.094666e-06	-1.180001e-09	-1.659982e+01	-7.533269e+01
7.100000e-07	-2.082528e-06	-1.143032e-09	-1.650363e+01	-7.496723e+01
7.200000e-07	-2.070279e-06	-1.118803e-09	-1.640656e+01	-7.459919e+01
7.300000e-07	-2.057937e-06	-1.144618e-09	-1.630875e+01	-7.422844e+01
7.400000e-07	-2.045503e-06	-1.160533e-09	-1.621021e+01	-7.385478e+01
7.500000e-07	-2.032889e-06	-1.123754e-09	-1.611025e+01	-7.347796e+01
7.600000e-07	-2.020082e-06	-1.092561e-09	-1.600876e+01	-7.309768e+01
7.700000e-07	-2.007052e-06	-1.110639e-09	-1.590550e+01	-7.271362e+01
7.800000e-07	-1.993803e-06	-1.132791e-09	-1.580050e+01	-7.232545e+01
7.900000e-07	-1.980476e-06	-1.118823e-09	-1.569488e+01	-7.193282e+01
8.000000e-07	-1.967015e-06	-1.091721e-09	-1.558821e+01	-7.153541e+01
8.100000e-07	-1.953359e-06	-1.084442e-09	-1.547999e+01	-7.113293e+01
8.200000e-07	-1.939546e-06	-1.094616e-09	-1.537053e+01	-7.072511e+01
8.300000e-07	-1.925625e-06	-1.102509e-09	-1.526020e+01	-7.031175e+01
8.400000e-07	-1.911586e-06	-1.086291e-09	-1.514895e+01	-6.989269e+01
8.500000e-07	-1.897334e-06	-1.059061e-09	-1.503600e+01	-6.946784e+01
8.600000e-07	-1.882900e-06	-1.054256e-09	-1.492162e+01	-6.903717e+01
8.700000e-07	-1.868412e-06	-1.071851e-09	-1.480680e+01	-6.860071e+01
8.800000e-07	-1.853711e-06	-1.071492e-09	-1.469030e+01	-6.815856e+01
8.900000e-07	-1.838747e-06	-1.044599e-09	-1.457171e+01	-6.771087e+01
9.000000e-07	-1.823648e-06	-1.024594e-09	-1.445205e+01	-6.725784e+01
9.100000e-07	-1.808414e-06	-1.029586e-09	-1.433133e+01	-6.679971e+01
9.200000e-07	-1.793033e-06	-1.035540e-09	-1.420944e+01	-6.633677e+01
9.300000e-07	-1.777419e-06	-1.019924e-09	-1.408570e+01	-6.586931e+01
9.400000e-07	-1.761502e-06	-9.967832e-10	-1.395957e+01	-6.539763e+01
9.500000e-07	-1.745440e-06	-9.909301e-10	-1.383227e+01	-6.492204e+01
9.600000e-07	-1.729192e-06	-9.952693e-10	-1.370351e+01	-6.444283e+01
9.700000e-07	-1.712792e-06	-9.919829e-10	-1.357355e+01	-6.396026e+01
9.800000e-07	-1.696343e-06	-9.789340e-10	-1.344319e+01	-6.347455e+01
9.900000e-07	-1.679738e-06	-9.670197e-10	-1.331160e+01	-6.298588e+01
1.000000e-06	-1.662966e-06	-9.616665e-10	-1.317868e+01	-6.249438e+01
1.010000e-06	-1.646006e-06	-9.585996e-10	-1.304427e+01	-6.200010e+01
1.020000e-06	-1.628903e-06	-9.553159e-10	-1.290874e+01	-6.150305e+01
1.030000e-06	-1.611719e-06	-9.486121e-10	-1.277256e+01	-6.100316e+01
1.040000e-06	-1.594502e-06	-9.344612e-10	-1.263612e+01	-6.050031e+01
1.050000e-06	-1.577204e-06	-9.208337e-10	-1.249904e+01	-5.999429e+01
1.060000e-06	-1.559832e-06	-9.177212e-10	-1.236136e+01	-5.948486e+01
1.070000e-06	-1.542416e-06	-9.179381e-10	-1.222334e+01	-5.897173e+01
1.080000e-06	-1.524898e-06	-9.099901e-10	-1.208452e+01	-5.845455e+01
1.090000e-06	-1.507306e-06	-8.965363e-10	-1.194511e+01	-5.793297e+01
1.100000e-06	-1.489656e-06	-8.888841e-10	-1.180523e+01	-5.740658e+01
1.110000e-06	-1.471942e-06	-8.869263e-10	-1.166485e+01	-5.687500e+01
1.120000e-06	-1.454142e-06	-8.793365e-10	-1.152379e+01	-5.633784e+01
1.130000e-06	-1.436244e-06	-8.636334e-10	-1.138196e+01	-5.579473e+01
1.140000e-06	-1.418300e-06	-8.507594e-10	-1.123976e+01	-5.524533e+01
1.150000e-06	-1.400275e-06	-8.431808e-10	-1.109690e+01	-5.468935e+01
1.160000e-06	-1.382117e-06	-8.380496e-10	-1.095301e+01	-5.412652e+01
1.170000e-06	-1.363846e-06	-8.293123e-10	-1.080821e+01	-5.355667e+01
1.180000e-06	-1.345480e-06	-8.155537e-10	-1.066267e+01	-5.297967e+01
1.190000e-06	-1.327056e-06	-8.059453e-10	-1.051666e+01	-5.239547e+01
1.200000e-06	-1.308589e-06	-8.016262e-10	-1.037032e+01	-5.180409e+01
1.210000e-06	-1.290024e-06	-7.950712e-10	-1.022319e+01	-5.120564e+01
1.220000e-06	-1.271327e-06	-7.818579e-10	-1.007502e+01	-5.060027e+01
1.230000e-06	-1.252547e-06	-7.678709e-10	-9.926193e+00	-4.998822e+01
1.240000e-06	-1.233648e-06	-7.569102e-10	-9.776423e+00	-4.936979e+01
1.250000e-06	-1.214551e-06	-7.484853e-10	-9.625079e+00	-4.874534e+01
1.260000e-06	-1.195303e-06	-7.390664e-10	-9.472542e+00	-4.811527e+01
1.270000e-06	-1.175993e-06	-7.307944e-10	-9.319514e+00	-4.748001e+01
1.280000e-06	-1.156674e-06	-7.248000e-10	-9.166419e+00	-4.684002e+01
1.290000e-06	-1.137277e-06	-7.197323e-10	-9.012700e+00	-4.619578e+01
1.300000e-06	-1.117754e-06	-7.140909e-10	-8.857985e+00	-4.554776e+01
1.310000e-06	-1.098094e-06	-7.055559e-10	-8.702178e+00	-4.489643e+01
1.320000e-06	-1.078349e-06	-6.955734e-10	-8.545710e+00	-4.424223e+01
1.330000e-06	-1.058579e-06	-6.851085e-10	-8.389030e+00	-4.358557e+01
1.340000e-06	-1.038751e-06	-6.736300e-10	-8.231896e+00	-4.292683e+01
1.350000e-06	-1.018888e-06	-6.608631e-10	-8.074488e+00	-4.226633e+01
1.360000e-06	-9.990373e-07	-6.523505e-10	-7.917176e+00	-4.160433e+01
1.370000e-06	-9.791662e-07	-6.463874e-10	-7.759702e+00	-4.094107e+01
1.380000e-06	-9.592551e-07	-6.389116e-10	-7.601910e+00	-4.027668e+01
1.390000e-06	-9.392979e-07	-6.272179e-10	-7.443753e+00	-3.961126e+01
1.400000e-06	-9.193226e-07	-6.198624e-10	-7.285453e+00	-3.894487e+01
1.410000e-06	-8.993669e-07	-6.136073e-10	-7.127308e+00	-3.827747e+01
1.420000e-06	-8.793981e-07	-6.037379e-10	-6.969060e+00	-3.760902e+01
1.430000e-06	-8.593973e-07	-5.907459e-10	-6.810557e+00	-3.693940e+01
1.440000e-06	-8.393714e-07	-5.770565e-10	-6.651856e+00	-3.626849e+01
1.450000e-06	-8.193487e-07	-5.643279e-10	-6.493180e+00	-3.559613e+01
1.460000e-06	-7.993337e-07	-5.551168e-10	-6.334565e+00	-3.492213e+01
1.470000e-06	-7.792888e-07	-5.495866e-10	-6.175712e+00	-3.424633e+01
1.480000e-06	-7.591751e-07	-5.424738e-10	-6.016316e+00	-3.356855e+01
1.490000e-06	-7.390434e-07	-5.337932e-10	-5.856775e+00	-3.288862e+01
1.500000e-06	-7.189282e-07	-5.232226e-10	-5.697367e+00	-3.220640e+01
1.510000e-06	-6.987507e-07	-5.104486e-10	-5.537464e+00	-3.152178e+01
1.520000e-06	-6.785478e-07	-4.955244e-10	-5.377359e+00	-3.083469e+01
1.530000e-06	-6.583112e-07	-4.847783e-10	-5.216988e+00	-3.014507e+01
1.540000e-06	-6.380002e-07	-4.758223e-10	-5.056028e+00	-2.945292e+01
1.550000e-06	-6.176668e-07	-4.657374e-10	-4.894889e+00	-2.875828e+01
1.560000e-06	-5.972855e-07	-4.568599e-10	-4.733371e+00	-2.806124e+01
1.570000e-06	-5.768802e-07	-4.517373e-10	-4.571663e+00	-2.736189e+01
1.580000e-06	-5.564439e-07	-4.440808e-10	-4.409710e+00	-2.666039e+01
1.590000e-06	-5.358859e-07	-4.310795e-10	-4.246792e+00	-2.595690e+01
1.600000e-06	-5.152302e-07	-4.167957e-10	-4.083099e+00	-2.525162e+01
1.610000e-06	-4.946037e-07	-4.052988e-10	-3.919639e+00	-2.454474e+01
1.620000e-06	-4.740047e-07	-3.971162e-10	-3.756395e+00	-2.383647e+01
1.630000e-06	-4.533805e-07	-3.861593e-10	-3.592953e+00	-2.312699e+01
1.640000e-06	-4.327237e-07	-3.752889e-10	-3.429252e+00	-2.241647e+01
1.650000e-06	-4.119728e-07	-3.673027e-10	-3.264804e+00	-2.170507e+01
1.660000e-06	-3.912688e-07	-3.593056e-10	-3.100729e+00	-2.099290e+01
1.670000e-06	-3.705508e-07	-3.472398e-10	-2.936543e+00	-2.028002e+01
1.680000e-06	-3.497260e-07	-3.340645e-10	-2.771511e+00	-1.956646e+01
1.690000e-06	-3.288462e-07	-3.215475e-10	-2.606043e+00	-1.885218e+01
1.700000e-06	-3.078629e-07	-3.071555e-10	-2.439754e+00	-1.813708e+01
1.710000e-06	-2.868398e-07	-2.914680e-10	-2.273150e+00	-1.742102e+01
1.720000e-06	-2.657787e-07	-2.769716e-10	-2.106244e+00	-1.670379e+01
1.730000e-06	-2.447521e-07	-2.650371e-10	-1.939613e+00	-1.598513e+01
1.740000e-06	-2.237359e-07	-2.557093e-10	-1.773064e+00	-1.526472e+01
1.750000e-06	-2.026347e-07	-2.449620e-10	-1.605841e+00	-1.454222e+01
1.760000e-06	-1.815312e-07	-2.324015e-10	-1.438600e+00	-1.381721e+01
1.770000e-06	-1.604016e-07	-2.212709e-10	-1.271151e+00	-1.308929e+01
1.780000e-06	-1.392710e-07	-2.093388e-10	-1.103696e+00	-1.235802e+01
1.790000e-06	-1.181688e-07	-1.968928e-10	-9.364651e-01	-1.162296e+01
1.800000e-06	-9.702905e-08	-1.841281e-10	-7.689364e-01	-1.088367e+01
1.810000e-06	-7.590462e-08	-1.732767e-10	-6.015294e-01	-1.013975e+01
1.820000e-06	-5.483822e-08	-1.637192e-10	-4.345823e-01	-9.390818e+00
1.830000e-06	-3.382857e-08	-1.529257e-10	-2.680849e-01	-8.636530e+00
1.840000e-06	-1.283625e-08	-1.399302e-10	-1.017248e-01	-7.876608e+00
1.850000e-06	8.237356e-09	-1.275359e-10	6.527944e-02	-7.110833e+00
1.860000e-06	2.932921e-08	-1.179958e-10	2.324283e-01	-6.339057e+00
1.870000e-06	5.043432e-08	-1.109539e-10	3.996822e-01	-5.561211e+00
1.880000e-06	7.160511e-08	-1.009622e-10	5.674566e-01	-4.777308e+00
1.890000e-06	9.272786e-08	-8.741177e-11	7.348503e-01	-3.987443e+00
1.900000e-06	1.138161e-07	-7.411487e-11	9.019703e-01	-3.191797e+00
1.910000e-06	1.348860e-07	-6.053443e-11	1.068945e+00	-2.390632e+00
1.920000e-06	1.559135e-07	-4.509543e-11	1.235585e+00	-1.584289e+00
1.930000e-06	1.769175e-07	-2.803737e-11	1.402037e+00	-7.731792e-01
1.940000e-06	1.979689e-07	-1.273811e-11	1.568865e+00	4.222231e-02
1.950000e-06	2.189676e-07	-3.888590e-12	1.735275e+00	8.613862e-01
1.960000e-06	2.399255e-07	3.525849e-12	1.901363e+00	1.683740e+00
1.970000e-06	2.609486e-07	1.419270e-11	2.067967e+00	2.508679e+00
1.980000e-06	2.819334e-07	2.411622e-11	2.234268e+00	3.335580e+00
1.990000e-06	3.028001e-07	3.465830e-11	2.399632e+00	4.163813e+00
2.000000e-06	3.236352e-07	4.827761e-11	2.564747e+00	4.992754e+00
2.010000e-06	3.445311e-07	6.292422e-11	2.730342e+00	5.821796e+00
2.020000e-06	3.654326e-07	7.752148e-11	2.895983e+00	6.650362e+00
2.030000e-06	3.862622e-07	9.278306e-11	3.061053e+00	7.477913e+00
2.040000e-06	4.070338e-07	1.038149e-10	3.225664e+00	8.303959e+00
2.050000e-06	4.277921e-07	1.125239e-10	3.390170e+00	9.128064e+00
2.060000e-06	4.484782e-07	1.222672e-10	3.554103e+00	9.949852e+00
2.070000e-06	4.691775e-07	1.332727e-10	3.718141e+00	1.076901e+01
2.080000e-06	4.898721e-07	1.456006e-10	3.882141e+00	1.158530e+01
2.090000e-06	5.104454e-07	1.591308e-10	4.045181e+00	1.239852e+01
2.100000e-06	5.309595e-07	1.728424e-10	4.207751e+00	1.320857e+01
2.110000e-06	5.515049e-07	1.862516e-10	4.370569e+00	1.401537e+01
2.120000e-06	5.720098e-07	1.975192e-10	4.533067e+00	1.481893e+01
2.130000e-06	5.924053e-07	2.098050e-10	4.694697e+00	1.561927e+01
2.140000e-06	6.127649e-07	2.230476e-10	4.856043e+00	1.641647e+01
2.150000e-06	6.331134e-07	2.356560e-10	5.017301e+00	1.721063e+01
2.160000e-06	6.534495e-07	2.461078e-10	5.178460e+00	1.800188e+01
2.170000e-06	6.737502e-07	2.560934e-10	5.339340e+00	1.879035e+01
2.180000e-06	6.939585e-07	2.706497e-10	5.499486e+00	1.957617e+01
2.190000e-06	7.141466e-07	2.840635e-10	5.659473e+00	2.035948e+01
2.200000e-06	7.343688e-07	2.947902e-10	5.819730e+00	2.114039e+01
2.210000e-06	7.545650e-07	3.076317e-10	5.979781e+00	2.191899e+01
2.220000e-06	7.747573e-07	3.246242e-10	6.139801e+00	2.269537e+01
2.230000e-06	7.948721e-07	3.396134e-10	6.299207e+00	2.346955e+01
2.240000e-06	8.149018e-07	3.502947e-10	6.457939e+00	2.424154e+01
2.250000e-06	8.349117e-07	3.612595e-10	6.616513e+00	2.501134e+01
2.260000e-06	8.549224e-07	3.746083e-10	6.775094e+00	2.577888e+01
2.270000e-06	8.749281e-07	3.869463e-10	6.933636e+00	2.654410e+01
2.280000e-06	8.949071e-07	3.966820e-10	7.091965e+00	2.730687e+01
2.290000e-06	9.148796e-07	4.056389e-10	7.250244e+00	2.806710e+01
2.300000e-06	9.348403e-07	4.177348e-10	7.408428e+00	2.882465e+01
2.310000e-06	9.547564e-07	4.309957e-10	7.566259e+00	2.957938e+01
2.320000e-06	9.746158e-07	4.421870e-10	7.723641e+00	3.033117e+01
2.330000e-06	9.944623e-07	4.523056e-10	7.880921e+00	3.107990e+01
2.340000e-06	1.014271e-06	4.651779e-10	8.037903e+00	3.182548e+01
2.350000e-06	1.034043e-06	4.792942e-10	8.194587e+00	3.256783e+01
2.360000e-06	1.053815e-06	4.923390e-10	8.351279e+00	3.330693e+01
2.370000e-06	1.073532e-06	5.039372e-10	8.507533e+00	3.404276e+01
2.380000e-06	1.093219e-06	5.163592e-10	8.663550e+00	3.477540e+01
2.390000e-06	1.112825e-06	5.286662e-10	8.818921e+00	3.550492e+01
2.400000e-06	1.132301e-06	5.384613e-10	8.973262e+00	3.623147e+01
2.410000e-06	1.151734e-06	5.485731e-10	9.127265e+00	3.695524e+01
2.420000e-06	1.171128e-06	5.609088e-10	9.280962e+00	3.767647e+01
2.430000e-06	1.190435e-06	5.741490e-10	9.433963e+00	3.839543e+01
2.440000e-06	1.209665e-06	5.842769e-10	9.586359e+00	3.911243e+01
2.450000e-06	1.228765e-06	5.930371e-10	9.737724e+00	3.982781e+01
2.460000e-06	1.247660e-06	6.038427e-10	9.887461e+00	4.054191e+01
2.470000e-06	1.266519e-06	6.154878e-10	1.003692e+01	4.125510e+01
2.480000e-06	1.285326e-06	6.264445e-10	1.018596e+01	4.196775e+01
2.490000e-06	1.303906e-06	6.373670e-10	1.033320e+01	4.268019e+01
2.500000e-06	1.322339e-06	6.496942e-10	1.047928e+01	4.339276e+01
2.510000e-06	1.340679e-06	6.622615e-10	1.062462e+01	4.410572e+01
2.520000e-06	1.358858e-06	6.729936e-10	1.076869e+01	4.481933e+01
2.530000e-06	1.376874e-06	6.846205e-10	1.091146e+01	4.553376e+01
2.540000e-06	1.394849e-06	6.964530e-10	1.105390e+01	4.624914e+01
2.550000e-06	1.412726e-06	7.063382e-10	1.119558e+01	4.696549e+01
2.560000e-06	1.430501e-06	7.152727e-10	1.133644e+01	4.768280e+01
2.570000e-06	1.448228e-06	7.238998e-10	1.147692e+01	4.840095e+01
2.580000e-06	1.465881e-06	7.332705e-10	1.161682e+01	4.911975e+01
2.590000e-06	1.483560e-06	7.447422e-10	1.175692e+01	4.983892e+01
2.600000e-06	1.501158e-06	7.546171e-10	1.189638e+01	5.055811e+01
2.610000e-06	1.518560e-06	7.661539e-10	1.203429e+01	5.127690e+01
2.620000e-06	1.535938e-06	7.778640e-10	1.217201e+01	5.199479e+01
2.630000e-06	1.553362e-06	7.891644e-10	1.231009e+01	5.271124e+01
2.640000e-06	1.570626e-06	8.005014e-10	1.244691e+01	5.342566e+01
2.650000e-06	1.587825e-06	8.098091e-10	1.258321e+01	5.413741e+01
2.660000e-06	1.604969e-06	8.185840e-10	1.271907e+01	5.484586e+01
2.670000e-06	1.622029e-06	8.286323e-10	1.285427e+01	5.555035e+01
2.680000e-06	1.639014e-06	8.400612e-10	1.298887e+01	5.625022e+01
2.690000e-06	1.655876e-06	8.510129e-10	1.312250e+01	5.694483e+01
2.700000e-06	1.672632e-06	8.616847e-10	1.325528e+01	5.763359e+01
2.710000e-06	1.689234e-06	8.741688e-10	1.338686e+01	5.831592e+01
2.720000e-06	1.705741e-06	8.863265e-10	1.351767e+01	5.899132e+01
2.730000e-06	1.721998e-06	8.972760e-10	1.364650e+01	5.965934e+01
2.740000e-06	1.738076e-06	9.061859e-10	1.377392e+01	6.031958e+01
2.750000e-06	1.754036e-06	9.135215e-10	1.390039e+01	6.097174e+01
2.760000e-06	1.769756e-06	9.235265e-10	1.402497e+01	6.161558e+01
2.770000e-06	1.785248e-06	9.336675e-10	1.414774e+01	6.225093e+01
2.780000e-06	1.800406e-06	9.428180e-10	1.426787e+01	6.287770e+01
2.790000e-06	1.815269e-06	9.503725e-10	1.438565e+01	6.349587e+01
2.800000e-06	1.829993e-06	9.600992e-10	1.450234e+01	6.410550e+01
2.810000e-06	1.844656e-06	9.701367e-10	1.461854e+01	6.470667e+01
2.820000e-06	1.859235e-06	9.786491e-10	1.473408e+01	6.529953e+01
2.830000e-06	1.873630e-06	9.900178e-10	1.484816e+01	6.588428e+01
2.840000e-06	1.887824e-06	1.003211e-09	1.496064e+01	6.646113e+01
2.850000e-06	1.901929e-06	1.014438e-09	1.507242e+01	6.703032e+01
2.860000e-06	1.916027e-06	1.024196e-09	1.518414e+01	6.759208e+01
2.870000e-06	1.929990e-06	1.033173e-09	1.529480e+01	6.814665e+01
2.880000e-06	1.943756e-06	1.043687e-09	1.540389e+01	6.869424e+01
2.890000e-06	1.957437e-06	1.055219e-09	1.551231e+01	6.923505e+01
2.900000e-06	1.971023e-06	1.065973e-09	1.561997e+01	6.976925e+01
