# Temperatura_=_20.0
# Concentracion g/m^3_=_12600.0
# C_Vs_to_Am_M_A/Vsm_=_65563218390.804596
# pendiente_HvsI_1/m_=_3716.3
# ordenada_HvsI_A/m_=_1297.0
# frecuencia_Hz_=_134893.4672871597

Tiempo_(s)	Campo_(V.s)	Magnetizacion_(V.s)	Campo_(kA/m)	Magnetizacion_(A/m)
0.000000e+00	-2.507205e-06	-1.430981e-09	-1.984506e+01	-9.600302e+01
1.000000e-08	-2.507547e-06	-1.398895e-09	-1.984777e+01	-9.593423e+01
2.000000e-08	-2.507734e-06	-1.383105e-09	-1.984924e+01	-9.585578e+01
3.000000e-08	-2.507805e-06	-1.437657e-09	-1.984981e+01	-9.576813e+01
4.000000e-08	-2.507718e-06	-1.547183e-09	-1.984912e+01	-9.567177e+01
5.000000e-08	-2.507521e-06	-1.584923e-09	-1.984756e+01	-9.556720e+01
6.000000e-08	-2.507222e-06	-1.463804e-09	-1.984520e+01	-9.545498e+01
7.000000e-08	-2.506784e-06	-1.408520e-09	-1.984173e+01	-9.533564e+01
8.000000e-08	-2.506186e-06	-1.370215e-09	-1.983699e+01	-9.520977e+01
9.000000e-08	-2.505416e-06	-1.378027e-09	-1.983090e+01	-9.507792e+01
1.000000e-07	-2.504472e-06	-1.491958e-09	-1.982343e+01	-9.494067e+01
1.100000e-07	-2.503236e-06	-1.479066e-09	-1.981365e+01	-9.479860e+01
1.200000e-07	-2.501620e-06	-1.424516e-09	-1.980085e+01	-9.465226e+01
1.300000e-07	-2.499667e-06	-1.374852e-09	-1.978539e+01	-9.450219e+01
1.400000e-07	-2.497340e-06	-1.437602e-09	-1.976697e+01	-9.434890e+01
1.500000e-07	-2.494641e-06	-1.380058e-09	-1.974561e+01	-9.419289e+01
1.600000e-07	-2.491754e-06	-1.403881e-09	-1.972276e+01	-9.403460e+01
1.700000e-07	-2.488642e-06	-1.446852e-09	-1.969813e+01	-9.387445e+01
1.800000e-07	-2.485271e-06	-1.492131e-09	-1.967145e+01	-9.371280e+01
1.900000e-07	-2.481747e-06	-1.432817e-09	-1.964356e+01	-9.354997e+01
2.000000e-07	-2.478141e-06	-1.375466e-09	-1.961501e+01	-9.338622e+01
2.100000e-07	-2.474447e-06	-1.414750e-09	-1.958577e+01	-9.322176e+01
2.200000e-07	-2.470651e-06	-1.430040e-09	-1.955573e+01	-9.305674e+01
2.300000e-07	-2.466769e-06	-1.424834e-09	-1.952500e+01	-9.289125e+01
2.400000e-07	-2.462759e-06	-1.372929e-09	-1.949326e+01	-9.272531e+01
2.500000e-07	-2.458590e-06	-1.421991e-09	-1.946026e+01	-9.255891e+01
2.600000e-07	-2.454277e-06	-1.389228e-09	-1.942612e+01	-9.239195e+01
2.700000e-07	-2.449868e-06	-1.395012e-09	-1.939122e+01	-9.222430e+01
2.800000e-07	-2.445357e-06	-1.381402e-09	-1.935551e+01	-9.205577e+01
2.900000e-07	-2.440689e-06	-1.407627e-09	-1.931857e+01	-9.188613e+01
3.000000e-07	-2.435820e-06	-1.384895e-09	-1.928003e+01	-9.171512e+01
3.100000e-07	-2.430695e-06	-1.390522e-09	-1.923946e+01	-9.154242e+01
3.200000e-07	-2.425301e-06	-1.380093e-09	-1.919677e+01	-9.136772e+01
3.300000e-07	-2.419759e-06	-1.364884e-09	-1.915290e+01	-9.119066e+01
3.400000e-07	-2.414127e-06	-1.372710e-09	-1.910833e+01	-9.101089e+01
3.500000e-07	-2.408394e-06	-1.403838e-09	-1.906294e+01	-9.082805e+01
3.600000e-07	-2.402535e-06	-1.390080e-09	-1.901658e+01	-9.064178e+01
3.700000e-07	-2.396452e-06	-1.325861e-09	-1.896842e+01	-9.045173e+01
3.800000e-07	-2.390105e-06	-1.334478e-09	-1.891819e+01	-9.025757e+01
3.900000e-07	-2.383660e-06	-1.406560e-09	-1.886717e+01	-9.005900e+01
4.000000e-07	-2.377103e-06	-1.418644e-09	-1.881528e+01	-8.985574e+01
4.100000e-07	-2.370281e-06	-1.329852e-09	-1.876128e+01	-8.964755e+01
4.200000e-07	-2.363237e-06	-1.306394e-09	-1.870552e+01	-8.943423e+01
4.300000e-07	-2.355970e-06	-1.379412e-09	-1.864801e+01	-8.921559e+01
4.400000e-07	-2.348507e-06	-1.418347e-09	-1.858893e+01	-8.899151e+01
4.500000e-07	-2.340917e-06	-1.347571e-09	-1.852885e+01	-8.876190e+01
4.600000e-07	-2.333239e-06	-1.297136e-09	-1.846808e+01	-8.852670e+01
4.700000e-07	-2.325525e-06	-1.342560e-09	-1.840702e+01	-8.828590e+01
4.800000e-07	-2.317716e-06	-1.392918e-09	-1.834522e+01	-8.803951e+01
4.900000e-07	-2.309805e-06	-1.355225e-09	-1.828259e+01	-8.778757e+01
5.000000e-07	-2.301817e-06	-1.303049e-09	-1.821937e+01	-8.753014e+01
5.100000e-07	-2.293712e-06	-1.311640e-09	-1.815521e+01	-8.726730e+01
5.200000e-07	-2.285485e-06	-1.344061e-09	-1.809009e+01	-8.699914e+01
5.300000e-07	-2.277085e-06	-1.336194e-09	-1.802361e+01	-8.672575e+01
5.400000e-07	-2.268557e-06	-1.312621e-09	-1.795611e+01	-8.644721e+01
5.500000e-07	-2.259884e-06	-1.307753e-09	-1.788746e+01	-8.616361e+01
5.600000e-07	-2.250948e-06	-1.310924e-09	-1.781673e+01	-8.587500e+01
5.700000e-07	-2.241764e-06	-1.306782e-09	-1.774404e+01	-8.558144e+01
5.800000e-07	-2.232317e-06	-1.313425e-09	-1.766926e+01	-8.528292e+01
5.900000e-07	-2.222580e-06	-1.311929e-09	-1.759219e+01	-8.497945e+01
6.000000e-07	-2.212670e-06	-1.289460e-09	-1.751375e+01	-8.467096e+01
6.100000e-07	-2.202618e-06	-1.274446e-09	-1.743419e+01	-8.435739e+01
6.200000e-07	-2.192227e-06	-1.293189e-09	-1.735194e+01	-8.403862e+01
6.300000e-07	-2.181472e-06	-1.298220e-09	-1.726682e+01	-8.371450e+01
6.400000e-07	-2.170494e-06	-1.272680e-09	-1.717992e+01	-8.338484e+01
6.500000e-07	-2.159314e-06	-1.258885e-09	-1.709143e+01	-8.304946e+01
6.600000e-07	-2.147956e-06	-1.277412e-09	-1.700153e+01	-8.270811e+01
6.700000e-07	-2.136413e-06	-1.276993e-09	-1.691016e+01	-8.236056e+01
6.800000e-07	-2.124692e-06	-1.257195e-09	-1.681739e+01	-8.200655e+01
6.900000e-07	-2.112887e-06	-1.256676e-09	-1.672394e+01	-8.164582e+01
7.000000e-07	-2.100946e-06	-1.264919e-09	-1.662943e+01	-8.127812e+01
7.100000e-07	-2.088842e-06	-1.247390e-09	-1.653363e+01	-8.090322e+01
7.200000e-07	-2.076662e-06	-1.230200e-09	-1.643722e+01	-8.052089e+01
7.300000e-07	-2.064375e-06	-1.241844e-09	-1.633997e+01	-8.013095e+01
7.400000e-07	-2.051909e-06	-1.244377e-09	-1.624129e+01	-7.973325e+01
7.500000e-07	-2.039240e-06	-1.217593e-09	-1.614102e+01	-7.932769e+01
7.600000e-07	-2.026338e-06	-1.205791e-09	-1.603890e+01	-7.891421e+01
7.700000e-07	-2.013258e-06	-1.224199e-09	-1.593536e+01	-7.849281e+01
7.800000e-07	-2.000035e-06	-1.225169e-09	-1.583070e+01	-7.806354e+01
7.900000e-07	-1.986708e-06	-1.202486e-09	-1.572521e+01	-7.762653e+01
8.000000e-07	-1.973266e-06	-1.189926e-09	-1.561882e+01	-7.718195e+01
8.100000e-07	-1.959614e-06	-1.194643e-09	-1.551076e+01	-7.673004e+01
8.200000e-07	-1.945805e-06	-1.192168e-09	-1.540146e+01	-7.627110e+01
8.300000e-07	-1.931902e-06	-1.182217e-09	-1.529142e+01	-7.580547e+01
8.400000e-07	-1.917765e-06	-1.172222e-09	-1.517951e+01	-7.533355e+01
8.500000e-07	-1.903385e-06	-1.163953e-09	-1.506570e+01	-7.485578e+01
8.600000e-07	-1.888990e-06	-1.158804e-09	-1.495176e+01	-7.437261e+01
8.700000e-07	-1.874568e-06	-1.162491e-09	-1.483761e+01	-7.388455e+01
8.800000e-07	-1.859907e-06	-1.157718e-09	-1.472156e+01	-7.339208e+01
8.900000e-07	-1.845100e-06	-1.139644e-09	-1.460436e+01	-7.289571e+01
9.000000e-07	-1.830200e-06	-1.124982e-09	-1.448642e+01	-7.239592e+01
9.100000e-07	-1.815001e-06	-1.125735e-09	-1.436611e+01	-7.189319e+01
9.200000e-07	-1.799424e-06	-1.123499e-09	-1.424282e+01	-7.138794e+01
9.300000e-07	-1.783541e-06	-1.107724e-09	-1.411711e+01	-7.088056e+01
9.400000e-07	-1.767533e-06	-1.091954e-09	-1.399040e+01	-7.037140e+01
9.500000e-07	-1.751379e-06	-1.090948e-09	-1.386254e+01	-6.986074e+01
9.600000e-07	-1.735031e-06	-1.092926e-09	-1.373314e+01	-6.934877e+01
9.700000e-07	-1.718583e-06	-1.084510e-09	-1.360295e+01	-6.883564e+01
9.800000e-07	-1.701996e-06	-1.070635e-09	-1.347166e+01	-6.832140e+01
9.900000e-07	-1.685340e-06	-1.061336e-09	-1.333982e+01	-6.780603e+01
1.000000e-06	-1.668646e-06	-1.053427e-09	-1.320769e+01	-6.728944e+01
1.010000e-06	-1.651734e-06	-1.043515e-09	-1.307382e+01	-6.677144e+01
1.020000e-06	-1.634673e-06	-1.035835e-09	-1.293878e+01	-6.625179e+01
1.030000e-06	-1.617593e-06	-1.029557e-09	-1.280359e+01	-6.573016e+01
1.040000e-06	-1.600417e-06	-1.020634e-09	-1.266764e+01	-6.520617e+01
1.050000e-06	-1.583138e-06	-1.010649e-09	-1.253087e+01	-6.467938e+01
1.060000e-06	-1.565801e-06	-1.005607e-09	-1.239365e+01	-6.414933e+01
1.070000e-06	-1.548431e-06	-1.001407e-09	-1.225616e+01	-6.361549e+01
1.080000e-06	-1.530991e-06	-9.916979e-10	-1.211812e+01	-6.307735e+01
1.090000e-06	-1.513516e-06	-9.786250e-10	-1.197980e+01	-6.253436e+01
1.100000e-06	-1.495979e-06	-9.686192e-10	-1.184099e+01	-6.198599e+01
1.110000e-06	-1.478299e-06	-9.613287e-10	-1.170105e+01	-6.143172e+01
1.120000e-06	-1.460525e-06	-9.535380e-10	-1.156037e+01	-6.087106e+01
1.130000e-06	-1.442671e-06	-9.428915e-10	-1.141905e+01	-6.030355e+01
1.140000e-06	-1.424807e-06	-9.344492e-10	-1.127765e+01	-5.972881e+01
1.150000e-06	-1.406904e-06	-9.268295e-10	-1.113594e+01	-5.914647e+01
1.160000e-06	-1.388862e-06	-9.199109e-10	-1.099314e+01	-5.855625e+01
1.170000e-06	-1.370726e-06	-9.135725e-10	-1.084959e+01	-5.795794e+01
1.180000e-06	-1.352466e-06	-9.032739e-10	-1.070506e+01	-5.735141e+01
1.190000e-06	-1.334015e-06	-8.910646e-10	-1.055901e+01	-5.673659e+01
1.200000e-06	-1.315481e-06	-8.797619e-10	-1.041231e+01	-5.611348e+01
1.210000e-06	-1.296953e-06	-8.700405e-10	-1.026566e+01	-5.548217e+01
1.220000e-06	-1.278254e-06	-8.578629e-10	-1.011765e+01	-5.484283e+01
1.230000e-06	-1.259259e-06	-8.442524e-10	-9.967298e+00	-5.419567e+01
1.240000e-06	-1.240100e-06	-8.325694e-10	-9.815656e+00	-5.354098e+01
1.250000e-06	-1.220931e-06	-8.221995e-10	-9.663927e+00	-5.287908e+01
1.260000e-06	-1.201739e-06	-8.145807e-10	-9.512017e+00	-5.221035e+01
1.270000e-06	-1.182439e-06	-8.066701e-10	-9.359255e+00	-5.153522e+01
1.280000e-06	-1.163037e-06	-7.956737e-10	-9.205687e+00	-5.085410e+01
1.290000e-06	-1.143572e-06	-7.845330e-10	-9.051612e+00	-5.016746e+01
1.300000e-06	-1.124034e-06	-7.780999e-10	-8.896967e+00	-4.947574e+01
1.310000e-06	-1.104418e-06	-7.701405e-10	-8.741699e+00	-4.877940e+01
1.320000e-06	-1.084723e-06	-7.586313e-10	-8.585811e+00	-4.807886e+01
1.330000e-06	-1.065016e-06	-7.466349e-10	-8.429828e+00	-4.737454e+01
1.340000e-06	-1.045320e-06	-7.360243e-10	-8.273932e+00	-4.666683e+01
1.350000e-06	-1.025549e-06	-7.242004e-10	-8.117440e+00	-4.595606e+01
1.360000e-06	-1.005728e-06	-7.142264e-10	-7.960551e+00	-4.524254e+01
1.370000e-06	-9.859195e-07	-7.051214e-10	-7.803761e+00	-4.452653e+01
1.380000e-06	-9.661076e-07	-6.934089e-10	-7.646946e+00	-4.380826e+01
1.390000e-06	-9.462831e-07	-6.804040e-10	-7.490031e+00	-4.308788e+01
1.400000e-06	-9.264768e-07	-6.722109e-10	-7.333260e+00	-4.236552e+01
1.410000e-06	-9.066526e-07	-6.648036e-10	-7.176348e+00	-4.164126e+01
1.420000e-06	-8.867860e-07	-6.513937e-10	-7.019099e+00	-4.091515e+01
1.430000e-06	-8.668973e-07	-6.358344e-10	-6.861675e+00	-4.018718e+01
1.440000e-06	-8.469906e-07	-6.222560e-10	-6.704110e+00	-3.945734e+01
1.450000e-06	-8.270237e-07	-6.121947e-10	-6.546068e+00	-3.872558e+01
1.460000e-06	-8.070295e-07	-6.034976e-10	-6.387810e+00	-3.799182e+01
1.470000e-06	-7.870694e-07	-5.966928e-10	-6.229821e+00	-3.725599e+01
1.480000e-06	-7.670795e-07	-5.877335e-10	-6.071596e+00	-3.651802e+01
1.490000e-06	-7.470271e-07	-5.777805e-10	-5.912878e+00	-3.577781e+01
1.500000e-06	-7.269355e-07	-5.663961e-10	-5.753848e+00	-3.503529e+01
1.510000e-06	-7.068286e-07	-5.546232e-10	-5.594698e+00	-3.429040e+01
1.520000e-06	-6.866254e-07	-5.405171e-10	-5.434786e+00	-3.354309e+01
1.530000e-06	-6.663186e-07	-5.259175e-10	-5.274053e+00	-3.279334e+01
1.540000e-06	-6.459280e-07	-5.133502e-10	-5.112657e+00	-3.204113e+01
1.550000e-06	-6.254757e-07	-5.019234e-10	-4.950772e+00	-3.128648e+01
1.560000e-06	-6.050777e-07	-4.908468e-10	-4.789318e+00	-3.052943e+01
1.570000e-06	-5.846506e-07	-4.806429e-10	-4.627633e+00	-2.977004e+01
1.580000e-06	-5.641979e-07	-4.692849e-10	-4.465746e+00	-2.900837e+01
1.590000e-06	-5.437950e-07	-4.555616e-10	-4.304253e+00	-2.824453e+01
1.600000e-06	-5.233570e-07	-4.421622e-10	-4.142481e+00	-2.747860e+01
1.610000e-06	-5.028027e-07	-4.300784e-10	-3.979790e+00	-2.671070e+01
1.620000e-06	-4.822275e-07	-4.194472e-10	-3.816933e+00	-2.594094e+01
1.630000e-06	-4.616363e-07	-4.086539e-10	-3.653949e+00	-2.516942e+01
1.640000e-06	-4.409539e-07	-3.963745e-10	-3.490244e+00	-2.439624e+01
1.650000e-06	-4.201899e-07	-3.849653e-10	-3.325892e+00	-2.362147e+01
1.660000e-06	-3.992453e-07	-3.761051e-10	-3.160111e+00	-2.284517e+01
1.670000e-06	-3.782777e-07	-3.648327e-10	-2.994148e+00	-2.206738e+01
1.680000e-06	-3.574290e-07	-3.518553e-10	-2.829126e+00	-2.128809e+01
1.690000e-06	-3.365871e-07	-3.392884e-10	-2.664158e+00	-2.050729e+01
1.700000e-06	-3.156187e-07	-3.267210e-10	-2.498189e+00	-1.972491e+01
1.710000e-06	-2.944905e-07	-3.118045e-10	-2.330955e+00	-1.894086e+01
1.720000e-06	-2.732865e-07	-2.957359e-10	-2.163120e+00	-1.815500e+01
1.730000e-06	-2.521483e-07	-2.822980e-10	-1.995807e+00	-1.736719e+01
1.740000e-06	-2.310664e-07	-2.706863e-10	-1.828940e+00	-1.657723e+01
1.750000e-06	-2.099289e-07	-2.557731e-10	-1.661632e+00	-1.578491e+01
1.760000e-06	-1.887735e-07	-2.397533e-10	-1.494183e+00	-1.499000e+01
1.770000e-06	-1.676127e-07	-2.271740e-10	-1.326690e+00	-1.419225e+01
1.780000e-06	-1.464197e-07	-2.154585e-10	-1.158943e+00	-1.339142e+01
1.790000e-06	-1.251886e-07	-2.029367e-10	-9.908945e-01	-1.258724e+01
1.800000e-06	-1.039512e-07	-1.909471e-10	-8.227958e-01	-1.177948e+01
1.810000e-06	-8.275428e-08	-1.784060e-10	-6.550176e-01	-1.096792e+01
1.820000e-06	-6.160354e-08	-1.659054e-10	-4.876050e-01	-1.015235e+01
1.830000e-06	-4.050197e-08	-1.544945e-10	-3.205817e-01	-9.332598e+00
1.840000e-06	-1.943716e-08	-1.417431e-10	-1.538492e-01	-8.508538e+00
1.850000e-06	1.665637e-09	-1.285362e-10	1.318387e-02	-7.680084e+00
1.860000e-06	2.281063e-08	-1.148767e-10	1.805509e-01	-6.847200e+00
1.870000e-06	4.396788e-08	-1.023395e-10	3.480151e-01	-6.009905e+00
1.880000e-06	6.516168e-08	-9.113562e-11	5.157685e-01	-5.168277e+00
1.890000e-06	8.637353e-08	-7.775735e-11	6.836648e-01	-4.322452e+00
1.900000e-06	1.075098e-07	-6.223205e-11	8.509625e-01	-3.472623e+00
1.910000e-06	1.285800e-07	-4.827156e-11	1.017738e+00	-2.619044e+00
1.920000e-06	1.496940e-07	-3.503147e-11	1.184860e+00	-1.762024e+00
1.930000e-06	1.708307e-07	-1.936249e-11	1.352161e+00	-9.019224e-01
1.940000e-06	1.918803e-07	-4.686583e-12	1.518773e+00	-3.914446e-02
1.950000e-06	2.129378e-07	6.866996e-12	1.685448e+00	8.258641e-01
1.960000e-06	2.340233e-07	1.868868e-11	1.852344e+00	1.692626e+00
1.970000e-06	2.550384e-07	3.318297e-11	2.018683e+00	2.560638e+00
1.980000e-06	2.760276e-07	4.876855e-11	2.184817e+00	3.429383e+00
1.990000e-06	2.970769e-07	6.406918e-11	2.351426e+00	4.298338e+00
2.000000e-06	3.181864e-07	7.836770e-11	2.518513e+00	5.166980e+00
2.010000e-06	3.392549e-07	9.237922e-11	2.685275e+00	6.034799e+00
2.020000e-06	3.601963e-07	1.053330e-10	2.851030e+00	6.901305e+00
2.030000e-06	3.810458e-07	1.180983e-10	3.016058e+00	7.766035e+00
2.040000e-06	4.018863e-07	1.307377e-10	3.181015e+00	8.628561e+00
2.050000e-06	4.226971e-07	1.420472e-10	3.345737e+00	9.488497e+00
2.060000e-06	4.434125e-07	1.541087e-10	3.509703e+00	1.034550e+01
2.070000e-06	4.641408e-07	1.674126e-10	3.673773e+00	1.119929e+01
2.080000e-06	4.849237e-07	1.812055e-10	3.838273e+00	1.204962e+01
2.090000e-06	5.056344e-07	1.962119e-10	4.002203e+00	1.289630e+01
2.100000e-06	5.261759e-07	2.101838e-10	4.164793e+00	1.373922e+01
2.110000e-06	5.465913e-07	2.225704e-10	4.326386e+00	1.457828e+01
2.120000e-06	5.669910e-07	2.351475e-10	4.487854e+00	1.541347e+01
2.130000e-06	5.874527e-07	2.483615e-10	4.649812e+00	1.624479e+01
2.140000e-06	6.079347e-07	2.621816e-10	4.811932e+00	1.707232e+01
2.150000e-06	6.283016e-07	2.766421e-10	4.973140e+00	1.789614e+01
2.160000e-06	6.485271e-07	2.909264e-10	5.133229e+00	1.871637e+01
2.170000e-06	6.686816e-07	3.019892e-10	5.292757e+00	1.953317e+01
2.180000e-06	6.889071e-07	3.132171e-10	5.452846e+00	2.034669e+01
2.190000e-06	7.090925e-07	3.273523e-10	5.612617e+00	2.115712e+01
2.200000e-06	7.291647e-07	3.424532e-10	5.771493e+00	2.196462e+01
2.210000e-06	7.492307e-07	3.569260e-10	5.930320e+00	2.276938e+01
2.220000e-06	7.692789e-07	3.708931e-10	6.089005e+00	2.357156e+01
2.230000e-06	7.893206e-07	3.832261e-10	6.247639e+00	2.437132e+01
2.240000e-06	8.093210e-07	3.956827e-10	6.405947e+00	2.516880e+01
2.250000e-06	8.292743e-07	4.090840e-10	6.563882e+00	2.596412e+01
2.260000e-06	8.492285e-07	4.219396e-10	6.721823e+00	2.675739e+01
2.270000e-06	8.691424e-07	4.346387e-10	6.879446e+00	2.754868e+01
2.280000e-06	8.890700e-07	4.464127e-10	7.037177e+00	2.833805e+01
2.290000e-06	9.090158e-07	4.588632e-10	7.195052e+00	2.912555e+01
2.300000e-06	9.289153e-07	4.734389e-10	7.352562e+00	2.991121e+01
2.310000e-06	9.487950e-07	4.871949e-10	7.509913e+00	3.069503e+01
2.320000e-06	9.686631e-07	4.980685e-10	7.667174e+00	3.147702e+01
2.330000e-06	9.884926e-07	5.082522e-10	7.824128e+00	3.225717e+01
2.340000e-06	1.008271e-06	5.200106e-10	7.980680e+00	3.303549e+01
2.350000e-06	1.028031e-06	5.334819e-10	8.137079e+00	3.381196e+01
2.360000e-06	1.047734e-06	5.468990e-10	8.293037e+00	3.458658e+01
2.370000e-06	1.067361e-06	5.592364e-10	8.448391e+00	3.535939e+01
2.380000e-06	1.086960e-06	5.713887e-10	8.603517e+00	3.613040e+01
2.390000e-06	1.106483e-06	5.835990e-10	8.758046e+00	3.689966e+01
2.400000e-06	1.125928e-06	5.964828e-10	8.911961e+00	3.766723e+01
2.410000e-06	1.145384e-06	6.089701e-10	9.065954e+00	3.843320e+01
2.420000e-06	1.164827e-06	6.212282e-10	9.219855e+00	3.919769e+01
2.430000e-06	1.184210e-06	6.333490e-10	9.373272e+00	3.996080e+01
2.440000e-06	1.203552e-06	6.440605e-10	9.526371e+00	4.072269e+01
2.450000e-06	1.222724e-06	6.549741e-10	9.678117e+00	4.148350e+01
2.460000e-06	1.241745e-06	6.655148e-10	9.828674e+00	4.224341e+01
2.470000e-06	1.260692e-06	6.745032e-10	9.978641e+00	4.300258e+01
2.480000e-06	1.279514e-06	6.840875e-10	1.012762e+01	4.376119e+01
2.490000e-06	1.298164e-06	6.964403e-10	1.027524e+01	4.451940e+01
2.500000e-06	1.316631e-06	7.111929e-10	1.042142e+01	4.527735e+01
2.510000e-06	1.335071e-06	7.236526e-10	1.056737e+01	4.603518e+01
2.520000e-06	1.353474e-06	7.328650e-10	1.071303e+01	4.679297e+01
2.530000e-06	1.371686e-06	7.438202e-10	1.085719e+01	4.755080e+01
2.540000e-06	1.389724e-06	7.577408e-10	1.099996e+01	4.830870e+01
2.550000e-06	1.407725e-06	7.689519e-10	1.114244e+01	4.906662e+01
2.560000e-06	1.425697e-06	7.767161e-10	1.128470e+01	4.982452e+01
2.570000e-06	1.443562e-06	7.838643e-10	1.142610e+01	5.058224e+01
2.580000e-06	1.461287e-06	7.913060e-10	1.156640e+01	5.133961e+01
2.590000e-06	1.478940e-06	8.011749e-10	1.170612e+01	5.209638e+01
2.600000e-06	1.496542e-06	8.126172e-10	1.184545e+01	5.285224e+01
2.610000e-06	1.514014e-06	8.235911e-10	1.198374e+01	5.360683e+01
2.620000e-06	1.531427e-06	8.348801e-10	1.212157e+01	5.435973e+01
2.630000e-06	1.548831e-06	8.471195e-10	1.225933e+01	5.511049e+01
2.640000e-06	1.566152e-06	8.593211e-10	1.239642e+01	5.585857e+01
2.650000e-06	1.583362e-06	8.699163e-10	1.253265e+01	5.660345e+01
2.660000e-06	1.600460e-06	8.781145e-10	1.266798e+01	5.734454e+01
2.670000e-06	1.617472e-06	8.867784e-10	1.280263e+01	5.808125e+01
2.680000e-06	1.634449e-06	8.982474e-10	1.293701e+01	5.881298e+01
2.690000e-06	1.651384e-06	9.109753e-10	1.307106e+01	5.953911e+01
2.700000e-06	1.668065e-06	9.218829e-10	1.320309e+01	6.025907e+01
2.710000e-06	1.684600e-06	9.328565e-10	1.333396e+01	6.097227e+01
2.720000e-06	1.701125e-06	9.446208e-10	1.346476e+01	6.167818e+01
2.730000e-06	1.717512e-06	9.546696e-10	1.359447e+01	6.237630e+01
2.740000e-06	1.733683e-06	9.621300e-10	1.372247e+01	6.306619e+01
2.750000e-06	1.749667e-06	9.707497e-10	1.384898e+01	6.374744e+01
2.760000e-06	1.765556e-06	9.822075e-10	1.397475e+01	6.441974e+01
2.770000e-06	1.781221e-06	9.920349e-10	1.409874e+01	6.508283e+01
2.780000e-06	1.796740e-06	9.998544e-10	1.422158e+01	6.573652e+01
2.790000e-06	1.812192e-06	1.008909e-09	1.434388e+01	6.638070e+01
2.800000e-06	1.827481e-06	1.020234e-09	1.446490e+01	6.701534e+01
2.810000e-06	1.842415e-06	1.031039e-09	1.458310e+01	6.764048e+01
2.820000e-06	1.857008e-06	1.038781e-09	1.469861e+01	6.825622e+01
2.830000e-06	1.871440e-06	1.048149e-09	1.481285e+01	6.886275e+01
2.840000e-06	1.885709e-06	1.061053e-09	1.492579e+01	6.946029e+01
2.850000e-06	1.899830e-06	1.072421e-09	1.503755e+01	7.004913e+01
2.860000e-06	1.913837e-06	1.081237e-09	1.514842e+01	7.062960e+01
2.870000e-06	1.927789e-06	1.089337e-09	1.525885e+01	7.120208e+01
2.880000e-06	1.941617e-06	1.098811e-09	1.536831e+01	7.176694e+01
2.890000e-06	1.955324e-06	1.108058e-09	1.547681e+01	7.232460e+01
2.900000e-06	1.968937e-06	1.115435e-09	1.558455e+01	7.287547e+01
