# Temperatura_=_20.0
# Concentracion g/m^3_=_12600.0
# C_Vs_to_Am_M_A/Vsm_=_65563218390.804596
# pendiente_HvsI_1/m_=_3716.3
# ordenada_HvsI_A/m_=_1297.0
# frecuencia_Hz_=_134896.40584479945

Tiempo_(s)	Campo_(V.s)	Magnetizacion_(V.s)	Campo_(kA/m)	Magnetizacion_(A/m)
0.000000e+00	-2.502328e-06	-1.423990e-09	-1.983677e+01	-9.164433e+01
1.000000e-08	-2.502548e-06	-1.414826e-09	-1.983851e+01	-9.160964e+01
2.000000e-08	-2.502736e-06	-1.363371e-09	-1.984001e+01	-9.156459e+01
3.000000e-08	-2.502823e-06	-1.301022e-09	-1.984070e+01	-9.150882e+01
4.000000e-08	-2.502796e-06	-1.318714e-09	-1.984049e+01	-9.144202e+01
5.000000e-08	-2.502643e-06	-1.391591e-09	-1.983927e+01	-9.136396e+01
6.000000e-08	-2.502312e-06	-1.452127e-09	-1.983664e+01	-9.127443e+01
7.000000e-08	-2.501826e-06	-1.529751e-09	-1.983279e+01	-9.117333e+01
8.000000e-08	-2.501166e-06	-1.463290e-09	-1.982756e+01	-9.106063e+01
9.000000e-08	-2.500379e-06	-1.385681e-09	-1.982132e+01	-9.093640e+01
1.000000e-07	-2.499449e-06	-1.383475e-09	-1.981395e+01	-9.080079e+01
1.100000e-07	-2.498247e-06	-1.399364e-09	-1.980442e+01	-9.065406e+01
1.200000e-07	-2.496770e-06	-1.362438e-09	-1.979271e+01	-9.049656e+01
1.300000e-07	-2.494879e-06	-1.332499e-09	-1.977772e+01	-9.032876e+01
1.400000e-07	-2.492603e-06	-1.335379e-09	-1.975968e+01	-9.015119e+01
1.500000e-07	-2.490067e-06	-1.329949e-09	-1.973958e+01	-8.996448e+01
1.600000e-07	-2.487302e-06	-1.401517e-09	-1.971765e+01	-8.976936e+01
1.700000e-07	-2.484276e-06	-1.398131e-09	-1.969366e+01	-8.956659e+01
1.800000e-07	-2.480942e-06	-1.375343e-09	-1.966724e+01	-8.935702e+01
1.900000e-07	-2.477395e-06	-1.325985e-09	-1.963912e+01	-8.914151e+01
2.000000e-07	-2.473761e-06	-1.371790e-09	-1.961031e+01	-8.892097e+01
2.100000e-07	-2.470006e-06	-1.381880e-09	-1.958055e+01	-8.869631e+01
2.200000e-07	-2.466122e-06	-1.362881e-09	-1.954976e+01	-8.846843e+01
2.300000e-07	-2.462157e-06	-1.292266e-09	-1.951832e+01	-8.823822e+01
2.400000e-07	-2.458111e-06	-1.292780e-09	-1.948625e+01	-8.800653e+01
2.500000e-07	-2.453973e-06	-1.334556e-09	-1.945345e+01	-8.777414e+01
2.600000e-07	-2.449709e-06	-1.322641e-09	-1.941965e+01	-8.754177e+01
2.700000e-07	-2.445253e-06	-1.273520e-09	-1.938432e+01	-8.731007e+01
2.800000e-07	-2.440630e-06	-1.235586e-09	-1.934768e+01	-8.707959e+01
2.900000e-07	-2.435891e-06	-1.271719e-09	-1.931011e+01	-8.685077e+01
3.000000e-07	-2.431047e-06	-1.302235e-09	-1.927171e+01	-8.662395e+01
3.100000e-07	-2.426014e-06	-1.323150e-09	-1.923180e+01	-8.639936e+01
3.200000e-07	-2.420776e-06	-1.263807e-09	-1.919029e+01	-8.617711e+01
3.300000e-07	-2.415388e-06	-1.229744e-09	-1.914757e+01	-8.595719e+01
3.400000e-07	-2.409807e-06	-1.253346e-09	-1.910333e+01	-8.573951e+01
3.500000e-07	-2.404019e-06	-1.327790e-09	-1.905745e+01	-8.552384e+01
3.600000e-07	-2.398037e-06	-1.300036e-09	-1.901002e+01	-8.530986e+01
3.700000e-07	-2.391924e-06	-1.214813e-09	-1.896157e+01	-8.509719e+01
3.800000e-07	-2.385676e-06	-1.191582e-09	-1.891203e+01	-8.488533e+01
3.900000e-07	-2.379255e-06	-1.283721e-09	-1.886113e+01	-8.467376e+01
4.000000e-07	-2.372653e-06	-1.330886e-09	-1.880880e+01	-8.446188e+01
4.100000e-07	-2.365900e-06	-1.263185e-09	-1.875526e+01	-8.424908e+01
4.200000e-07	-2.358991e-06	-1.185836e-09	-1.870050e+01	-8.403471e+01
4.300000e-07	-2.351853e-06	-1.221534e-09	-1.864391e+01	-8.381812e+01
4.400000e-07	-2.344531e-06	-1.302442e-09	-1.858587e+01	-8.359868e+01
4.500000e-07	-2.337071e-06	-1.298167e-09	-1.852673e+01	-8.337578e+01
4.600000e-07	-2.329461e-06	-1.210789e-09	-1.846640e+01	-8.314883e+01
4.700000e-07	-2.321709e-06	-1.169144e-09	-1.840495e+01	-8.291730e+01
4.800000e-07	-2.313839e-06	-1.229436e-09	-1.834256e+01	-8.268072e+01
4.900000e-07	-2.305881e-06	-1.292682e-09	-1.827948e+01	-8.243865e+01
5.000000e-07	-2.297795e-06	-1.261664e-09	-1.821537e+01	-8.219076e+01
5.100000e-07	-2.289588e-06	-1.182429e-09	-1.815031e+01	-8.193675e+01
5.200000e-07	-2.281298e-06	-1.174087e-09	-1.808459e+01	-8.167642e+01
5.300000e-07	-2.272943e-06	-1.239139e-09	-1.801836e+01	-8.140961e+01
5.400000e-07	-2.264486e-06	-1.270311e-09	-1.795132e+01	-8.113625e+01
5.500000e-07	-2.255859e-06	-1.213238e-09	-1.788293e+01	-8.085631e+01
5.600000e-07	-2.246998e-06	-1.155505e-09	-1.781269e+01	-8.056981e+01
5.700000e-07	-2.237942e-06	-1.177517e-09	-1.774090e+01	-8.027685e+01
5.800000e-07	-2.228554e-06	-1.232623e-09	-1.766648e+01	-7.997752e+01
5.900000e-07	-2.218868e-06	-1.220691e-09	-1.758969e+01	-7.967197e+01
6.000000e-07	-2.208910e-06	-1.160807e-09	-1.751076e+01	-7.936034e+01
6.100000e-07	-2.198669e-06	-1.146628e-09	-1.742957e+01	-7.904280e+01
6.200000e-07	-2.188335e-06	-1.189205e-09	-1.734765e+01	-7.871952e+01
6.300000e-07	-2.177739e-06	-1.200890e-09	-1.726365e+01	-7.839062e+01
6.400000e-07	-2.166799e-06	-1.167069e-09	-1.717692e+01	-7.805626e+01
6.500000e-07	-2.155703e-06	-1.147539e-09	-1.708896e+01	-7.771652e+01
6.600000e-07	-2.144471e-06	-1.160847e-09	-1.699992e+01	-7.737148e+01
6.700000e-07	-2.133049e-06	-1.160352e-09	-1.690938e+01	-7.702120e+01
6.800000e-07	-2.121402e-06	-1.147454e-09	-1.681705e+01	-7.666566e+01
6.900000e-07	-2.109580e-06	-1.149190e-09	-1.672333e+01	-7.630486e+01
7.000000e-07	-2.097643e-06	-1.152095e-09	-1.662871e+01	-7.593872e+01
7.100000e-07	-2.085505e-06	-1.126571e-09	-1.653248e+01	-7.556717e+01
7.200000e-07	-2.073257e-06	-1.109061e-09	-1.643539e+01	-7.519009e+01
7.300000e-07	-2.060956e-06	-1.126463e-09	-1.633787e+01	-7.480736e+01
7.400000e-07	-2.048589e-06	-1.140668e-09	-1.623983e+01	-7.441883e+01
7.500000e-07	-2.036138e-06	-1.110046e-09	-1.614113e+01	-7.402438e+01
7.600000e-07	-2.023443e-06	-1.076940e-09	-1.604049e+01	-7.362386e+01
7.700000e-07	-2.010459e-06	-1.085220e-09	-1.593756e+01	-7.321718e+01
7.800000e-07	-1.997284e-06	-1.111485e-09	-1.583312e+01	-7.280424e+01
7.900000e-07	-1.983958e-06	-1.104353e-09	-1.572748e+01	-7.238498e+01
8.000000e-07	-1.970477e-06	-1.064941e-09	-1.562061e+01	-7.195939e+01
8.100000e-07	-1.956858e-06	-1.042586e-09	-1.551266e+01	-7.152752e+01
8.200000e-07	-1.943095e-06	-1.064298e-09	-1.540355e+01	-7.108943e+01
8.300000e-07	-1.929100e-06	-1.087836e-09	-1.529260e+01	-7.064529e+01
8.400000e-07	-1.914932e-06	-1.062432e-09	-1.518029e+01	-7.019528e+01
8.500000e-07	-1.900779e-06	-1.017245e-09	-1.506810e+01	-6.973968e+01
8.600000e-07	-1.886610e-06	-1.015252e-09	-1.495578e+01	-6.927878e+01
8.700000e-07	-1.872280e-06	-1.048399e-09	-1.484217e+01	-6.881296e+01
8.800000e-07	-1.857772e-06	-1.047922e-09	-1.472717e+01	-6.834263e+01
8.900000e-07	-1.843001e-06	-1.004206e-09	-1.461007e+01	-6.786823e+01
9.000000e-07	-1.827929e-06	-9.761451e-10	-1.449059e+01	-6.739023e+01
9.100000e-07	-1.812647e-06	-9.943933e-10	-1.436945e+01	-6.690914e+01
9.200000e-07	-1.797252e-06	-1.011668e-09	-1.424740e+01	-6.642544e+01
9.300000e-07	-1.781712e-06	-9.910534e-10	-1.412422e+01	-6.593963e+01
9.400000e-07	-1.765984e-06	-9.576152e-10	-1.399953e+01	-6.545217e+01
9.500000e-07	-1.750132e-06	-9.533258e-10	-1.387387e+01	-6.496351e+01
9.600000e-07	-1.734073e-06	-9.691600e-10	-1.374657e+01	-6.447403e+01
9.700000e-07	-1.717783e-06	-9.685943e-10	-1.361743e+01	-6.398408e+01
9.800000e-07	-1.701400e-06	-9.457540e-10	-1.348755e+01	-6.349391e+01
9.900000e-07	-1.684816e-06	-9.279545e-10	-1.335608e+01	-6.300371e+01
1.000000e-06	-1.667933e-06	-9.277789e-10	-1.322225e+01	-6.251360e+01
1.010000e-06	-1.650946e-06	-9.325622e-10	-1.308759e+01	-6.202357e+01
1.020000e-06	-1.633964e-06	-9.282833e-10	-1.295297e+01	-6.153356e+01
1.030000e-06	-1.616857e-06	-9.162298e-10	-1.281735e+01	-6.104338e+01
1.040000e-06	-1.599668e-06	-9.031296e-10	-1.268109e+01	-6.055278e+01
1.050000e-06	-1.582441e-06	-8.951528e-10	-1.254452e+01	-6.006137e+01
1.060000e-06	-1.565098e-06	-8.938408e-10	-1.240705e+01	-5.956873e+01
1.070000e-06	-1.547595e-06	-8.939110e-10	-1.226829e+01	-5.907434e+01
1.080000e-06	-1.529955e-06	-8.849651e-10	-1.212845e+01	-5.857761e+01
1.090000e-06	-1.512338e-06	-8.701730e-10	-1.198880e+01	-5.807789e+01
1.100000e-06	-1.494691e-06	-8.621697e-10	-1.184890e+01	-5.757453e+01
1.110000e-06	-1.477076e-06	-8.636066e-10	-1.170927e+01	-5.706680e+01
1.120000e-06	-1.459524e-06	-8.613023e-10	-1.157012e+01	-5.655401e+01
1.130000e-06	-1.441849e-06	-8.477365e-10	-1.143001e+01	-5.603545e+01
1.140000e-06	-1.423978e-06	-8.333061e-10	-1.128834e+01	-5.551044e+01
1.150000e-06	-1.405972e-06	-8.284372e-10	-1.114560e+01	-5.497835e+01
1.160000e-06	-1.387878e-06	-8.313118e-10	-1.100217e+01	-5.443858e+01
1.170000e-06	-1.369726e-06	-8.269896e-10	-1.085826e+01	-5.389063e+01
1.180000e-06	-1.351552e-06	-8.112912e-10	-1.071420e+01	-5.333405e+01
1.190000e-06	-1.333273e-06	-7.961456e-10	-1.056929e+01	-5.276851e+01
1.200000e-06	-1.314817e-06	-7.924699e-10	-1.042299e+01	-5.219376e+01
1.210000e-06	-1.296209e-06	-7.912781e-10	-1.027547e+01	-5.160966e+01
1.220000e-06	-1.277536e-06	-7.788711e-10	-1.012744e+01	-5.101619e+01
1.230000e-06	-1.258761e-06	-7.593286e-10	-9.978610e+00	-5.041343e+01
1.240000e-06	-1.239804e-06	-7.465729e-10	-9.828329e+00	-4.980157e+01
1.250000e-06	-1.220667e-06	-7.448247e-10	-9.676624e+00	-4.918091e+01
1.260000e-06	-1.201454e-06	-7.420486e-10	-9.524322e+00	-4.855185e+01
1.270000e-06	-1.182207e-06	-7.300422e-10	-9.371742e+00	-4.791487e+01
1.280000e-06	-1.162818e-06	-7.155062e-10	-9.218037e+00	-4.727054e+01
1.290000e-06	-1.143317e-06	-7.084849e-10	-9.063451e+00	-4.661950e+01
1.300000e-06	-1.123786e-06	-7.053371e-10	-8.908619e+00	-4.596243e+01
1.310000e-06	-1.104217e-06	-6.982860e-10	-8.753490e+00	-4.530007e+01
1.320000e-06	-1.084582e-06	-6.869929e-10	-8.597834e+00	-4.463317e+01
1.330000e-06	-1.064869e-06	-6.749457e-10	-8.441569e+00	-4.396250e+01
1.340000e-06	-1.045074e-06	-6.652256e-10	-8.284640e+00	-4.328880e+01
1.350000e-06	-1.025267e-06	-6.577173e-10	-8.127624e+00	-4.261281e+01
1.360000e-06	-1.005475e-06	-6.495219e-10	-7.970730e+00	-4.193523e+01
1.370000e-06	-9.856039e-07	-6.393760e-10	-7.813205e+00	-4.125671e+01
1.380000e-06	-9.656667e-07	-6.284548e-10	-7.655156e+00	-4.057783e+01
1.390000e-06	-9.457138e-07	-6.184424e-10	-7.496983e+00	-3.989912e+01
1.400000e-06	-9.257425e-07	-6.113276e-10	-7.338663e+00	-3.922102e+01
1.410000e-06	-9.057866e-07	-6.024571e-10	-7.180467e+00	-3.854387e+01
1.420000e-06	-8.858341e-07	-5.886216e-10	-7.022297e+00	-3.786794e+01
1.430000e-06	-8.658608e-07	-5.739642e-10	-6.863962e+00	-3.719342e+01
1.440000e-06	-8.458890e-07	-5.638594e-10	-6.705639e+00	-3.652039e+01
1.450000e-06	-8.258755e-07	-5.547854e-10	-6.546985e+00	-3.584884e+01
1.460000e-06	-8.058084e-07	-5.450382e-10	-6.387907e+00	-3.517871e+01
1.470000e-06	-7.857102e-07	-5.356721e-10	-6.228582e+00	-3.450981e+01
1.480000e-06	-7.656043e-07	-5.282012e-10	-6.069196e+00	-3.384194e+01
1.490000e-06	-7.455290e-07	-5.227527e-10	-5.910052e+00	-3.317478e+01
1.500000e-06	-7.254261e-07	-5.163527e-10	-5.750690e+00	-3.250801e+01
1.510000e-06	-7.052666e-07	-5.040067e-10	-5.590879e+00	-3.184123e+01
1.520000e-06	-6.850335e-07	-4.869988e-10	-5.430485e+00	-3.117404e+01
1.530000e-06	-6.647399e-07	-4.747262e-10	-5.269610e+00	-3.050599e+01
1.540000e-06	-6.444298e-07	-4.677536e-10	-5.108606e+00	-2.983664e+01
1.550000e-06	-6.240668e-07	-4.589292e-10	-4.947182e+00	-2.916554e+01
1.560000e-06	-6.035954e-07	-4.471515e-10	-4.784898e+00	-2.849226e+01
1.570000e-06	-5.831010e-07	-4.375031e-10	-4.622432e+00	-2.781638e+01
1.580000e-06	-5.626310e-07	-4.305549e-10	-4.460160e+00	-2.713751e+01
1.590000e-06	-5.421298e-07	-4.241693e-10	-4.297640e+00	-2.645528e+01
1.600000e-06	-5.215560e-07	-4.151662e-10	-4.134545e+00	-2.576936e+01
1.610000e-06	-5.009580e-07	-4.029352e-10	-3.971258e+00	-2.507947e+01
1.620000e-06	-4.803395e-07	-3.916813e-10	-3.807808e+00	-2.438537e+01
1.630000e-06	-4.595966e-07	-3.828276e-10	-3.643373e+00	-2.368684e+01
1.640000e-06	-4.388317e-07	-3.743653e-10	-3.478762e+00	-2.298373e+01
1.650000e-06	-4.180370e-07	-3.650085e-10	-3.313916e+00	-2.227591e+01
1.660000e-06	-3.972136e-07	-3.528890e-10	-3.148842e+00	-2.156330e+01
1.670000e-06	-3.764497e-07	-3.390929e-10	-2.984240e+00	-2.084585e+01
1.680000e-06	-3.556573e-07	-3.297128e-10	-2.819412e+00	-2.012355e+01
1.690000e-06	-3.348123e-07	-3.225602e-10	-2.654167e+00	-1.939642e+01
1.700000e-06	-3.138984e-07	-3.089188e-10	-2.488375e+00	-1.866448e+01
1.710000e-06	-2.929383e-07	-2.898354e-10	-2.322218e+00	-1.792779e+01
1.720000e-06	-2.720098e-07	-2.741630e-10	-2.156311e+00	-1.718643e+01
1.730000e-06	-2.510550e-07	-2.658277e-10	-1.990195e+00	-1.644048e+01
1.740000e-06	-2.300533e-07	-2.575257e-10	-1.823708e+00	-1.569003e+01
1.750000e-06	-2.090175e-07	-2.421917e-10	-1.656950e+00	-1.493518e+01
1.760000e-06	-1.880299e-07	-2.245119e-10	-1.490574e+00	-1.417603e+01
1.770000e-06	-1.669515e-07	-2.127503e-10	-1.323479e+00	-1.341268e+01
1.780000e-06	-1.458021e-07	-2.053025e-10	-1.155821e+00	-1.264525e+01
1.790000e-06	-1.248776e-07	-1.959287e-10	-9.899456e-01	-1.187384e+01
1.800000e-06	-1.039376e-07	-1.829330e-10	-8.239473e-01	-1.109856e+01
1.810000e-06	-8.275756e-08	-1.686625e-10	-6.560462e-01	-1.031952e+01
1.820000e-06	-6.149446e-08	-1.573448e-10	-4.874867e-01	-9.536845e+00
1.830000e-06	-4.028099e-08	-1.491363e-10	-3.193206e-01	-8.750657e+00
1.840000e-06	-1.911472e-08	-1.385136e-10	-1.515286e-01	-7.961091e+00
1.850000e-06	1.989241e-09	-1.225349e-10	1.576936e-02	-7.168290e+00
1.860000e-06	2.306481e-08	-1.080428e-10	1.828423e-01	-6.372413e+00
1.870000e-06	4.410331e-08	-1.004695e-10	3.496214e-01	-5.573633e+00
1.880000e-06	6.514976e-08	-9.447114e-11	5.164635e-01	-4.772138e+00
1.890000e-06	8.632137e-08	-8.299696e-11	6.842977e-01	-3.968134e+00
1.900000e-06	1.075548e-07	-6.818252e-11	8.526218e-01	-3.161846e+00
1.910000e-06	1.286602e-07	-5.383628e-11	1.019932e+00	-2.353515e+00
1.920000e-06	1.497028e-07	-4.204709e-11	1.186743e+00	-1.543400e+00
1.930000e-06	1.707947e-07	-3.142230e-11	1.353946e+00	-7.317726e-01
1.940000e-06	1.918595e-07	-1.876097e-11	1.520933e+00	8.108009e-02
1.950000e-06	2.128995e-07	-6.504824e-12	1.687724e+00	8.948625e-01
1.960000e-06	2.338657e-07	4.151227e-12	1.853930e+00	1.709273e+00
1.970000e-06	2.547247e-07	1.348636e-11	2.019286e+00	2.524006e+00
1.980000e-06	2.755623e-07	2.391123e-11	2.184472e+00	3.338762e+00
1.990000e-06	2.964038e-07	3.711362e-11	2.349690e+00	4.153245e+00
2.000000e-06	3.172123e-07	5.151568e-11	2.514646e+00	4.967174e+00
2.010000e-06	3.380280e-07	6.572215e-11	2.679658e+00	5.780281e+00
2.020000e-06	3.588103e-07	7.885341e-11	2.844407e+00	6.592324e+00
2.030000e-06	3.795620e-07	9.107948e-11	3.008912e+00	7.403085e+00
2.040000e-06	4.003160e-07	1.038020e-10	3.173436e+00	8.212374e+00
2.050000e-06	4.210830e-07	1.169321e-10	3.338062e+00	9.020035e+00
2.060000e-06	4.417779e-07	1.296063e-10	3.502118e+00	9.825949e+00
2.070000e-06	4.623735e-07	1.409492e-10	3.665386e+00	1.063003e+01
2.080000e-06	4.829411e-07	1.530111e-10	3.828432e+00	1.143223e+01
2.090000e-06	5.034788e-07	1.674264e-10	3.991241e+00	1.223254e+01
2.100000e-06	5.240623e-07	1.813744e-10	4.154413e+00	1.303099e+01
2.110000e-06	5.446297e-07	1.951364e-10	4.317458e+00	1.382763e+01
2.120000e-06	5.651583e-07	2.072422e-10	4.480195e+00	1.462254e+01
2.130000e-06	5.856315e-07	2.190446e-10	4.642493e+00	1.541585e+01
2.140000e-06	6.060398e-07	2.336761e-10	4.804276e+00	1.620768e+01
2.150000e-06	6.264013e-07	2.494583e-10	4.965688e+00	1.699818e+01
2.160000e-06	6.466768e-07	2.619185e-10	5.126419e+00	1.778750e+01
2.170000e-06	6.669437e-07	2.698282e-10	5.287081e+00	1.857581e+01
2.180000e-06	6.872153e-07	2.806512e-10	5.447780e+00	1.936326e+01
2.190000e-06	7.074497e-07	2.954424e-10	5.608185e+00	2.014998e+01
2.200000e-06	7.276396e-07	3.098343e-10	5.768237e+00	2.093613e+01
2.210000e-06	7.477816e-07	3.222727e-10	5.927910e+00	2.172179e+01
2.220000e-06	7.678573e-07	3.347980e-10	6.087056e+00	2.250705e+01
2.230000e-06	7.878951e-07	3.478863e-10	6.245903e+00	2.329197e+01
2.240000e-06	8.079490e-07	3.627374e-10	6.404876e+00	2.407656e+01
2.250000e-06	8.279704e-07	3.769047e-10	6.563592e+00	2.486080e+01
2.260000e-06	8.479459e-07	3.888356e-10	6.721944e+00	2.564466e+01
2.270000e-06	8.679027e-07	3.997547e-10	6.880148e+00	2.642803e+01
2.280000e-06	8.878413e-07	4.105749e-10	7.038208e+00	2.721080e+01
2.290000e-06	9.077713e-07	4.233239e-10	7.196200e+00	2.799282e+01
2.300000e-06	9.276970e-07	4.359360e-10	7.354158e+00	2.877390e+01
2.310000e-06	9.476347e-07	4.460395e-10	7.512210e+00	2.955384e+01
2.320000e-06	9.675746e-07	4.573221e-10	7.670280e+00	3.033242e+01
2.330000e-06	9.874771e-07	4.715448e-10	7.828054e+00	3.110939e+01
2.340000e-06	1.007286e-06	4.856599e-10	7.985083e+00	3.188452e+01
2.350000e-06	1.027053e-06	4.980774e-10	8.141787e+00	3.265755e+01
2.360000e-06	1.046802e-06	5.099738e-10	8.298341e+00	3.342826e+01
2.370000e-06	1.066441e-06	5.220283e-10	8.454024e+00	3.419641e+01
2.380000e-06	1.086026e-06	5.346369e-10	8.609284e+00	3.496178e+01
2.390000e-06	1.105631e-06	5.469490e-10	8.764703e+00	3.572421e+01
2.400000e-06	1.125205e-06	5.574608e-10	8.919872e+00	3.648351e+01
2.410000e-06	1.144654e-06	5.687503e-10	9.074044e+00	3.723957e+01
2.420000e-06	1.163987e-06	5.813367e-10	9.227306e+00	3.799229e+01
2.430000e-06	1.183222e-06	5.943905e-10	9.379789e+00	3.874161e+01
2.440000e-06	1.202326e-06	6.040159e-10	9.531233e+00	3.948751e+01
2.450000e-06	1.221288e-06	6.132858e-10	9.681552e+00	4.023000e+01
2.460000e-06	1.240192e-06	6.255601e-10	9.831411e+00	4.096912e+01
2.470000e-06	1.259077e-06	6.377291e-10	9.981119e+00	4.170495e+01
2.480000e-06	1.277888e-06	6.473583e-10	1.013023e+01	4.243758e+01
2.490000e-06	1.296570e-06	6.596693e-10	1.027833e+01	4.316714e+01
2.500000e-06	1.315083e-06	6.717590e-10	1.042509e+01	4.389377e+01
2.510000e-06	1.333451e-06	6.815634e-10	1.057071e+01	4.461762e+01
2.520000e-06	1.351709e-06	6.920643e-10	1.071544e+01	4.533883e+01
2.530000e-06	1.369923e-06	7.032763e-10	1.085983e+01	4.605755e+01
2.540000e-06	1.388034e-06	7.148473e-10	1.100340e+01	4.677392e+01
2.550000e-06	1.405987e-06	7.246094e-10	1.114572e+01	4.748805e+01
2.560000e-06	1.423832e-06	7.328137e-10	1.128718e+01	4.820005e+01
2.570000e-06	1.441602e-06	7.410896e-10	1.142805e+01	4.890999e+01
2.580000e-06	1.459340e-06	7.511632e-10	1.156867e+01	4.961790e+01
2.590000e-06	1.476995e-06	7.615208e-10	1.170862e+01	5.032378e+01
2.600000e-06	1.494486e-06	7.721055e-10	1.184728e+01	5.102760e+01
2.610000e-06	1.511947e-06	7.824153e-10	1.198570e+01	5.172929e+01
2.620000e-06	1.529379e-06	7.935061e-10	1.212389e+01	5.242872e+01
2.630000e-06	1.546741e-06	8.047274e-10	1.226152e+01	5.312574e+01
2.640000e-06	1.564023e-06	8.168114e-10	1.239852e+01	5.382017e+01
2.650000e-06	1.581092e-06	8.288579e-10	1.253384e+01	5.451178e+01
2.660000e-06	1.598192e-06	8.386226e-10	1.266939e+01	5.520032e+01
2.670000e-06	1.615286e-06	8.457989e-10	1.280490e+01	5.588552e+01
2.680000e-06	1.632199e-06	8.545894e-10	1.293897e+01	5.656708e+01
2.690000e-06	1.649002e-06	8.653576e-10	1.307218e+01	5.724471e+01
2.700000e-06	1.665642e-06	8.755059e-10	1.320409e+01	5.791809e+01
2.710000e-06	1.682174e-06	8.868964e-10	1.333514e+01	5.858693e+01
2.720000e-06	1.698680e-06	8.981761e-10	1.346600e+01	5.925092e+01
2.730000e-06	1.715062e-06	9.069275e-10	1.359586e+01	5.990979e+01
2.740000e-06	1.731331e-06	9.154569e-10	1.372483e+01	6.056328e+01
2.750000e-06	1.747340e-06	9.254725e-10	1.385174e+01	6.121115e+01
2.760000e-06	1.763068e-06	9.363549e-10	1.397641e+01	6.185320e+01
2.770000e-06	1.778706e-06	9.467861e-10	1.410039e+01	6.248927e+01
2.780000e-06	1.794142e-06	9.554855e-10	1.422275e+01	6.311922e+01
2.790000e-06	1.809264e-06	9.630927e-10	1.434263e+01	6.374295e+01
2.800000e-06	1.824225e-06	9.728320e-10	1.446123e+01	6.436040e+01
2.810000e-06	1.839087e-06	9.845690e-10	1.457904e+01	6.497156e+01
2.820000e-06	1.853645e-06	9.952709e-10	1.469445e+01	6.557642e+01
2.830000e-06	1.868036e-06	1.007046e-09	1.480854e+01	6.617502e+01
2.840000e-06	1.882436e-06	1.020662e-09	1.492269e+01	6.676742e+01
2.850000e-06	1.896661e-06	1.031329e-09	1.503545e+01	6.735372e+01
2.860000e-06	1.910681e-06	1.039749e-09	1.514659e+01	6.793398e+01
2.870000e-06	1.924657e-06	1.049788e-09	1.525738e+01	6.850834e+01
2.880000e-06	1.938540e-06	1.058952e-09	1.536744e+01	6.907687e+01
2.890000e-06	1.952260e-06	1.067278e-09	1.547621e+01	6.963968e+01
2.900000e-06	1.965819e-06	1.075910e-09	1.558369e+01	7.019687e+01
