# Temperatura_=_20.0
# Concentracion g/m^3_=_12600.0
# C_Vs_to_Am_M_A/Vsm_=_65563218390.804596
# pendiente_HvsI_1/m_=_3716.3
# ordenada_HvsI_A/m_=_1297.0
# frecuencia_Hz_=_134899.31671136242

Tiempo_(s)	Campo_(V.s)	Magnetizacion_(V.s)	Campo_(kA/m)	Magnetizacion_(A/m)
0.000000e+00	-2.509077e-06	-1.438883e-09	-1.983484e+01	-9.572189e+01
1.000000e-08	-2.509319e-06	-1.388967e-09	-1.983676e+01	-9.561336e+01
2.000000e-08	-2.509440e-06	-1.330621e-09	-1.983772e+01	-9.548842e+01
3.000000e-08	-2.509438e-06	-1.387466e-09	-1.983770e+01	-9.534739e+01
4.000000e-08	-2.509293e-06	-1.522200e-09	-1.983656e+01	-9.519072e+01
5.000000e-08	-2.509012e-06	-1.527277e-09	-1.983434e+01	-9.501902e+01
6.000000e-08	-2.508625e-06	-1.366741e-09	-1.983128e+01	-9.483308e+01
7.000000e-08	-2.508063e-06	-1.349776e-09	-1.982683e+01	-9.463378e+01
8.000000e-08	-2.507204e-06	-1.359999e-09	-1.982004e+01	-9.442218e+01
9.000000e-08	-2.506223e-06	-1.449217e-09	-1.981228e+01	-9.419943e+01
1.000000e-07	-2.505284e-06	-1.571812e-09	-1.980486e+01	-9.396678e+01
1.100000e-07	-2.504023e-06	-1.426947e-09	-1.979490e+01	-9.372559e+01
1.200000e-07	-2.502247e-06	-1.296871e-09	-1.978085e+01	-9.347725e+01
1.300000e-07	-2.500164e-06	-1.362658e-09	-1.976439e+01	-9.322319e+01
1.400000e-07	-2.497942e-06	-1.504329e-09	-1.974683e+01	-9.296487e+01
1.500000e-07	-2.495340e-06	-1.384574e-09	-1.972625e+01	-9.270370e+01
1.600000e-07	-2.492341e-06	-1.300584e-09	-1.970254e+01	-9.244109e+01
1.700000e-07	-2.489149e-06	-1.365319e-09	-1.967731e+01	-9.217835e+01
1.800000e-07	-2.485735e-06	-1.499111e-09	-1.965033e+01	-9.191671e+01
1.900000e-07	-2.482170e-06	-1.444534e-09	-1.962214e+01	-9.165728e+01
2.000000e-07	-2.478470e-06	-1.293268e-09	-1.959289e+01	-9.140106e+01
2.100000e-07	-2.474643e-06	-1.304699e-09	-1.956264e+01	-9.114887e+01
2.200000e-07	-2.470734e-06	-1.409670e-09	-1.953174e+01	-9.090138e+01
2.300000e-07	-2.466763e-06	-1.480203e-09	-1.950034e+01	-9.065909e+01
2.400000e-07	-2.462729e-06	-1.366325e-09	-1.946846e+01	-9.042231e+01
2.500000e-07	-2.458598e-06	-1.272697e-09	-1.943580e+01	-9.019117e+01
2.600000e-07	-2.454301e-06	-1.258316e-09	-1.940183e+01	-8.996563e+01
2.700000e-07	-2.449823e-06	-1.407813e-09	-1.936643e+01	-8.974546e+01
2.800000e-07	-2.445214e-06	-1.448695e-09	-1.933000e+01	-8.953029e+01
2.900000e-07	-2.440405e-06	-1.327807e-09	-1.929198e+01	-8.931958e+01
3.000000e-07	-2.435318e-06	-1.217339e-09	-1.925177e+01	-8.911267e+01
3.100000e-07	-2.430006e-06	-1.316355e-09	-1.920977e+01	-8.890879e+01
3.200000e-07	-2.424503e-06	-1.448888e-09	-1.916627e+01	-8.870707e+01
3.300000e-07	-2.418925e-06	-1.382488e-09	-1.912217e+01	-8.850660e+01
3.400000e-07	-2.413234e-06	-1.254509e-09	-1.907719e+01	-8.830640e+01
3.500000e-07	-2.407353e-06	-1.269899e-09	-1.903070e+01	-8.810551e+01
3.600000e-07	-2.401317e-06	-1.384707e-09	-1.898298e+01	-8.790295e+01
3.700000e-07	-2.395155e-06	-1.376417e-09	-1.893427e+01	-8.769779e+01
3.800000e-07	-2.388842e-06	-1.300415e-09	-1.888436e+01	-8.748916e+01
3.900000e-07	-2.382263e-06	-1.278340e-09	-1.883236e+01	-8.727627e+01
4.000000e-07	-2.375544e-06	-1.318920e-09	-1.877924e+01	-8.705842e+01
4.100000e-07	-2.368762e-06	-1.320740e-09	-1.872563e+01	-8.683500e+01
4.200000e-07	-2.361735e-06	-1.312130e-09	-1.867007e+01	-8.660556e+01
4.300000e-07	-2.354593e-06	-1.315721e-09	-1.861361e+01	-8.636974e+01
4.400000e-07	-2.347312e-06	-1.303703e-09	-1.855606e+01	-8.612734e+01
4.500000e-07	-2.339766e-06	-1.267125e-09	-1.849640e+01	-8.587825e+01
4.600000e-07	-2.332101e-06	-1.277722e-09	-1.843581e+01	-8.562252e+01
4.700000e-07	-2.324377e-06	-1.325207e-09	-1.837475e+01	-8.536027e+01
4.800000e-07	-2.316555e-06	-1.313263e-09	-1.831292e+01	-8.509177e+01
4.900000e-07	-2.308615e-06	-1.242989e-09	-1.825015e+01	-8.481733e+01
5.000000e-07	-2.300547e-06	-1.231009e-09	-1.818637e+01	-8.453736e+01
5.100000e-07	-2.292334e-06	-1.296256e-09	-1.812144e+01	-8.425228e+01
5.200000e-07	-2.284088e-06	-1.311690e-09	-1.805626e+01	-8.396257e+01
5.300000e-07	-2.275693e-06	-1.243358e-09	-1.798989e+01	-8.366870e+01
5.400000e-07	-2.267070e-06	-1.208300e-09	-1.792173e+01	-8.337112e+01
5.500000e-07	-2.258338e-06	-1.252481e-09	-1.785269e+01	-8.307023e+01
5.600000e-07	-2.249423e-06	-1.275810e-09	-1.778222e+01	-8.276639e+01
5.700000e-07	-2.240169e-06	-1.235722e-09	-1.770906e+01	-8.245987e+01
5.800000e-07	-2.230528e-06	-1.206325e-09	-1.763285e+01	-8.215086e+01
5.900000e-07	-2.220697e-06	-1.219068e-09	-1.755513e+01	-8.183943e+01
6.000000e-07	-2.210663e-06	-1.227411e-09	-1.747581e+01	-8.152554e+01
6.100000e-07	-2.200257e-06	-1.218876e-09	-1.739355e+01	-8.120905e+01
6.200000e-07	-2.189547e-06	-1.218846e-09	-1.730889e+01	-8.088969e+01
6.300000e-07	-2.178577e-06	-1.211002e-09	-1.722217e+01	-8.056705e+01
6.400000e-07	-2.167348e-06	-1.190980e-09	-1.713339e+01	-8.024066e+01
6.500000e-07	-2.155970e-06	-1.191849e-09	-1.704345e+01	-7.990992e+01
6.600000e-07	-2.144416e-06	-1.209618e-09	-1.695212e+01	-7.957414e+01
6.700000e-07	-2.132693e-06	-1.197967e-09	-1.685944e+01	-7.923259e+01
6.800000e-07	-2.120870e-06	-1.172479e-09	-1.676598e+01	-7.888447e+01
6.900000e-07	-2.108905e-06	-1.178231e-09	-1.667139e+01	-7.852898e+01
7.000000e-07	-2.096831e-06	-1.192031e-09	-1.657594e+01	-7.816530e+01
7.100000e-07	-2.084670e-06	-1.177439e-09	-1.647981e+01	-7.779264e+01
7.200000e-07	-2.072399e-06	-1.163764e-09	-1.638280e+01	-7.741026e+01
7.300000e-07	-2.059990e-06	-1.169585e-09	-1.628471e+01	-7.701749e+01
7.400000e-07	-2.047445e-06	-1.158453e-09	-1.618554e+01	-7.661375e+01
7.500000e-07	-2.034773e-06	-1.134086e-09	-1.608536e+01	-7.619858e+01
7.600000e-07	-2.021891e-06	-1.141333e-09	-1.598352e+01	-7.577165e+01
7.700000e-07	-2.008754e-06	-1.158985e-09	-1.587968e+01	-7.533279e+01
7.800000e-07	-1.995441e-06	-1.135313e-09	-1.577443e+01	-7.488196e+01
7.900000e-07	-1.982026e-06	-1.106000e-09	-1.566838e+01	-7.441932e+01
8.000000e-07	-1.968481e-06	-1.119473e-09	-1.556131e+01	-7.394516e+01
8.100000e-07	-1.954693e-06	-1.139985e-09	-1.545231e+01	-7.345998e+01
8.200000e-07	-1.940751e-06	-1.117737e-09	-1.534210e+01	-7.296440e+01
8.300000e-07	-1.926767e-06	-1.084373e-09	-1.523155e+01	-7.245921e+01
8.400000e-07	-1.912707e-06	-1.082769e-09	-1.512040e+01	-7.194535e+01
8.500000e-07	-1.898519e-06	-1.097073e-09	-1.500824e+01	-7.142385e+01
8.600000e-07	-1.884183e-06	-1.092091e-09	-1.489491e+01	-7.089586e+01
8.700000e-07	-1.869609e-06	-1.069485e-09	-1.477970e+01	-7.036258e+01
8.800000e-07	-1.854789e-06	-1.052797e-09	-1.466254e+01	-6.982528e+01
8.900000e-07	-1.839824e-06	-1.053061e-09	-1.454425e+01	-6.928524e+01
9.000000e-07	-1.824664e-06	-1.057878e-09	-1.442440e+01	-6.874374e+01
9.100000e-07	-1.809341e-06	-1.048413e-09	-1.430327e+01	-6.820200e+01
9.200000e-07	-1.793906e-06	-1.026282e-09	-1.418125e+01	-6.766119e+01
9.300000e-07	-1.778318e-06	-1.011746e-09	-1.405802e+01	-6.712239e+01
9.400000e-07	-1.762543e-06	-1.013030e-09	-1.393332e+01	-6.658656e+01
9.500000e-07	-1.746565e-06	-1.015079e-09	-1.380701e+01	-6.605452e+01
9.600000e-07	-1.730289e-06	-1.000492e-09	-1.367834e+01	-6.552693e+01
9.700000e-07	-1.713840e-06	-9.788955e-10	-1.354831e+01	-6.500429e+01
9.800000e-07	-1.697317e-06	-9.706196e-10	-1.341769e+01	-6.448690e+01
9.900000e-07	-1.680637e-06	-9.734511e-10	-1.328583e+01	-6.397489e+01
1.000000e-06	-1.663846e-06	-9.687901e-10	-1.315310e+01	-6.346818e+01
1.010000e-06	-1.646903e-06	-9.544218e-10	-1.301916e+01	-6.296650e+01
1.020000e-06	-1.629813e-06	-9.432578e-10	-1.288406e+01	-6.246942e+01
1.030000e-06	-1.612676e-06	-9.388761e-10	-1.274859e+01	-6.197631e+01
1.040000e-06	-1.595448e-06	-9.351009e-10	-1.261239e+01	-6.148641e+01
1.050000e-06	-1.578138e-06	-9.268003e-10	-1.247555e+01	-6.099880e+01
1.060000e-06	-1.560730e-06	-9.160553e-10	-1.233794e+01	-6.051245e+01
1.070000e-06	-1.543238e-06	-9.054180e-10	-1.219966e+01	-6.002625e+01
1.080000e-06	-1.525656e-06	-8.980387e-10	-1.206067e+01	-5.953899e+01
1.090000e-06	-1.507938e-06	-8.972323e-10	-1.192061e+01	-5.904947e+01
1.100000e-06	-1.490212e-06	-8.966349e-10	-1.178048e+01	-5.855642e+01
1.110000e-06	-1.472461e-06	-8.871378e-10	-1.164016e+01	-5.805864e+01
1.120000e-06	-1.454600e-06	-8.714319e-10	-1.149896e+01	-5.755492e+01
1.130000e-06	-1.436676e-06	-8.637277e-10	-1.135726e+01	-5.704415e+01
1.140000e-06	-1.418682e-06	-8.650452e-10	-1.121501e+01	-5.652530e+01
1.150000e-06	-1.400651e-06	-8.593082e-10	-1.107248e+01	-5.599746e+01
1.160000e-06	-1.382570e-06	-8.452245e-10	-1.092954e+01	-5.545981e+01
1.170000e-06	-1.364348e-06	-8.337704e-10	-1.078549e+01	-5.491173e+01
1.180000e-06	-1.345975e-06	-8.299892e-10	-1.064025e+01	-5.435270e+01
1.190000e-06	-1.327452e-06	-8.286805e-10	-1.049382e+01	-5.378239e+01
1.200000e-06	-1.308808e-06	-8.187313e-10	-1.034644e+01	-5.320063e+01
1.210000e-06	-1.290014e-06	-8.035196e-10	-1.019787e+01	-5.260738e+01
1.220000e-06	-1.271150e-06	-7.917050e-10	-1.004874e+01	-5.200280e+01
1.230000e-06	-1.252226e-06	-7.855992e-10	-9.899140e+00	-5.138718e+01
1.240000e-06	-1.233228e-06	-7.771900e-10	-9.748960e+00	-5.076094e+01
1.250000e-06	-1.214081e-06	-7.596591e-10	-9.597597e+00	-5.012463e+01
1.260000e-06	-1.194780e-06	-7.441250e-10	-9.445017e+00	-4.947891e+01
1.270000e-06	-1.175409e-06	-7.380648e-10	-9.291882e+00	-4.882454e+01
1.280000e-06	-1.155885e-06	-7.351635e-10	-9.137543e+00	-4.816232e+01
1.290000e-06	-1.136236e-06	-7.284339e-10	-8.982215e+00	-4.749313e+01
1.300000e-06	-1.116560e-06	-7.187252e-10	-8.826670e+00	-4.681786e+01
1.310000e-06	-1.096912e-06	-7.087577e-10	-8.671346e+00	-4.613742e+01
1.320000e-06	-1.077200e-06	-7.004506e-10	-8.515521e+00	-4.545270e+01
1.330000e-06	-1.057398e-06	-6.914366e-10	-8.358984e+00	-4.476457e+01
1.340000e-06	-1.037618e-06	-6.773686e-10	-8.202619e+00	-4.407385e+01
1.350000e-06	-1.017754e-06	-6.604196e-10	-8.045587e+00	-4.338129e+01
1.360000e-06	-9.977954e-07	-6.468833e-10	-7.887808e+00	-4.268760e+01
1.370000e-06	-9.778394e-07	-6.411956e-10	-7.730051e+00	-4.199335e+01
1.380000e-06	-9.578697e-07	-6.378081e-10	-7.572187e+00	-4.129908e+01
1.390000e-06	-9.378908e-07	-6.286949e-10	-7.414249e+00	-4.060518e+01
1.400000e-06	-9.178947e-07	-6.184496e-10	-7.256175e+00	-3.991199e+01
1.410000e-06	-8.979146e-07	-6.089977e-10	-7.098227e+00	-3.921972e+01
1.420000e-06	-8.778977e-07	-6.002945e-10	-6.939989e+00	-3.852850e+01
1.430000e-06	-8.578386e-07	-5.874847e-10	-6.781417e+00	-3.783836e+01
1.440000e-06	-8.377974e-07	-5.704997e-10	-6.622987e+00	-3.714925e+01
1.450000e-06	-8.177132e-07	-5.546239e-10	-6.464216e+00	-3.646104e+01
1.460000e-06	-7.976195e-07	-5.470944e-10	-6.305371e+00	-3.577355e+01
1.470000e-06	-7.775438e-07	-5.483678e-10	-6.146668e+00	-3.508654e+01
1.480000e-06	-7.574073e-07	-5.460407e-10	-5.987484e+00	-3.439970e+01
1.490000e-06	-7.372083e-07	-5.364440e-10	-5.827806e+00	-3.371272e+01
1.500000e-06	-7.170242e-07	-5.252673e-10	-5.668246e+00	-3.302526e+01
1.510000e-06	-6.968130e-07	-5.153287e-10	-5.508472e+00	-3.233696e+01
1.520000e-06	-6.765063e-07	-5.066586e-10	-5.347942e+00	-3.164747e+01
1.530000e-06	-6.561981e-07	-4.991830e-10	-5.187401e+00	-3.095643e+01
1.540000e-06	-6.358324e-07	-4.891195e-10	-5.026405e+00	-3.026351e+01
1.550000e-06	-6.153850e-07	-4.764895e-10	-4.864764e+00	-2.956842e+01
1.560000e-06	-5.948967e-07	-4.682906e-10	-4.702799e+00	-2.887086e+01
1.570000e-06	-5.744419e-07	-4.655818e-10	-4.541099e+00	-2.817060e+01
1.580000e-06	-5.540124e-07	-4.590304e-10	-4.379599e+00	-2.746741e+01
1.590000e-06	-5.334608e-07	-4.449533e-10	-4.217134e+00	-2.676111e+01
1.600000e-06	-5.128688e-07	-4.317338e-10	-4.054349e+00	-2.605158e+01
1.610000e-06	-4.922671e-07	-4.238926e-10	-3.891488e+00	-2.533868e+01
1.620000e-06	-4.716168e-07	-4.176442e-10	-3.728243e+00	-2.462236e+01
1.630000e-06	-4.509150e-07	-4.064786e-10	-3.564590e+00	-2.390254e+01
1.640000e-06	-4.301041e-07	-3.912924e-10	-3.400074e+00	-2.317922e+01
1.650000e-06	-4.093071e-07	-3.806089e-10	-3.235669e+00	-2.245237e+01
1.660000e-06	-3.884485e-07	-3.715870e-10	-3.070778e+00	-2.172201e+01
1.670000e-06	-3.674432e-07	-3.612975e-10	-2.904725e+00	-2.098814e+01
1.680000e-06	-3.465101e-07	-3.501988e-10	-2.739244e+00	-2.025080e+01
1.690000e-06	-3.255375e-07	-3.367928e-10	-2.573451e+00	-1.951001e+01
1.700000e-06	-3.044476e-07	-3.225460e-10	-2.406730e+00	-1.876579e+01
1.710000e-06	-2.832827e-07	-3.089306e-10	-2.239417e+00	-1.801814e+01
1.720000e-06	-2.620970e-07	-2.976348e-10	-2.071939e+00	-1.726710e+01
1.730000e-06	-2.409827e-07	-2.875292e-10	-1.905025e+00	-1.651264e+01
1.740000e-06	-2.198401e-07	-2.728689e-10	-1.737888e+00	-1.575478e+01
1.750000e-06	-1.986948e-07	-2.559079e-10	-1.570730e+00	-1.499348e+01
1.760000e-06	-1.775550e-07	-2.445223e-10	-1.403615e+00	-1.422871e+01
1.770000e-06	-1.563663e-07	-2.373331e-10	-1.236113e+00	-1.346045e+01
1.780000e-06	-1.351635e-07	-2.257364e-10	-1.068500e+00	-1.268865e+01
1.790000e-06	-1.139314e-07	-2.106347e-10	-9.006544e-01	-1.191327e+01
1.800000e-06	-9.282376e-08	-1.995506e-10	-7.337938e-01	-1.113425e+01
1.810000e-06	-7.177209e-08	-1.927316e-10	-5.673754e-01	-1.035155e+01
1.820000e-06	-5.063285e-08	-1.846900e-10	-4.002647e-01	-9.565128e+00
1.830000e-06	-2.948270e-08	-1.708501e-10	-2.330677e-01	-8.774947e+00
1.840000e-06	-8.366406e-09	-1.544606e-10	-6.613842e-02	-7.980977e+00
1.850000e-06	1.275002e-08	-1.400791e-10	1.007919e-01	-7.183204e+00
1.860000e-06	3.389108e-08	-1.293543e-10	2.679170e-01	-6.381620e+00
1.870000e-06	5.504091e-08	-1.198872e-10	4.351114e-01	-5.576237e+00
1.880000e-06	7.617069e-08	-1.069576e-10	6.021474e-01	-4.767077e+00
1.890000e-06	9.732644e-08	-9.237686e-11	7.693886e-01	-3.954177e+00
1.900000e-06	1.184605e-07	-8.081209e-11	9.364583e-01	-3.137592e+00
1.910000e-06	1.395145e-07	-7.050336e-11	1.102895e+00	-2.317388e+00
1.920000e-06	1.605493e-07	-5.833297e-11	1.269181e+00	-1.493645e+00
1.930000e-06	1.815561e-07	-4.316428e-11	1.435244e+00	-6.664552e-01
1.940000e-06	2.026103e-07	-2.840301e-11	1.601682e+00	1.640800e-01
1.950000e-06	2.236360e-07	-1.859810e-11	1.767896e+00	9.978490e-01
1.960000e-06	2.446440e-07	-1.040231e-11	1.933969e+00	1.834733e+00
1.970000e-06	2.656283e-07	1.168226e-12	2.099854e+00	2.674608e+00
1.980000e-06	2.866291e-07	1.763118e-11	2.265871e+00	3.517344e+00
1.990000e-06	3.077094e-07	3.491657e-11	2.432516e+00	4.362808e+00
2.000000e-06	3.287438e-07	4.973353e-11	2.598797e+00	5.210864e+00
2.010000e-06	3.497246e-07	6.296944e-11	2.764656e+00	6.061370e+00
2.020000e-06	3.705360e-07	7.771781e-11	2.929174e+00	6.914183e+00
2.030000e-06	3.913062e-07	9.370091e-11	3.093368e+00	7.769154e+00
2.040000e-06	4.121325e-07	1.059997e-10	3.258005e+00	8.626128e+00
2.050000e-06	4.328454e-07	1.140681e-10	3.421745e+00	9.484942e+00
2.060000e-06	4.534978e-07	1.215072e-10	3.585007e+00	1.034542e+01
2.070000e-06	4.741260e-07	1.322576e-10	3.748078e+00	1.120738e+01
2.080000e-06	4.948060e-07	1.466022e-10	3.911558e+00	1.207062e+01
2.090000e-06	5.154851e-07	1.611897e-10	4.075031e+00	1.293493e+01
2.100000e-06	5.360674e-07	1.743635e-10	4.237739e+00	1.380005e+01
2.110000e-06	5.566030e-07	1.887942e-10	4.400078e+00	1.466574e+01
2.120000e-06	5.770930e-07	2.041565e-10	4.562056e+00	1.553169e+01
2.130000e-06	5.974775e-07	2.189786e-10	4.723201e+00	1.639761e+01
2.140000e-06	6.177622e-07	2.320107e-10	4.883556e+00	1.726316e+01
2.150000e-06	6.380279e-07	2.436960e-10	5.043762e+00	1.812796e+01
2.160000e-06	6.583323e-07	2.562303e-10	5.204273e+00	1.899163e+01
2.170000e-06	6.786386e-07	2.701433e-10	5.364798e+00	1.985376e+01
2.180000e-06	6.988885e-07	2.863219e-10	5.524879e+00	2.071391e+01
2.190000e-06	7.191803e-07	3.000715e-10	5.685290e+00	2.157164e+01
2.200000e-06	7.394586e-07	3.132045e-10	5.845595e+00	2.242649e+01
2.210000e-06	7.596255e-07	3.308177e-10	6.005019e+00	2.327799e+01
2.220000e-06	7.797201e-07	3.501988e-10	6.163872e+00	2.412569e+01
2.230000e-06	7.998124e-07	3.646486e-10	6.322706e+00	2.496914e+01
2.240000e-06	8.198981e-07	3.746719e-10	6.481488e+00	2.580791e+01
2.250000e-06	8.399844e-07	3.845674e-10	6.640276e+00	2.664158e+01
2.260000e-06	8.600745e-07	3.977290e-10	6.799092e+00	2.746979e+01
2.270000e-06	8.801029e-07	4.120866e-10	6.957422e+00	2.829222e+01
2.280000e-06	9.000950e-07	4.222335e-10	7.115464e+00	2.910860e+01
2.290000e-06	9.200582e-07	4.310800e-10	7.273278e+00	2.991869e+01
2.300000e-06	9.399936e-07	4.429423e-10	7.430872e+00	3.072236e+01
2.310000e-06	9.599260e-07	4.560396e-10	7.588442e+00	3.151953e+01
2.320000e-06	9.798568e-07	4.676140e-10	7.746000e+00	3.231020e+01
2.330000e-06	9.997268e-07	4.783079e-10	7.903077e+00	3.309442e+01
2.340000e-06	1.019551e-06	4.916414e-10	8.059794e+00	3.387237e+01
2.350000e-06	1.039384e-06	5.061524e-10	8.216573e+00	3.464428e+01
2.360000e-06	1.059216e-06	5.204313e-10	8.373355e+00	3.541043e+01
2.370000e-06	1.079000e-06	5.348708e-10	8.529754e+00	3.617123e+01
2.380000e-06	1.098632e-06	5.476513e-10	8.684949e+00	3.692710e+01
2.390000e-06	1.118207e-06	5.594067e-10	8.839690e+00	3.767854e+01
2.400000e-06	1.137737e-06	5.725695e-10	8.994084e+00	3.842611e+01
2.410000e-06	1.157154e-06	5.874386e-10	9.147574e+00	3.917039e+01
2.420000e-06	1.176530e-06	6.000062e-10	9.300744e+00	3.991200e+01
2.430000e-06	1.195869e-06	6.104477e-10	9.453626e+00	4.065155e+01
2.440000e-06	1.215059e-06	6.210755e-10	9.605329e+00	4.138967e+01
2.450000e-06	1.234129e-06	6.337733e-10	9.756082e+00	4.212697e+01
2.460000e-06	1.253135e-06	6.483012e-10	9.906326e+00	4.286404e+01
2.470000e-06	1.272051e-06	6.618932e-10	1.005586e+01	4.360142e+01
2.480000e-06	1.290851e-06	6.743764e-10	1.020448e+01	4.433960e+01
2.490000e-06	1.309477e-06	6.887582e-10	1.035173e+01	4.507902e+01
2.500000e-06	1.327972e-06	7.033528e-10	1.049793e+01	4.582003e+01
2.510000e-06	1.346385e-06	7.149581e-10	1.064350e+01	4.656291e+01
2.520000e-06	1.364610e-06	7.253712e-10	1.078757e+01	4.730785e+01
2.530000e-06	1.382682e-06	7.378345e-10	1.093043e+01	4.805493e+01
2.540000e-06	1.400706e-06	7.510990e-10	1.107291e+01	4.880418e+01
2.550000e-06	1.418669e-06	7.640910e-10	1.121491e+01	4.955547e+01
2.560000e-06	1.436540e-06	7.775148e-10	1.135619e+01	5.030865e+01
2.570000e-06	1.454287e-06	7.893298e-10	1.149649e+01	5.106341e+01
2.580000e-06	1.472020e-06	7.991329e-10	1.163667e+01	5.181941e+01
2.590000e-06	1.489649e-06	8.106706e-10	1.177603e+01	5.257620e+01
2.600000e-06	1.507142e-06	8.228796e-10	1.191432e+01	5.333328e+01
2.610000e-06	1.524608e-06	8.359204e-10	1.205239e+01	5.409009e+01
2.620000e-06	1.542090e-06	8.480604e-10	1.219059e+01	5.484601e+01
2.630000e-06	1.559526e-06	8.603910e-10	1.232842e+01	5.560042e+01
2.640000e-06	1.576760e-06	8.727223e-10	1.246466e+01	5.635264e+01
2.650000e-06	1.593920e-06	8.816527e-10	1.260032e+01	5.710200e+01
2.660000e-06	1.611077e-06	8.897713e-10	1.273594e+01	5.784785e+01
2.670000e-06	1.628163e-06	9.004863e-10	1.287101e+01	5.858953e+01
2.680000e-06	1.645123e-06	9.124446e-10	1.300509e+01	5.932641e+01
2.690000e-06	1.661914e-06	9.228631e-10	1.313783e+01	6.005793e+01
2.700000e-06	1.678533e-06	9.346969e-10	1.326920e+01	6.078353e+01
2.710000e-06	1.695036e-06	9.496420e-10	1.339966e+01	6.150273e+01
2.720000e-06	1.711401e-06	9.609293e-10	1.352903e+01	6.221510e+01
2.730000e-06	1.727607e-06	9.694835e-10	1.365714e+01	6.292027e+01
2.740000e-06	1.743661e-06	9.794271e-10	1.378405e+01	6.361793e+01
2.750000e-06	1.759540e-06	9.901027e-10	1.390958e+01	6.430784e+01
2.760000e-06	1.775240e-06	1.002969e-09	1.403369e+01	6.498981e+01
2.770000e-06	1.790649e-06	1.013201e-09	1.415550e+01	6.566372e+01
2.780000e-06	1.805879e-06	1.019729e-09	1.427590e+01	6.632947e+01
2.790000e-06	1.821047e-06	1.027845e-09	1.439581e+01	6.698705e+01
2.800000e-06	1.836049e-06	1.041928e-09	1.451440e+01	6.763644e+01
2.810000e-06	1.850919e-06	1.054260e-09	1.463196e+01	6.827769e+01
2.820000e-06	1.865627e-06	1.060935e-09	1.474823e+01	6.891085e+01
2.830000e-06	1.880119e-06	1.068657e-09	1.486279e+01	6.953599e+01
2.840000e-06	1.894504e-06	1.079643e-09	1.497650e+01	7.015317e+01
2.850000e-06	1.908791e-06	1.089276e-09	1.508945e+01	7.076247e+01
2.860000e-06	1.922974e-06	1.097315e-09	1.520156e+01	7.136395e+01
2.870000e-06	1.936947e-06	1.106380e-09	1.531202e+01	7.195765e+01
2.880000e-06	1.950690e-06	1.116452e-09	1.542067e+01	7.254360e+01
2.890000e-06	1.964315e-06	1.126578e-09	1.552838e+01	7.312181e+01
2.900000e-06	1.977809e-06	1.136619e-09	1.563505e+01	7.369225e+01
