# Temperatura_=_20.0
# Concentracion g/m^3_=_12600.0
# C_Vs_to_Am_M_A/Vsm_=_65563218390.804596
# pendiente_HvsI_1/m_=_3716.3
# ordenada_HvsI_A/m_=_1297.0
# frecuencia_Hz_=_134894.8988967303

Tiempo_(s)	Campo_(V.s)	Magnetizacion_(V.s)	Campo_(kA/m)	Magnetizacion_(A/m)
0.000000e+00	-2.505061e-06	-1.385092e-09	-1.983447e+01	-9.118328e+01
1.000000e-08	-2.505253e-06	-1.361610e-09	-1.983599e+01	-9.113317e+01
2.000000e-08	-2.505394e-06	-1.311519e-09	-1.983711e+01	-9.107135e+01
3.000000e-08	-2.505438e-06	-1.304951e-09	-1.983746e+01	-9.099727e+01
4.000000e-08	-2.505379e-06	-1.399013e-09	-1.983699e+01	-9.091045e+01
5.000000e-08	-2.505193e-06	-1.440165e-09	-1.983552e+01	-9.081051e+01
6.000000e-08	-2.504811e-06	-1.389987e-09	-1.983249e+01	-9.069717e+01
7.000000e-08	-2.504254e-06	-1.368551e-09	-1.982808e+01	-9.057028e+01
8.000000e-08	-2.503554e-06	-1.366894e-09	-1.982254e+01	-9.042980e+01
9.000000e-08	-2.502699e-06	-1.364211e-09	-1.981577e+01	-9.027588e+01
1.000000e-07	-2.501658e-06	-1.386563e-09	-1.980753e+01	-9.010878e+01
1.100000e-07	-2.500335e-06	-1.318488e-09	-1.979706e+01	-8.992896e+01
1.200000e-07	-2.498736e-06	-1.250546e-09	-1.978440e+01	-8.973700e+01
1.300000e-07	-2.496802e-06	-1.334555e-09	-1.976908e+01	-8.953366e+01
1.400000e-07	-2.494487e-06	-1.468331e-09	-1.975075e+01	-8.931982e+01
1.500000e-07	-2.491943e-06	-1.427478e-09	-1.973061e+01	-8.909652e+01
1.600000e-07	-2.489258e-06	-1.300232e-09	-1.970935e+01	-8.886489e+01
1.700000e-07	-2.486215e-06	-1.309526e-09	-1.968526e+01	-8.862616e+01
1.800000e-07	-2.482786e-06	-1.379858e-09	-1.965810e+01	-8.838162e+01
1.900000e-07	-2.479241e-06	-1.385620e-09	-1.963004e+01	-8.813262e+01
2.000000e-07	-2.475640e-06	-1.310259e-09	-1.960153e+01	-8.788053e+01
2.100000e-07	-2.471920e-06	-1.289638e-09	-1.957207e+01	-8.762668e+01
2.200000e-07	-2.468011e-06	-1.337339e-09	-1.954112e+01	-8.737240e+01
2.300000e-07	-2.464001e-06	-1.378449e-09	-1.950937e+01	-8.711892e+01
2.400000e-07	-2.459947e-06	-1.333473e-09	-1.947728e+01	-8.686738e+01
2.500000e-07	-2.455810e-06	-1.264119e-09	-1.944451e+01	-8.661882e+01
2.600000e-07	-2.451522e-06	-1.255036e-09	-1.941056e+01	-8.637412e+01
2.700000e-07	-2.447098e-06	-1.323115e-09	-1.937554e+01	-8.613400e+01
2.800000e-07	-2.442554e-06	-1.372143e-09	-1.933956e+01	-8.589902e+01
2.900000e-07	-2.437793e-06	-1.307860e-09	-1.930186e+01	-8.566952e+01
3.000000e-07	-2.432757e-06	-1.228530e-09	-1.926199e+01	-8.544569e+01
3.100000e-07	-2.427559e-06	-1.267537e-09	-1.922083e+01	-8.522747e+01
3.200000e-07	-2.422297e-06	-1.362779e-09	-1.917917e+01	-8.501466e+01
3.300000e-07	-2.416848e-06	-1.339909e-09	-1.913603e+01	-8.480684e+01
3.400000e-07	-2.411213e-06	-1.244655e-09	-1.909141e+01	-8.460342e+01
3.500000e-07	-2.405446e-06	-1.234262e-09	-1.904574e+01	-8.440366e+01
3.600000e-07	-2.399467e-06	-1.298649e-09	-1.899840e+01	-8.420668e+01
3.700000e-07	-2.393353e-06	-1.315245e-09	-1.894999e+01	-8.401149e+01
3.800000e-07	-2.387143e-06	-1.274350e-09	-1.890082e+01	-8.381700e+01
3.900000e-07	-2.380789e-06	-1.262707e-09	-1.885051e+01	-8.362205e+01
4.000000e-07	-2.374235e-06	-1.275106e-09	-1.879862e+01	-8.342548e+01
4.100000e-07	-2.367503e-06	-1.267297e-09	-1.874533e+01	-8.322608e+01
4.200000e-07	-2.360559e-06	-1.259780e-09	-1.869034e+01	-8.302271e+01
4.300000e-07	-2.353445e-06	-1.277267e-09	-1.863401e+01	-8.281425e+01
4.400000e-07	-2.346156e-06	-1.268224e-09	-1.857631e+01	-8.259968e+01
4.500000e-07	-2.338611e-06	-1.222257e-09	-1.851657e+01	-8.237805e+01
4.600000e-07	-2.330925e-06	-1.216208e-09	-1.845571e+01	-8.214856e+01
4.700000e-07	-2.323119e-06	-1.266474e-09	-1.839390e+01	-8.191054e+01
4.800000e-07	-2.315219e-06	-1.280475e-09	-1.833135e+01	-8.166346e+01
4.900000e-07	-2.307274e-06	-1.221323e-09	-1.826845e+01	-8.140695e+01
5.000000e-07	-2.299230e-06	-1.185166e-09	-1.820475e+01	-8.114081e+01
5.100000e-07	-2.291067e-06	-1.230738e-09	-1.814012e+01	-8.086498e+01
5.200000e-07	-2.282842e-06	-1.271696e-09	-1.807499e+01	-8.057959e+01
5.300000e-07	-2.274487e-06	-1.228526e-09	-1.800884e+01	-8.028487e+01
5.400000e-07	-2.265952e-06	-1.171354e-09	-1.794127e+01	-7.998121e+01
5.500000e-07	-2.257304e-06	-1.182928e-09	-1.787279e+01	-7.966911e+01
5.600000e-07	-2.248502e-06	-1.226339e-09	-1.780310e+01	-7.934915e+01
5.700000e-07	-2.239459e-06	-1.223420e-09	-1.773150e+01	-7.902202e+01
5.800000e-07	-2.230197e-06	-1.184612e-09	-1.765817e+01	-7.868842e+01
5.900000e-07	-2.220673e-06	-1.159469e-09	-1.758276e+01	-7.834910e+01
6.000000e-07	-2.210711e-06	-1.164367e-09	-1.750388e+01	-7.800480e+01
6.100000e-07	-2.200417e-06	-1.186641e-09	-1.742238e+01	-7.765626e+01
6.200000e-07	-2.189849e-06	-1.198414e-09	-1.733870e+01	-7.730415e+01
6.300000e-07	-2.179029e-06	-1.169971e-09	-1.725303e+01	-7.694909e+01
6.400000e-07	-2.168097e-06	-1.129810e-09	-1.716647e+01	-7.659164e+01
6.500000e-07	-2.156951e-06	-1.143502e-09	-1.707822e+01	-7.623222e+01
6.600000e-07	-2.145587e-06	-1.190258e-09	-1.698825e+01	-7.587119e+01
6.700000e-07	-2.134097e-06	-1.180259e-09	-1.689727e+01	-7.550878e+01
6.800000e-07	-2.122466e-06	-1.120310e-09	-1.680518e+01	-7.514508e+01
6.900000e-07	-2.110649e-06	-1.108516e-09	-1.671161e+01	-7.478010e+01
7.000000e-07	-2.098672e-06	-1.149722e-09	-1.661678e+01	-7.441372e+01
7.100000e-07	-2.086639e-06	-1.158900e-09	-1.652151e+01	-7.404571e+01
7.200000e-07	-2.074493e-06	-1.119872e-09	-1.642534e+01	-7.367576e+01
7.300000e-07	-2.062164e-06	-1.095453e-09	-1.632772e+01	-7.330348e+01
7.400000e-07	-2.049711e-06	-1.104558e-09	-1.622912e+01	-7.292840e+01
7.500000e-07	-2.037092e-06	-1.116918e-09	-1.612921e+01	-7.255001e+01
7.600000e-07	-2.024269e-06	-1.117974e-09	-1.602768e+01	-7.216780e+01
7.700000e-07	-2.011274e-06	-1.106544e-09	-1.592478e+01	-7.178122e+01
7.800000e-07	-1.998135e-06	-1.086086e-09	-1.582076e+01	-7.138976e+01
7.900000e-07	-1.984842e-06	-1.082089e-09	-1.571550e+01	-7.099292e+01
8.000000e-07	-1.971418e-06	-1.098121e-09	-1.560922e+01	-7.059028e+01
8.100000e-07	-1.957900e-06	-1.099591e-09	-1.550219e+01	-7.018146e+01
8.200000e-07	-1.944220e-06	-1.072079e-09	-1.539387e+01	-6.976618e+01
8.300000e-07	-1.930356e-06	-1.057400e-09	-1.528410e+01	-6.934426e+01
8.400000e-07	-1.916252e-06	-1.071614e-09	-1.517243e+01	-6.891559e+01
8.500000e-07	-1.901951e-06	-1.078321e-09	-1.505920e+01	-6.848018e+01
8.600000e-07	-1.887646e-06	-1.061104e-09	-1.494593e+01	-6.803817e+01
8.700000e-07	-1.873221e-06	-1.044295e-09	-1.483171e+01	-6.758977e+01
8.800000e-07	-1.858521e-06	-1.041276e-09	-1.471533e+01	-6.713529e+01
8.900000e-07	-1.843618e-06	-1.040716e-09	-1.459733e+01	-6.667515e+01
9.000000e-07	-1.828626e-06	-1.034340e-09	-1.447862e+01	-6.620981e+01
9.100000e-07	-1.813511e-06	-1.023940e-09	-1.435895e+01	-6.573982e+01
9.200000e-07	-1.798303e-06	-1.013474e-09	-1.423853e+01	-6.526575e+01
9.300000e-07	-1.782880e-06	-1.004071e-09	-1.411642e+01	-6.478822e+01
9.400000e-07	-1.767020e-06	-9.995401e-10	-1.399084e+01	-6.430782e+01
9.500000e-07	-1.750999e-06	-9.998869e-10	-1.386399e+01	-6.382515e+01
9.600000e-07	-1.734902e-06	-9.948693e-10	-1.373654e+01	-6.334077e+01
9.700000e-07	-1.718584e-06	-9.780802e-10	-1.360734e+01	-6.285517e+01
9.800000e-07	-1.702171e-06	-9.629318e-10	-1.347738e+01	-6.236880e+01
9.900000e-07	-1.685669e-06	-9.575434e-10	-1.334672e+01	-6.188198e+01
1.000000e-06	-1.669000e-06	-9.545380e-10	-1.321474e+01	-6.139498e+01
1.010000e-06	-1.652187e-06	-9.423698e-10	-1.308162e+01	-6.090792e+01
1.020000e-06	-1.635212e-06	-9.282461e-10	-1.294722e+01	-6.042083e+01
1.030000e-06	-1.618143e-06	-9.210627e-10	-1.281207e+01	-5.993361e+01
1.040000e-06	-1.601018e-06	-9.196005e-10	-1.267648e+01	-5.944604e+01
1.050000e-06	-1.583803e-06	-9.153272e-10	-1.254017e+01	-5.895780e+01
1.060000e-06	-1.566479e-06	-9.047574e-10	-1.240301e+01	-5.846844e+01
1.070000e-06	-1.549022e-06	-8.928545e-10	-1.226479e+01	-5.797744e+01
1.080000e-06	-1.531475e-06	-8.847458e-10	-1.212585e+01	-5.748418e+01
1.090000e-06	-1.513849e-06	-8.823339e-10	-1.198630e+01	-5.698797e+01
1.100000e-06	-1.496165e-06	-8.759261e-10	-1.184628e+01	-5.648808e+01
1.110000e-06	-1.478465e-06	-8.620535e-10	-1.170613e+01	-5.598374e+01
1.120000e-06	-1.460735e-06	-8.494496e-10	-1.156575e+01	-5.547418e+01
1.130000e-06	-1.442862e-06	-8.460857e-10	-1.142423e+01	-5.495864e+01
1.140000e-06	-1.424935e-06	-8.466612e-10	-1.128230e+01	-5.443637e+01
1.150000e-06	-1.406988e-06	-8.385101e-10	-1.114019e+01	-5.390669e+01
1.160000e-06	-1.388929e-06	-8.254457e-10	-1.099721e+01	-5.336898e+01
1.170000e-06	-1.370780e-06	-8.172868e-10	-1.085351e+01	-5.282272e+01
1.180000e-06	-1.352519e-06	-8.127568e-10	-1.070892e+01	-5.226746e+01
1.190000e-06	-1.334137e-06	-8.033091e-10	-1.056337e+01	-5.170287e+01
1.200000e-06	-1.315584e-06	-7.885145e-10	-1.041648e+01	-5.112874e+01
1.210000e-06	-1.296860e-06	-7.748074e-10	-1.026823e+01	-5.054498e+01
1.220000e-06	-1.278053e-06	-7.654799e-10	-1.011931e+01	-4.995163e+01
1.230000e-06	-1.259237e-06	-7.571349e-10	-9.970335e+00	-4.934883e+01
1.240000e-06	-1.240316e-06	-7.472582e-10	-9.820528e+00	-4.873684e+01
1.250000e-06	-1.221211e-06	-7.356535e-10	-9.669256e+00	-4.811606e+01
1.260000e-06	-1.201994e-06	-7.258125e-10	-9.517101e+00	-4.748695e+01
1.270000e-06	-1.182735e-06	-7.191530e-10	-9.364613e+00	-4.685008e+01
1.280000e-06	-1.163357e-06	-7.098655e-10	-9.211181e+00	-4.620606e+01
1.290000e-06	-1.143851e-06	-6.991870e-10	-9.056735e+00	-4.555558e+01
1.300000e-06	-1.124256e-06	-6.901515e-10	-8.901593e+00	-4.489937e+01
1.310000e-06	-1.104573e-06	-6.825204e-10	-8.745749e+00	-4.423815e+01
1.320000e-06	-1.084813e-06	-6.756766e-10	-8.589288e+00	-4.357267e+01
1.330000e-06	-1.064970e-06	-6.702631e-10	-8.432176e+00	-4.290366e+01
1.340000e-06	-1.045082e-06	-6.602556e-10	-8.274706e+00	-4.223180e+01
1.350000e-06	-1.025228e-06	-6.454795e-10	-8.117512e+00	-4.155774e+01
1.360000e-06	-1.005387e-06	-6.336612e-10	-7.960412e+00	-4.088208e+01
1.370000e-06	-9.855062e-07	-6.264700e-10	-7.803003e+00	-4.020535e+01
1.380000e-06	-9.655807e-07	-6.176204e-10	-7.645237e+00	-3.952798e+01
1.390000e-06	-9.455915e-07	-6.048752e-10	-7.486967e+00	-3.885036e+01
1.400000e-06	-9.255910e-07	-5.950032e-10	-7.328608e+00	-3.817278e+01
1.410000e-06	-9.055755e-07	-5.910305e-10	-7.170130e+00	-3.749544e+01
1.420000e-06	-8.855276e-07	-5.872260e-10	-7.011396e+00	-3.681848e+01
1.430000e-06	-8.654668e-07	-5.793528e-10	-6.852559e+00	-3.614196e+01
1.440000e-06	-8.453978e-07	-5.678549e-10	-6.693658e+00	-3.546587e+01
1.450000e-06	-8.253033e-07	-5.561235e-10	-6.534554e+00	-3.479016e+01
1.460000e-06	-8.052017e-07	-5.494549e-10	-6.375394e+00	-3.411471e+01
1.470000e-06	-7.850694e-07	-5.470545e-10	-6.215992e+00	-3.343939e+01
1.480000e-06	-7.649194e-07	-5.396032e-10	-6.056449e+00	-3.276403e+01
1.490000e-06	-7.448059e-07	-5.253047e-10	-5.897195e+00	-3.208846e+01
1.500000e-06	-7.246556e-07	-5.121577e-10	-5.737650e+00	-3.141248e+01
1.510000e-06	-7.044707e-07	-5.037628e-10	-5.577830e+00	-3.073594e+01
1.520000e-06	-6.841893e-07	-4.944516e-10	-5.417247e+00	-3.005868e+01
1.530000e-06	-6.637991e-07	-4.831668e-10	-5.255802e+00	-2.938058e+01
1.540000e-06	-6.434654e-07	-4.744582e-10	-5.094805e+00	-2.870153e+01
1.550000e-06	-6.231509e-07	-4.668973e-10	-4.933960e+00	-2.802148e+01
1.560000e-06	-6.027723e-07	-4.556905e-10	-4.772607e+00	-2.734039e+01
1.570000e-06	-5.822933e-07	-4.448327e-10	-4.610459e+00	-2.665827e+01
1.580000e-06	-5.617472e-07	-4.352919e-10	-4.447780e+00	-2.597515e+01
1.590000e-06	-5.412770e-07	-4.230076e-10	-4.285702e+00	-2.529110e+01
1.600000e-06	-5.208083e-07	-4.102548e-10	-4.123636e+00	-2.460618e+01
1.610000e-06	-5.002570e-07	-4.017426e-10	-3.960915e+00	-2.392050e+01
1.620000e-06	-4.796754e-07	-3.961668e-10	-3.797955e+00	-2.323413e+01
1.630000e-06	-4.590672e-07	-3.872713e-10	-3.634785e+00	-2.254715e+01
1.640000e-06	-4.384373e-07	-3.751806e-10	-3.471441e+00	-2.185964e+01
1.650000e-06	-4.177260e-07	-3.649887e-10	-3.307454e+00	-2.117160e+01
1.660000e-06	-3.969053e-07	-3.581380e-10	-3.142601e+00	-2.048303e+01
1.670000e-06	-3.760720e-07	-3.492662e-10	-2.977648e+00	-1.979385e+01
1.680000e-06	-3.552870e-07	-3.376389e-10	-2.813077e+00	-1.910396e+01
1.690000e-06	-3.344347e-07	-3.241620e-10	-2.647974e+00	-1.841316e+01
1.700000e-06	-3.135040e-07	-3.092282e-10	-2.482250e+00	-1.772120e+01
1.710000e-06	-2.925103e-07	-2.948755e-10	-2.316026e+00	-1.702776e+01
1.720000e-06	-2.714972e-07	-2.817231e-10	-2.149650e+00	-1.633244e+01
1.730000e-06	-2.505026e-07	-2.694587e-10	-1.983420e+00	-1.563479e+01
1.740000e-06	-2.295376e-07	-2.583564e-10	-1.817424e+00	-1.493429e+01
1.750000e-06	-2.085258e-07	-2.453947e-10	-1.651058e+00	-1.423039e+01
1.760000e-06	-1.874183e-07	-2.325344e-10	-1.483933e+00	-1.352247e+01
1.770000e-06	-1.663369e-07	-2.205271e-10	-1.317016e+00	-1.280991e+01
1.780000e-06	-1.452307e-07	-2.072421e-10	-1.149902e+00	-1.209206e+01
1.790000e-06	-1.241453e-07	-1.931374e-10	-9.829531e-01	-1.136829e+01
1.800000e-06	-1.030735e-07	-1.795987e-10	-8.161112e-01	-1.063797e+01
1.810000e-06	-8.190067e-08	-1.677295e-10	-6.484700e-01	-9.900537e+00
1.820000e-06	-6.071526e-08	-1.583215e-10	-4.807289e-01	-9.155455e+00
1.830000e-06	-3.953201e-08	-1.499868e-10	-3.130050e-01	-8.402276e+00
1.840000e-06	-1.842728e-08	-1.401515e-10	-1.459028e-01	-7.640633e+00
1.850000e-06	2.630653e-09	-1.291379e-10	2.082889e-02	-6.870263e+00
1.860000e-06	2.375763e-08	-1.164964e-10	1.881072e-01	-6.091013e+00
1.870000e-06	4.489684e-08	-1.044351e-10	3.554824e-01	-5.302853e+00
1.880000e-06	6.594272e-08	-9.259044e-11	5.221187e-01	-4.505881e+00
1.890000e-06	8.693445e-08	-7.973270e-11	6.883262e-01	-3.700324e+00
1.900000e-06	1.080342e-07	-6.702423e-11	8.553893e-01	-2.886545e+00
1.910000e-06	1.291324e-07	-5.473710e-11	1.022440e+00	-2.065031e+00
1.920000e-06	1.502249e-07	-4.291540e-11	1.189445e+00	-1.236393e+00
1.930000e-06	1.713032e-07	-2.968811e-11	1.356338e+00	-4.013520e-01
1.940000e-06	1.922889e-07	-1.512420e-11	1.522498e+00	4.392684e-01
1.950000e-06	2.132700e-07	-4.539971e-12	1.688621e+00	1.284562e+00
1.960000e-06	2.342645e-07	5.365588e-12	1.854850e+00	2.133555e+00
1.970000e-06	2.552815e-07	1.899965e-11	2.021258e+00	2.985227e+00
1.980000e-06	2.763301e-07	3.311014e-11	2.187916e+00	3.838528e+00
1.990000e-06	2.973853e-07	4.554589e-11	2.354626e+00	4.692403e+00
2.000000e-06	3.184157e-07	5.732060e-11	2.521139e+00	5.545814e+00
2.010000e-06	3.393498e-07	7.005918e-11	2.686890e+00	6.397757e+00
2.020000e-06	3.602146e-07	8.334809e-11	2.852093e+00	7.247287e+00
2.030000e-06	3.810072e-07	9.666024e-11	3.016724e+00	8.093531e+00
2.040000e-06	4.017414e-07	1.071737e-10	3.180892e+00	8.935712e+00
2.050000e-06	4.225695e-07	1.155864e-10	3.345804e+00	9.773156e+00
2.060000e-06	4.434040e-07	1.263264e-10	3.510766e+00	1.060531e+01
2.070000e-06	4.640788e-07	1.394592e-10	3.674465e+00	1.143173e+01
2.080000e-06	4.846633e-07	1.515272e-10	3.837448e+00	1.225213e+01
2.090000e-06	5.051972e-07	1.624992e-10	4.000031e+00	1.306634e+01
2.100000e-06	5.256785e-07	1.747158e-10	4.162197e+00	1.387431e+01
2.110000e-06	5.462430e-07	1.876993e-10	4.325021e+00	1.467614e+01
2.120000e-06	5.668239e-07	2.003684e-10	4.487976e+00	1.547202e+01
2.130000e-06	5.873333e-07	2.114548e-10	4.650364e+00	1.626226e+01
2.140000e-06	6.077995e-07	2.237209e-10	4.812411e+00	1.704725e+01
2.150000e-06	6.281846e-07	2.368509e-10	4.973816e+00	1.782747e+01
2.160000e-06	6.484808e-07	2.483052e-10	5.134516e+00	1.860344e+01
2.170000e-06	6.687098e-07	2.594093e-10	5.294684e+00	1.937573e+01
2.180000e-06	6.889338e-07	2.713102e-10	5.454813e+00	2.014492e+01
2.190000e-06	7.091628e-07	2.834070e-10	5.614982e+00	2.091159e+01
2.200000e-06	7.293854e-07	2.955329e-10	5.775099e+00	2.167633e+01
2.210000e-06	7.495835e-07	3.107285e-10	5.935023e+00	2.243965e+01
2.220000e-06	7.697620e-07	3.278380e-10	6.094792e+00	2.320205e+01
2.230000e-06	7.899012e-07	3.421865e-10	6.254249e+00	2.396393e+01
2.240000e-06	8.099932e-07	3.529592e-10	6.413333e+00	2.472563e+01
2.250000e-06	8.300914e-07	3.634282e-10	6.572465e+00	2.548743e+01
2.260000e-06	8.501736e-07	3.751057e-10	6.731471e+00	2.624947e+01
2.270000e-06	8.702081e-07	3.875113e-10	6.890099e+00	2.701184e+01
2.280000e-06	8.902444e-07	3.993193e-10	7.048742e+00	2.777453e+01
2.290000e-06	9.102628e-07	4.111695e-10	7.207243e+00	2.853742e+01
2.300000e-06	9.302484e-07	4.248278e-10	7.365484e+00	2.930035e+01
2.310000e-06	9.502153e-07	4.388477e-10	7.523578e+00	3.006304e+01
2.320000e-06	9.701471e-07	4.494104e-10	7.681393e+00	3.082519e+01
2.330000e-06	9.900374e-07	4.572704e-10	7.838879e+00	3.158644e+01
2.340000e-06	1.009923e-06	4.680232e-10	7.996325e+00	3.234638e+01
2.350000e-06	1.029846e-06	4.819018e-10	8.154076e+00	3.310461e+01
2.360000e-06	1.049675e-06	4.960599e-10	8.311079e+00	3.386070e+01
2.370000e-06	1.069360e-06	5.084631e-10	8.466938e+00	3.461425e+01
2.380000e-06	1.088991e-06	5.209989e-10	8.622370e+00	3.536489e+01
2.390000e-06	1.108576e-06	5.347410e-10	8.777442e+00	3.611227e+01
2.400000e-06	1.128129e-06	5.495628e-10	8.932256e+00	3.685612e+01
2.410000e-06	1.147607e-06	5.624131e-10	9.086481e+00	3.759622e+01
2.420000e-06	1.166877e-06	5.741546e-10	9.239050e+00	3.833241e+01
2.430000e-06	1.185996e-06	5.887329e-10	9.390431e+00	3.906463e+01
2.440000e-06	1.205101e-06	6.011661e-10	9.541698e+00	3.979288e+01
2.450000e-06	1.224166e-06	6.102675e-10	9.692657e+00	4.051723e+01
2.460000e-06	1.243119e-06	6.209572e-10	9.842717e+00	4.123785e+01
2.470000e-06	1.261918e-06	6.328965e-10	9.991563e+00	4.195496e+01
2.480000e-06	1.280667e-06	6.454120e-10	1.014002e+01	4.266883e+01
2.490000e-06	1.299375e-06	6.579172e-10	1.028814e+01	4.337981e+01
2.500000e-06	1.317897e-06	6.698050e-10	1.043479e+01	4.408826e+01
2.510000e-06	1.336252e-06	6.820709e-10	1.058012e+01	4.479457e+01
2.520000e-06	1.354459e-06	6.932483e-10	1.072429e+01	4.549915e+01
2.530000e-06	1.372542e-06	7.035701e-10	1.086746e+01	4.620239e+01
2.540000e-06	1.390531e-06	7.138555e-10	1.100989e+01	4.690466e+01
2.550000e-06	1.408473e-06	7.239564e-10	1.115195e+01	4.760629e+01
2.560000e-06	1.426411e-06	7.320810e-10	1.129398e+01	4.830757e+01
2.570000e-06	1.444271e-06	7.408133e-10	1.143540e+01	4.900872e+01
2.580000e-06	1.462062e-06	7.502374e-10	1.157626e+01	4.970989e+01
2.590000e-06	1.479802e-06	7.600330e-10	1.171672e+01	5.041114e+01
2.600000e-06	1.497459e-06	7.696487e-10	1.185652e+01	5.111244e+01
2.610000e-06	1.515010e-06	7.794568e-10	1.199549e+01	5.181369e+01
2.620000e-06	1.532485e-06	7.887557e-10	1.213385e+01	5.251468e+01
2.630000e-06	1.549885e-06	7.967968e-10	1.227162e+01	5.321510e+01
2.640000e-06	1.567207e-06	8.058972e-10	1.240877e+01	5.391457e+01
2.650000e-06	1.584368e-06	8.153638e-10	1.254465e+01	5.461263e+01
2.660000e-06	1.601452e-06	8.237548e-10	1.267991e+01	5.530875e+01
2.670000e-06	1.618522e-06	8.313608e-10	1.281507e+01	5.600234e+01
2.680000e-06	1.635471e-06	8.394934e-10	1.294927e+01	5.669277e+01
2.690000e-06	1.652292e-06	8.499298e-10	1.308245e+01	5.737937e+01
2.700000e-06	1.669079e-06	8.628019e-10	1.321536e+01	5.806147e+01
2.710000e-06	1.685755e-06	8.766197e-10	1.334740e+01	5.873839e+01
2.720000e-06	1.702162e-06	8.883389e-10	1.347731e+01	5.940948e+01
2.730000e-06	1.718316e-06	8.975853e-10	1.360522e+01	6.007410e+01
2.740000e-06	1.734450e-06	9.072070e-10	1.373296e+01	6.073168e+01
2.750000e-06	1.750459e-06	9.149811e-10	1.385972e+01	6.138170e+01
2.760000e-06	1.766182e-06	9.220567e-10	1.398421e+01	6.202370e+01
2.770000e-06	1.781666e-06	9.305112e-10	1.410680e+01	6.265731e+01
2.780000e-06	1.797019e-06	9.394305e-10	1.422837e+01	6.328224e+01
2.790000e-06	1.812217e-06	9.481384e-10	1.434870e+01	6.389828e+01
2.800000e-06	1.827076e-06	9.585587e-10	1.446635e+01	6.450532e+01
2.810000e-06	1.841842e-06	9.698385e-10	1.458326e+01	6.510332e+01
2.820000e-06	1.856570e-06	9.786927e-10	1.469988e+01	6.569236e+01
2.830000e-06	1.871099e-06	9.881415e-10	1.481491e+01	6.627255e+01
2.840000e-06	1.885460e-06	9.990873e-10	1.492862e+01	6.684409e+01
2.850000e-06	1.899705e-06	1.008251e-09	1.504141e+01	6.740726e+01
2.860000e-06	1.913758e-06	1.016808e-09	1.515268e+01	6.796235e+01
2.870000e-06	1.927663e-06	1.026028e-09	1.526277e+01	6.850970e+01
2.880000e-06	1.941498e-06	1.036811e-09	1.537232e+01	6.904967e+01
2.890000e-06	1.955203e-06	1.047946e-09	1.548083e+01	6.958265e+01
2.900000e-06	1.968720e-06	1.058715e-09	1.558786e+01	7.010898e+01
