# Temperatura_=_20.0
# Concentracion g/m^3_=_12600.0
# C_Vs_to_Am_M_A/Vsm_=_65563218390.804596
# pendiente_HvsI_1/m_=_3716.3
# ordenada_HvsI_A/m_=_1297.0
# frecuencia_Hz_=_134896.68507945072

Tiempo_(s)	Campo_(V.s)	Magnetizacion_(V.s)	Campo_(kA/m)	Magnetizacion_(A/m)
0.000000e+00	-2.506584e-06	-1.429947e-09	-1.983961e+01	-9.555168e+01
1.000000e-08	-2.506872e-06	-1.394888e-09	-1.984190e+01	-9.551421e+01
2.000000e-08	-2.507085e-06	-1.353660e-09	-1.984358e+01	-9.546446e+01
3.000000e-08	-2.507186e-06	-1.350879e-09	-1.984438e+01	-9.540179e+01
4.000000e-08	-2.507030e-06	-1.449167e-09	-1.984315e+01	-9.532565e+01
5.000000e-08	-2.506714e-06	-1.565326e-09	-1.984064e+01	-9.523553e+01
6.000000e-08	-2.506295e-06	-1.562959e-09	-1.983733e+01	-9.513103e+01
7.000000e-08	-2.505726e-06	-1.579305e-09	-1.983282e+01	-9.501184e+01
8.000000e-08	-2.505090e-06	-1.455391e-09	-1.982779e+01	-9.487774e+01
9.000000e-08	-2.504289e-06	-1.391675e-09	-1.982145e+01	-9.472869e+01
1.000000e-07	-2.503128e-06	-1.400117e-09	-1.981226e+01	-9.456475e+01
1.100000e-07	-2.501771e-06	-1.434872e-09	-1.980152e+01	-9.438613e+01
1.200000e-07	-2.500126e-06	-1.365757e-09	-1.978850e+01	-9.419321e+01
1.300000e-07	-2.498001e-06	-1.382790e-09	-1.977168e+01	-9.398651e+01
1.400000e-07	-2.495563e-06	-1.438013e-09	-1.975239e+01	-9.376668e+01
1.500000e-07	-2.492912e-06	-1.428821e-09	-1.973140e+01	-9.353455e+01
1.600000e-07	-2.489980e-06	-1.443147e-09	-1.970819e+01	-9.329105e+01
1.700000e-07	-2.486751e-06	-1.422376e-09	-1.968263e+01	-9.303726e+01
1.800000e-07	-2.483366e-06	-1.429930e-09	-1.965584e+01	-9.277435e+01
1.900000e-07	-2.479828e-06	-1.401755e-09	-1.962784e+01	-9.250356e+01
2.000000e-07	-2.476168e-06	-1.453004e-09	-1.959887e+01	-9.222624e+01
2.100000e-07	-2.472434e-06	-1.421327e-09	-1.956932e+01	-9.194374e+01
2.200000e-07	-2.468608e-06	-1.380234e-09	-1.953904e+01	-9.165747e+01
2.300000e-07	-2.464692e-06	-1.307899e-09	-1.950804e+01	-9.136878e+01
2.400000e-07	-2.460698e-06	-1.363893e-09	-1.947643e+01	-9.107906e+01
2.500000e-07	-2.456651e-06	-1.409012e-09	-1.944439e+01	-9.078958e+01
2.600000e-07	-2.452508e-06	-1.343906e-09	-1.941161e+01	-9.050156e+01
2.700000e-07	-2.448190e-06	-1.237447e-09	-1.937743e+01	-9.021613e+01
2.800000e-07	-2.443601e-06	-1.277841e-09	-1.934110e+01	-8.993427e+01
2.900000e-07	-2.438744e-06	-1.384885e-09	-1.930266e+01	-8.965684e+01
3.000000e-07	-2.433747e-06	-1.381320e-09	-1.926311e+01	-8.938454e+01
3.100000e-07	-2.428616e-06	-1.283450e-09	-1.922250e+01	-8.911789e+01
3.200000e-07	-2.423195e-06	-1.228615e-09	-1.917959e+01	-8.885724e+01
3.300000e-07	-2.417570e-06	-1.304081e-09	-1.913507e+01	-8.860278e+01
3.400000e-07	-2.411885e-06	-1.393179e-09	-1.909007e+01	-8.835450e+01
3.500000e-07	-2.406060e-06	-1.357151e-09	-1.904397e+01	-8.811219e+01
3.600000e-07	-2.400091e-06	-1.220384e-09	-1.899673e+01	-8.787552e+01
3.700000e-07	-2.393950e-06	-1.195687e-09	-1.894811e+01	-8.764396e+01
3.800000e-07	-2.387583e-06	-1.332415e-09	-1.889773e+01	-8.741685e+01
3.900000e-07	-2.381102e-06	-1.426761e-09	-1.884643e+01	-8.719339e+01
4.000000e-07	-2.374502e-06	-1.308745e-09	-1.879418e+01	-8.697268e+01
4.100000e-07	-2.367678e-06	-1.169846e-09	-1.874018e+01	-8.675370e+01
4.200000e-07	-2.360611e-06	-1.241519e-09	-1.868424e+01	-8.653541e+01
4.300000e-07	-2.353386e-06	-1.410404e-09	-1.862706e+01	-8.631669e+01
4.400000e-07	-2.346041e-06	-1.375892e-09	-1.856892e+01	-8.609641e+01
4.500000e-07	-2.338534e-06	-1.192323e-09	-1.850950e+01	-8.587343e+01
4.600000e-07	-2.330888e-06	-1.153131e-09	-1.844898e+01	-8.564666e+01
4.700000e-07	-2.323173e-06	-1.313167e-09	-1.838791e+01	-8.541504e+01
4.800000e-07	-2.315416e-06	-1.381120e-09	-1.832652e+01	-8.517758e+01
4.900000e-07	-2.307574e-06	-1.249132e-09	-1.826445e+01	-8.493337e+01
5.000000e-07	-2.299600e-06	-1.136977e-09	-1.820134e+01	-8.468162e+01
5.100000e-07	-2.291534e-06	-1.223766e-09	-1.813749e+01	-8.442161e+01
5.200000e-07	-2.283427e-06	-1.340335e-09	-1.807333e+01	-8.415278e+01
5.300000e-07	-2.275165e-06	-1.297372e-09	-1.800794e+01	-8.387468e+01
5.400000e-07	-2.266615e-06	-1.168599e-09	-1.794026e+01	-8.358697e+01
5.500000e-07	-2.257822e-06	-1.159724e-09	-1.787067e+01	-8.328947e+01
5.600000e-07	-2.248905e-06	-1.255847e-09	-1.780008e+01	-8.298211e+01
5.700000e-07	-2.239753e-06	-1.293565e-09	-1.772765e+01	-8.266491e+01
5.800000e-07	-2.230279e-06	-1.216059e-09	-1.765266e+01	-8.233804e+01
5.900000e-07	-2.220551e-06	-1.146094e-09	-1.757566e+01	-8.200174e+01
6.000000e-07	-2.210432e-06	-1.173711e-09	-1.749557e+01	-8.165634e+01
6.100000e-07	-2.199975e-06	-1.244399e-09	-1.741281e+01	-8.130223e+01
6.200000e-07	-2.189295e-06	-1.245041e-09	-1.732827e+01	-8.093987e+01
6.300000e-07	-2.178392e-06	-1.170890e-09	-1.724197e+01	-8.056974e+01
6.400000e-07	-2.167363e-06	-1.131548e-09	-1.715468e+01	-8.019235e+01
6.500000e-07	-2.156107e-06	-1.180405e-09	-1.706559e+01	-7.980822e+01
6.600000e-07	-2.144638e-06	-1.232481e-09	-1.697481e+01	-7.941784e+01
6.700000e-07	-2.133115e-06	-1.195488e-09	-1.688361e+01	-7.902172e+01
6.800000e-07	-2.121455e-06	-1.133242e-09	-1.679132e+01	-7.862030e+01
6.900000e-07	-2.109610e-06	-1.143285e-09	-1.669756e+01	-7.821399e+01
7.000000e-07	-2.097676e-06	-1.193521e-09	-1.660311e+01	-7.780315e+01
7.100000e-07	-2.085655e-06	-1.189270e-09	-1.650796e+01	-7.738811e+01
7.200000e-07	-2.073470e-06	-1.148883e-09	-1.641152e+01	-7.696911e+01
7.300000e-07	-2.061121e-06	-1.131754e-09	-1.631378e+01	-7.654634e+01
7.400000e-07	-2.048593e-06	-1.139464e-09	-1.621462e+01	-7.611996e+01
7.500000e-07	-2.035916e-06	-1.138416e-09	-1.611427e+01	-7.569004e+01
7.600000e-07	-2.023128e-06	-1.137006e-09	-1.601306e+01	-7.525664e+01
7.700000e-07	-2.010187e-06	-1.129421e-09	-1.591063e+01	-7.481977e+01
7.800000e-07	-1.996990e-06	-1.110593e-09	-1.580618e+01	-7.437939e+01
7.900000e-07	-1.983594e-06	-1.099725e-09	-1.570015e+01	-7.393546e+01
8.000000e-07	-1.970087e-06	-1.117323e-09	-1.559324e+01	-7.348793e+01
8.100000e-07	-1.956431e-06	-1.129761e-09	-1.548515e+01	-7.303674e+01
8.200000e-07	-1.942651e-06	-1.112747e-09	-1.537608e+01	-7.258183e+01
8.300000e-07	-1.928757e-06	-1.089065e-09	-1.526612e+01	-7.212318e+01
8.400000e-07	-1.914768e-06	-1.090350e-09	-1.515539e+01	-7.166077e+01
8.500000e-07	-1.900630e-06	-1.101502e-09	-1.504349e+01	-7.119462e+01
8.600000e-07	-1.886318e-06	-1.095929e-09	-1.493021e+01	-7.072478e+01
8.700000e-07	-1.871766e-06	-1.075212e-09	-1.481503e+01	-7.025134e+01
8.800000e-07	-1.857083e-06	-1.060362e-09	-1.469881e+01	-6.977445e+01
8.900000e-07	-1.842258e-06	-1.059813e-09	-1.458147e+01	-6.929427e+01
9.000000e-07	-1.827181e-06	-1.064272e-09	-1.446214e+01	-6.881101e+01
9.100000e-07	-1.811824e-06	-1.057177e-09	-1.434059e+01	-6.832491e+01
9.200000e-07	-1.796230e-06	-1.037379e-09	-1.421717e+01	-6.783624e+01
9.300000e-07	-1.780505e-06	-1.023810e-09	-1.409270e+01	-6.734528e+01
9.400000e-07	-1.764596e-06	-1.023229e-09	-1.396678e+01	-6.685232e+01
9.500000e-07	-1.748500e-06	-1.024626e-09	-1.383938e+01	-6.635765e+01
9.600000e-07	-1.732301e-06	-1.014626e-09	-1.371116e+01	-6.586156e+01
9.700000e-07	-1.715870e-06	-9.993856e-10	-1.358111e+01	-6.536431e+01
9.800000e-07	-1.699247e-06	-9.914565e-10	-1.344954e+01	-6.486610e+01
9.900000e-07	-1.682581e-06	-9.918285e-10	-1.331763e+01	-6.436713e+01
1.000000e-06	-1.665761e-06	-9.884891e-10	-1.318450e+01	-6.386752e+01
1.010000e-06	-1.648802e-06	-9.795769e-10	-1.305027e+01	-6.336731e+01
1.020000e-06	-1.631743e-06	-9.704194e-10	-1.291524e+01	-6.286651e+01
1.030000e-06	-1.614628e-06	-9.636358e-10	-1.277979e+01	-6.236501e+01
1.040000e-06	-1.597479e-06	-9.562783e-10	-1.264404e+01	-6.186264e+01
1.050000e-06	-1.580273e-06	-9.508096e-10	-1.250786e+01	-6.135916e+01
1.060000e-06	-1.562990e-06	-9.433480e-10	-1.237107e+01	-6.085422e+01
1.070000e-06	-1.545601e-06	-9.311636e-10	-1.223343e+01	-6.034740e+01
1.080000e-06	-1.528080e-06	-9.181513e-10	-1.209476e+01	-5.983822e+01
1.090000e-06	-1.510479e-06	-9.126061e-10	-1.195544e+01	-5.932611e+01
1.100000e-06	-1.492832e-06	-9.123699e-10	-1.181577e+01	-5.881044e+01
1.110000e-06	-1.475114e-06	-9.077241e-10	-1.167553e+01	-5.829057e+01
1.120000e-06	-1.457308e-06	-8.927387e-10	-1.153460e+01	-5.776578e+01
1.130000e-06	-1.439470e-06	-8.799672e-10	-1.139340e+01	-5.723534e+01
1.140000e-06	-1.421566e-06	-8.779080e-10	-1.125170e+01	-5.669854e+01
1.150000e-06	-1.403551e-06	-8.729301e-10	-1.110911e+01	-5.615465e+01
1.160000e-06	-1.385455e-06	-8.598548e-10	-1.096588e+01	-5.560297e+01
1.170000e-06	-1.367229e-06	-8.462982e-10	-1.082162e+01	-5.504285e+01
1.180000e-06	-1.348850e-06	-8.387269e-10	-1.067615e+01	-5.447368e+01
1.190000e-06	-1.330381e-06	-8.352325e-10	-1.052997e+01	-5.389493e+01
1.200000e-06	-1.311796e-06	-8.285701e-10	-1.038287e+01	-5.330614e+01
1.210000e-06	-1.293062e-06	-8.162399e-10	-1.023459e+01	-5.270695e+01
1.220000e-06	-1.274225e-06	-8.032270e-10	-1.008549e+01	-5.209710e+01
1.230000e-06	-1.255211e-06	-7.948299e-10	-9.934993e+00	-5.147642e+01
1.240000e-06	-1.236059e-06	-7.868639e-10	-9.783409e+00	-5.084486e+01
1.250000e-06	-1.216964e-06	-7.764098e-10	-9.632271e+00	-5.020250e+01
1.260000e-06	-1.197781e-06	-7.645522e-10	-9.480442e+00	-4.954950e+01
1.270000e-06	-1.178435e-06	-7.552603e-10	-9.327315e+00	-4.888616e+01
1.280000e-06	-1.159019e-06	-7.484716e-10	-9.173635e+00	-4.821286e+01
1.290000e-06	-1.139519e-06	-7.432610e-10	-9.019297e+00	-4.753008e+01
1.300000e-06	-1.119945e-06	-7.371818e-10	-8.864369e+00	-4.683841e+01
1.310000e-06	-1.100283e-06	-7.282546e-10	-8.708745e+00	-4.613849e+01
1.320000e-06	-1.080582e-06	-7.200755e-10	-8.552806e+00	-4.543103e+01
1.330000e-06	-1.060900e-06	-7.135765e-10	-8.397023e+00	-4.471680e+01
1.340000e-06	-1.041194e-06	-7.033501e-10	-8.241056e+00	-4.399659e+01
1.350000e-06	-1.021411e-06	-6.894479e-10	-8.084472e+00	-4.327122e+01
1.360000e-06	-1.001599e-06	-6.753386e-10	-7.927656e+00	-4.254153e+01
1.370000e-06	-9.817732e-07	-6.647192e-10	-7.770736e+00	-4.180833e+01
1.380000e-06	-9.619125e-07	-6.578867e-10	-7.613539e+00	-4.107240e+01
1.390000e-06	-9.420468e-07	-6.492565e-10	-7.456302e+00	-4.033452e+01
1.400000e-06	-9.221861e-07	-6.396078e-10	-7.299104e+00	-3.959540e+01
1.410000e-06	-9.022949e-07	-6.279737e-10	-7.141665e+00	-3.885568e+01
1.420000e-06	-8.823857e-07	-6.162961e-10	-6.984084e+00	-3.811596e+01
1.430000e-06	-8.624663e-07	-6.058067e-10	-6.826422e+00	-3.737675e+01
1.440000e-06	-8.425090e-07	-5.967758e-10	-6.668459e+00	-3.663848e+01
1.450000e-06	-8.225665e-07	-5.835045e-10	-6.510615e+00	-3.590151e+01
1.460000e-06	-8.025932e-07	-5.719067e-10	-6.352526e+00	-3.516611e+01
1.470000e-06	-7.825213e-07	-5.654533e-10	-6.193657e+00	-3.443246e+01
1.480000e-06	-7.624504e-07	-5.607309e-10	-6.034796e+00	-3.370067e+01
1.490000e-06	-7.423703e-07	-5.519956e-10	-5.875861e+00	-3.297077e+01
1.500000e-06	-7.222088e-07	-5.389612e-10	-5.716284e+00	-3.224271e+01
1.510000e-06	-7.019779e-07	-5.259129e-10	-5.556156e+00	-3.151639e+01
1.520000e-06	-6.816967e-07	-5.151933e-10	-5.395630e+00	-3.079163e+01
1.530000e-06	-6.613917e-07	-5.073600e-10	-5.234916e+00	-3.006823e+01
1.540000e-06	-6.410119e-07	-4.970564e-10	-5.073610e+00	-2.934591e+01
1.550000e-06	-6.206567e-07	-4.836027e-10	-4.912498e+00	-2.862440e+01
1.560000e-06	-6.003560e-07	-4.707008e-10	-4.751819e+00	-2.790336e+01
1.570000e-06	-5.799516e-07	-4.619195e-10	-4.590318e+00	-2.718246e+01
1.580000e-06	-5.594014e-07	-4.547151e-10	-4.427663e+00	-2.646137e+01
1.590000e-06	-5.387515e-07	-4.454808e-10	-4.264219e+00	-2.573973e+01
1.600000e-06	-5.181078e-07	-4.345000e-10	-4.100824e+00	-2.501721e+01
1.610000e-06	-4.974492e-07	-4.235398e-10	-3.937311e+00	-2.429348e+01
1.620000e-06	-4.767152e-07	-4.135093e-10	-3.773202e+00	-2.356823e+01
1.630000e-06	-4.558851e-07	-4.032846e-10	-3.608331e+00	-2.284116e+01
1.640000e-06	-4.350325e-07	-3.908503e-10	-3.443283e+00	-2.211199e+01
1.650000e-06	-4.142531e-07	-3.815775e-10	-3.278814e+00	-2.138048e+01
1.660000e-06	-3.934490e-07	-3.712216e-10	-3.114150e+00	-2.064640e+01
1.670000e-06	-3.725547e-07	-3.585123e-10	-2.948771e+00	-1.990955e+01
1.680000e-06	-3.516731e-07	-3.488494e-10	-2.783493e+00	-1.916974e+01
1.690000e-06	-3.308064e-07	-3.396939e-10	-2.618333e+00	-1.842682e+01
1.700000e-06	-3.098686e-07	-3.254915e-10	-2.452610e+00	-1.768064e+01
1.710000e-06	-2.888601e-07	-3.089640e-10	-2.286328e+00	-1.693107e+01
1.720000e-06	-2.677931e-07	-2.946867e-10	-2.119583e+00	-1.617801e+01
1.730000e-06	-2.467333e-07	-2.824260e-10	-1.952894e+00	-1.542136e+01
1.740000e-06	-2.257430e-07	-2.696757e-10	-1.786756e+00	-1.466103e+01
1.750000e-06	-2.046717e-07	-2.537929e-10	-1.619977e+00	-1.389692e+01
1.760000e-06	-1.835624e-07	-2.387413e-10	-1.452896e+00	-1.312898e+01
1.770000e-06	-1.624976e-07	-2.275103e-10	-1.286169e+00	-1.235712e+01
1.780000e-06	-1.414064e-07	-2.171378e-10	-1.119232e+00	-1.158128e+01
1.790000e-06	-1.202479e-07	-2.049146e-10	-9.517626e-01	-1.080140e+01
1.800000e-06	-9.908226e-08	-1.917411e-10	-7.842362e-01	-1.001740e+01
1.810000e-06	-7.792877e-08	-1.784799e-10	-6.168063e-01	-9.229241e+00
1.820000e-06	-5.669112e-08	-1.677993e-10	-4.487103e-01	-8.436867e+00
1.830000e-06	-3.540348e-08	-1.562978e-10	-2.802186e-01	-7.640236e+00
1.840000e-06	-1.409139e-08	-1.423848e-10	-1.115333e-01	-6.839316e+00
1.850000e-06	7.169332e-09	-1.274671e-10	5.674527e-02	-6.034087e+00
1.860000e-06	2.838188e-08	-1.137649e-10	2.246426e-01	-5.224543e+00
1.870000e-06	4.967390e-08	-1.039308e-10	3.931690e-01	-4.410696e+00
1.880000e-06	7.095496e-08	-9.398566e-11	5.616086e-01	-3.592578e+00
1.890000e-06	9.214563e-08	-8.161403e-11	7.293328e-01	-2.770241e+00
1.900000e-06	1.132709e-07	-6.824093e-11	8.965390e-01	-1.943763e+00
1.910000e-06	1.343269e-07	-5.373508e-11	1.063197e+00	-1.113246e+00
1.920000e-06	1.553513e-07	-3.962058e-11	1.229606e+00	-2.788210e-01
1.930000e-06	1.763952e-07	-2.607731e-11	1.396168e+00	5.593569e-01
1.940000e-06	1.974686e-07	-1.301468e-11	1.562964e+00	1.401103e+00
1.950000e-06	2.185121e-07	-2.328200e-12	1.729523e+00	2.246206e+00
1.960000e-06	2.395647e-07	8.968295e-12	1.896155e+00	3.094429e+00
1.970000e-06	2.606342e-07	2.166129e-11	2.062920e+00	3.945510e+00
1.980000e-06	2.816624e-07	3.443580e-11	2.229358e+00	4.799165e+00
1.990000e-06	3.026814e-07	4.809823e-11	2.395723e+00	5.655091e+00
2.000000e-06	3.236808e-07	6.380003e-11	2.561934e+00	6.512967e+00
2.010000e-06	3.445951e-07	7.651422e-11	2.727470e+00	7.372458e+00
2.020000e-06	3.654324e-07	8.747018e-11	2.892398e+00	8.233220e+00
2.030000e-06	3.862787e-07	1.010137e-10	3.057396e+00	9.094901e+00
2.040000e-06	4.071427e-07	1.149874e-10	3.222535e+00	9.957146e+00
2.050000e-06	4.279734e-07	1.261558e-10	3.387410e+00	1.081960e+01
2.060000e-06	4.487161e-07	1.358544e-10	3.551588e+00	1.168191e+01
2.070000e-06	4.694104e-07	1.465491e-10	3.715384e+00	1.254373e+01
2.080000e-06	4.900506e-07	1.585823e-10	3.878751e+00	1.340473e+01
2.090000e-06	5.106632e-07	1.708647e-10	4.041900e+00	1.426458e+01
2.100000e-06	5.312984e-07	1.820843e-10	4.205227e+00	1.512297e+01
2.110000e-06	5.518406e-07	1.945682e-10	4.367819e+00	1.597959e+01
2.120000e-06	5.722756e-07	2.095098e-10	4.529562e+00	1.683418e+01
2.130000e-06	5.926838e-07	2.238854e-10	4.691093e+00	1.768645e+01
2.140000e-06	6.131115e-07	2.362523e-10	4.852778e+00	1.853617e+01
2.150000e-06	6.335082e-07	2.512846e-10	5.014218e+00	1.938310e+01
2.160000e-06	6.538371e-07	2.670987e-10	5.175122e+00	2.022701e+01
2.170000e-06	6.740944e-07	2.806541e-10	5.335458e+00	2.106773e+01
2.180000e-06	6.942959e-07	2.931513e-10	5.495353e+00	2.190504e+01
2.190000e-06	7.144967e-07	3.050981e-10	5.655242e+00	2.273879e+01
2.200000e-06	7.347191e-07	3.183298e-10	5.815302e+00	2.356881e+01
2.210000e-06	7.548548e-07	3.336265e-10	5.974677e+00	2.439497e+01
2.220000e-06	7.748432e-07	3.495280e-10	6.132885e+00	2.521713e+01
2.230000e-06	7.948565e-07	3.633147e-10	6.291290e+00	2.603518e+01
2.240000e-06	8.149086e-07	3.756225e-10	6.450003e+00	2.684901e+01
2.250000e-06	8.348981e-07	3.884853e-10	6.608220e+00	2.765854e+01
2.260000e-06	8.548904e-07	4.024906e-10	6.766458e+00	2.846369e+01
2.270000e-06	8.748517e-07	4.169075e-10	6.924452e+00	2.926441e+01
2.280000e-06	8.947513e-07	4.282405e-10	7.081957e+00	3.006067e+01
2.290000e-06	9.146321e-07	4.382209e-10	7.239314e+00	3.085246e+01
2.300000e-06	9.344909e-07	4.499374e-10	7.396496e+00	3.163977e+01
2.310000e-06	9.543536e-07	4.629835e-10	7.553710e+00	3.242264e+01
2.320000e-06	9.741964e-07	4.746243e-10	7.710766e+00	3.320114e+01
2.330000e-06	9.939765e-07	4.859387e-10	7.867325e+00	3.397535e+01
2.340000e-06	1.013704e-06	5.005521e-10	8.023471e+00	3.474538e+01
2.350000e-06	1.033406e-06	5.174418e-10	8.179407e+00	3.551138e+01
2.360000e-06	1.053100e-06	5.329486e-10	8.335290e+00	3.627354e+01
2.370000e-06	1.072788e-06	5.450368e-10	8.491122e+00	3.703206e+01
2.380000e-06	1.092430e-06	5.556800e-10	8.646584e+00	3.778717e+01
2.390000e-06	1.111988e-06	5.675455e-10	8.801388e+00	3.853916e+01
2.400000e-06	1.131463e-06	5.801866e-10	8.955529e+00	3.928830e+01
2.410000e-06	1.150823e-06	5.904614e-10	9.108765e+00	4.003491e+01
2.420000e-06	1.170076e-06	6.007930e-10	9.261153e+00	4.077933e+01
2.430000e-06	1.189331e-06	6.127062e-10	9.413560e+00	4.152190e+01
2.440000e-06	1.208566e-06	6.240260e-10	9.565802e+00	4.226296e+01
2.450000e-06	1.227716e-06	6.375992e-10	9.717377e+00	4.300287e+01
2.460000e-06	1.246703e-06	6.536309e-10	9.867657e+00	4.374197e+01
2.470000e-06	1.265501e-06	6.659153e-10	1.001644e+01	4.448058e+01
2.480000e-06	1.284226e-06	6.757762e-10	1.016465e+01	4.521901e+01
2.490000e-06	1.302922e-06	6.867949e-10	1.031263e+01	4.595753e+01
2.500000e-06	1.321406e-06	7.009909e-10	1.045893e+01	4.669638e+01
2.510000e-06	1.339638e-06	7.131063e-10	1.060323e+01	4.743574e+01
2.520000e-06	1.357842e-06	7.210181e-10	1.074732e+01	4.817575e+01
2.530000e-06	1.376005e-06	7.314570e-10	1.089108e+01	4.891648e+01
2.540000e-06	1.393973e-06	7.468269e-10	1.103330e+01	4.965794e+01
2.550000e-06	1.411801e-06	7.611189e-10	1.117441e+01	5.040008e+01
2.560000e-06	1.429583e-06	7.730020e-10	1.131515e+01	5.114278e+01
2.570000e-06	1.447309e-06	7.825673e-10	1.145545e+01	5.188582e+01
2.580000e-06	1.464978e-06	7.916672e-10	1.159530e+01	5.262895e+01
2.590000e-06	1.482584e-06	8.029684e-10	1.173465e+01	5.337183e+01
2.600000e-06	1.500047e-06	8.136500e-10	1.187287e+01	5.411405e+01
2.610000e-06	1.517394e-06	8.258890e-10	1.201018e+01	5.485514e+01
2.620000e-06	1.534777e-06	8.371783e-10	1.214776e+01	5.559460e+01
2.630000e-06	1.552091e-06	8.465090e-10	1.228480e+01	5.633185e+01
2.640000e-06	1.569316e-06	8.565962e-10	1.242114e+01	5.706629e+01
2.650000e-06	1.586499e-06	8.663931e-10	1.255714e+01	5.779730e+01
2.660000e-06	1.603657e-06	8.751835e-10	1.269294e+01	5.852423e+01
2.670000e-06	1.620685e-06	8.834086e-10	1.282772e+01	5.924643e+01
2.680000e-06	1.637499e-06	8.911066e-10	1.296080e+01	5.996328e+01
2.690000e-06	1.654291e-06	9.021660e-10	1.309371e+01	6.067414e+01
2.700000e-06	1.671002e-06	9.150865e-10	1.322598e+01	6.137842e+01
2.710000e-06	1.687581e-06	9.291251e-10	1.335721e+01	6.207558e+01
2.720000e-06	1.704106e-06	9.400663e-10	1.348800e+01	6.276512e+01
2.730000e-06	1.720526e-06	9.478706e-10	1.361796e+01	6.344660e+01
2.740000e-06	1.736729e-06	9.559374e-10	1.374621e+01	6.411965e+01
2.750000e-06	1.752723e-06	9.635976e-10	1.387280e+01	6.478396e+01
2.760000e-06	1.768603e-06	9.718835e-10	1.399849e+01	6.543933e+01
2.770000e-06	1.784249e-06	9.808048e-10	1.412233e+01	6.608560e+01
2.780000e-06	1.799618e-06	9.889776e-10	1.424398e+01	6.672272e+01
2.790000e-06	1.814880e-06	9.971573e-10	1.436478e+01	6.735069e+01
2.800000e-06	1.830000e-06	1.008774e-09	1.448445e+01	6.796961e+01
2.810000e-06	1.844848e-06	1.018452e-09	1.460197e+01	6.857963e+01
2.820000e-06	1.859447e-06	1.024494e-09	1.471753e+01	6.918098e+01
2.830000e-06	1.873881e-06	1.034044e-09	1.483177e+01	6.977392e+01
2.840000e-06	1.888207e-06	1.046350e-09	1.494516e+01	7.035878e+01
2.850000e-06	1.902433e-06	1.055694e-09	1.505776e+01	7.093591e+01
2.860000e-06	1.916510e-06	1.063889e-09	1.516918e+01	7.150568e+01
2.870000e-06	1.930436e-06	1.074334e-09	1.527941e+01	7.206849e+01
2.880000e-06	1.944272e-06	1.085049e-09	1.538891e+01	7.262471e+01
2.890000e-06	1.958008e-06	1.093085e-09	1.549764e+01	7.317474e+01
2.900000e-06	1.971655e-06	1.100892e-09	1.560565e+01	7.371891e+01
