# Temperatura_=_20.0
# Concentracion g/m^3_=_12600.0
# C_Vs_to_Am_M_A/Vsm_=_65563218390.804596
# pendiente_HvsI_1/m_=_3716.3
# ordenada_HvsI_A/m_=_1297.0
# frecuencia_Hz_=_134895.37296666545

Tiempo_(s)	Campo_(V.s)	Magnetizacion_(V.s)	Campo_(kA/m)	Magnetizacion_(A/m)
0.000000e+00	-2.503469e-06	-1.410689e-09	-1.984362e+01	-9.717901e+01
1.000000e-08	-2.503686e-06	-1.361295e-09	-1.984533e+01	-9.712794e+01
2.000000e-08	-2.503797e-06	-1.346063e-09	-1.984621e+01	-9.706639e+01
3.000000e-08	-2.503808e-06	-1.428871e-09	-1.984630e+01	-9.699473e+01
4.000000e-08	-2.503693e-06	-1.572418e-09	-1.984539e+01	-9.691341e+01
5.000000e-08	-2.503391e-06	-1.663172e-09	-1.984299e+01	-9.682290e+01
6.000000e-08	-2.502843e-06	-1.643789e-09	-1.983865e+01	-9.672370e+01
7.000000e-08	-2.502255e-06	-1.537251e-09	-1.983399e+01	-9.661638e+01
8.000000e-08	-2.501597e-06	-1.335275e-09	-1.982877e+01	-9.650147e+01
9.000000e-08	-2.500658e-06	-1.253656e-09	-1.982134e+01	-9.637956e+01
1.000000e-07	-2.499599e-06	-1.370453e-09	-1.981294e+01	-9.625121e+01
1.100000e-07	-2.498273e-06	-1.440186e-09	-1.980243e+01	-9.611699e+01
1.200000e-07	-2.496547e-06	-1.473419e-09	-1.978875e+01	-9.597745e+01
1.300000e-07	-2.494435e-06	-1.462835e-09	-1.977200e+01	-9.583311e+01
1.400000e-07	-2.491922e-06	-1.426785e-09	-1.975208e+01	-9.568446e+01
1.500000e-07	-2.489031e-06	-1.379766e-09	-1.972917e+01	-9.553194e+01
1.600000e-07	-2.485813e-06	-1.461135e-09	-1.970366e+01	-9.537596e+01
1.700000e-07	-2.482413e-06	-1.475323e-09	-1.967671e+01	-9.521685e+01
1.800000e-07	-2.478947e-06	-1.425934e-09	-1.964924e+01	-9.505489e+01
1.900000e-07	-2.475372e-06	-1.396487e-09	-1.962090e+01	-9.489032e+01
2.000000e-07	-2.471648e-06	-1.434136e-09	-1.959138e+01	-9.472327e+01
2.100000e-07	-2.467844e-06	-1.439890e-09	-1.956123e+01	-9.455385e+01
2.200000e-07	-2.463954e-06	-1.367118e-09	-1.953040e+01	-9.438208e+01
2.300000e-07	-2.459966e-06	-1.336640e-09	-1.949879e+01	-9.420792e+01
2.400000e-07	-2.455911e-06	-1.373225e-09	-1.946665e+01	-9.403129e+01
2.500000e-07	-2.451770e-06	-1.427747e-09	-1.943382e+01	-9.385203e+01
2.600000e-07	-2.447481e-06	-1.367338e-09	-1.939983e+01	-9.366996e+01
2.700000e-07	-2.442979e-06	-1.333791e-09	-1.936414e+01	-9.348485e+01
2.800000e-07	-2.438269e-06	-1.341940e-09	-1.932681e+01	-9.329646e+01
2.900000e-07	-2.433364e-06	-1.392846e-09	-1.928793e+01	-9.310449e+01
3.000000e-07	-2.428247e-06	-1.400881e-09	-1.924737e+01	-9.290869e+01
3.100000e-07	-2.423026e-06	-1.385594e-09	-1.920599e+01	-9.270875e+01
3.200000e-07	-2.417620e-06	-1.325879e-09	-1.916313e+01	-9.250442e+01
3.300000e-07	-2.411999e-06	-1.318516e-09	-1.911858e+01	-9.229543e+01
3.400000e-07	-2.406277e-06	-1.377971e-09	-1.907323e+01	-9.208157e+01
3.500000e-07	-2.400460e-06	-1.411833e-09	-1.902712e+01	-9.186266e+01
3.600000e-07	-2.394432e-06	-1.345869e-09	-1.897934e+01	-9.163855e+01
3.700000e-07	-2.388159e-06	-1.288061e-09	-1.892962e+01	-9.140915e+01
3.800000e-07	-2.381734e-06	-1.345437e-09	-1.887869e+01	-9.117441e+01
3.900000e-07	-2.375208e-06	-1.425095e-09	-1.882696e+01	-9.093435e+01
4.000000e-07	-2.368558e-06	-1.393139e-09	-1.877425e+01	-9.068904e+01
4.100000e-07	-2.361612e-06	-1.305327e-09	-1.871919e+01	-9.043859e+01
4.200000e-07	-2.354476e-06	-1.302226e-09	-1.866263e+01	-9.018318e+01
4.300000e-07	-2.347195e-06	-1.363167e-09	-1.860492e+01	-8.992302e+01
4.400000e-07	-2.339690e-06	-1.374669e-09	-1.854543e+01	-8.965836e+01
4.500000e-07	-2.332036e-06	-1.320468e-09	-1.848476e+01	-8.938948e+01
4.600000e-07	-2.324288e-06	-1.288128e-09	-1.842334e+01	-8.911669e+01
4.700000e-07	-2.316470e-06	-1.306478e-09	-1.836138e+01	-8.884030e+01
4.800000e-07	-2.308607e-06	-1.333792e-09	-1.829905e+01	-8.856063e+01
4.900000e-07	-2.300678e-06	-1.332779e-09	-1.823620e+01	-8.827796e+01
5.000000e-07	-2.292656e-06	-1.309793e-09	-1.817262e+01	-8.799259e+01
5.100000e-07	-2.284554e-06	-1.287404e-09	-1.810839e+01	-8.770475e+01
5.200000e-07	-2.276335e-06	-1.290640e-09	-1.804325e+01	-8.741464e+01
5.300000e-07	-2.268052e-06	-1.311391e-09	-1.797759e+01	-8.712242e+01
5.400000e-07	-2.259660e-06	-1.317092e-09	-1.791108e+01	-8.682816e+01
5.500000e-07	-2.251073e-06	-1.288265e-09	-1.784301e+01	-8.653187e+01
5.600000e-07	-2.242165e-06	-1.268121e-09	-1.777241e+01	-8.623352e+01
5.700000e-07	-2.232883e-06	-1.287220e-09	-1.769883e+01	-8.593295e+01
5.800000e-07	-2.223270e-06	-1.305966e-09	-1.762263e+01	-8.562995e+01
5.900000e-07	-2.213266e-06	-1.277122e-09	-1.754334e+01	-8.532425e+01
6.000000e-07	-2.202947e-06	-1.247400e-09	-1.746154e+01	-8.501548e+01
6.100000e-07	-2.192373e-06	-1.262556e-09	-1.737773e+01	-8.470322e+01
6.200000e-07	-2.181695e-06	-1.279848e-09	-1.729309e+01	-8.438698e+01
6.300000e-07	-2.170906e-06	-1.249286e-09	-1.720757e+01	-8.406624e+01
6.400000e-07	-2.159785e-06	-1.225194e-09	-1.711942e+01	-8.374042e+01
6.500000e-07	-2.148423e-06	-1.247422e-09	-1.702936e+01	-8.340893e+01
6.600000e-07	-2.136912e-06	-1.261300e-09	-1.693812e+01	-8.307116e+01
6.700000e-07	-2.125272e-06	-1.225375e-09	-1.684585e+01	-8.272652e+01
6.800000e-07	-2.113547e-06	-1.205479e-09	-1.675291e+01	-8.237441e+01
6.900000e-07	-2.101657e-06	-1.235335e-09	-1.665867e+01	-8.201429e+01
7.000000e-07	-2.089652e-06	-1.249203e-09	-1.656351e+01	-8.164565e+01
7.100000e-07	-2.077569e-06	-1.211634e-09	-1.646774e+01	-8.126806e+01
7.200000e-07	-2.065359e-06	-1.185363e-09	-1.637096e+01	-8.088114e+01
7.300000e-07	-2.052981e-06	-1.202340e-09	-1.627285e+01	-8.048461e+01
7.400000e-07	-2.040346e-06	-1.213359e-09	-1.617269e+01	-8.007827e+01
7.500000e-07	-2.027481e-06	-1.192125e-09	-1.607072e+01	-7.966204e+01
7.600000e-07	-2.014473e-06	-1.171138e-09	-1.596761e+01	-7.923593e+01
7.700000e-07	-2.001368e-06	-1.170172e-09	-1.586374e+01	-7.880004e+01
7.800000e-07	-1.988070e-06	-1.177003e-09	-1.575833e+01	-7.835461e+01
7.900000e-07	-1.974568e-06	-1.176692e-09	-1.565131e+01	-7.789995e+01
8.000000e-07	-1.960955e-06	-1.161734e-09	-1.554340e+01	-7.743648e+01
8.100000e-07	-1.947242e-06	-1.145592e-09	-1.543471e+01	-7.696470e+01
8.200000e-07	-1.933434e-06	-1.146649e-09	-1.532526e+01	-7.648519e+01
8.300000e-07	-1.919528e-06	-1.157256e-09	-1.521504e+01	-7.599860e+01
8.400000e-07	-1.905414e-06	-1.147439e-09	-1.510316e+01	-7.550561e+01
8.500000e-07	-1.891053e-06	-1.123722e-09	-1.498933e+01	-7.500694e+01
8.600000e-07	-1.876585e-06	-1.118451e-09	-1.487465e+01	-7.450333e+01
8.700000e-07	-1.861933e-06	-1.129352e-09	-1.475851e+01	-7.399552e+01
8.800000e-07	-1.847194e-06	-1.122920e-09	-1.464169e+01	-7.348422e+01
8.900000e-07	-1.832374e-06	-1.101167e-09	-1.452421e+01	-7.297011e+01
9.000000e-07	-1.817235e-06	-1.091548e-09	-1.440422e+01	-7.245382e+01
9.100000e-07	-1.801956e-06	-1.095588e-09	-1.428310e+01	-7.193591e+01
9.200000e-07	-1.786471e-06	-1.087757e-09	-1.416037e+01	-7.141685e+01
9.300000e-07	-1.770679e-06	-1.067774e-09	-1.403519e+01	-7.089704e+01
9.400000e-07	-1.754669e-06	-1.057505e-09	-1.390829e+01	-7.037675e+01
9.500000e-07	-1.738355e-06	-1.058671e-09	-1.377898e+01	-6.985617e+01
9.600000e-07	-1.721787e-06	-1.051630e-09	-1.364765e+01	-6.933536e+01
9.700000e-07	-1.705238e-06	-1.037119e-09	-1.351648e+01	-6.881427e+01
9.800000e-07	-1.688760e-06	-1.030399e-09	-1.338587e+01	-6.829275e+01
9.900000e-07	-1.672109e-06	-1.029635e-09	-1.325388e+01	-6.777053e+01
1.000000e-06	-1.655153e-06	-1.019379e-09	-1.311948e+01	-6.724725e+01
1.010000e-06	-1.638084e-06	-1.004253e-09	-1.298419e+01	-6.672246e+01
1.020000e-06	-1.621014e-06	-9.987099e-10	-1.284888e+01	-6.619562e+01
1.030000e-06	-1.603812e-06	-9.986827e-10	-1.271253e+01	-6.566615e+01
1.040000e-06	-1.586531e-06	-9.901807e-10	-1.257555e+01	-6.513340e+01
1.050000e-06	-1.569204e-06	-9.759862e-10	-1.243821e+01	-6.459671e+01
1.060000e-06	-1.551804e-06	-9.692979e-10	-1.230029e+01	-6.405539e+01
1.070000e-06	-1.534351e-06	-9.685400e-10	-1.216195e+01	-6.350876e+01
1.080000e-06	-1.516888e-06	-9.635620e-10	-1.202353e+01	-6.295616e+01
1.090000e-06	-1.499275e-06	-9.520783e-10	-1.188392e+01	-6.239697e+01
1.100000e-06	-1.481546e-06	-9.426928e-10	-1.174340e+01	-6.183063e+01
1.110000e-06	-1.463805e-06	-9.378365e-10	-1.160277e+01	-6.125664e+01
1.120000e-06	-1.445997e-06	-9.317132e-10	-1.146162e+01	-6.067459e+01
1.130000e-06	-1.428193e-06	-9.227048e-10	-1.132050e+01	-6.008415e+01
1.140000e-06	-1.410311e-06	-9.119393e-10	-1.117876e+01	-5.948510e+01
1.150000e-06	-1.392242e-06	-9.015587e-10	-1.103553e+01	-5.887732e+01
1.160000e-06	-1.374114e-06	-8.957316e-10	-1.089184e+01	-5.826080e+01
1.170000e-06	-1.356015e-06	-8.894254e-10	-1.074838e+01	-5.763564e+01
1.180000e-06	-1.337779e-06	-8.770945e-10	-1.060384e+01	-5.700205e+01
1.190000e-06	-1.319354e-06	-8.653483e-10	-1.045779e+01	-5.636032e+01
1.200000e-06	-1.300808e-06	-8.565347e-10	-1.031079e+01	-5.571087e+01
1.210000e-06	-1.282115e-06	-8.460628e-10	-1.016261e+01	-5.505416e+01
1.220000e-06	-1.263273e-06	-8.311451e-10	-1.001326e+01	-5.439075e+01
1.230000e-06	-1.244328e-06	-8.161706e-10	-9.863102e+00	-5.372125e+01
1.240000e-06	-1.225251e-06	-8.048493e-10	-9.711891e+00	-5.304631e+01
1.250000e-06	-1.206074e-06	-7.935744e-10	-9.559879e+00	-5.236661e+01
1.260000e-06	-1.186805e-06	-7.809404e-10	-9.407143e+00	-5.168283e+01
1.270000e-06	-1.167422e-06	-7.696088e-10	-9.253505e+00	-5.099568e+01
1.280000e-06	-1.147966e-06	-7.607229e-10	-9.099293e+00	-5.030581e+01
1.290000e-06	-1.128413e-06	-7.522566e-10	-8.944309e+00	-4.961385e+01
1.300000e-06	-1.108838e-06	-7.424115e-10	-8.789149e+00	-4.892040e+01
1.310000e-06	-1.089192e-06	-7.327902e-10	-8.633423e+00	-4.822596e+01
1.320000e-06	-1.069484e-06	-7.242769e-10	-8.477207e+00	-4.753100e+01
1.330000e-06	-1.049804e-06	-7.131920e-10	-8.321217e+00	-4.683588e+01
1.340000e-06	-1.030070e-06	-6.982887e-10	-8.164795e+00	-4.614090e+01
1.350000e-06	-1.010299e-06	-6.829375e-10	-8.008078e+00	-4.544625e+01
1.360000e-06	-9.905175e-07	-6.743675e-10	-7.851285e+00	-4.475203e+01
1.370000e-06	-9.707148e-07	-6.689265e-10	-7.694320e+00	-4.405826e+01
1.380000e-06	-9.509030e-07	-6.579307e-10	-7.537282e+00	-4.336487e+01
1.390000e-06	-9.310884e-07	-6.469009e-10	-7.380223e+00	-4.267169e+01
1.400000e-06	-9.112696e-07	-6.409823e-10	-7.223130e+00	-4.197850e+01
1.410000e-06	-8.914050e-07	-6.329557e-10	-7.065675e+00	-4.128500e+01
1.420000e-06	-8.715062e-07	-6.204969e-10	-6.907948e+00	-4.059082e+01
1.430000e-06	-8.516100e-07	-6.075225e-10	-6.750242e+00	-3.989555e+01
1.440000e-06	-8.316871e-07	-5.955835e-10	-6.592324e+00	-3.919876e+01
1.450000e-06	-8.117303e-07	-5.841068e-10	-6.434137e+00	-3.849997e+01
1.460000e-06	-7.916926e-07	-5.747522e-10	-6.275309e+00	-3.779871e+01
1.470000e-06	-7.715992e-07	-5.656698e-10	-6.116040e+00	-3.709450e+01
1.480000e-06	-7.514557e-07	-5.548651e-10	-5.956374e+00	-3.638686e+01
1.490000e-06	-7.312484e-07	-5.452898e-10	-5.796201e+00	-3.567536e+01
1.500000e-06	-7.110329e-07	-5.368328e-10	-5.635965e+00	-3.495958e+01
1.510000e-06	-6.908017e-07	-5.251996e-10	-5.475603e+00	-3.423916e+01
1.520000e-06	-6.705634e-07	-5.124316e-10	-5.315185e+00	-3.351376e+01
1.530000e-06	-6.503524e-07	-5.031497e-10	-5.154984e+00	-3.278311e+01
1.540000e-06	-6.301185e-07	-4.939587e-10	-4.994600e+00	-3.204700e+01
1.550000e-06	-6.098155e-07	-4.820658e-10	-4.833670e+00	-3.130528e+01
1.560000e-06	-5.895479e-07	-4.702890e-10	-4.673020e+00	-3.055784e+01
1.570000e-06	-5.692649e-07	-4.613150e-10	-4.512248e+00	-2.980466e+01
1.580000e-06	-5.488684e-07	-4.511540e-10	-4.350576e+00	-2.904574e+01
1.590000e-06	-5.282961e-07	-4.382899e-10	-4.187511e+00	-2.828116e+01
1.600000e-06	-5.076055e-07	-4.261325e-10	-4.023508e+00	-2.751104e+01
1.610000e-06	-4.869858e-07	-4.174493e-10	-3.860067e+00	-2.673554e+01
1.620000e-06	-4.663784e-07	-4.091315e-10	-3.696723e+00	-2.595487e+01
1.630000e-06	-4.456889e-07	-3.978186e-10	-3.532729e+00	-2.516925e+01
1.640000e-06	-4.248778e-07	-3.862671e-10	-3.367771e+00	-2.437894e+01
1.650000e-06	-4.040126e-07	-3.747346e-10	-3.202384e+00	-2.358421e+01
1.660000e-06	-3.831760e-07	-3.611222e-10	-3.037224e+00	-2.278535e+01
1.670000e-06	-3.622491e-07	-3.475429e-10	-2.871348e+00	-2.198264e+01
1.680000e-06	-3.413144e-07	-3.378869e-10	-2.705411e+00	-2.117637e+01
1.690000e-06	-3.204222e-07	-3.277551e-10	-2.539809e+00	-2.036683e+01
1.700000e-06	-2.994420e-07	-3.114889e-10	-2.373511e+00	-1.955428e+01
1.710000e-06	-2.784587e-07	-2.946380e-10	-2.207188e+00	-1.873899e+01
1.720000e-06	-2.573696e-07	-2.833629e-10	-2.040027e+00	-1.792121e+01
1.730000e-06	-2.361629e-07	-2.742027e-10	-1.871932e+00	-1.710116e+01
1.740000e-06	-2.150027e-07	-2.620630e-10	-1.704207e+00	-1.627907e+01
1.750000e-06	-1.938407e-07	-2.459101e-10	-1.536468e+00	-1.545513e+01
1.760000e-06	-1.726804e-07	-2.306398e-10	-1.368742e+00	-1.462953e+01
1.770000e-06	-1.515619e-07	-2.204902e-10	-1.201347e+00	-1.380243e+01
1.780000e-06	-1.304599e-07	-2.107849e-10	-1.034083e+00	-1.297401e+01
1.790000e-06	-1.093395e-07	-1.970773e-10	-8.666737e-01	-1.214440e+01
1.800000e-06	-8.822962e-08	-1.818313e-10	-6.993474e-01	-1.131375e+01
1.810000e-06	-6.712806e-08	-1.701401e-10	-5.320870e-01	-1.048220e+01
1.820000e-06	-4.598845e-08	-1.645120e-10	-3.645250e-01	-9.649867e+00
1.830000e-06	-2.482176e-08	-1.570872e-10	-1.967483e-01	-8.816894e+00
1.840000e-06	-3.538836e-09	-1.435039e-10	-2.805040e-02	-7.983405e+00
1.850000e-06	1.779576e-08	-1.263076e-10	1.410571e-01	-7.149525e+00
1.860000e-06	3.900280e-08	-1.128131e-10	3.091536e-01	-6.315379e+00
1.870000e-06	6.023592e-08	-1.038055e-10	4.774568e-01	-5.481092e+00
1.880000e-06	8.145494e-08	-9.191631e-11	6.456482e-01	-4.646783e+00
1.890000e-06	1.026141e-07	-7.711713e-11	8.133654e-01	-3.812567e+00
1.900000e-06	1.237991e-07	-6.248914e-11	9.812870e-01	-2.978553e+00
1.910000e-06	1.449384e-07	-5.006193e-11	1.148847e+00	-2.144838e+00
1.920000e-06	1.660423e-07	-3.940192e-11	1.316125e+00	-1.311509e+00
1.930000e-06	1.871150e-07	-2.688421e-11	1.483157e+00	-4.786333e-01
1.940000e-06	2.081374e-07	-1.321626e-11	1.649790e+00	3.537373e-01
1.950000e-06	2.290708e-07	-7.829280e-13	1.815718e+00	1.185574e+00
1.960000e-06	2.500292e-07	1.161288e-11	1.981843e+00	2.016873e+00
1.970000e-06	2.711181e-07	2.392678e-11	2.149003e+00	2.847655e+00
1.980000e-06	2.922461e-07	3.651055e-11	2.316473e+00	3.677970e+00
1.990000e-06	3.132571e-07	4.980204e-11	2.483016e+00	4.507895e+00
2.000000e-06	3.340834e-07	6.422310e-11	2.648094e+00	5.337536e+00
2.010000e-06	3.548735e-07	7.776568e-11	2.812886e+00	6.167024e+00
2.020000e-06	3.756315e-07	9.056037e-11	2.977423e+00	6.996518e+00
2.030000e-06	3.963087e-07	1.021682e-10	3.141320e+00	7.826194e+00
2.040000e-06	4.170151e-07	1.146975e-10	3.305448e+00	8.656248e+00
2.050000e-06	4.377364e-07	1.273529e-10	3.469694e+00	9.486887e+00
2.060000e-06	4.584436e-07	1.373978e-10	3.633829e+00	1.031832e+01
2.070000e-06	4.790920e-07	1.477010e-10	3.797497e+00	1.115077e+01
2.080000e-06	4.997084e-07	1.613913e-10	3.960912e+00	1.198444e+01
2.090000e-06	5.203575e-07	1.771811e-10	4.124586e+00	1.281951e+01
2.100000e-06	5.409421e-07	1.906968e-10	4.287748e+00	1.365616e+01
2.110000e-06	5.613482e-07	2.006748e-10	4.449496e+00	1.449452e+01
2.120000e-06	5.817344e-07	2.117580e-10	4.611087e+00	1.533470e+01
2.130000e-06	6.021988e-07	2.274318e-10	4.773297e+00	1.617675e+01
2.140000e-06	6.226533e-07	2.446887e-10	4.935428e+00	1.702069e+01
2.150000e-06	6.431006e-07	2.585313e-10	5.097503e+00	1.786646e+01
2.160000e-06	6.634963e-07	2.695128e-10	5.259168e+00	1.871397e+01
2.170000e-06	6.837295e-07	2.814476e-10	5.419545e+00	1.956305e+01
2.180000e-06	7.038507e-07	2.967167e-10	5.579035e+00	2.041349e+01
2.190000e-06	7.239816e-07	3.131772e-10	5.738602e+00	2.126500e+01
2.200000e-06	7.440572e-07	3.283727e-10	5.897730e+00	2.211727e+01
2.210000e-06	7.641008e-07	3.438159e-10	6.056604e+00	2.296988e+01
2.220000e-06	7.841777e-07	3.587321e-10	6.215742e+00	2.382243e+01
2.230000e-06	8.042056e-07	3.730459e-10	6.374493e+00	2.467444e+01
2.240000e-06	8.241845e-07	3.864376e-10	6.532855e+00	2.552541e+01
2.250000e-06	8.441649e-07	3.997566e-10	6.691228e+00	2.637482e+01
2.260000e-06	8.641106e-07	4.132361e-10	6.849327e+00	2.722215e+01
2.270000e-06	8.840205e-07	4.254472e-10	7.007142e+00	2.806687e+01
2.280000e-06	9.039117e-07	4.367436e-10	7.164808e+00	2.890849e+01
2.290000e-06	9.238015e-07	4.495932e-10	7.322463e+00	2.974651e+01
2.300000e-06	9.436811e-07	4.610058e-10	7.480038e+00	3.058049e+01
2.310000e-06	9.635139e-07	4.700384e-10	7.637242e+00	3.141003e+01
2.320000e-06	9.833093e-07	4.804374e-10	7.794149e+00	3.223481e+01
2.330000e-06	1.003114e-06	4.940677e-10	7.951130e+00	3.305454e+01
2.340000e-06	1.022900e-06	5.086487e-10	8.107965e+00	3.386904e+01
2.350000e-06	1.042610e-06	5.201703e-10	8.264195e+00	3.467819e+01
2.360000e-06	1.062264e-06	5.313956e-10	8.419976e+00	3.548196e+01
2.370000e-06	1.081881e-06	5.443717e-10	8.575473e+00	3.628040e+01
2.380000e-06	1.101461e-06	5.574152e-10	8.730673e+00	3.707365e+01
2.390000e-06	1.120993e-06	5.692827e-10	8.885491e+00	3.786194e+01
2.400000e-06	1.140451e-06	5.817373e-10	9.039723e+00	3.864555e+01
2.410000e-06	1.159777e-06	5.948344e-10	9.192909e+00	3.942487e+01
2.420000e-06	1.178984e-06	6.083350e-10	9.345155e+00	4.020031e+01
2.430000e-06	1.198122e-06	6.216804e-10	9.496853e+00	4.097235e+01
2.440000e-06	1.217169e-06	6.335801e-10	9.647825e+00	4.174152e+01
2.450000e-06	1.236173e-06	6.461151e-10	9.798457e+00	4.250835e+01
2.460000e-06	1.255149e-06	6.595385e-10	9.948875e+00	4.327339e+01
2.470000e-06	1.273950e-06	6.710194e-10	1.009790e+01	4.403719e+01
2.480000e-06	1.292614e-06	6.803474e-10	1.024584e+01	4.480027e+01
2.490000e-06	1.311220e-06	6.916979e-10	1.039332e+01	4.556313e+01
2.500000e-06	1.329682e-06	7.044726e-10	1.053965e+01	4.632621e+01
2.510000e-06	1.347962e-06	7.145479e-10	1.068455e+01	4.708989e+01
2.520000e-06	1.366082e-06	7.242298e-10	1.082817e+01	4.785448e+01
2.530000e-06	1.384093e-06	7.364359e-10	1.097094e+01	4.862020e+01
2.540000e-06	1.402012e-06	7.495083e-10	1.111298e+01	4.938718e+01
2.550000e-06	1.419834e-06	7.632498e-10	1.125424e+01	5.015545e+01
2.560000e-06	1.437611e-06	7.760926e-10	1.139515e+01	5.092496e+01
2.570000e-06	1.455290e-06	7.866334e-10	1.153528e+01	5.169551e+01
2.580000e-06	1.472912e-06	7.975944e-10	1.167496e+01	5.246685e+01
2.590000e-06	1.490560e-06	8.089931e-10	1.181485e+01	5.323859e+01
2.600000e-06	1.508082e-06	8.209720e-10	1.195373e+01	5.401027e+01
2.610000e-06	1.525436e-06	8.349574e-10	1.209129e+01	5.478135e+01
2.620000e-06	1.542667e-06	8.475911e-10	1.222787e+01	5.555119e+01
2.630000e-06	1.559856e-06	8.586547e-10	1.236411e+01	5.631912e+01
2.640000e-06	1.576996e-06	8.682116e-10	1.249998e+01	5.708439e+01
2.650000e-06	1.594049e-06	8.771781e-10	1.263514e+01	5.784625e+01
2.660000e-06	1.611107e-06	8.877080e-10	1.277035e+01	5.860390e+01
2.670000e-06	1.628116e-06	8.984085e-10	1.290517e+01	5.935657e+01
2.680000e-06	1.645033e-06	9.103661e-10	1.303927e+01	6.010349e+01
2.690000e-06	1.661872e-06	9.222471e-10	1.317274e+01	6.084390e+01
2.700000e-06	1.678567e-06	9.338762e-10	1.330507e+01	6.157712e+01
2.710000e-06	1.695145e-06	9.475645e-10	1.343647e+01	6.230251e+01
2.720000e-06	1.711618e-06	9.600902e-10	1.356705e+01	6.301951e+01
2.730000e-06	1.727897e-06	9.694618e-10	1.369608e+01	6.372762e+01
2.740000e-06	1.744001e-06	9.786747e-10	1.382373e+01	6.442647e+01
2.750000e-06	1.759993e-06	9.901461e-10	1.395049e+01	6.511574e+01
2.760000e-06	1.775771e-06	1.002495e-09	1.407556e+01	6.579524e+01
2.770000e-06	1.791328e-06	1.012376e-09	1.419887e+01	6.646487e+01
2.780000e-06	1.806678e-06	1.021358e-09	1.432053e+01	6.712464e+01
2.790000e-06	1.821800e-06	1.031455e-09	1.444040e+01	6.777464e+01
2.800000e-06	1.836669e-06	1.041300e-09	1.455826e+01	6.841508e+01
2.810000e-06	1.851281e-06	1.049862e-09	1.467408e+01	6.904621e+01
2.820000e-06	1.865706e-06	1.059084e-09	1.478842e+01	6.966839e+01
2.830000e-06	1.879946e-06	1.071380e-09	1.490129e+01	7.028203e+01
2.840000e-06	1.894134e-06	1.083503e-09	1.501375e+01	7.088759e+01
2.850000e-06	1.908272e-06	1.091937e-09	1.512582e+01	7.148556e+01
2.860000e-06	1.922300e-06	1.100785e-09	1.523701e+01	7.207646e+01
2.870000e-06	1.936291e-06	1.111645e-09	1.534791e+01	7.266080e+01
2.880000e-06	1.950109e-06	1.123032e-09	1.545744e+01	7.323911e+01
2.890000e-06	1.963740e-06	1.132920e-09	1.556548e+01	7.381187e+01
2.900000e-06	1.977276e-06	1.140857e-09	1.567277e+01	7.437955e+01
