# Temperatura_=_20.0
# Concentracion g/m^3_=_12600.0
# C_Vs_to_Am_M_A/Vsm_=_65563218390.804596
# pendiente_HvsI_1/m_=_3716.3
# ordenada_HvsI_A/m_=_1297.0
# frecuencia_Hz_=_134896.96994266933

Tiempo_(s)	Campo_(V.s)	Magnetizacion_(V.s)	Campo_(kA/m)	Magnetizacion_(A/m)
0.000000e+00	-2.503802e-06	-1.460595e-09	-1.983360e+01	-9.519768e+01
1.000000e-08	-2.504001e-06	-1.449467e-09	-1.983519e+01	-9.515511e+01
2.000000e-08	-2.504142e-06	-1.406727e-09	-1.983630e+01	-9.510038e+01
3.000000e-08	-2.504224e-06	-1.365465e-09	-1.983695e+01	-9.503307e+01
4.000000e-08	-2.504119e-06	-1.423805e-09	-1.983612e+01	-9.495286e+01
5.000000e-08	-2.503907e-06	-1.572914e-09	-1.983444e+01	-9.485946e+01
6.000000e-08	-2.503667e-06	-1.603358e-09	-1.983254e+01	-9.475267e+01
7.000000e-08	-2.503300e-06	-1.513511e-09	-1.982963e+01	-9.463240e+01
8.000000e-08	-2.502770e-06	-1.377266e-09	-1.982543e+01	-9.449863e+01
9.000000e-08	-2.502061e-06	-1.297751e-09	-1.981981e+01	-9.435146e+01
1.000000e-07	-2.501143e-06	-1.406830e-09	-1.981255e+01	-9.419112e+01
1.100000e-07	-2.500059e-06	-1.527946e-09	-1.980395e+01	-9.401793e+01
1.200000e-07	-2.498700e-06	-1.470800e-09	-1.979319e+01	-9.383235e+01
1.300000e-07	-2.496920e-06	-1.385914e-09	-1.977909e+01	-9.363496e+01
1.400000e-07	-2.494646e-06	-1.411447e-09	-1.976108e+01	-9.342643e+01
1.500000e-07	-2.491966e-06	-1.490313e-09	-1.973985e+01	-9.320759e+01
1.600000e-07	-2.489104e-06	-1.466508e-09	-1.971717e+01	-9.297931e+01
1.700000e-07	-2.485971e-06	-1.389799e-09	-1.969236e+01	-9.274260e+01
1.800000e-07	-2.482514e-06	-1.377205e-09	-1.966498e+01	-9.249853e+01
1.900000e-07	-2.478914e-06	-1.468835e-09	-1.963646e+01	-9.224822e+01
2.000000e-07	-2.475187e-06	-1.476875e-09	-1.960694e+01	-9.199285e+01
2.100000e-07	-2.471315e-06	-1.379844e-09	-1.957627e+01	-9.173362e+01
2.200000e-07	-2.467417e-06	-1.289622e-09	-1.954538e+01	-9.147176e+01
2.300000e-07	-2.463475e-06	-1.313610e-09	-1.951416e+01	-9.120845e+01
2.400000e-07	-2.459413e-06	-1.397088e-09	-1.948198e+01	-9.094486e+01
2.500000e-07	-2.455312e-06	-1.389140e-09	-1.944950e+01	-9.068213e+01
2.600000e-07	-2.451130e-06	-1.283137e-09	-1.941637e+01	-9.042128e+01
2.700000e-07	-2.446755e-06	-1.216349e-09	-1.938171e+01	-9.016328e+01
2.800000e-07	-2.442183e-06	-1.324948e-09	-1.934549e+01	-8.990899e+01
2.900000e-07	-2.437549e-06	-1.413418e-09	-1.930879e+01	-8.965914e+01
3.000000e-07	-2.432825e-06	-1.355935e-09	-1.927137e+01	-8.941433e+01
3.100000e-07	-2.427808e-06	-1.227120e-09	-1.923163e+01	-8.917504e+01
3.200000e-07	-2.422523e-06	-1.251950e-09	-1.918977e+01	-8.894157e+01
3.300000e-07	-2.417055e-06	-1.361822e-09	-1.914644e+01	-8.871408e+01
3.400000e-07	-2.411429e-06	-1.384944e-09	-1.910188e+01	-8.849259e+01
3.500000e-07	-2.405665e-06	-1.284055e-09	-1.905623e+01	-8.827695e+01
3.600000e-07	-2.399597e-06	-1.240028e-09	-1.900816e+01	-8.806687e+01
3.700000e-07	-2.393412e-06	-1.302390e-09	-1.895917e+01	-8.786191e+01
3.800000e-07	-2.387254e-06	-1.359784e-09	-1.891038e+01	-8.766151e+01
3.900000e-07	-2.380835e-06	-1.329264e-09	-1.885954e+01	-8.746498e+01
4.000000e-07	-2.374098e-06	-1.276532e-09	-1.880617e+01	-8.727153e+01
4.100000e-07	-2.367094e-06	-1.276417e-09	-1.875069e+01	-8.708029e+01
4.200000e-07	-2.359997e-06	-1.306944e-09	-1.869447e+01	-8.689030e+01
4.300000e-07	-2.352820e-06	-1.318976e-09	-1.863762e+01	-8.670056e+01
4.400000e-07	-2.345462e-06	-1.298174e-09	-1.857934e+01	-8.651002e+01
4.500000e-07	-2.337997e-06	-1.274040e-09	-1.852020e+01	-8.631763e+01
4.600000e-07	-2.330382e-06	-1.266455e-09	-1.845988e+01	-8.612234e+01
4.700000e-07	-2.322609e-06	-1.287300e-09	-1.839830e+01	-8.592310e+01
4.800000e-07	-2.314755e-06	-1.302392e-09	-1.833609e+01	-8.571891e+01
4.900000e-07	-2.306826e-06	-1.286660e-09	-1.827328e+01	-8.550884e+01
5.000000e-07	-2.298825e-06	-1.255938e-09	-1.820990e+01	-8.529200e+01
5.100000e-07	-2.290707e-06	-1.256871e-09	-1.814559e+01	-8.506758e+01
5.200000e-07	-2.282436e-06	-1.276812e-09	-1.808008e+01	-8.483488e+01
5.300000e-07	-2.274148e-06	-1.274144e-09	-1.801443e+01	-8.459327e+01
5.400000e-07	-2.265768e-06	-1.246738e-09	-1.794804e+01	-8.434223e+01
5.500000e-07	-2.257152e-06	-1.240453e-09	-1.787979e+01	-8.408135e+01
5.600000e-07	-2.248413e-06	-1.257370e-09	-1.781057e+01	-8.381031e+01
5.700000e-07	-2.239444e-06	-1.256022e-09	-1.773952e+01	-8.352890e+01
5.800000e-07	-2.230146e-06	-1.232653e-09	-1.766587e+01	-8.323700e+01
5.900000e-07	-2.220589e-06	-1.229980e-09	-1.759017e+01	-8.293461e+01
6.000000e-07	-2.210885e-06	-1.243495e-09	-1.751329e+01	-8.262177e+01
6.100000e-07	-2.200794e-06	-1.233246e-09	-1.743336e+01	-8.229864e+01
6.200000e-07	-2.190319e-06	-1.205830e-09	-1.735038e+01	-8.196543e+01
6.300000e-07	-2.179639e-06	-1.206684e-09	-1.726578e+01	-8.162239e+01
6.400000e-07	-2.168715e-06	-1.228419e-09	-1.717925e+01	-8.126986e+01
6.500000e-07	-2.157587e-06	-1.224082e-09	-1.709110e+01	-8.090816e+01
6.600000e-07	-2.146185e-06	-1.195656e-09	-1.700078e+01	-8.053768e+01
6.700000e-07	-2.134584e-06	-1.186706e-09	-1.690888e+01	-8.015881e+01
6.800000e-07	-2.122860e-06	-1.201309e-09	-1.681602e+01	-7.977195e+01
6.900000e-07	-2.111007e-06	-1.208222e-09	-1.672212e+01	-7.937747e+01
7.000000e-07	-2.099063e-06	-1.190182e-09	-1.662751e+01	-7.897577e+01
7.100000e-07	-2.087039e-06	-1.163507e-09	-1.653226e+01	-7.856721e+01
7.200000e-07	-2.074823e-06	-1.155255e-09	-1.643550e+01	-7.815212e+01
7.300000e-07	-2.062513e-06	-1.170243e-09	-1.633798e+01	-7.773083e+01
7.400000e-07	-2.050113e-06	-1.174714e-09	-1.623976e+01	-7.730361e+01
7.500000e-07	-2.037503e-06	-1.145411e-09	-1.613986e+01	-7.687073e+01
7.600000e-07	-2.024748e-06	-1.119249e-09	-1.603883e+01	-7.643242e+01
7.700000e-07	-2.011860e-06	-1.134445e-09	-1.593674e+01	-7.598887e+01
7.800000e-07	-1.998726e-06	-1.156567e-09	-1.583270e+01	-7.554026e+01
7.900000e-07	-1.985322e-06	-1.136249e-09	-1.572652e+01	-7.508675e+01
8.000000e-07	-1.971827e-06	-1.096874e-09	-1.561962e+01	-7.462846e+01
8.100000e-07	-1.958192e-06	-1.092936e-09	-1.551161e+01	-7.416553e+01
8.200000e-07	-1.944362e-06	-1.117080e-09	-1.540206e+01	-7.369805e+01
8.300000e-07	-1.930440e-06	-1.116500e-09	-1.529178e+01	-7.322615e+01
8.400000e-07	-1.916388e-06	-1.086733e-09	-1.518046e+01	-7.274991e+01
8.500000e-07	-1.902157e-06	-1.068373e-09	-1.506774e+01	-7.226944e+01
8.600000e-07	-1.887864e-06	-1.078490e-09	-1.495452e+01	-7.178485e+01
8.700000e-07	-1.873576e-06	-1.089329e-09	-1.484134e+01	-7.129627e+01
8.800000e-07	-1.859069e-06	-1.078483e-09	-1.472642e+01	-7.080382e+01
8.900000e-07	-1.844270e-06	-1.056195e-09	-1.460919e+01	-7.030763e+01
9.000000e-07	-1.829214e-06	-1.042849e-09	-1.448993e+01	-6.980786e+01
9.100000e-07	-1.814013e-06	-1.043494e-09	-1.436952e+01	-6.930467e+01
9.200000e-07	-1.798858e-06	-1.045049e-09	-1.424947e+01	-6.879821e+01
9.300000e-07	-1.783509e-06	-1.030932e-09	-1.412788e+01	-6.828866e+01
9.400000e-07	-1.767854e-06	-1.007840e-09	-1.400387e+01	-6.777620e+01
9.500000e-07	-1.752035e-06	-9.993537e-10	-1.387856e+01	-6.726099e+01
9.600000e-07	-1.736020e-06	-1.006735e-09	-1.375170e+01	-6.674320e+01
9.700000e-07	-1.719765e-06	-1.006985e-09	-1.362294e+01	-6.622298e+01
9.800000e-07	-1.703315e-06	-9.916233e-10	-1.349264e+01	-6.570049e+01
9.900000e-07	-1.686706e-06	-9.753981e-10	-1.336107e+01	-6.517582e+01
1.000000e-06	-1.669929e-06	-9.718917e-10	-1.322817e+01	-6.464910e+01
1.010000e-06	-1.653064e-06	-9.726832e-10	-1.309457e+01	-6.412038e+01
1.020000e-06	-1.636118e-06	-9.658816e-10	-1.296034e+01	-6.358970e+01
1.030000e-06	-1.618987e-06	-9.502184e-10	-1.282464e+01	-6.305707e+01
1.040000e-06	-1.601756e-06	-9.359316e-10	-1.268814e+01	-6.252245e+01
1.050000e-06	-1.584521e-06	-9.319122e-10	-1.255162e+01	-6.198579e+01
1.060000e-06	-1.567192e-06	-9.322107e-10	-1.241435e+01	-6.144696e+01
1.070000e-06	-1.549781e-06	-9.249203e-10	-1.227643e+01	-6.090583e+01
1.080000e-06	-1.532374e-06	-9.095243e-10	-1.213854e+01	-6.036222e+01
1.090000e-06	-1.514886e-06	-8.973368e-10	-1.200001e+01	-5.981593e+01
1.100000e-06	-1.497297e-06	-8.947599e-10	-1.186068e+01	-5.926670e+01
1.110000e-06	-1.479724e-06	-8.933821e-10	-1.172148e+01	-5.871428e+01
1.120000e-06	-1.462082e-06	-8.815103e-10	-1.158173e+01	-5.815837e+01
1.130000e-06	-1.444310e-06	-8.624935e-10	-1.144095e+01	-5.759869e+01
1.140000e-06	-1.426438e-06	-8.528332e-10	-1.129938e+01	-5.703491e+01
1.150000e-06	-1.408513e-06	-8.521872e-10	-1.115739e+01	-5.646672e+01
1.160000e-06	-1.390491e-06	-8.456739e-10	-1.101463e+01	-5.589382e+01
1.170000e-06	-1.372301e-06	-8.340058e-10	-1.087054e+01	-5.531589e+01
1.180000e-06	-1.353979e-06	-8.245002e-10	-1.072540e+01	-5.473265e+01
1.190000e-06	-1.335524e-06	-8.201985e-10	-1.057921e+01	-5.414383e+01
1.200000e-06	-1.316999e-06	-8.165251e-10	-1.043247e+01	-5.354918e+01
1.210000e-06	-1.298436e-06	-8.067180e-10	-1.028542e+01	-5.294848e+01
1.220000e-06	-1.279801e-06	-7.933025e-10	-1.013781e+01	-5.234155e+01
1.230000e-06	-1.261088e-06	-7.807477e-10	-9.989575e+00	-5.172823e+01
1.240000e-06	-1.242190e-06	-7.723154e-10	-9.839880e+00	-5.110842e+01
1.250000e-06	-1.223153e-06	-7.654715e-10	-9.689082e+00	-5.048203e+01
1.260000e-06	-1.204014e-06	-7.549221e-10	-9.537474e+00	-4.984903e+01
1.270000e-06	-1.184706e-06	-7.434775e-10	-9.384523e+00	-4.920943e+01
1.280000e-06	-1.165286e-06	-7.352806e-10	-9.230688e+00	-4.856325e+01
1.290000e-06	-1.145841e-06	-7.318391e-10	-9.076657e+00	-4.791058e+01
1.300000e-06	-1.126362e-06	-7.260523e-10	-8.922357e+00	-4.725153e+01
1.310000e-06	-1.106714e-06	-7.149490e-10	-8.766719e+00	-4.658622e+01
1.320000e-06	-1.086913e-06	-7.025931e-10	-8.609866e+00	-4.591484e+01
1.330000e-06	-1.067054e-06	-6.937036e-10	-8.452558e+00	-4.523757e+01
1.340000e-06	-1.047201e-06	-6.839922e-10	-8.295295e+00	-4.455462e+01
1.350000e-06	-1.027368e-06	-6.729512e-10	-8.138190e+00	-4.386622e+01
1.360000e-06	-1.007478e-06	-6.635863e-10	-7.980631e+00	-4.317262e+01
1.370000e-06	-9.875486e-07	-6.553401e-10	-7.822763e+00	-4.247407e+01
1.380000e-06	-9.676286e-07	-6.483773e-10	-7.664969e+00	-4.177083e+01
1.390000e-06	-9.476738e-07	-6.404465e-10	-7.506899e+00	-4.106317e+01
1.400000e-06	-9.277023e-07	-6.316106e-10	-7.348697e+00	-4.035136e+01
1.410000e-06	-9.077109e-07	-6.215475e-10	-7.190337e+00	-3.963567e+01
1.420000e-06	-8.876660e-07	-6.105097e-10	-7.031553e+00	-3.891635e+01
1.430000e-06	-8.676525e-07	-5.996542e-10	-6.873019e+00	-3.819369e+01
1.440000e-06	-8.476447e-07	-5.880578e-10	-6.714529e+00	-3.746794e+01
1.450000e-06	-8.275789e-07	-5.753834e-10	-6.555580e+00	-3.673935e+01
1.460000e-06	-8.074890e-07	-5.653929e-10	-6.396440e+00	-3.600817e+01
1.470000e-06	-7.873602e-07	-5.566039e-10	-6.236992e+00	-3.527466e+01
1.480000e-06	-7.671990e-07	-5.465753e-10	-6.077287e+00	-3.453905e+01
1.490000e-06	-7.470249e-07	-5.367476e-10	-5.917480e+00	-3.380156e+01
1.500000e-06	-7.268709e-07	-5.274627e-10	-5.757832e+00	-3.306243e+01
1.510000e-06	-7.067582e-07	-5.157597e-10	-5.598512e+00	-3.232187e+01
1.520000e-06	-6.865693e-07	-5.024439e-10	-5.438587e+00	-3.158010e+01
1.530000e-06	-6.662767e-07	-4.901808e-10	-5.277841e+00	-3.083730e+01
1.540000e-06	-6.459650e-07	-4.799086e-10	-5.116944e+00	-3.009367e+01
1.550000e-06	-6.255943e-07	-4.696845e-10	-4.955580e+00	-2.934938e+01
1.560000e-06	-6.052131e-07	-4.586875e-10	-4.794133e+00	-2.860460e+01
1.570000e-06	-5.848117e-07	-4.495176e-10	-4.632525e+00	-2.785947e+01
1.580000e-06	-5.643450e-07	-4.412859e-10	-4.470400e+00	-2.711412e+01
1.590000e-06	-5.438375e-07	-4.314329e-10	-4.307952e+00	-2.636864e+01
1.600000e-06	-5.232937e-07	-4.197079e-10	-4.145217e+00	-2.562313e+01
1.610000e-06	-5.027750e-07	-4.089824e-10	-3.982680e+00	-2.487764e+01
1.620000e-06	-4.821918e-07	-4.004513e-10	-3.819632e+00	-2.413220e+01
1.630000e-06	-4.615437e-07	-3.927105e-10	-3.656070e+00	-2.338679e+01
1.640000e-06	-4.408711e-07	-3.827605e-10	-3.492315e+00	-2.264138e+01
1.650000e-06	-4.200833e-07	-3.710208e-10	-3.327646e+00	-2.189591e+01
1.660000e-06	-3.992407e-07	-3.588560e-10	-3.162543e+00	-2.115025e+01
1.670000e-06	-3.784993e-07	-3.492642e-10	-2.998243e+00	-2.040427e+01
1.680000e-06	-3.577876e-07	-3.412096e-10	-2.834177e+00	-1.965778e+01
1.690000e-06	-3.369470e-07	-3.312824e-10	-2.669091e+00	-1.891058e+01
1.700000e-06	-3.160173e-07	-3.161245e-10	-2.503298e+00	-1.816241e+01
1.710000e-06	-2.950745e-07	-2.996914e-10	-2.337401e+00	-1.741300e+01
1.720000e-06	-2.740939e-07	-2.854731e-10	-2.171206e+00	-1.666205e+01
1.730000e-06	-2.530050e-07	-2.737405e-10	-2.004153e+00	-1.590923e+01
1.740000e-06	-2.319079e-07	-2.604458e-10	-1.837034e+00	-1.515421e+01
1.750000e-06	-2.108761e-07	-2.437470e-10	-1.670433e+00	-1.439664e+01
1.760000e-06	-1.898125e-07	-2.286150e-10	-1.503580e+00	-1.363615e+01
1.770000e-06	-1.687480e-07	-2.188455e-10	-1.336720e+00	-1.287242e+01
1.780000e-06	-1.476751e-07	-2.104728e-10	-1.169793e+00	-1.210509e+01
1.790000e-06	-1.265274e-07	-1.989096e-10	-1.002274e+00	-1.133385e+01
1.800000e-06	-1.053512e-07	-1.846472e-10	-8.345286e-01	-1.055841e+01
1.810000e-06	-8.415532e-08	-1.694838e-10	-6.666275e-01	-9.778507e+00
1.820000e-06	-6.289766e-08	-1.570977e-10	-4.982373e-01	-8.993914e+00
1.830000e-06	-4.158692e-08	-1.456198e-10	-3.294264e-01	-8.204458e+00
1.840000e-06	-2.034191e-08	-1.310537e-10	-1.611363e-01	-7.410015e+00
1.850000e-06	9.080142e-10	-1.151927e-10	7.192740e-03	-6.610514e+00
1.860000e-06	2.213094e-08	-1.038668e-10	1.753079e-01	-5.805940e+00
1.870000e-06	4.326224e-08	-9.517917e-11	3.426973e-01	-4.996342e+00
1.880000e-06	6.445493e-08	-8.569082e-11	5.105730e-01	-4.181826e+00
1.890000e-06	8.561411e-08	-7.177206e-11	6.781833e-01	-3.362560e+00
1.900000e-06	1.067024e-07	-5.608518e-11	8.452323e-01	-2.538766e+00
1.910000e-06	1.278173e-07	-4.213053e-11	1.012491e+00	-1.710725e+00
1.920000e-06	1.489466e-07	-2.916700e-11	1.179865e+00	-8.787624e-01
1.930000e-06	1.700197e-07	-1.501699e-11	1.346793e+00	-4.325106e-02
1.940000e-06	1.909921e-07	1.278129e-13	1.512924e+00	7.954012e-01
1.950000e-06	2.119114e-07	1.292380e-11	1.678634e+00	1.636757e+00
1.960000e-06	2.328074e-07	2.349503e-11	1.844159e+00	2.480359e+00
1.970000e-06	2.537389e-07	3.406157e-11	2.009967e+00	3.325736e+00
1.980000e-06	2.747404e-07	4.639901e-11	2.176327e+00	4.172416e+00
1.990000e-06	2.957025e-07	6.122624e-11	2.342377e+00	5.019933e+00
2.000000e-06	3.166227e-07	7.672149e-11	2.508094e+00	5.867835e+00
2.010000e-06	3.374767e-07	9.040580e-11	2.673286e+00	6.715693e+00
2.020000e-06	3.583781e-07	1.035597e-10	2.838855e+00	7.563111e+00
2.030000e-06	3.792861e-07	1.185040e-10	3.004475e+00	8.409728e+00
2.040000e-06	4.000557e-07	1.327474e-10	3.169000e+00	9.255227e+00
2.050000e-06	4.207967e-07	1.449706e-10	3.333297e+00	1.009934e+01
2.060000e-06	4.415190e-07	1.557949e-10	3.497447e+00	1.094184e+01
2.070000e-06	4.622661e-07	1.668352e-10	3.661793e+00	1.178257e+01
2.080000e-06	4.829714e-07	1.782274e-10	3.825807e+00	1.262140e+01
2.090000e-06	5.036027e-07	1.912332e-10	3.989236e+00	1.345827e+01
2.100000e-06	5.241574e-07	2.035948e-10	4.152058e+00	1.429316e+01
2.110000e-06	5.446644e-07	2.145661e-10	4.314502e+00	1.512608e+01
2.120000e-06	5.651513e-07	2.275633e-10	4.476787e+00	1.595710e+01
2.130000e-06	5.855845e-07	2.408098e-10	4.638646e+00	1.678631e+01
2.140000e-06	6.060020e-07	2.531403e-10	4.800382e+00	1.761381e+01
2.150000e-06	6.263466e-07	2.648080e-10	4.961539e+00	1.843973e+01
2.160000e-06	6.466384e-07	2.771598e-10	5.122278e+00	1.926420e+01
2.170000e-06	6.668922e-07	2.902472e-10	5.282717e+00	2.008734e+01
2.180000e-06	6.870964e-07	3.037485e-10	5.442762e+00	2.090928e+01
2.190000e-06	7.072612e-07	3.160880e-10	5.602495e+00	2.173010e+01
2.200000e-06	7.274176e-07	3.284207e-10	5.762163e+00	2.254989e+01
2.210000e-06	7.476059e-07	3.429373e-10	5.922082e+00	2.336866e+01
2.220000e-06	7.677212e-07	3.600792e-10	6.081423e+00	2.418644e+01
2.230000e-06	7.877780e-07	3.778101e-10	6.240301e+00	2.500317e+01
2.240000e-06	8.079061e-07	3.921552e-10	6.399744e+00	2.581876e+01
2.250000e-06	8.279745e-07	4.034601e-10	6.558713e+00	2.663308e+01
2.260000e-06	8.479152e-07	4.148802e-10	6.716671e+00	2.744596e+01
2.270000e-06	8.678610e-07	4.272419e-10	6.874670e+00	2.825717e+01
2.280000e-06	8.878297e-07	4.396303e-10	7.032850e+00	2.906645e+01
2.290000e-06	9.078037e-07	4.513009e-10	7.191072e+00	2.987352e+01
2.300000e-06	9.278104e-07	4.626157e-10	7.349553e+00	3.067805e+01
2.310000e-06	9.477942e-07	4.747738e-10	7.507853e+00	3.147971e+01
2.320000e-06	9.676839e-07	4.865432e-10	7.665407e+00	3.227815e+01
2.330000e-06	9.875448e-07	4.988037e-10	7.822733e+00	3.307302e+01
2.340000e-06	1.007404e-06	5.126500e-10	7.980043e+00	3.386398e+01
2.350000e-06	1.027188e-06	5.254527e-10	8.136761e+00	3.465071e+01
2.360000e-06	1.046946e-06	5.386460e-10	8.293277e+00	3.543292e+01
2.370000e-06	1.066663e-06	5.543517e-10	8.449457e+00	3.621036e+01
2.380000e-06	1.086301e-06	5.692292e-10	8.605020e+00	3.698283e+01
2.390000e-06	1.105923e-06	5.808121e-10	8.760451e+00	3.775016e+01
2.400000e-06	1.125456e-06	5.915679e-10	8.915183e+00	3.851228e+01
2.410000e-06	1.144828e-06	6.050374e-10	9.068639e+00	3.926915e+01
2.420000e-06	1.164091e-06	6.209275e-10	9.221224e+00	4.002082e+01
2.430000e-06	1.183285e-06	6.365802e-10	9.373266e+00	4.076740e+01
2.440000e-06	1.202381e-06	6.477907e-10	9.524537e+00	4.150907e+01
2.450000e-06	1.221495e-06	6.562962e-10	9.675947e+00	4.224608e+01
2.460000e-06	1.240624e-06	6.669485e-10	9.827471e+00	4.297874e+01
2.470000e-06	1.259602e-06	6.793635e-10	9.977802e+00	4.370741e+01
2.480000e-06	1.278428e-06	6.907412e-10	1.012693e+01	4.443251e+01
2.490000e-06	1.297081e-06	7.004533e-10	1.027469e+01	4.515449e+01
2.500000e-06	1.315605e-06	7.107210e-10	1.042143e+01	4.587383e+01
2.510000e-06	1.334067e-06	7.223663e-10	1.056767e+01	4.659102e+01
2.520000e-06	1.352369e-06	7.338663e-10	1.071265e+01	4.730657e+01
2.530000e-06	1.370496e-06	7.451840e-10	1.085624e+01	4.802097e+01
2.540000e-06	1.388484e-06	7.556942e-10	1.099873e+01	4.873468e+01
2.550000e-06	1.406345e-06	7.649658e-10	1.114022e+01	4.944815e+01
2.560000e-06	1.424219e-06	7.742139e-10	1.128180e+01	5.016175e+01
2.570000e-06	1.442050e-06	7.836918e-10	1.142305e+01	5.087583e+01
2.580000e-06	1.459737e-06	7.930422e-10	1.156315e+01	5.159064e+01
2.590000e-06	1.477345e-06	8.021479e-10	1.170263e+01	5.230638e+01
2.600000e-06	1.494898e-06	8.127320e-10	1.184168e+01	5.302314e+01
2.610000e-06	1.512440e-06	8.260150e-10	1.198063e+01	5.374095e+01
2.620000e-06	1.529899e-06	8.397641e-10	1.211894e+01	5.445973e+01
2.630000e-06	1.547317e-06	8.511274e-10	1.225691e+01	5.517932e+01
2.640000e-06	1.564655e-06	8.615841e-10	1.239425e+01	5.589945e+01
2.650000e-06	1.581889e-06	8.724601e-10	1.253077e+01	5.661980e+01
2.660000e-06	1.598945e-06	8.822779e-10	1.266588e+01	5.733992e+01
2.670000e-06	1.615867e-06	8.909525e-10	1.279992e+01	5.805931e+01
2.680000e-06	1.632788e-06	8.996231e-10	1.293396e+01	5.877742e+01
2.690000e-06	1.649619e-06	9.087105e-10	1.306728e+01	5.949361e+01
2.700000e-06	1.666354e-06	9.184269e-10	1.319985e+01	6.020721e+01
2.710000e-06	1.682852e-06	9.308240e-10	1.333053e+01	6.091752e+01
2.720000e-06	1.699106e-06	9.432987e-10	1.345929e+01	6.162382e+01
2.730000e-06	1.715335e-06	9.518767e-10	1.358785e+01	6.232538e+01
2.740000e-06	1.731473e-06	9.597819e-10	1.371568e+01	6.302147e+01
2.750000e-06	1.747435e-06	9.701269e-10	1.384213e+01	6.371140e+01
2.760000e-06	1.763155e-06	9.825168e-10	1.396665e+01	6.439447e+01
2.770000e-06	1.778585e-06	9.927527e-10	1.408887e+01	6.507008e+01
2.780000e-06	1.793883e-06	1.000593e-09	1.421005e+01	6.573764e+01
2.790000e-06	1.809014e-06	1.009509e-09	1.432991e+01	6.639664e+01
2.800000e-06	1.823949e-06	1.020489e-09	1.444822e+01	6.704664e+01
2.810000e-06	1.838814e-06	1.031385e-09	1.456597e+01	6.768725e+01
2.820000e-06	1.853624e-06	1.038794e-09	1.468329e+01	6.831820e+01
2.830000e-06	1.868295e-06	1.045918e-09	1.479950e+01	6.893926e+01
2.840000e-06	1.882768e-06	1.055875e-09	1.491415e+01	6.955031e+01
2.850000e-06	1.897093e-06	1.065260e-09	1.502762e+01	7.015129e+01
2.860000e-06	1.911239e-06	1.072743e-09	1.513968e+01	7.074222e+01
2.870000e-06	1.925190e-06	1.081101e-09	1.525020e+01	7.132320e+01
2.880000e-06	1.939058e-06	1.090894e-09	1.536005e+01	7.189439e+01
2.890000e-06	1.952804e-06	1.099623e-09	1.546893e+01	7.245600e+01
2.900000e-06	1.966302e-06	1.107814e-09	1.557586e+01	7.300828e+01
