# Temperatura_=_20.0
# Concentracion g/m^3_=_12600.0
# C_Vs_to_Am_M_A/Vsm_=_65563218390.804596
# pendiente_HvsI_1/m_=_3716.3
# ordenada_HvsI_A/m_=_1297.0
# frecuencia_Hz_=_134895.7389014256

Tiempo_(s)	Campo_(V.s)	Magnetizacion_(V.s)	Campo_(kA/m)	Magnetizacion_(A/m)
0.000000e+00	-2.501566e-06	-1.399150e-09	-1.983987e+01	-9.317397e+01
1.000000e-08	-2.501825e-06	-1.390320e-09	-1.984193e+01	-9.311828e+01
2.000000e-08	-2.501992e-06	-1.389313e-09	-1.984325e+01	-9.304990e+01
3.000000e-08	-2.502029e-06	-1.418542e-09	-1.984354e+01	-9.296880e+01
4.000000e-08	-2.501929e-06	-1.458004e-09	-1.984275e+01	-9.287500e+01
5.000000e-08	-2.501736e-06	-1.446909e-09	-1.984122e+01	-9.276858e+01
6.000000e-08	-2.501489e-06	-1.351675e-09	-1.983926e+01	-9.264973e+01
7.000000e-08	-2.501087e-06	-1.342066e-09	-1.983607e+01	-9.251870e+01
8.000000e-08	-2.500481e-06	-1.412308e-09	-1.983127e+01	-9.237581e+01
9.000000e-08	-2.499714e-06	-1.417393e-09	-1.982518e+01	-9.222149e+01
1.000000e-07	-2.498796e-06	-1.416054e-09	-1.981790e+01	-9.205622e+01
1.100000e-07	-2.497692e-06	-1.391931e-09	-1.980914e+01	-9.188056e+01
1.200000e-07	-2.496266e-06	-1.369764e-09	-1.979783e+01	-9.169517e+01
1.300000e-07	-2.494506e-06	-1.384217e-09	-1.978388e+01	-9.150074e+01
1.400000e-07	-2.492409e-06	-1.431650e-09	-1.976725e+01	-9.129801e+01
1.500000e-07	-2.490015e-06	-1.349419e-09	-1.974826e+01	-9.108780e+01
1.600000e-07	-2.487339e-06	-1.308601e-09	-1.972704e+01	-9.087093e+01
1.700000e-07	-2.484338e-06	-1.405131e-09	-1.970324e+01	-9.064827e+01
1.800000e-07	-2.481084e-06	-1.487632e-09	-1.967743e+01	-9.042068e+01
1.900000e-07	-2.477620e-06	-1.392184e-09	-1.964996e+01	-9.018903e+01
2.000000e-07	-2.473984e-06	-1.277580e-09	-1.962112e+01	-8.995416e+01
2.100000e-07	-2.470211e-06	-1.334540e-09	-1.959120e+01	-8.971691e+01
2.200000e-07	-2.466300e-06	-1.443167e-09	-1.956018e+01	-8.947806e+01
2.300000e-07	-2.462307e-06	-1.416179e-09	-1.952851e+01	-8.923834e+01
2.400000e-07	-2.458278e-06	-1.272444e-09	-1.949656e+01	-8.899843e+01
2.500000e-07	-2.454185e-06	-1.264603e-09	-1.946409e+01	-8.875892e+01
2.600000e-07	-2.450002e-06	-1.355403e-09	-1.943092e+01	-8.852033e+01
2.700000e-07	-2.445616e-06	-1.394878e-09	-1.939613e+01	-8.828311e+01
2.800000e-07	-2.441028e-06	-1.307161e-09	-1.935975e+01	-8.804760e+01
2.900000e-07	-2.436307e-06	-1.237981e-09	-1.932230e+01	-8.781406e+01
3.000000e-07	-2.431398e-06	-1.266579e-09	-1.928337e+01	-8.758264e+01
3.100000e-07	-2.426344e-06	-1.366135e-09	-1.924329e+01	-8.735342e+01
3.200000e-07	-2.421221e-06	-1.371125e-09	-1.920266e+01	-8.712636e+01
3.300000e-07	-2.415928e-06	-1.261750e-09	-1.916068e+01	-8.690137e+01
3.400000e-07	-2.410384e-06	-1.204349e-09	-1.911670e+01	-8.667826e+01
3.500000e-07	-2.404687e-06	-1.305170e-09	-1.907153e+01	-8.645676e+01
3.600000e-07	-2.398826e-06	-1.384233e-09	-1.902504e+01	-8.623656e+01
3.700000e-07	-2.392740e-06	-1.296849e-09	-1.897677e+01	-8.601727e+01
3.800000e-07	-2.386550e-06	-1.194406e-09	-1.892768e+01	-8.579848e+01
3.900000e-07	-2.380212e-06	-1.257663e-09	-1.887741e+01	-8.557973e+01
4.000000e-07	-2.373633e-06	-1.361613e-09	-1.882524e+01	-8.536054e+01
4.100000e-07	-2.366908e-06	-1.316249e-09	-1.877190e+01	-8.514042e+01
4.200000e-07	-2.359977e-06	-1.212413e-09	-1.871693e+01	-8.491888e+01
4.300000e-07	-2.352820e-06	-1.232238e-09	-1.866017e+01	-8.469543e+01
4.400000e-07	-2.345502e-06	-1.315971e-09	-1.860213e+01	-8.446960e+01
4.500000e-07	-2.337949e-06	-1.300506e-09	-1.854223e+01	-8.424093e+01
4.600000e-07	-2.330249e-06	-1.225970e-09	-1.848116e+01	-8.400901e+01
4.700000e-07	-2.322502e-06	-1.224208e-09	-1.841971e+01	-8.377344e+01
4.800000e-07	-2.314662e-06	-1.280324e-09	-1.835754e+01	-8.353388e+01
4.900000e-07	-2.306746e-06	-1.281693e-09	-1.829476e+01	-8.328999e+01
5.000000e-07	-2.298784e-06	-1.237034e-09	-1.823161e+01	-8.304149e+01
5.100000e-07	-2.290752e-06	-1.228044e-09	-1.816791e+01	-8.278815e+01
5.200000e-07	-2.282626e-06	-1.255918e-09	-1.810346e+01	-8.252975e+01
5.300000e-07	-2.274353e-06	-1.255744e-09	-1.803785e+01	-8.226611e+01
5.400000e-07	-2.265920e-06	-1.230825e-09	-1.797096e+01	-8.199706e+01
5.500000e-07	-2.257308e-06	-1.223892e-09	-1.790267e+01	-8.172247e+01
5.600000e-07	-2.248529e-06	-1.235025e-09	-1.783304e+01	-8.144221e+01
5.700000e-07	-2.239505e-06	-1.233948e-09	-1.776147e+01	-8.115619e+01
5.800000e-07	-2.230238e-06	-1.228458e-09	-1.768798e+01	-8.086427e+01
5.900000e-07	-2.220717e-06	-1.222347e-09	-1.761247e+01	-8.056635e+01
6.000000e-07	-2.210906e-06	-1.209738e-09	-1.753465e+01	-8.026231e+01
6.100000e-07	-2.200770e-06	-1.203679e-09	-1.745426e+01	-7.995202e+01
6.200000e-07	-2.190315e-06	-1.219087e-09	-1.737134e+01	-7.963534e+01
6.300000e-07	-2.179653e-06	-1.219830e-09	-1.728678e+01	-7.931211e+01
6.400000e-07	-2.168823e-06	-1.189488e-09	-1.720089e+01	-7.898216e+01
6.500000e-07	-2.157766e-06	-1.174667e-09	-1.711320e+01	-7.864530e+01
6.600000e-07	-2.146483e-06	-1.199540e-09	-1.702371e+01	-7.830133e+01
6.700000e-07	-2.135064e-06	-1.207819e-09	-1.693315e+01	-7.795005e+01
6.800000e-07	-2.123394e-06	-1.174275e-09	-1.684059e+01	-7.759124e+01
6.900000e-07	-2.111542e-06	-1.155994e-09	-1.674660e+01	-7.722469e+01
7.000000e-07	-2.099600e-06	-1.175384e-09	-1.665189e+01	-7.685020e+01
7.100000e-07	-2.087548e-06	-1.179155e-09	-1.655630e+01	-7.646759e+01
7.200000e-07	-2.075339e-06	-1.152425e-09	-1.645947e+01	-7.607671e+01
7.300000e-07	-2.062993e-06	-1.138903e-09	-1.636156e+01	-7.567741e+01
7.400000e-07	-2.050607e-06	-1.142669e-09	-1.626332e+01	-7.526962e+01
7.500000e-07	-2.038111e-06	-1.133963e-09	-1.616422e+01	-7.485329e+01
7.600000e-07	-2.025413e-06	-1.124073e-09	-1.606351e+01	-7.442846e+01
7.700000e-07	-2.012539e-06	-1.128457e-09	-1.596141e+01	-7.399519e+01
7.800000e-07	-1.999500e-06	-1.124308e-09	-1.585799e+01	-7.355364e+01
7.900000e-07	-1.986241e-06	-1.104928e-09	-1.575284e+01	-7.310403e+01
8.000000e-07	-1.972826e-06	-1.098356e-09	-1.564645e+01	-7.264665e+01
8.100000e-07	-1.959245e-06	-1.109049e-09	-1.553874e+01	-7.218187e+01
8.200000e-07	-1.945512e-06	-1.104784e-09	-1.542982e+01	-7.171013e+01
8.300000e-07	-1.931680e-06	-1.083164e-09	-1.532012e+01	-7.123192e+01
8.400000e-07	-1.917686e-06	-1.070528e-09	-1.520913e+01	-7.074782e+01
8.500000e-07	-1.903483e-06	-1.071711e-09	-1.509649e+01	-7.025845e+01
8.600000e-07	-1.889151e-06	-1.070120e-09	-1.498282e+01	-6.976447e+01
8.700000e-07	-1.874782e-06	-1.060416e-09	-1.486886e+01	-6.926659e+01
8.800000e-07	-1.860270e-06	-1.046091e-09	-1.475376e+01	-6.876553e+01
8.900000e-07	-1.845574e-06	-1.034811e-09	-1.463721e+01	-6.826203e+01
9.000000e-07	-1.830724e-06	-1.032666e-09	-1.451943e+01	-6.775680e+01
9.100000e-07	-1.815655e-06	-1.034993e-09	-1.439992e+01	-6.725055e+01
9.200000e-07	-1.800393e-06	-1.024466e-09	-1.427888e+01	-6.674396e+01
9.300000e-07	-1.784916e-06	-1.001756e-09	-1.415613e+01	-6.623763e+01
9.400000e-07	-1.769173e-06	-9.893279e-10	-1.403128e+01	-6.573213e+01
9.500000e-07	-1.753245e-06	-9.959992e-10	-1.390495e+01	-6.522793e+01
9.600000e-07	-1.737167e-06	-9.969946e-10	-1.377744e+01	-6.472542e+01
9.700000e-07	-1.720921e-06	-9.759732e-10	-1.364859e+01	-6.422489e+01
9.800000e-07	-1.704594e-06	-9.543016e-10	-1.351910e+01	-6.372652e+01
9.900000e-07	-1.688121e-06	-9.566238e-10	-1.338845e+01	-6.323037e+01
1.000000e-06	-1.671446e-06	-9.650729e-10	-1.325621e+01	-6.273641e+01
1.010000e-06	-1.654613e-06	-9.528473e-10	-1.312271e+01	-6.224446e+01
1.020000e-06	-1.637538e-06	-9.296418e-10	-1.298728e+01	-6.175425e+01
1.030000e-06	-1.620394e-06	-9.224315e-10	-1.285131e+01	-6.126539e+01
1.040000e-06	-1.603264e-06	-9.288317e-10	-1.271546e+01	-6.077737e+01
1.050000e-06	-1.585994e-06	-9.250214e-10	-1.257849e+01	-6.028961e+01
1.060000e-06	-1.568584e-06	-9.072376e-10	-1.244041e+01	-5.980143e+01
1.070000e-06	-1.551147e-06	-8.936868e-10	-1.230211e+01	-5.931209e+01
1.080000e-06	-1.533680e-06	-8.937188e-10	-1.216358e+01	-5.882077e+01
1.090000e-06	-1.516111e-06	-8.957441e-10	-1.202425e+01	-5.832664e+01
1.100000e-06	-1.498465e-06	-8.883917e-10	-1.188429e+01	-5.782883e+01
1.110000e-06	-1.480783e-06	-8.744370e-10	-1.174406e+01	-5.732647e+01
1.120000e-06	-1.463033e-06	-8.647188e-10	-1.160329e+01	-5.681870e+01
1.130000e-06	-1.445204e-06	-8.605359e-10	-1.146188e+01	-5.630468e+01
1.140000e-06	-1.427366e-06	-8.542701e-10	-1.132041e+01	-5.578363e+01
1.150000e-06	-1.409449e-06	-8.423904e-10	-1.117832e+01	-5.525482e+01
1.160000e-06	-1.391456e-06	-8.308338e-10	-1.103561e+01	-5.471761e+01
1.170000e-06	-1.373412e-06	-8.258344e-10	-1.089250e+01	-5.417144e+01
1.180000e-06	-1.355231e-06	-8.242927e-10	-1.074831e+01	-5.361584e+01
1.190000e-06	-1.336889e-06	-8.193139e-10	-1.060284e+01	-5.305046e+01
1.200000e-06	-1.318427e-06	-8.103837e-10	-1.045642e+01	-5.247504e+01
1.210000e-06	-1.299845e-06	-8.005281e-10	-1.030905e+01	-5.188946e+01
1.220000e-06	-1.281154e-06	-7.907494e-10	-1.016081e+01	-5.129370e+01
1.230000e-06	-1.262336e-06	-7.812327e-10	-1.001156e+01	-5.068786e+01
1.240000e-06	-1.243318e-06	-7.715793e-10	-9.860731e+00	-5.007214e+01
1.250000e-06	-1.224232e-06	-7.590951e-10	-9.709357e+00	-4.944685e+01
1.260000e-06	-1.205149e-06	-7.466963e-10	-9.558016e+00	-4.881239e+01
1.270000e-06	-1.186003e-06	-7.366154e-10	-9.406170e+00	-4.816924e+01
1.280000e-06	-1.166763e-06	-7.303053e-10	-9.253573e+00	-4.751796e+01
1.290000e-06	-1.147361e-06	-7.245235e-10	-9.099699e+00	-4.685916e+01
1.300000e-06	-1.127896e-06	-7.165409e-10	-8.945322e+00	-4.619349e+01
1.310000e-06	-1.108428e-06	-7.058252e-10	-8.790920e+00	-4.552166e+01
1.320000e-06	-1.088807e-06	-6.963653e-10	-8.635310e+00	-4.484436e+01
1.330000e-06	-1.069041e-06	-6.893642e-10	-8.478543e+00	-4.416229e+01
1.340000e-06	-1.049258e-06	-6.793944e-10	-8.321643e+00	-4.347617e+01
1.350000e-06	-1.029494e-06	-6.634595e-10	-8.164897e+00	-4.278665e+01
1.360000e-06	-1.009693e-06	-6.481006e-10	-8.007856e+00	-4.209438e+01
1.370000e-06	-9.898375e-07	-6.394132e-10	-7.850381e+00	-4.139995e+01
1.380000e-06	-9.699470e-07	-6.326873e-10	-7.692630e+00	-4.070390e+01
1.390000e-06	-9.500159e-07	-6.220576e-10	-7.534557e+00	-4.000672e+01
1.400000e-06	-9.300774e-07	-6.105145e-10	-7.376426e+00	-3.930883e+01
1.410000e-06	-9.101193e-07	-6.039179e-10	-7.218138e+00	-3.861059e+01
1.420000e-06	-8.901460e-07	-5.981132e-10	-7.059730e+00	-3.791228e+01
1.430000e-06	-8.701620e-07	-5.880065e-10	-6.901237e+00	-3.721412e+01
1.440000e-06	-8.501266e-07	-5.748172e-10	-6.742337e+00	-3.651628e+01
1.450000e-06	-8.300980e-07	-5.617644e-10	-6.583491e+00	-3.581886e+01
1.460000e-06	-8.100919e-07	-5.500451e-10	-6.424823e+00	-3.512189e+01
1.470000e-06	-7.900411e-07	-5.415811e-10	-6.265800e+00	-3.442539e+01
1.480000e-06	-7.699223e-07	-5.322952e-10	-6.106239e+00	-3.372929e+01
1.490000e-06	-7.497867e-07	-5.217142e-10	-5.946543e+00	-3.303353e+01
1.500000e-06	-7.296198e-07	-5.119329e-10	-5.786600e+00	-3.233799e+01
1.510000e-06	-7.094254e-07	-5.020115e-10	-5.626439e+00	-3.164254e+01
1.520000e-06	-6.891985e-07	-4.903974e-10	-5.466020e+00	-3.094705e+01
1.530000e-06	-6.689295e-07	-4.777524e-10	-5.305267e+00	-3.025137e+01
1.540000e-06	-6.486152e-07	-4.662090e-10	-5.144154e+00	-2.955534e+01
1.550000e-06	-6.282793e-07	-4.547761e-10	-4.982871e+00	-2.885881e+01
1.560000e-06	-6.079335e-07	-4.414993e-10	-4.821508e+00	-2.816166e+01
1.570000e-06	-5.875480e-07	-4.299221e-10	-4.659831e+00	-2.746374e+01
1.580000e-06	-5.671558e-07	-4.219711e-10	-4.498101e+00	-2.676494e+01
1.590000e-06	-5.467303e-07	-4.140530e-10	-4.336107e+00	-2.606515e+01
1.600000e-06	-5.261876e-07	-4.037991e-10	-4.173183e+00	-2.536427e+01
1.610000e-06	-5.056323e-07	-3.943835e-10	-4.010160e+00	-2.466221e+01
1.620000e-06	-4.850866e-07	-3.872555e-10	-3.847212e+00	-2.395889e+01
1.630000e-06	-4.645174e-07	-3.777998e-10	-3.684079e+00	-2.325423e+01
1.640000e-06	-4.438964e-07	-3.654380e-10	-3.520534e+00	-2.254814e+01
1.650000e-06	-4.232102e-07	-3.532162e-10	-3.356472e+00	-2.184055e+01
1.660000e-06	-4.024932e-07	-3.439893e-10	-3.192166e+00	-2.113136e+01
1.670000e-06	-3.817280e-07	-3.342582e-10	-3.027477e+00	-2.042047e+01
1.680000e-06	-3.609931e-07	-3.228814e-10	-2.863029e+00	-1.970776e+01
1.690000e-06	-3.402101e-07	-3.125404e-10	-2.698200e+00	-1.899308e+01
1.700000e-06	-3.192873e-07	-3.032054e-10	-2.532261e+00	-1.827628e+01
1.710000e-06	-2.983111e-07	-2.921504e-10	-2.365899e+00	-1.755717e+01
1.720000e-06	-2.773397e-07	-2.781979e-10	-2.199576e+00	-1.683556e+01
1.730000e-06	-2.563296e-07	-2.650862e-10	-2.032945e+00	-1.611121e+01
1.740000e-06	-2.352659e-07	-2.545385e-10	-1.865889e+00	-1.538388e+01
1.750000e-06	-2.142327e-07	-2.425106e-10	-1.699076e+00	-1.465331e+01
1.760000e-06	-1.931910e-07	-2.285760e-10	-1.532194e+00	-1.391922e+01
1.770000e-06	-1.720972e-07	-2.162622e-10	-1.364899e+00	-1.318132e+01
1.780000e-06	-1.509751e-07	-2.061543e-10	-1.197380e+00	-1.243934e+01
1.790000e-06	-1.298744e-07	-1.968638e-10	-1.030032e+00	-1.169298e+01
1.800000e-06	-1.087820e-07	-1.876372e-10	-8.627478e-01	-1.094199e+01
1.810000e-06	-8.765156e-08	-1.775752e-10	-6.951628e-01	-1.018610e+01
1.820000e-06	-6.650687e-08	-1.663053e-10	-5.274647e-01	-9.425101e+00
1.830000e-06	-4.529129e-08	-1.551200e-10	-3.592043e-01	-8.658790e+00
1.840000e-06	-2.410278e-08	-1.447688e-10	-1.911587e-01	-7.887020e+00
1.850000e-06	-3.000149e-09	-1.329711e-10	-2.379412e-02	-7.109688e+00
1.860000e-06	1.804193e-08	-1.187236e-10	1.430902e-01	-6.326739e+00
1.870000e-06	3.913081e-08	-1.069433e-10	3.103457e-01	-5.538179e+00
1.880000e-06	6.022214e-08	-9.767831e-11	4.776206e-01	-4.744071e+00
1.890000e-06	8.124277e-08	-8.691981e-11	6.443348e-01	-3.944540e+00
1.900000e-06	1.023331e-07	-7.606924e-11	8.116021e-01	-3.139773e+00
1.910000e-06	1.234284e-07	-6.659601e-11	9.789085e-01	-2.330017e+00
1.920000e-06	1.444825e-07	-5.596319e-11	1.145888e+00	-1.515577e+00
1.930000e-06	1.654746e-07	-4.293518e-11	1.312376e+00	-6.968133e-01
1.940000e-06	1.864604e-07	-2.812823e-11	1.478813e+00	1.258670e-01
1.950000e-06	2.075344e-07	-1.409807e-11	1.645951e+00	9.520146e-01
1.960000e-06	2.285290e-07	-1.527128e-12	1.812459e+00	1.781146e+00
1.970000e-06	2.494729e-07	1.076857e-11	1.978564e+00	2.612754e+00
1.980000e-06	2.704318e-07	2.337596e-11	2.144789e+00	3.446314e+00
1.990000e-06	2.913099e-07	3.436231e-11	2.310373e+00	4.281297e+00
2.000000e-06	3.121404e-07	4.555599e-11	2.475580e+00	5.117177e+00
2.010000e-06	3.329562e-07	6.027120e-11	2.640669e+00	5.953443e+00
2.020000e-06	3.537741e-07	7.410886e-11	2.805775e+00	6.789608e+00
2.030000e-06	3.745878e-07	8.647371e-11	2.970849e+00	7.625216e+00
2.040000e-06	3.953717e-07	1.002550e-10	3.135685e+00	8.459853e+00
2.050000e-06	4.161554e-07	1.135166e-10	3.300520e+00	9.293151e+00
2.060000e-06	4.369070e-07	1.266842e-10	3.465101e+00	1.012479e+01
2.070000e-06	4.575622e-07	1.397821e-10	3.628917e+00	1.095453e+01
2.080000e-06	4.781342e-07	1.520786e-10	3.792073e+00	1.178215e+01
2.090000e-06	4.986545e-07	1.648172e-10	3.954819e+00	1.260752e+01
2.100000e-06	5.191463e-07	1.776789e-10	4.117339e+00	1.343056e+01
2.110000e-06	5.396398e-07	1.904242e-10	4.279873e+00	1.425126e+01
2.120000e-06	5.601058e-07	2.036028e-10	4.442188e+00	1.506963e+01
2.130000e-06	5.804775e-07	2.167237e-10	4.603756e+00	1.588575e+01
2.140000e-06	6.008283e-07	2.301906e-10	4.765158e+00	1.669975e+01
2.150000e-06	6.212523e-07	2.425810e-10	4.927140e+00	1.751177e+01
2.160000e-06	6.416557e-07	2.525455e-10	5.088958e+00	1.832199e+01
2.170000e-06	6.619644e-07	2.631355e-10	5.250027e+00	1.913060e+01
2.180000e-06	6.821910e-07	2.759695e-10	5.410443e+00	1.993778e+01
2.190000e-06	7.023471e-07	2.888099e-10	5.570301e+00	2.074375e+01
2.200000e-06	7.224790e-07	3.009007e-10	5.729967e+00	2.154866e+01
2.210000e-06	7.426052e-07	3.147572e-10	5.889587e+00	2.235268e+01
2.220000e-06	7.627043e-07	3.307067e-10	6.048993e+00	2.315593e+01
2.230000e-06	7.827792e-07	3.460826e-10	6.208207e+00	2.395850e+01
2.240000e-06	8.028320e-07	3.597562e-10	6.367245e+00	2.476045e+01
2.250000e-06	8.228737e-07	3.726655e-10	6.526195e+00	2.556177e+01
2.260000e-06	8.429138e-07	3.858639e-10	6.685132e+00	2.636241e+01
2.270000e-06	8.629433e-07	4.008195e-10	6.843986e+00	2.716229e+01
2.280000e-06	8.829480e-07	4.136882e-10	7.002643e+00	2.796125e+01
2.290000e-06	9.029386e-07	4.236812e-10	7.161188e+00	2.875910e+01
2.300000e-06	9.229122e-07	4.362127e-10	7.319598e+00	2.955561e+01
2.310000e-06	9.428329e-07	4.504670e-10	7.477589e+00	3.035052e+01
2.320000e-06	9.627368e-07	4.628218e-10	7.635447e+00	3.114350e+01
2.330000e-06	9.825995e-07	4.723757e-10	7.792977e+00	3.193425e+01
2.340000e-06	1.002436e-06	4.822254e-10	7.950303e+00	3.272241e+01
2.350000e-06	1.022304e-06	4.961529e-10	8.107874e+00	3.350765e+01
2.360000e-06	1.042056e-06	5.113041e-10	8.264522e+00	3.428962e+01
2.370000e-06	1.061680e-06	5.247172e-10	8.420160e+00	3.506800e+01
2.380000e-06	1.081302e-06	5.365284e-10	8.575785e+00	3.584246e+01
2.390000e-06	1.100903e-06	5.478237e-10	8.731240e+00	3.661275e+01
2.400000e-06	1.120472e-06	5.598584e-10	8.886440e+00	3.737862e+01
2.410000e-06	1.140010e-06	5.729279e-10	9.041395e+00	3.813988e+01
2.420000e-06	1.159447e-06	5.856762e-10	9.195549e+00	3.889639e+01
2.430000e-06	1.178748e-06	5.977810e-10	9.348625e+00	3.964807e+01
2.440000e-06	1.197979e-06	6.096336e-10	9.501150e+00	4.039489e+01
2.450000e-06	1.217035e-06	6.215403e-10	9.652278e+00	4.113688e+01
2.460000e-06	1.235912e-06	6.354168e-10	9.801994e+00	4.187412e+01
2.470000e-06	1.254798e-06	6.490502e-10	9.951778e+00	4.260677e+01
2.480000e-06	1.273632e-06	6.586748e-10	1.010115e+01	4.333503e+01
2.490000e-06	1.292256e-06	6.676101e-10	1.024886e+01	4.405912e+01
2.500000e-06	1.310683e-06	6.791045e-10	1.039500e+01	4.477935e+01
2.510000e-06	1.328959e-06	6.913074e-10	1.053995e+01	4.549601e+01
2.520000e-06	1.347155e-06	7.008117e-10	1.068426e+01	4.620944e+01
2.530000e-06	1.365349e-06	7.093517e-10	1.082855e+01	4.691998e+01
2.540000e-06	1.383498e-06	7.201768e-10	1.097249e+01	4.762800e+01
2.550000e-06	1.401567e-06	7.331610e-10	1.111580e+01	4.833382e+01
2.560000e-06	1.419554e-06	7.457928e-10	1.125845e+01	4.903776e+01
2.570000e-06	1.437442e-06	7.562245e-10	1.140033e+01	4.974013e+01
2.580000e-06	1.455260e-06	7.648594e-10	1.154164e+01	5.044116e+01
2.590000e-06	1.473008e-06	7.746844e-10	1.168240e+01	5.114107e+01
2.600000e-06	1.490601e-06	7.868514e-10	1.182193e+01	5.184002e+01
2.610000e-06	1.508051e-06	7.977202e-10	1.196032e+01	5.253809e+01
2.620000e-06	1.525479e-06	8.074708e-10	1.209854e+01	5.323532e+01
2.630000e-06	1.542894e-06	8.176231e-10	1.223666e+01	5.393167e+01
2.640000e-06	1.560242e-06	8.296227e-10	1.237425e+01	5.462704e+01
2.650000e-06	1.577522e-06	8.416522e-10	1.251130e+01	5.532126e+01
2.660000e-06	1.594673e-06	8.515759e-10	1.264732e+01	5.601409e+01
2.670000e-06	1.611717e-06	8.596938e-10	1.278250e+01	5.670523e+01
2.680000e-06	1.628658e-06	8.699229e-10	1.291686e+01	5.739433e+01
2.690000e-06	1.645518e-06	8.825018e-10	1.305057e+01	5.808098e+01
2.700000e-06	1.662351e-06	8.927533e-10	1.318407e+01	5.876473e+01
2.710000e-06	1.678971e-06	9.009707e-10	1.331589e+01	5.944512e+01
2.720000e-06	1.695410e-06	9.137205e-10	1.344626e+01	6.012162e+01
2.730000e-06	1.711751e-06	9.274425e-10	1.357586e+01	6.079372e+01
2.740000e-06	1.727878e-06	9.379201e-10	1.370376e+01	6.146090e+01
2.750000e-06	1.743791e-06	9.480905e-10	1.382997e+01	6.212262e+01
2.760000e-06	1.759629e-06	9.577107e-10	1.395558e+01	6.277839e+01
2.770000e-06	1.775320e-06	9.681180e-10	1.408003e+01	6.342772e+01
2.780000e-06	1.790755e-06	9.802703e-10	1.420244e+01	6.407016e+01
2.790000e-06	1.805979e-06	9.918459e-10	1.432318e+01	6.470529e+01
2.800000e-06	1.820968e-06	1.002351e-09	1.444206e+01	6.533274e+01
2.810000e-06	1.835795e-06	1.013641e-09	1.455965e+01	6.595219e+01
2.820000e-06	1.850519e-06	1.023203e-09	1.467643e+01	6.656338e+01
2.830000e-06	1.865087e-06	1.033297e-09	1.479197e+01	6.716610e+01
2.840000e-06	1.879412e-06	1.045264e-09	1.490558e+01	6.776019e+01
2.850000e-06	1.893596e-06	1.054608e-09	1.501808e+01	6.834555e+01
2.860000e-06	1.907685e-06	1.061229e-09	1.512981e+01	6.892215e+01
2.870000e-06	1.921637e-06	1.069554e-09	1.524047e+01	6.948999e+01
2.880000e-06	1.935425e-06	1.080776e-09	1.534982e+01	7.004914e+01
2.890000e-06	1.949104e-06	1.090569e-09	1.545831e+01	7.059969e+01
2.900000e-06	1.962748e-06	1.095725e-09	1.556652e+01	7.114179e+01
