# Temperatura_=_20.0
# Concentracion g/m^3_=_9000.0
# C_Vs_to_Am_M_A/Vsm_=_65563218390.804596
# pendiente_HvsI_1/m_=_3716.3
# ordenada_HvsI_A/m_=_1297.0
# frecuencia_Hz_=_300787.4851564353
# Promedio de 26 ciclos

Tiempo_(s)	Campo_(V.s)	Magnetizacion_(V.s)	Campo_(kA/m)	Magnetizacion_(A/m)
0.000000e+00	-4.054935e-09	-3.542803e-09	-5.684661e+01	-2.327475e+02
1.000000e-08	-4.053223e-09	-3.545205e-09	-5.682260e+01	-2.327329e+02
2.000000e-08	-4.050024e-09	-3.545303e-09	-5.677777e+01	-2.326921e+02
3.000000e-08	-4.045629e-09	-3.543899e-09	-5.671615e+01	-2.326249e+02
4.000000e-08	-4.040012e-09	-3.540973e-09	-5.663741e+01	-2.325313e+02
5.000000e-08	-4.033142e-09	-3.536838e-09	-5.654110e+01	-2.324114e+02
6.000000e-08	-4.025052e-09	-3.531120e-09	-5.642768e+01	-2.322660e+02
7.000000e-08	-4.015460e-09	-3.519092e-09	-5.629322e+01	-2.320963e+02
8.000000e-08	-4.004139e-09	-3.526087e-09	-5.613451e+01	-2.319044e+02
9.000000e-08	-3.990977e-09	-3.566363e-09	-5.594999e+01	-2.316929e+02
1.000000e-07	-3.975731e-09	-3.588238e-09	-5.573626e+01	-2.314648e+02
1.100000e-07	-3.958706e-09	-3.557534e-09	-5.549759e+01	-2.312233e+02
1.200000e-07	-3.940496e-09	-3.451898e-09	-5.524230e+01	-2.309712e+02
1.300000e-07	-3.921370e-09	-3.425100e-09	-5.497417e+01	-2.307108e+02
1.400000e-07	-3.901303e-09	-3.551387e-09	-5.469285e+01	-2.304433e+02
1.500000e-07	-3.880218e-09	-3.550382e-09	-5.439725e+01	-2.301683e+02
1.600000e-07	-3.858040e-09	-3.463937e-09	-5.408634e+01	-2.298843e+02
1.700000e-07	-3.834251e-09	-3.454057e-09	-5.375285e+01	-2.295877e+02
1.800000e-07	-3.808623e-09	-3.409633e-09	-5.339357e+01	-2.292735e+02
1.900000e-07	-3.781774e-09	-3.457240e-09	-5.301717e+01	-2.289354e+02
2.000000e-07	-3.753870e-09	-3.573569e-09	-5.262598e+01	-2.285661e+02
2.100000e-07	-3.724561e-09	-3.460852e-09	-5.221509e+01	-2.281578e+02
2.200000e-07	-3.694008e-09	-3.367303e-09	-5.178677e+01	-2.277030e+02
2.300000e-07	-3.662425e-09	-3.497687e-09	-5.134400e+01	-2.271946e+02
2.400000e-07	-3.629509e-09	-3.545870e-09	-5.088255e+01	-2.266268e+02
2.500000e-07	-3.595037e-09	-3.468279e-09	-5.039928e+01	-2.259954e+02
2.600000e-07	-3.559156e-09	-3.393148e-09	-4.989627e+01	-2.252978e+02
2.700000e-07	-3.522080e-09	-3.373187e-09	-4.937649e+01	-2.245336e+02
2.800000e-07	-3.483875e-09	-3.445864e-09	-4.884090e+01	-2.237039e+02
2.900000e-07	-3.444525e-09	-3.451875e-09	-4.828925e+01	-2.228117e+02
3.000000e-07	-3.403963e-09	-3.366422e-09	-4.772060e+01	-2.218608e+02
3.100000e-07	-3.361945e-09	-3.338004e-09	-4.713155e+01	-2.208560e+02
3.200000e-07	-3.318526e-09	-3.335617e-09	-4.652285e+01	-2.198021e+02
3.300000e-07	-3.274008e-09	-3.355113e-09	-4.589875e+01	-2.187036e+02
3.400000e-07	-3.228404e-09	-3.371922e-09	-4.525943e+01	-2.175641e+02
3.500000e-07	-3.181592e-09	-3.289854e-09	-4.460317e+01	-2.163863e+02
3.600000e-07	-3.133622e-09	-3.219734e-09	-4.393068e+01	-2.151713e+02
3.700000e-07	-3.084403e-09	-3.281234e-09	-4.324067e+01	-2.139189e+02
3.800000e-07	-3.033625e-09	-3.314433e-09	-4.252880e+01	-2.126277e+02
3.900000e-07	-2.981354e-09	-3.213311e-09	-4.179602e+01	-2.112949e+02
4.000000e-07	-2.928007e-09	-3.158003e-09	-4.104814e+01	-2.099171e+02
4.100000e-07	-2.873777e-09	-3.202855e-09	-4.028788e+01	-2.084903e+02
4.200000e-07	-2.818660e-09	-3.198094e-09	-3.951519e+01	-2.070102e+02
4.300000e-07	-2.762621e-09	-3.137532e-09	-3.872957e+01	-2.054731e+02
4.400000e-07	-2.705390e-09	-3.101413e-09	-3.792724e+01	-2.038754e+02
4.500000e-07	-2.646904e-09	-3.083329e-09	-3.710733e+01	-2.022142e+02
4.600000e-07	-2.587500e-09	-3.064958e-09	-3.627454e+01	-2.004873e+02
4.700000e-07	-2.527325e-09	-3.045251e-09	-3.543093e+01	-1.986933e+02
4.800000e-07	-2.466293e-09	-3.012123e-09	-3.457533e+01	-1.968313e+02
4.900000e-07	-2.404383e-09	-2.963122e-09	-3.370740e+01	-1.949008e+02
5.000000e-07	-2.341659e-09	-2.938822e-09	-3.282807e+01	-1.929015e+02
5.100000e-07	-2.278272e-09	-2.936041e-09	-3.193944e+01	-1.908331e+02
5.200000e-07	-2.214107e-09	-2.894098e-09	-3.103990e+01	-1.886950e+02
5.300000e-07	-2.148795e-09	-2.830694e-09	-3.012429e+01	-1.864862e+02
5.400000e-07	-2.082396e-09	-2.802754e-09	-2.919343e+01	-1.842050e+02
5.500000e-07	-2.015330e-09	-2.796648e-09	-2.825323e+01	-1.818491e+02
5.600000e-07	-1.947785e-09	-2.755328e-09	-2.730630e+01	-1.794155e+02
5.700000e-07	-1.879653e-09	-2.688283e-09	-2.635116e+01	-1.769004e+02
5.800000e-07	-1.810888e-09	-2.650135e-09	-2.538713e+01	-1.742993e+02
5.900000e-07	-1.741546e-09	-2.631052e-09	-2.441501e+01	-1.716071e+02
6.000000e-07	-1.671591e-09	-2.589049e-09	-2.343431e+01	-1.688181e+02
6.100000e-07	-1.600978e-09	-2.528213e-09	-2.244437e+01	-1.659264e+02
6.200000e-07	-1.529835e-09	-2.478563e-09	-2.144701e+01	-1.629253e+02
6.300000e-07	-1.458350e-09	-2.440526e-09	-2.044487e+01	-1.598081e+02
6.400000e-07	-1.386524e-09	-2.396667e-09	-1.943793e+01	-1.565676e+02
6.500000e-07	-1.314130e-09	-2.342217e-09	-1.842303e+01	-1.531963e+02
6.600000e-07	-1.240948e-09	-2.281530e-09	-1.739708e+01	-1.496865e+02
6.700000e-07	-1.167036e-09	-2.222546e-09	-1.636091e+01	-1.460300e+02
6.800000e-07	-1.092576e-09	-2.172288e-09	-1.531704e+01	-1.422181e+02
6.900000e-07	-1.017633e-09	-2.118479e-09	-1.426641e+01	-1.382420e+02
7.000000e-07	-9.422668e-10	-2.045725e-09	-1.320984e+01	-1.340922e+02
7.100000e-07	-8.666277e-10	-1.968480e-09	-1.214945e+01	-1.297588e+02
7.200000e-07	-7.908019e-10	-1.907154e-09	-1.108644e+01	-1.252314e+02
7.300000e-07	-7.147437e-10	-1.846281e-09	-1.002017e+01	-1.204992e+02
7.400000e-07	-6.383761e-10	-1.762493e-09	-8.949561e+00	-1.155512e+02
7.500000e-07	-5.616586e-10	-1.671636e-09	-7.874050e+00	-1.103762e+02
7.600000e-07	-4.847066e-10	-1.592769e-09	-6.795251e+00	-1.049631e+02
7.700000e-07	-4.076504e-10	-1.513286e-09	-5.714990e+00	-9.930109e+01
7.800000e-07	-3.304793e-10	-1.418085e-09	-4.633120e+00	-9.338008e+01
7.900000e-07	-2.531593e-10	-1.316557e-09	-3.549161e+00	-8.719119e+01
8.000000e-07	-1.757477e-10	-1.220101e-09	-2.463917e+00	-8.072717e+01
8.100000e-07	-9.830835e-11	-1.121476e-09	-1.378286e+00	-7.398302e+01
8.200000e-07	-2.085362e-11	-1.013512e-09	-2.924385e-01	-6.695658e+01
8.300000e-07	5.660130e-11	-8.991801e-10	7.934117e-01	-5.964913e+01
8.400000e-07	1.340367e-10	-7.822889e-10	1.878988e+00	-5.206601e+01
8.500000e-07	2.114239e-10	-6.642679e-10	2.963889e+00	-4.421718e+01
8.600000e-07	2.887264e-10	-5.442319e-10	4.047603e+00	-3.611756e+01
8.700000e-07	3.659236e-10	-4.150320e-10	5.129839e+00	-2.778740e+01
8.800000e-07	4.429922e-10	-2.783181e-10	6.210273e+00	-1.925230e+01
8.900000e-07	5.198976e-10	-1.451822e-10	7.288419e+00	-1.054312e+01
9.000000e-07	5.966026e-10	-1.562737e-11	8.363755e+00	-1.695621e+00
9.100000e-07	6.730641e-10	1.215609e-10	9.435678e+00	7.250180e+00
9.200000e-07	7.492612e-10	2.663902e-10	1.050389e+01	1.625080e+01
9.300000e-07	8.251894e-10	4.044495e-10	1.156834e+01	2.526034e+01
9.400000e-07	9.008567e-10	5.344131e-10	1.262913e+01	3.423171e+01
9.500000e-07	9.762721e-10	6.681768e-10	1.368639e+01	4.311787e+01
9.600000e-07	1.051388e-09	8.081827e-10	1.473945e+01	5.187323e+01
9.700000e-07	1.126071e-09	9.435305e-10	1.578644e+01	6.045495e+01
9.800000e-07	1.200145e-09	1.068242e-09	1.682488e+01	6.882411e+01
9.900000e-07	1.273480e-09	1.190000e-09	1.785298e+01	7.694679e+01
1.000000e-06	1.346093e-09	1.314015e-09	1.887095e+01	8.479486e+01
1.010000e-06	1.418112e-09	1.433968e-09	1.988059e+01	9.234657e+01
1.020000e-06	1.489696e-09	1.542991e-09	2.088413e+01	9.958675e+01
1.030000e-06	1.560924e-09	1.643541e-09	2.188269e+01	1.065068e+02
1.040000e-06	1.631689e-09	1.742086e-09	2.287476e+01	1.131044e+02
1.050000e-06	1.701859e-09	1.839639e-09	2.385848e+01	1.193829e+02
1.060000e-06	1.771411e-09	1.932016e-09	2.483354e+01	1.253504e+02
1.070000e-06	1.840341e-09	2.015596e-09	2.579988e+01	1.310190e+02
1.080000e-06	1.908635e-09	2.093776e-09	2.675730e+01	1.364037e+02
1.090000e-06	1.976366e-09	2.171562e-09	2.770683e+01	1.415211e+02
1.100000e-06	2.043595e-09	2.247314e-09	2.864932e+01	1.463888e+02
1.110000e-06	2.110130e-09	2.317009e-09	2.958208e+01	1.510241e+02
1.120000e-06	2.175630e-09	2.379604e-09	3.050034e+01	1.554434e+02
1.130000e-06	2.240052e-09	2.441161e-09	3.140348e+01	1.596616e+02
1.140000e-06	2.303702e-09	2.504443e-09	3.229579e+01	1.636916e+02
1.150000e-06	2.366735e-09	2.563925e-09	3.317947e+01	1.675442e+02
1.160000e-06	2.429032e-09	2.616315e-09	3.405281e+01	1.712281e+02
1.170000e-06	2.490509e-09	2.666495e-09	3.491467e+01	1.747501e+02
1.180000e-06	2.551155e-09	2.717539e-09	3.576487e+01	1.781153e+02
1.190000e-06	2.611050e-09	2.767058e-09	3.660455e+01	1.813277e+02
1.200000e-06	2.670229e-09	2.812405e-09	3.743419e+01	1.843903e+02
1.210000e-06	2.728364e-09	2.854279e-09	3.824918e+01	1.873060e+02
1.220000e-06	2.785172e-09	2.894477e-09	3.904559e+01	1.900777e+02
1.230000e-06	2.840879e-09	2.933288e-09	3.982655e+01	1.927085e+02
1.240000e-06	2.895708e-09	2.970935e-09	4.059521e+01	1.952023e+02
1.250000e-06	2.949600e-09	3.005877e-09	4.135074e+01	1.975637e+02
1.260000e-06	3.002469e-09	3.037330e-09	4.209191e+01	1.997979e+02
1.270000e-06	3.054196e-09	3.067873e-09	4.281707e+01	2.019109e+02
1.280000e-06	3.104534e-09	3.099315e-09	4.352277e+01	2.039089e+02
1.290000e-06	3.153355e-09	3.128939e-09	4.420719e+01	2.057988e+02
1.300000e-06	3.200898e-09	3.155966e-09	4.487371e+01	2.075872e+02
1.310000e-06	3.247372e-09	3.181768e-09	4.552524e+01	2.092805e+02
1.320000e-06	3.292772e-09	3.206303e-09	4.616171e+01	2.108849e+02
1.330000e-06	3.337118e-09	3.229339e-09	4.678340e+01	2.124061e+02
1.340000e-06	3.380450e-09	3.251069e-09	4.739088e+01	2.138492e+02
1.350000e-06	3.422526e-09	3.271574e-09	4.798074e+01	2.152186e+02
1.360000e-06	3.463130e-09	3.291809e-09	4.854998e+01	2.165185e+02
1.370000e-06	3.502473e-09	3.311100e-09	4.910153e+01	2.177524e+02
1.380000e-06	3.540680e-09	3.328882e-09	4.963716e+01	2.189237e+02
1.390000e-06	3.577707e-09	3.346695e-09	5.015625e+01	2.200356e+02
1.400000e-06	3.613637e-09	3.364068e-09	5.065995e+01	2.210910e+02
1.410000e-06	3.648368e-09	3.380029e-09	5.114686e+01	2.220931e+02
1.420000e-06	3.681601e-09	3.395428e-09	5.161275e+01	2.230446e+02
1.430000e-06	3.713418e-09	3.410333e-09	5.205881e+01	2.239485e+02
1.440000e-06	3.744018e-09	3.423713e-09	5.248779e+01	2.248073e+02
1.450000e-06	3.773384e-09	3.436296e-09	5.289948e+01	2.256235e+02
1.460000e-06	3.801566e-09	3.449209e-09	5.329457e+01	2.263989e+02
1.470000e-06	3.828479e-09	3.462458e-09	5.367186e+01	2.271349e+02
1.480000e-06	3.853824e-09	3.475580e-09	5.402718e+01	2.278323e+02
1.490000e-06	3.877626e-09	3.487303e-09	5.436087e+01	2.284912e+02
1.500000e-06	3.900105e-09	3.497678e-09	5.467600e+01	2.291113e+02
1.510000e-06	3.921291e-09	3.507273e-09	5.497302e+01	2.296917e+02
1.520000e-06	3.941272e-09	3.516783e-09	5.525313e+01	2.302313e+02
1.530000e-06	3.960047e-09	3.525783e-09	5.551634e+01	2.307289e+02
1.540000e-06	3.977398e-09	3.533022e-09	5.575958e+01	2.311834e+02
1.550000e-06	3.993231e-09	3.539163e-09	5.598155e+01	2.315942e+02
1.560000e-06	4.007560e-09	3.545489e-09	5.618244e+01	2.319610e+02
1.570000e-06	4.020408e-09	3.552027e-09	5.636256e+01	2.322844e+02
1.580000e-06	4.031733e-09	3.557390e-09	5.652132e+01	2.325653e+02
1.590000e-06	4.041344e-09	3.562028e-09	5.665607e+01	2.328055e+02
1.600000e-06	4.049336e-09	3.566945e-09	5.676810e+01	2.330072e+02
1.610000e-06	4.055948e-09	3.570951e-09	5.686080e+01	2.331728e+02
1.620000e-06	4.061199e-09	3.573373e-09	5.693442e+01	2.333048e+02
1.630000e-06	4.065181e-09	3.574889e-09	5.699024e+01	2.334057e+02
1.640000e-06	4.067802e-09	3.577585e-09	5.702699e+01	2.334773e+02
1.650000e-06	4.068801e-09	3.580760e-09	5.704099e+01	2.335212e+02
1.660000e-06	4.068324e-09	3.582208e-09	5.703431e+01	2.335385e+02
1.670000e-06	4.066582e-09	3.580770e-09	5.700988e+01	2.335296e+02
1.680000e-06	4.063580e-09	3.578909e-09	5.696781e+01	2.334945e+02
1.690000e-06	4.059424e-09	3.578100e-09	5.690955e+01	2.334331e+02
1.700000e-06	4.053985e-09	3.577557e-09	5.683330e+01	2.333452e+02
1.710000e-06	4.046993e-09	3.576207e-09	5.673528e+01	2.332310e+02
1.720000e-06	4.038651e-09	3.578212e-09	5.661832e+01	2.330910e+02
1.730000e-06	4.029196e-09	3.587381e-09	5.648578e+01	2.329264e+02
1.740000e-06	4.018517e-09	3.557079e-09	5.633607e+01	2.327391e+02
1.750000e-06	4.006054e-09	3.502069e-09	5.616135e+01	2.325315e+02
1.760000e-06	3.991180e-09	3.488038e-09	5.595284e+01	2.323068e+02
1.770000e-06	3.974195e-09	3.550000e-09	5.571473e+01	2.320679e+02
1.780000e-06	3.956171e-09	3.651169e-09	5.546204e+01	2.318179e+02
1.790000e-06	3.937787e-09	3.578326e-09	5.520432e+01	2.315592e+02
1.800000e-06	3.918363e-09	3.471107e-09	5.493201e+01	2.312932e+02
1.810000e-06	3.896935e-09	3.554228e-09	5.463161e+01	2.310201e+02
1.820000e-06	3.874095e-09	3.559169e-09	5.431141e+01	2.307383e+02
1.830000e-06	3.850384e-09	3.557729e-09	5.397900e+01	2.304449e+02
1.840000e-06	3.825071e-09	3.626125e-09	5.362414e+01	2.301350e+02
1.850000e-06	3.798195e-09	3.485968e-09	5.324737e+01	2.298028e+02
1.860000e-06	3.770360e-09	3.425095e-09	5.285715e+01	2.294410e+02
1.870000e-06	3.741299e-09	3.585901e-09	5.244973e+01	2.290419e+02
1.880000e-06	3.710636e-09	3.515964e-09	5.201987e+01	2.285978e+02
1.890000e-06	3.678454e-09	3.373740e-09	5.156872e+01	2.281016e+02
1.900000e-06	3.644995e-09	3.454645e-09	5.109965e+01	2.275471e+02
1.910000e-06	3.610480e-09	3.484857e-09	5.061578e+01	2.269298e+02
1.920000e-06	3.574804e-09	3.473777e-09	5.011563e+01	2.262466e+02
1.930000e-06	3.537923e-09	3.446844e-09	4.959859e+01	2.254968e+02
1.940000e-06	3.499861e-09	3.364973e-09	4.906500e+01	2.246811e+02
1.950000e-06	3.460244e-09	3.400664e-09	4.850961e+01	2.238021e+02
1.960000e-06	3.419133e-09	3.405133e-09	4.793328e+01	2.228635e+02
1.970000e-06	3.377002e-09	3.386380e-09	4.734263e+01	2.218700e+02
1.980000e-06	3.333840e-09	3.401354e-09	4.673754e+01	2.208263e+02
1.990000e-06	3.289588e-09	3.284484e-09	4.611717e+01	2.197371e+02
2.000000e-06	3.244293e-09	3.285429e-09	4.548218e+01	2.186063e+02
2.010000e-06	3.197863e-09	3.385794e-09	4.483127e+01	2.174367e+02
2.020000e-06	3.150119e-09	3.306997e-09	4.416194e+01	2.162298e+02
2.030000e-06	3.101021e-09	3.210093e-09	4.347363e+01	2.149857e+02
2.040000e-06	3.050884e-09	3.223930e-09	4.277075e+01	2.137031e+02
2.050000e-06	2.999757e-09	3.278735e-09	4.205400e+01	2.123796e+02
2.060000e-06	2.947451e-09	3.227679e-09	4.132072e+01	2.110119e+02
2.070000e-06	2.893811e-09	3.141317e-09	4.056874e+01	2.095961e+02
2.080000e-06	2.838776e-09	3.158704e-09	3.979720e+01	2.081280e+02
2.090000e-06	2.782622e-09	3.148935e-09	3.900997e+01	2.066036e+02
2.100000e-06	2.725504e-09	3.115690e-09	3.820922e+01	2.050193e+02
2.110000e-06	2.667498e-09	3.095599e-09	3.739603e+01	2.033721e+02
2.120000e-06	2.608701e-09	3.060948e-09	3.657175e+01	2.016596e+02
2.130000e-06	2.549066e-09	3.034209e-09	3.573572e+01	1.998803e+02
2.140000e-06	2.488670e-09	3.000698e-09	3.488902e+01	1.980331e+02
2.150000e-06	2.427392e-09	2.995934e-09	3.402995e+01	1.961175e+02
2.160000e-06	2.364932e-09	2.958889e-09	3.315432e+01	1.941332e+02
2.170000e-06	2.301381e-09	2.891828e-09	3.226339e+01	1.920798e+02
2.180000e-06	2.237090e-09	2.885240e-09	3.136210e+01	1.899570e+02
2.190000e-06	2.172150e-09	2.870697e-09	3.045169e+01	1.877636e+02
2.200000e-06	2.106421e-09	2.818812e-09	2.953023e+01	1.854983e+02
2.210000e-06	2.039932e-09	2.763226e-09	2.859812e+01	1.831589e+02
2.220000e-06	1.972773e-09	2.746130e-09	2.765660e+01	1.807425e+02
2.230000e-06	1.904983e-09	2.730374e-09	2.670625e+01	1.782454e+02
2.240000e-06	1.836636e-09	2.663285e-09	2.574808e+01	1.756633e+02
2.250000e-06	1.767692e-09	2.616033e-09	2.478155e+01	1.729913e+02
2.260000e-06	1.697995e-09	2.590375e-09	2.380447e+01	1.702238e+02
2.270000e-06	1.627351e-09	2.548726e-09	2.281410e+01	1.673549e+02
2.280000e-06	1.555841e-09	2.494284e-09	2.181160e+01	1.643781e+02
2.290000e-06	1.483834e-09	2.445706e-09	2.080212e+01	1.612867e+02
2.300000e-06	1.411502e-09	2.403757e-09	1.978809e+01	1.580736e+02
2.310000e-06	1.338811e-09	2.348785e-09	1.876903e+01	1.547314e+02
2.320000e-06	1.265680e-09	2.299192e-09	1.774379e+01	1.512523e+02
2.330000e-06	1.192070e-09	2.247592e-09	1.671185e+01	1.476283e+02
2.340000e-06	1.118015e-09	2.181059e-09	1.567366e+01	1.438510e+02
2.350000e-06	1.043576e-09	2.119683e-09	1.463010e+01	1.399113e+02
2.360000e-06	9.687914e-10	2.069376e-09	1.358168e+01	1.358001e+02
2.370000e-06	8.936314e-10	2.007913e-09	1.252800e+01	1.315073e+02
2.380000e-06	8.181602e-10	1.925211e-09	1.146996e+01	1.270229e+02
2.390000e-06	7.424375e-10	1.852923e-09	1.040840e+01	1.223361e+02
2.400000e-06	6.664483e-10	1.791633e-09	9.343094e+00	1.174359e+02
2.410000e-06	5.902115e-10	1.712826e-09	8.274321e+00	1.123111e+02
2.420000e-06	5.137793e-10	1.622006e-09	7.202808e+00	1.069506e+02
2.430000e-06	4.371924e-10	1.537538e-09	6.129129e+00	1.013435e+02
2.440000e-06	3.604285e-10	1.456089e-09	5.052967e+00	9.547946e+01
2.450000e-06	2.835120e-10	1.361231e-09	3.974669e+00	8.934937e+01
2.460000e-06	2.064551e-10	1.257511e-09	2.894402e+00	8.294557e+01
2.470000e-06	1.292288e-10	1.157208e-09	1.811760e+00	7.626251e+01
2.480000e-06	5.187303e-11	1.054754e-09	7.273036e-01	6.929735e+01
2.490000e-06	-2.544258e-11	9.458147e-10	-3.565903e-01	6.205059e+01
2.500000e-06	-1.026466e-10	8.326226e-10	-1.438920e+00	5.452665e+01
2.510000e-06	-1.798278e-10	7.141157e-10	-2.520931e+00	4.673443e+01
2.520000e-06	-2.569176e-10	5.900559e-10	-3.601660e+00	3.868775e+01
2.530000e-06	-3.337783e-10	4.645744e-10	-4.679177e+00	3.040569e+01
2.540000e-06	-4.104272e-10	3.367203e-10	-5.753726e+00	2.191270e+01
2.550000e-06	-4.869137e-10	2.004658e-10	-6.826000e+00	1.323851e+01
2.560000e-06	-5.632073e-10	6.180945e-11	-7.895569e+00	4.417863e+00
2.570000e-06	-6.392708e-10	-7.123292e-11	-8.961913e+00	-4.510085e+00
2.580000e-06	-7.150970e-10	-2.039774e-10	-1.002493e+01	-1.350252e+01
2.590000e-06	-7.906723e-10	-3.439067e-10	-1.108443e+01	-2.251398e+01
2.600000e-06	-8.659440e-10	-4.832181e-10	-1.213967e+01	-3.149752e+01
2.610000e-06	-9.408665e-10	-6.127948e-10	-1.319002e+01	-4.040598e+01
2.620000e-06	-1.015431e-09	-7.400698e-10	-1.423534e+01	-4.919337e+01
2.630000e-06	-1.089656e-09	-8.721612e-10	-1.527592e+01	-5.781612e+01
2.640000e-06	-1.163525e-09	-1.003033e-09	-1.631149e+01	-6.623438e+01
2.650000e-06	-1.236978e-09	-1.126014e-09	-1.734125e+01	-7.441306e+01
2.660000e-06	-1.309970e-09	-1.244502e-09	-1.836453e+01	-8.232275e+01
2.670000e-06	-1.382535e-09	-1.361296e-09	-1.938183e+01	-8.994025e+01
2.680000e-06	-1.454768e-09	-1.474729e-09	-2.039447e+01	-9.724897e+01
2.690000e-06	-1.526664e-09	-1.583423e-09	-2.140240e+01	-1.042389e+02
2.700000e-06	-1.598052e-09	-1.684882e-09	-2.240319e+01	-1.109064e+02
2.710000e-06	-1.668678e-09	-1.778658e-09	-2.339330e+01	-1.172536e+02
2.720000e-06	-1.738380e-09	-1.869143e-09	-2.437047e+01	-1.232878e+02
2.730000e-06	-1.807252e-09	-1.958522e-09	-2.533599e+01	-1.290201e+02
2.740000e-06	-1.875540e-09	-2.043383e-09	-2.629333e+01	-1.344650e+02
2.750000e-06	-1.943317e-09	-2.121178e-09	-2.724351e+01	-1.396390e+02
2.760000e-06	-2.010466e-09	-2.195677e-09	-2.818487e+01	-1.445594e+02
2.770000e-06	-2.076931e-09	-2.270425e-09	-2.911665e+01	-1.492438e+02
2.780000e-06	-2.142712e-09	-2.342779e-09	-3.003886e+01	-1.537087e+02
2.790000e-06	-2.207758e-09	-2.408601e-09	-3.095074e+01	-1.579693e+02
2.800000e-06	-2.272137e-09	-2.469236e-09	-3.185328e+01	-1.620392e+02
2.810000e-06	-2.335838e-09	-2.529498e-09	-3.274631e+01	-1.659294e+02
2.820000e-06	-2.398534e-09	-2.589693e-09	-3.362525e+01	-1.696493e+02
2.830000e-06	-2.460060e-09	-2.646471e-09	-3.448779e+01	-1.732059e+02
2.840000e-06	-2.520650e-09	-2.698637e-09	-3.533722e+01	-1.766048e+02
2.850000e-06	-2.580491e-09	-2.747586e-09	-3.617613e+01	-1.798500e+02
2.860000e-06	-2.639496e-09	-2.796413e-09	-3.700333e+01	-1.829449e+02
2.870000e-06	-2.697555e-09	-2.845702e-09	-3.781727e+01	-1.858923e+02
2.880000e-06	-2.754666e-09	-2.890959e-09	-3.861792e+01	-1.886949e+02
2.890000e-06	-2.810929e-09	-2.930772e-09	-3.940668e+01	-1.913560e+02
2.900000e-06	-2.866218e-09	-2.969747e-09	-4.018178e+01	-1.938792e+02
2.910000e-06	-2.920157e-09	-3.009854e-09	-4.093796e+01	-1.962689e+02
2.920000e-06	-2.972746e-09	-3.046520e-09	-4.167521e+01	-1.985302e+02
2.930000e-06	-3.024179e-09	-3.077409e-09	-4.239626e+01	-2.006689e+02
2.940000e-06	-3.074431e-09	-3.106088e-09	-4.310074e+01	-2.026914e+02
