# Temperatura_=_20.0
# Concentracion g/m^3_=_12600.0
# C_Vs_to_Am_M_A/Vsm_=_65563218390.804596
# pendiente_HvsI_1/m_=_3716.3
# ordenada_HvsI_A/m_=_1297.0
# frecuencia_Hz_=_301593.7353915922

Tiempo_(s)	Campo_(V.s)	Magnetizacion_(V.s)	Campo_(kA/m)	Magnetizacion_(A/m)
0.000000e+00	-4.045764e-06	-4.227246e-09	-2.908749e+01	-2.779247e+02
1.000000e-08	-4.044304e-06	-4.230193e-09	-2.907700e+01	-2.778711e+02
2.000000e-08	-4.041277e-06	-4.230102e-09	-2.905523e+01	-2.777296e+02
3.000000e-08	-4.037049e-06	-4.227258e-09	-2.902483e+01	-2.774984e+02
4.000000e-08	-4.031617e-06	-4.222430e-09	-2.898578e+01	-2.771777e+02
5.000000e-08	-4.024896e-06	-4.214584e-09	-2.893746e+01	-2.767698e+02
6.000000e-08	-4.017033e-06	-4.203750e-09	-2.888092e+01	-2.762794e+02
7.000000e-08	-4.007766e-06	-4.190982e-09	-2.881430e+01	-2.757137e+02
8.000000e-08	-3.996756e-06	-4.176504e-09	-2.873514e+01	-2.750818e+02
9.000000e-08	-3.984048e-06	-4.191931e-09	-2.864378e+01	-2.743944e+02
1.000000e-07	-3.969318e-06	-4.220861e-09	-2.853788e+01	-2.736624e+02
1.100000e-07	-3.952590e-06	-4.206992e-09	-2.841760e+01	-2.728961e+02
1.200000e-07	-3.934484e-06	-4.172148e-09	-2.828743e+01	-2.721043e+02
1.300000e-07	-3.915414e-06	-4.061633e-09	-2.815032e+01	-2.712929e+02
1.400000e-07	-3.895559e-06	-4.078055e-09	-2.800757e+01	-2.704647e+02
1.500000e-07	-3.874717e-06	-4.208883e-09	-2.785773e+01	-2.696185e+02
1.600000e-07	-3.852875e-06	-4.089004e-09	-2.770069e+01	-2.687494e+02
1.700000e-07	-3.829829e-06	-4.032523e-09	-2.753500e+01	-2.678492e+02
1.800000e-07	-3.804790e-06	-4.063952e-09	-2.735498e+01	-2.669069e+02
1.900000e-07	-3.778023e-06	-3.969439e-09	-2.716254e+01	-2.659097e+02
2.000000e-07	-3.750360e-06	-4.048998e-09	-2.696365e+01	-2.648443e+02
2.100000e-07	-3.721595e-06	-4.132481e-09	-2.675684e+01	-2.636983e+02
2.200000e-07	-3.691408e-06	-3.933658e-09	-2.653980e+01	-2.624609e+02
2.300000e-07	-3.659990e-06	-3.874147e-09	-2.631392e+01	-2.611239e+02
2.400000e-07	-3.627400e-06	-3.992363e-09	-2.607962e+01	-2.596825e+02
2.500000e-07	-3.593360e-06	-3.978052e-09	-2.583488e+01	-2.581352e+02
2.600000e-07	-3.557786e-06	-3.936048e-09	-2.557911e+01	-2.564838e+02
2.700000e-07	-3.520790e-06	-3.825847e-09	-2.531313e+01	-2.547330e+02
2.800000e-07	-3.482607e-06	-3.745272e-09	-2.503861e+01	-2.528892e+02
2.900000e-07	-3.443419e-06	-3.842869e-09	-2.475686e+01	-2.509603e+02
3.000000e-07	-3.403082e-06	-3.859022e-09	-2.446686e+01	-2.489540e+02
3.100000e-07	-3.361199e-06	-3.754994e-09	-2.416573e+01	-2.468775e+02
3.200000e-07	-3.317815e-06	-3.698042e-09	-2.385382e+01	-2.447368e+02
3.300000e-07	-3.273284e-06	-3.639571e-09	-2.353366e+01	-2.425361e+02
3.400000e-07	-3.227649e-06	-3.651982e-09	-2.320556e+01	-2.402775e+02
3.500000e-07	-3.180888e-06	-3.695572e-09	-2.286936e+01	-2.379617e+02
3.600000e-07	-3.132951e-06	-3.600139e-09	-2.252472e+01	-2.355877e+02
3.700000e-07	-3.083563e-06	-3.466319e-09	-2.216963e+01	-2.331538e+02
3.800000e-07	-3.032595e-06	-3.461741e-09	-2.180319e+01	-2.306578e+02
3.900000e-07	-2.980430e-06	-3.527403e-09	-2.142815e+01	-2.280978e+02
4.000000e-07	-2.927308e-06	-3.494295e-09	-2.104622e+01	-2.254722e+02
4.100000e-07	-2.873218e-06	-3.382598e-09	-2.065733e+01	-2.227804e+02
4.200000e-07	-2.818214e-06	-3.291638e-09	-2.026188e+01	-2.200228e+02
4.300000e-07	-2.762404e-06	-3.289847e-09	-1.986062e+01	-2.172001e+02
4.400000e-07	-2.705499e-06	-3.331416e-09	-1.945150e+01	-2.143139e+02
4.500000e-07	-2.647206e-06	-3.277795e-09	-1.903240e+01	-2.113657e+02
4.600000e-07	-2.587899e-06	-3.140447e-09	-1.860600e+01	-2.083568e+02
4.700000e-07	-2.527899e-06	-3.060771e-09	-1.817462e+01	-2.052877e+02
4.800000e-07	-2.467103e-06	-3.076637e-09	-1.773753e+01	-2.021584e+02
4.900000e-07	-2.405459e-06	-3.098416e-09	-1.729433e+01	-1.989676e+02
5.000000e-07	-2.342910e-06	-3.025400e-09	-1.684462e+01	-1.957135e+02
5.100000e-07	-2.279589e-06	-2.890625e-09	-1.638937e+01	-1.923933e+02
5.200000e-07	-2.215645e-06	-2.832859e-09	-1.592964e+01	-1.890042e+02
5.300000e-07	-2.150703e-06	-2.856716e-09	-1.546273e+01	-1.855434e+02
5.400000e-07	-2.084563e-06	-2.846008e-09	-1.498721e+01	-1.820083e+02
5.500000e-07	-2.017552e-06	-2.739899e-09	-1.450542e+01	-1.783976e+02
5.600000e-07	-1.949986e-06	-2.621027e-09	-1.401965e+01	-1.747105e+02
5.700000e-07	-1.881892e-06	-2.580746e-09	-1.353008e+01	-1.709476e+02
5.800000e-07	-1.813167e-06	-2.586278e-09	-1.303598e+01	-1.671103e+02
5.900000e-07	-1.743808e-06	-2.548639e-09	-1.253731e+01	-1.632008e+02
6.000000e-07	-1.673760e-06	-2.437931e-09	-1.203369e+01	-1.592218e+02
6.100000e-07	-1.603073e-06	-2.334373e-09	-1.152548e+01	-1.551758e+02
6.200000e-07	-1.531912e-06	-2.300040e-09	-1.101386e+01	-1.510654e+02
6.300000e-07	-1.460319e-06	-2.293661e-09	-1.049913e+01	-1.468921e+02
6.400000e-07	-1.388319e-06	-2.231730e-09	-9.981484e+00	-1.426571e+02
6.500000e-07	-1.315823e-06	-2.112194e-09	-9.460261e+00	-1.383602e+02
6.600000e-07	-1.242696e-06	-2.016892e-09	-8.934505e+00	-1.340008e+02
6.700000e-07	-1.168781e-06	-1.982643e-09	-8.403084e+00	-1.295774e+02
6.800000e-07	-1.094210e-06	-1.957992e-09	-7.866954e+00	-1.250883e+02
6.900000e-07	-1.019225e-06	-1.881757e-09	-7.327840e+00	-1.205316e+02
7.000000e-07	-9.438765e-07	-1.769938e-09	-6.786110e+00	-1.159058e+02
7.100000e-07	-8.682311e-07	-1.685999e-09	-6.242248e+00	-1.112096e+02
7.200000e-07	-7.923022e-07	-1.650101e-09	-5.696349e+00	-1.064426e+02
7.300000e-07	-7.161804e-07	-1.607541e-09	-5.149062e+00	-1.016051e+02
7.400000e-07	-6.398770e-07	-1.512899e-09	-4.600470e+00	-9.669762e+01
7.500000e-07	-5.633312e-07	-1.394564e-09	-4.050136e+00	-9.172153e+01
7.600000e-07	-4.865336e-07	-1.312821e-09	-3.497990e+00	-8.667821e+01
7.700000e-07	-4.095081e-07	-1.270610e-09	-2.944206e+00	-8.156911e+01
7.800000e-07	-3.323414e-07	-1.211987e-09	-2.389407e+00	-7.639543e+01
7.900000e-07	-2.550839e-07	-1.110975e-09	-1.833956e+00	-7.115806e+01
8.000000e-07	-1.777524e-07	-1.005412e-09	-1.277971e+00	-6.585750e+01
8.100000e-07	-1.003469e-07	-9.355939e-10	-7.214557e-01	-6.049387e+01
8.200000e-07	-2.287157e-08	-8.834419e-10	-1.644378e-01	-5.506708e+01
8.300000e-07	5.465090e-08	-8.064865e-10	3.929190e-01	-4.957701e+01
8.400000e-07	1.322289e-07	-6.974795e-10	9.506754e-01	-4.402373e+01
8.500000e-07	2.097757e-07	-5.918605e-10	1.508207e+00	-3.840767e+01
8.600000e-07	2.872147e-07	-5.132922e-10	2.064963e+00	-3.272979e+01
8.700000e-07	3.645514e-07	-4.451694e-10	2.620984e+00	-2.699163e+01
8.800000e-07	4.417379e-07	-3.583243e-10	3.175926e+00	-2.119531e+01
8.900000e-07	5.187459e-07	-2.517959e-10	3.729584e+00	-1.534335e+01
9.000000e-07	5.955928e-07	-1.551759e-10	4.282084e+00	-9.438505e+00
9.100000e-07	6.722556e-07	-7.845795e-11	4.833260e+00	-3.483535e+00
9.200000e-07	7.486917e-07	-2.472060e-12	5.382806e+00	2.519050e+00
9.300000e-07	8.248369e-07	9.303723e-11	5.930261e+00	8.567160e+00
9.400000e-07	9.006450e-07	2.014765e-10	6.475292e+00	1.465922e+01
9.500000e-07	9.761308e-07	3.001638e-10	7.018006e+00	2.079414e+01
9.600000e-07	1.051355e-06	3.841051e-10	7.558837e+00	2.697120e+01
9.700000e-07	1.126138e-06	4.694328e-10	8.096503e+00	3.318973e+01
9.800000e-07	1.200254e-06	5.689558e-10	8.629369e+00	3.944882e+01
9.900000e-07	1.273618e-06	6.748890e-10	9.156827e+00	4.574691e+01
1.000000e-06	1.346200e-06	7.745474e-10	9.678658e+00	5.208136e+01
1.010000e-06	1.418235e-06	8.644780e-10	1.019656e+01	5.844823e+01
1.020000e-06	1.489866e-06	9.549481e-10	1.071156e+01	6.484195e+01
1.030000e-06	1.561080e-06	1.056298e-09	1.122357e+01	7.125533e+01
1.040000e-06	1.631795e-06	1.164304e-09	1.173198e+01	7.767959e+01
1.050000e-06	1.701863e-06	1.267684e-09	1.223574e+01	8.410463e+01
1.060000e-06	1.771302e-06	1.361087e-09	1.273498e+01	9.051929e+01
1.070000e-06	1.840139e-06	1.451508e-09	1.322989e+01	9.691188e+01
1.080000e-06	1.908329e-06	1.548939e-09	1.372015e+01	1.032705e+02
1.090000e-06	1.976006e-06	1.651402e-09	1.420673e+01	1.095836e+02
1.100000e-06	2.043260e-06	1.745901e-09	1.469025e+01	1.158401e+02
1.110000e-06	2.109725e-06	1.830367e-09	1.516812e+01	1.220300e+02
1.120000e-06	2.175022e-06	1.918648e-09	1.563758e+01	1.281439e+02
1.130000e-06	2.239259e-06	2.019935e-09	1.609941e+01	1.341738e+02
1.140000e-06	2.302852e-06	2.123877e-09	1.655662e+01	1.401120e+02
1.150000e-06	2.365902e-06	2.216789e-09	1.700993e+01	1.459518e+02
1.160000e-06	2.428194e-06	2.300123e-09	1.745778e+01	1.516869e+02
1.170000e-06	2.489629e-06	2.384674e-09	1.789948e+01	1.573112e+02
1.180000e-06	2.550220e-06	2.472601e-09	1.833511e+01	1.628186e+02
1.190000e-06	2.610097e-06	2.555977e-09	1.876559e+01	1.682035e+02
1.200000e-06	2.669309e-06	2.629585e-09	1.919131e+01	1.734602e+02
1.210000e-06	2.727473e-06	2.699282e-09	1.960948e+01	1.785833e+02
1.220000e-06	2.784236e-06	2.772534e-09	2.001759e+01	1.835681e+02
1.230000e-06	2.839908e-06	2.850293e-09	2.041785e+01	1.884106e+02
1.240000e-06	2.894735e-06	2.926577e-09	2.081204e+01	1.931077e+02
1.250000e-06	2.948568e-06	2.997018e-09	2.119908e+01	1.976575e+02
1.260000e-06	3.001371e-06	3.064799e-09	2.157870e+01	2.020594e+02
1.270000e-06	3.053011e-06	3.132000e-09	2.194998e+01	2.063138e+02
1.280000e-06	3.103137e-06	3.197887e-09	2.231036e+01	2.104223e+02
1.290000e-06	3.151701e-06	3.260335e-09	2.265952e+01	2.143873e+02
1.300000e-06	3.199028e-06	3.316695e-09	2.299979e+01	2.182115e+02
1.310000e-06	3.245255e-06	3.367757e-09	2.333214e+01	2.218981e+02
1.320000e-06	3.290393e-06	3.417360e-09	2.365666e+01	2.254502e+02
1.330000e-06	3.334519e-06	3.469490e-09	2.397391e+01	2.288704e+02
1.340000e-06	3.377605e-06	3.523570e-09	2.428368e+01	2.321612e+02
1.350000e-06	3.419352e-06	3.574088e-09	2.458383e+01	2.353243e+02
1.360000e-06	3.459657e-06	3.617541e-09	2.487360e+01	2.383611e+02
1.370000e-06	3.498797e-06	3.658496e-09	2.515501e+01	2.412728e+02
1.380000e-06	3.536780e-06	3.703985e-09	2.542809e+01	2.440605e+02
1.390000e-06	3.573565e-06	3.749779e-09	2.569256e+01	2.467251e+02
1.400000e-06	3.609285e-06	3.786853e-09	2.594937e+01	2.492682e+02
1.410000e-06	3.643772e-06	3.815624e-09	2.619733e+01	2.516913e+02
1.420000e-06	3.676716e-06	3.847156e-09	2.643418e+01	2.539964e+02
1.430000e-06	3.708286e-06	3.885492e-09	2.666116e+01	2.561859e+02
1.440000e-06	3.738696e-06	3.922812e-09	2.687979e+01	2.582621e+02
1.450000e-06	3.767867e-06	3.951113e-09	2.708952e+01	2.602274e+02
1.460000e-06	3.795869e-06	3.973492e-09	2.729084e+01	2.620840e+02
1.470000e-06	3.822584e-06	3.999876e-09	2.748292e+01	2.638337e+02
1.480000e-06	3.847672e-06	4.031217e-09	2.766328e+01	2.654778e+02
1.490000e-06	3.871235e-06	4.056129e-09	2.783269e+01	2.670173e+02
1.500000e-06	3.893503e-06	4.069703e-09	2.799279e+01	2.684526e+02
1.510000e-06	3.914479e-06	4.081415e-09	2.814360e+01	2.697842e+02
1.520000e-06	3.934273e-06	4.101134e-09	2.828592e+01	2.710126e+02
1.530000e-06	3.952812e-06	4.124879e-09	2.841920e+01	2.721387e+02
1.540000e-06	3.969863e-06	4.142955e-09	2.854179e+01	2.731639e+02
1.550000e-06	3.985448e-06	4.155005e-09	2.865384e+01	2.740904e+02
1.560000e-06	3.999574e-06	4.167032e-09	2.875540e+01	2.749211e+02
1.570000e-06	4.012162e-06	4.181513e-09	2.884591e+01	2.756595e+02
1.580000e-06	4.023145e-06	4.194278e-09	2.892487e+01	2.763095e+02
1.590000e-06	4.032352e-06	4.201195e-09	2.899106e+01	2.768751e+02
1.600000e-06	4.039911e-06	4.202963e-09	2.904541e+01	2.773598e+02
1.610000e-06	4.046112e-06	4.205395e-09	2.908999e+01	2.777663e+02
1.620000e-06	4.050976e-06	4.211107e-09	2.912496e+01	2.780962e+02
1.630000e-06	4.054555e-06	4.217614e-09	2.915069e+01	2.783498e+02
1.640000e-06	4.056644e-06	4.222381e-09	2.916571e+01	2.785259e+02
1.650000e-06	4.057136e-06	4.223751e-09	2.916925e+01	2.786223e+02
1.660000e-06	4.056293e-06	4.225088e-09	2.916319e+01	2.786359e+02
1.670000e-06	4.054167e-06	4.224552e-09	2.914791e+01	2.785638e+02
1.680000e-06	4.050785e-06	4.223493e-09	2.912359e+01	2.784031e+02
1.690000e-06	4.046285e-06	4.218329e-09	2.909124e+01	2.781528e+02
1.700000e-06	4.040341e-06	4.208793e-09	2.904850e+01	2.778131e+02
1.710000e-06	4.032842e-06	4.198686e-09	2.899459e+01	2.773871e+02
1.720000e-06	4.024174e-06	4.191125e-09	2.893227e+01	2.768799e+02
1.730000e-06	4.014393e-06	4.191750e-09	2.886195e+01	2.762992e+02
1.740000e-06	4.003305e-06	4.181292e-09	2.878223e+01	2.756546e+02
1.750000e-06	3.990385e-06	4.114223e-09	2.868934e+01	2.749567e+02
1.760000e-06	3.975079e-06	4.094772e-09	2.857929e+01	2.742166e+02
1.770000e-06	3.957703e-06	4.101811e-09	2.845437e+01	2.734442e+02
1.780000e-06	3.939332e-06	4.211449e-09	2.832229e+01	2.726478e+02
1.790000e-06	3.920719e-06	4.203549e-09	2.818847e+01	2.718327e+02
1.800000e-06	3.901122e-06	4.006379e-09	2.804757e+01	2.710009e+02
1.810000e-06	3.879353e-06	4.093031e-09	2.789106e+01	2.701504e+02
1.820000e-06	3.856057e-06	4.135940e-09	2.772357e+01	2.692755e+02
1.830000e-06	3.831999e-06	4.051637e-09	2.755060e+01	2.683673e+02
1.840000e-06	3.806451e-06	4.148030e-09	2.736692e+01	2.674144e+02
1.850000e-06	3.779342e-06	4.086296e-09	2.717202e+01	2.664037e+02
1.860000e-06	3.751241e-06	3.945366e-09	2.696998e+01	2.653221e+02
1.870000e-06	3.721941e-06	4.125800e-09	2.675933e+01	2.641574e+02
1.880000e-06	3.691136e-06	4.191399e-09	2.653785e+01	2.628992e+02
1.890000e-06	3.658774e-06	3.999941e-09	2.630518e+01	2.615402e+02
1.900000e-06	3.624996e-06	3.954177e-09	2.606233e+01	2.600761e+02
1.910000e-06	3.590219e-06	3.932047e-09	2.581230e+01	2.585063e+02
1.920000e-06	3.554362e-06	3.972257e-09	2.555450e+01	2.568332e+02
1.930000e-06	3.516978e-06	4.057009e-09	2.528572e+01	2.550619e+02
1.940000e-06	3.478093e-06	3.869413e-09	2.500615e+01	2.531993e+02
1.950000e-06	3.437869e-06	3.793437e-09	2.471696e+01	2.512531e+02
1.960000e-06	3.396474e-06	3.842425e-09	2.441935e+01	2.492312e+02
1.970000e-06	3.353937e-06	3.790308e-09	2.411352e+01	2.471406e+02
1.980000e-06	3.310285e-06	3.867907e-09	2.379968e+01	2.449868e+02
1.990000e-06	3.265748e-06	3.782598e-09	2.347948e+01	2.427736e+02
2.000000e-06	3.220008e-06	3.584787e-09	2.315062e+01	2.405028e+02
2.010000e-06	3.172889e-06	3.624609e-09	2.281186e+01	2.381746e+02
2.020000e-06	3.124737e-06	3.689378e-09	2.246566e+01	2.357880e+02
2.030000e-06	3.075402e-06	3.666354e-09	2.211096e+01	2.333410e+02
2.040000e-06	3.024779e-06	3.515103e-09	2.174700e+01	2.308315e+02
2.050000e-06	2.973107e-06	3.395565e-09	2.137550e+01	2.282576e+02
2.060000e-06	2.920424e-06	3.472796e-09	2.099673e+01	2.256179e+02
2.070000e-06	2.866466e-06	3.501898e-09	2.060879e+01	2.229120e+02
2.080000e-06	2.811098e-06	3.433487e-09	2.021071e+01	2.201403e+02
2.090000e-06	2.754722e-06	3.292364e-09	1.980539e+01	2.173040e+02
2.100000e-06	2.697485e-06	3.205374e-09	1.939388e+01	2.144044e+02
2.110000e-06	2.639277e-06	3.273559e-09	1.897539e+01	2.114431e+02
2.120000e-06	2.580188e-06	3.268765e-09	1.855056e+01	2.084213e+02
2.130000e-06	2.520345e-06	3.181213e-09	1.812031e+01	2.053394e+02
2.140000e-06	2.459762e-06	3.052918e-09	1.768475e+01	2.021971e+02
2.150000e-06	2.398098e-06	2.985311e-09	1.724141e+01	1.989930e+02
2.160000e-06	2.335159e-06	3.044576e-09	1.678890e+01	1.957250e+02
2.170000e-06	2.271300e-06	3.018688e-09	1.632978e+01	1.923903e+02
2.180000e-06	2.206836e-06	2.905591e-09	1.586630e+01	1.889861e+02
2.190000e-06	2.141673e-06	2.792559e-09	1.539781e+01	1.855096e+02
2.200000e-06	2.075705e-06	2.760298e-09	1.492353e+01	1.819584e+02
2.210000e-06	2.008977e-06	2.782463e-09	1.444378e+01	1.783314e+02
2.220000e-06	1.941540e-06	2.720745e-09	1.395893e+01	1.746280e+02
2.230000e-06	1.873524e-06	2.606589e-09	1.346992e+01	1.708491e+02
2.240000e-06	1.804938e-06	2.509931e-09	1.297681e+01	1.669961e+02
2.250000e-06	1.735564e-06	2.485014e-09	1.247804e+01	1.630715e+02
2.260000e-06	1.665292e-06	2.483522e-09	1.197281e+01	1.590780e+02
2.270000e-06	1.594150e-06	2.411169e-09	1.146133e+01	1.550181e+02
2.280000e-06	1.522333e-06	2.295422e-09	1.094499e+01	1.508941e+02
2.290000e-06	1.450109e-06	2.206160e-09	1.042573e+01	1.467076e+02
2.300000e-06	1.377516e-06	2.181924e-09	9.903813e+00	1.424593e+02
2.310000e-06	1.304569e-06	2.157066e-09	9.379349e+00	1.381492e+02
2.320000e-06	1.231222e-06	2.066708e-09	8.852016e+00	1.337762e+02
2.330000e-06	1.157413e-06	1.953559e-09	8.321358e+00	1.293390e+02
2.340000e-06	1.083198e-06	1.876094e-09	7.787777e+00	1.248356e+02
2.350000e-06	1.008578e-06	1.849856e-09	7.251291e+00	1.202642e+02
2.360000e-06	9.336162e-07	1.810982e-09	6.712343e+00	1.156234e+02
2.370000e-06	8.584256e-07	1.714178e-09	6.171751e+00	1.109121e+02
2.380000e-06	7.829755e-07	1.601798e-09	5.629293e+00	1.061300e+02
2.390000e-06	7.072322e-07	1.529179e-09	5.084728e+00	1.012774e+02
2.400000e-06	6.312605e-07	1.495700e-09	4.538521e+00	9.635520e+01
2.410000e-06	5.550440e-07	1.431901e-09	3.990553e+00	9.136461e+01
2.420000e-06	4.785780e-07	1.320032e-09	3.440793e+00	8.630712e+01
2.430000e-06	4.019364e-07	1.215648e-09	2.889768e+00	8.118412e+01
2.440000e-06	3.251406e-07	1.154109e-09	2.337636e+00	7.599677e+01
2.450000e-06	2.481419e-07	1.107324e-09	1.784045e+00	7.074588e+01
2.460000e-06	1.710260e-07	1.026556e-09	1.229611e+00	6.543183e+01
2.470000e-06	9.382627e-08	9.182747e-10	6.745749e-01	6.005471e+01
2.480000e-06	1.656381e-08	8.230368e-10	1.190874e-01	5.461441e+01
2.490000e-06	-6.072961e-08	7.575523e-10	-4.366226e-01	4.911082e+01
2.500000e-06	-1.380593e-07	6.940536e-10	-9.925936e-01	4.354407e+01
2.510000e-06	-2.152814e-07	6.005226e-10	-1.547791e+00	3.791469e+01
2.520000e-06	-2.923764e-07	4.871475e-10	-2.102074e+00	3.222378e+01
2.530000e-06	-3.693371e-07	3.902539e-10	-2.655392e+00	2.647301e+01
2.540000e-06	-4.461363e-07	3.199335e-10	-3.207549e+00	2.066457e+01
2.550000e-06	-5.227881e-07	2.467715e-10	-3.758646e+00	1.480108e+01
2.560000e-06	-5.993166e-07	1.487350e-10	-4.308857e+00	8.885307e+00
2.570000e-06	-6.755903e-07	4.058682e-11	-4.857235e+00	2.919971e+00
2.580000e-06	-7.514632e-07	-5.105174e-11	-5.402732e+00	-3.092493e+00
2.590000e-06	-8.270186e-07	-1.275038e-10	-5.945947e+00	-9.150098e+00
2.600000e-06	-9.023128e-07	-2.112247e-10	-6.487283e+00	-1.525138e+01
2.610000e-06	-9.772720e-07	-3.137231e-10	-7.026211e+00	-2.139535e+01
2.620000e-06	-1.051833e-06	-4.227038e-10	-7.562277e+00	-2.758132e+01
2.630000e-06	-1.125958e-06	-5.192924e-10	-8.095203e+00	-3.380860e+01
2.640000e-06	-1.199636e-06	-6.027210e-10	-8.624923e+00	-4.007617e+01
2.650000e-06	-1.272875e-06	-6.885238e-10	-9.151480e+00	-4.638227e+01
2.660000e-06	-1.345674e-06	-7.891687e-10	-9.674878e+00	-5.272402e+01
2.670000e-06	-1.418069e-06	-8.974931e-10	-1.019537e+01	-5.909713e+01
2.680000e-06	-1.490110e-06	-9.961657e-10	-1.071332e+01	-6.549569e+01
2.690000e-06	-1.561760e-06	-1.082846e-09	-1.122845e+01	-7.191215e+01
2.700000e-06	-1.632791e-06	-1.174081e-09	-1.173914e+01	-7.833744e+01
2.710000e-06	-1.702931e-06	-1.279961e-09	-1.224342e+01	-8.476118e+01
2.720000e-06	-1.772103e-06	-1.389025e-09	-1.274074e+01	-9.117208e+01
2.730000e-06	-1.840542e-06	-1.484661e-09	-1.323279e+01	-9.755834e+01
2.740000e-06	-1.908466e-06	-1.568344e-09	-1.372114e+01	-1.039081e+02
2.750000e-06	-1.975825e-06	-1.658006e-09	-1.420543e+01	-1.102100e+02
2.760000e-06	-2.042509e-06	-1.759816e-09	-1.468486e+01	-1.164530e+02
2.770000e-06	-2.108478e-06	-1.860852e-09	-1.515915e+01	-1.226273e+02
2.780000e-06	-2.173734e-06	-1.948959e-09	-1.562831e+01	-1.287239e+02
2.790000e-06	-2.238313e-06	-2.032095e-09	-1.609261e+01	-1.347346e+02
2.800000e-06	-2.302259e-06	-2.124311e-09	-1.655236e+01	-1.406523e+02
2.810000e-06	-2.365425e-06	-2.222893e-09	-1.700650e+01	-1.464701e+02
2.820000e-06	-2.427517e-06	-2.315538e-09	-1.745291e+01	-1.521819e+02
2.830000e-06	-2.488496e-06	-2.395629e-09	-1.789133e+01	-1.577816e+02
2.840000e-06	-2.548643e-06	-2.472137e-09	-1.832376e+01	-1.632633e+02
2.850000e-06	-2.608080e-06	-2.552932e-09	-1.875109e+01	-1.686212e+02
2.860000e-06	-2.666628e-06	-2.633967e-09	-1.917203e+01	-1.738496e+02
2.870000e-06	-2.724158e-06	-2.711158e-09	-1.958565e+01	-1.789434e+02
2.880000e-06	-2.780771e-06	-2.783742e-09	-1.999267e+01	-1.838980e+02
2.890000e-06	-2.836572e-06	-2.854302e-09	-2.039387e+01	-1.887095e+02
2.900000e-06	-2.891235e-06	-2.926338e-09	-2.078687e+01	-1.933751e+02
2.910000e-06	-2.944453e-06	-2.999129e-09	-2.116949e+01	-1.978932e+02
2.920000e-06	-2.996384e-06	-3.069910e-09	-2.154285e+01	-2.022634e+02
2.930000e-06	-3.047183e-06	-3.136503e-09	-2.190808e+01	-2.064863e+02
2.940000e-06	-3.096693e-06	-3.196176e-09	-2.226403e+01	-2.105638e+02
