# Temperatura_=_20.0
# Concentracion g/m^3_=_12600.0
# C_Vs_to_Am_M_A/Vsm_=_65563218390.804596
# pendiente_HvsI_1/m_=_3716.3
# ordenada_HvsI_A/m_=_1297.0
# frecuencia_Hz_=_301586.92310109583

Tiempo_(s)	Campo_(V.s)	Magnetizacion_(V.s)	Campo_(kA/m)	Magnetizacion_(A/m)
0.000000e+00	-4.056138e-06	-4.245381e-09	-2.909157e+01	-2.789280e+02
1.000000e-08	-4.054276e-06	-4.253116e-09	-2.907822e+01	-2.788118e+02
2.000000e-08	-4.050849e-06	-4.252348e-09	-2.905363e+01	-2.786161e+02
3.000000e-08	-4.046246e-06	-4.243569e-09	-2.902062e+01	-2.783393e+02
4.000000e-08	-4.040420e-06	-4.233886e-09	-2.897883e+01	-2.779808e+02
5.000000e-08	-4.033352e-06	-4.228092e-09	-2.892814e+01	-2.775418e+02
6.000000e-08	-4.025110e-06	-4.222974e-09	-2.886902e+01	-2.770252e+02
7.000000e-08	-4.015401e-06	-4.207767e-09	-2.879940e+01	-2.764363e+02
8.000000e-08	-4.004005e-06	-4.199833e-09	-2.871766e+01	-2.757823e+02
9.000000e-08	-3.990865e-06	-4.231031e-09	-2.862342e+01	-2.750721e+02
1.000000e-07	-3.975626e-06	-4.239896e-09	-2.851411e+01	-2.743156e+02
1.100000e-07	-3.958437e-06	-4.215049e-09	-2.839083e+01	-2.735225e+02
1.200000e-07	-3.939949e-06	-4.129041e-09	-2.825823e+01	-2.727014e+02
1.300000e-07	-3.920584e-06	-4.057759e-09	-2.811934e+01	-2.718589e+02
1.400000e-07	-3.900360e-06	-4.173809e-09	-2.797429e+01	-2.709985e+02
1.500000e-07	-3.879114e-06	-4.189433e-09	-2.782191e+01	-2.701205e+02
1.600000e-07	-3.856877e-06	-4.065939e-09	-2.766242e+01	-2.692210e+02
1.700000e-07	-3.833314e-06	-4.097535e-09	-2.749342e+01	-2.682928e+02
1.800000e-07	-3.807804e-06	-4.040662e-09	-2.731046e+01	-2.673258e+02
1.900000e-07	-3.780805e-06	-3.971465e-09	-2.711682e+01	-2.663077e+02
2.000000e-07	-3.752908e-06	-4.125121e-09	-2.691673e+01	-2.652254e+02
2.100000e-07	-3.723716e-06	-4.080413e-09	-2.670736e+01	-2.640662e+02
2.200000e-07	-3.693119e-06	-3.901955e-09	-2.648791e+01	-2.628191e+02
2.300000e-07	-3.661316e-06	-3.952288e-09	-2.625981e+01	-2.614755e+02
2.400000e-07	-3.628239e-06	-3.981995e-09	-2.602257e+01	-2.600305e+02
2.500000e-07	-3.593703e-06	-3.948616e-09	-2.577488e+01	-2.584825e+02
2.600000e-07	-3.557664e-06	-3.933476e-09	-2.551640e+01	-2.568340e+02
2.700000e-07	-3.520329e-06	-3.835672e-09	-2.524862e+01	-2.550901e+02
2.800000e-07	-3.481912e-06	-3.822039e-09	-2.497308e+01	-2.532587e+02
2.900000e-07	-3.442400e-06	-3.843036e-09	-2.468970e+01	-2.513487e+02
3.000000e-07	-3.401609e-06	-3.783159e-09	-2.439713e+01	-2.493694e+02
3.100000e-07	-3.359287e-06	-3.774219e-09	-2.409359e+01	-2.473291e+02
3.200000e-07	-3.315564e-06	-3.746986e-09	-2.378000e+01	-2.452345e+02
3.300000e-07	-3.270733e-06	-3.655420e-09	-2.345846e+01	-2.430898e+02
3.400000e-07	-3.224718e-06	-3.633894e-09	-2.312843e+01	-2.408969e+02
3.500000e-07	-3.177572e-06	-3.658141e-09	-2.279029e+01	-2.386549e+02
3.600000e-07	-3.129268e-06	-3.622793e-09	-2.244384e+01	-2.363609e+02
3.700000e-07	-3.079419e-06	-3.539845e-09	-2.208631e+01	-2.340105e+02
3.800000e-07	-3.028056e-06	-3.481809e-09	-2.171792e+01	-2.315985e+02
3.900000e-07	-2.975491e-06	-3.470062e-09	-2.134092e+01	-2.291197e+02
4.000000e-07	-2.921905e-06	-3.474841e-09	-2.095658e+01	-2.265696e+02
4.100000e-07	-2.867392e-06	-3.447594e-09	-2.056561e+01	-2.239449e+02
4.200000e-07	-2.812054e-06	-3.350256e-09	-2.016871e+01	-2.212438e+02
4.300000e-07	-2.755876e-06	-3.269985e-09	-1.976578e+01	-2.184660e+02
4.400000e-07	-2.698466e-06	-3.277843e-09	-1.935403e+01	-2.156127e+02
4.500000e-07	-2.639778e-06	-3.291661e-09	-1.893310e+01	-2.126859e+02
4.600000e-07	-2.580204e-06	-3.228060e-09	-1.850583e+01	-2.096882e+02
4.700000e-07	-2.519896e-06	-3.103581e-09	-1.807328e+01	-2.066222e+02
4.800000e-07	-2.458735e-06	-3.039440e-09	-1.763462e+01	-2.034901e+02
4.900000e-07	-2.396680e-06	-3.067870e-09	-1.718955e+01	-2.002931e+02
5.000000e-07	-2.333843e-06	-3.065564e-09	-1.673887e+01	-1.970318e+02
5.100000e-07	-2.270360e-06	-2.965492e-09	-1.628355e+01	-1.937055e+02
5.200000e-07	-2.206067e-06	-2.850102e-09	-1.582243e+01	-1.903130e+02
5.300000e-07	-2.140697e-06	-2.818443e-09	-1.535358e+01	-1.868526e+02
5.400000e-07	-2.074237e-06	-2.834096e-09	-1.487691e+01	-1.833223e+02
5.500000e-07	-2.006966e-06	-2.794745e-09	-1.439443e+01	-1.797204e+02
5.600000e-07	-1.939132e-06	-2.682377e-09	-1.390791e+01	-1.760458e+02
5.700000e-07	-1.870696e-06	-2.584130e-09	-1.341707e+01	-1.722979e+02
5.800000e-07	-1.801593e-06	-2.560744e-09	-1.292144e+01	-1.684768e+02
5.900000e-07	-1.731826e-06	-2.555715e-09	-1.242106e+01	-1.645830e+02
6.000000e-07	-1.661468e-06	-2.486595e-09	-1.191643e+01	-1.606177e+02
6.100000e-07	-1.590537e-06	-2.377132e-09	-1.140771e+01	-1.565816e+02
6.200000e-07	-1.519125e-06	-2.304681e-09	-1.089552e+01	-1.524757e+02
6.300000e-07	-1.447306e-06	-2.276447e-09	-1.038042e+01	-1.482999e+02
6.400000e-07	-1.374974e-06	-2.235735e-09	-9.861637e+00	-1.440538e+02
6.500000e-07	-1.302086e-06	-2.154225e-09	-9.338866e+00	-1.397362e+02
6.600000e-07	-1.228600e-06	-2.063849e-09	-8.811806e+00	-1.353453e+02
6.700000e-07	-1.154422e-06	-1.993226e-09	-8.279784e+00	-1.308789e+02
6.800000e-07	-1.079588e-06	-1.939479e-09	-7.743054e+00	-1.263348e+02
6.900000e-07	-1.004294e-06	-1.881390e-09	-7.203034e+00	-1.217113e+02
7.000000e-07	-9.287392e-07	-1.806847e-09	-6.661134e+00	-1.170072e+02
7.100000e-07	-8.529111e-07	-1.724822e-09	-6.117277e+00	-1.122227e+02
7.200000e-07	-7.767459e-07	-1.645608e-09	-5.571003e+00	-1.073588e+02
7.300000e-07	-7.003082e-07	-1.573560e-09	-5.022773e+00	-1.024180e+02
7.400000e-07	-6.236762e-07	-1.506863e-09	-4.473151e+00	-9.740382e+01
7.500000e-07	-5.468542e-07	-1.437047e-09	-3.922166e+00	-9.232036e+01
7.600000e-07	-4.698113e-07	-1.350152e-09	-3.369596e+00	-8.717227e+01
7.700000e-07	-3.925308e-07	-1.251259e-09	-2.815322e+00	-8.196404e+01
7.800000e-07	-3.151070e-07	-1.168862e-09	-2.260021e+00	-7.669966e+01
7.900000e-07	-2.376507e-07	-1.112278e-09	-1.704486e+00	-7.138221e+01
8.000000e-07	-1.601729e-07	-1.047738e-09	-1.148797e+00	-6.601361e+01
8.100000e-07	-8.261051e-08	-9.464435e-10	-5.925018e-01	-6.059455e+01
8.200000e-07	-4.913819e-09	-8.369757e-10	-3.524306e-02	-5.512450e+01
8.300000e-07	7.287381e-08	-7.616513e-10	5.226679e-01	-4.960191e+01
8.400000e-07	1.505867e-07	-7.077431e-10	1.080043e+00	-4.402456e+01
8.500000e-07	2.281953e-07	-6.260581e-10	1.636670e+00	-3.838988e+01
8.600000e-07	3.057738e-07	-5.080984e-10	2.193081e+00	-3.269535e+01
8.700000e-07	3.833047e-07	-3.996713e-10	2.749151e+00	-2.693885e+01
8.800000e-07	4.607461e-07	-3.324312e-10	3.304578e+00	-2.111888e+01
8.900000e-07	5.379872e-07	-2.728074e-10	3.858570e+00	-1.523476e+01
9.000000e-07	6.150030e-07	-1.767294e-10	4.410945e+00	-9.286614e+00
9.100000e-07	6.917909e-07	-5.691335e-11	4.961685e+00	-3.275376e+00
9.200000e-07	7.682945e-07	4.128119e-11	5.510387e+00	2.797382e+00
9.300000e-07	8.444980e-07	1.098768e-10	6.056937e+00	8.929579e+00
9.400000e-07	9.204101e-07	1.882096e-10	6.601396e+00	1.511876e+01
9.500000e-07	9.960425e-07	2.974893e-10	7.143849e+00	2.136219e+01
9.600000e-07	1.071350e-06	4.137807e-10	7.683974e+00	2.765684e+01
9.700000e-07	1.146220e-06	5.088440e-10	8.220955e+00	3.399935e+01
9.800000e-07	1.220345e-06	5.891368e-10	8.752599e+00	4.038585e+01
9.900000e-07	1.293617e-06	6.811437e-10	9.278121e+00	4.681178e+01
1.000000e-06	1.366185e-06	7.924341e-10	9.798596e+00	5.327167e+01
1.010000e-06	1.438233e-06	9.039364e-10	1.031534e+01	5.975898e+01
1.020000e-06	1.509938e-06	1.001158e-09	1.082963e+01	6.626602e+01
1.030000e-06	1.581238e-06	1.091323e-09	1.134100e+01	7.278389e+01
1.040000e-06	1.651963e-06	1.186880e-09	1.184827e+01	7.930267e+01
1.050000e-06	1.722025e-06	1.290567e-09	1.235076e+01	8.581162e+01
1.060000e-06	1.791466e-06	1.396243e-09	1.284881e+01	9.229949e+01
1.070000e-06	1.860264e-06	1.497072e-09	1.334225e+01	9.875495e+01
1.080000e-06	1.928464e-06	1.590157e-09	1.383139e+01	1.051669e+02
1.090000e-06	1.996194e-06	1.677973e-09	1.431717e+01	1.115250e+02
1.100000e-06	2.063434e-06	1.771761e-09	1.479943e+01	1.178195e+02
1.110000e-06	2.129830e-06	1.876717e-09	1.527564e+01	1.240420e+02
1.120000e-06	2.195047e-06	1.979262e-09	1.574339e+01	1.301848e+02
1.130000e-06	2.259289e-06	2.066362e-09	1.620415e+01	1.362414e+02
1.140000e-06	2.322921e-06	2.144856e-09	1.666053e+01	1.422055e+02
1.150000e-06	2.385938e-06	2.234342e-09	1.711250e+01	1.480717e+02
1.160000e-06	2.448184e-06	2.338519e-09	1.755895e+01	1.538343e+02
1.170000e-06	2.509595e-06	2.434138e-09	1.799940e+01	1.594876e+02
1.180000e-06	2.570169e-06	2.504885e-09	1.843385e+01	1.650256e+02
1.190000e-06	2.630048e-06	2.569664e-09	1.886332e+01	1.704419e+02
1.200000e-06	2.689209e-06	2.653901e-09	1.928763e+01	1.757301e+02
1.210000e-06	2.747247e-06	2.751101e-09	1.970390e+01	1.808836e+02
1.220000e-06	2.803918e-06	2.830806e-09	2.011035e+01	1.858965e+02
1.230000e-06	2.859513e-06	2.888385e-09	2.050910e+01	1.907633e+02
1.240000e-06	2.914199e-06	2.949903e-09	2.090131e+01	1.954799e+02
1.250000e-06	2.967903e-06	3.030465e-09	2.128649e+01	2.000434e+02
1.260000e-06	3.020587e-06	3.114207e-09	2.166436e+01	2.044526e+02
1.270000e-06	3.071997e-06	3.177402e-09	2.203308e+01	2.087078e+02
1.280000e-06	3.121776e-06	3.225352e-09	2.239011e+01	2.128108e+02
1.290000e-06	3.170068e-06	3.281150e-09	2.273646e+01	2.167645e+02
1.300000e-06	3.217246e-06	3.349562e-09	2.307484e+01	2.205727e+02
1.310000e-06	3.263401e-06	3.413297e-09	2.340587e+01	2.242395e+02
1.320000e-06	3.308489e-06	3.460565e-09	2.372925e+01	2.277690e+02
1.330000e-06	3.352535e-06	3.501156e-09	2.404517e+01	2.311650e+02
1.340000e-06	3.395450e-06	3.550247e-09	2.435296e+01	2.344304e+02
1.350000e-06	3.436849e-06	3.607074e-09	2.464988e+01	2.375677e+02
1.360000e-06	3.476876e-06	3.657871e-09	2.493697e+01	2.405784e+02
1.370000e-06	3.515861e-06	3.698064e-09	2.521657e+01	2.434636e+02
1.380000e-06	3.553677e-06	3.735604e-09	2.548780e+01	2.462240e+02
1.390000e-06	3.590339e-06	3.776933e-09	2.575075e+01	2.488604e+02
1.400000e-06	3.625992e-06	3.820776e-09	2.600646e+01	2.513739e+02
1.410000e-06	3.660209e-06	3.859776e-09	2.625187e+01	2.537660e+02
1.420000e-06	3.692810e-06	3.890836e-09	2.648569e+01	2.560388e+02
1.430000e-06	3.724181e-06	3.917121e-09	2.671069e+01	2.581950e+02
1.440000e-06	3.754341e-06	3.945409e-09	2.692701e+01	2.602377e+02
1.450000e-06	3.783273e-06	3.979300e-09	2.713451e+01	2.621700e+02
1.460000e-06	3.811077e-06	4.011874e-09	2.733393e+01	2.639952e+02
1.470000e-06	3.837455e-06	4.036626e-09	2.752312e+01	2.657158e+02
1.480000e-06	3.862219e-06	4.055380e-09	2.770073e+01	2.673338e+02
1.490000e-06	3.885564e-06	4.075108e-09	2.786817e+01	2.688503e+02
1.500000e-06	3.907599e-06	4.100514e-09	2.802621e+01	2.702657e+02
1.510000e-06	3.928398e-06	4.125383e-09	2.817539e+01	2.715794e+02
1.520000e-06	3.948037e-06	4.140784e-09	2.831624e+01	2.727908e+02
1.530000e-06	3.966288e-06	4.149896e-09	2.844714e+01	2.738988e+02
1.540000e-06	3.982978e-06	4.165402e-09	2.856684e+01	2.749029e+02
1.550000e-06	3.998201e-06	4.188750e-09	2.867603e+01	2.758032e+02
1.560000e-06	4.011954e-06	4.206461e-09	2.877467e+01	2.766007e+02
1.570000e-06	4.024257e-06	4.211192e-09	2.886291e+01	2.772978e+02
1.580000e-06	4.034851e-06	4.212190e-09	2.893889e+01	2.778974e+02
1.590000e-06	4.043652e-06	4.221033e-09	2.900201e+01	2.784036e+02
1.600000e-06	4.051012e-06	4.235305e-09	2.905480e+01	2.788207e+02
1.610000e-06	4.057050e-06	4.243635e-09	2.909811e+01	2.791532e+02
1.620000e-06	4.061723e-06	4.241961e-09	2.913162e+01	2.794048e+02
1.630000e-06	4.065069e-06	4.240068e-09	2.915562e+01	2.795785e+02
1.640000e-06	4.066834e-06	4.245945e-09	2.916828e+01	2.796760e+02
1.650000e-06	4.066969e-06	4.252826e-09	2.916925e+01	2.796976e+02
1.660000e-06	4.065787e-06	4.251898e-09	2.916077e+01	2.796425e+02
1.670000e-06	4.063346e-06	4.244048e-09	2.914327e+01	2.795093e+02
1.680000e-06	4.059744e-06	4.237611e-09	2.911743e+01	2.792961e+02
1.690000e-06	4.054973e-06	4.234551e-09	2.908321e+01	2.790017e+02
1.700000e-06	4.048607e-06	4.230791e-09	2.903756e+01	2.786257e+02
1.710000e-06	4.040772e-06	4.222617e-09	2.898136e+01	2.781695e+02
1.720000e-06	4.031838e-06	4.216649e-09	2.891728e+01	2.776368e+02
1.730000e-06	4.021773e-06	4.212558e-09	2.884510e+01	2.770331e+02
1.740000e-06	4.010446e-06	4.162847e-09	2.876386e+01	2.763662e+02
1.750000e-06	3.997060e-06	4.120118e-09	2.866785e+01	2.756451e+02
1.760000e-06	3.981210e-06	4.119265e-09	2.855417e+01	2.748798e+02
1.770000e-06	3.963541e-06	4.176995e-09	2.842744e+01	2.740799e+02
1.780000e-06	3.945077e-06	4.238952e-09	2.829501e+01	2.732536e+02
1.790000e-06	3.926271e-06	4.108419e-09	2.816013e+01	2.724069e+02
1.800000e-06	3.906182e-06	4.044473e-09	2.801605e+01	2.715428e+02
1.810000e-06	3.883980e-06	4.151338e-09	2.785681e+01	2.706604e+02
1.820000e-06	3.860520e-06	4.076604e-09	2.768855e+01	2.697553e+02
1.830000e-06	3.836236e-06	4.081884e-09	2.751438e+01	2.688196e+02
1.840000e-06	3.810333e-06	4.160888e-09	2.732860e+01	2.678426e+02
1.850000e-06	3.782995e-06	3.990318e-09	2.713252e+01	2.668117e+02
1.860000e-06	3.754615e-06	3.992615e-09	2.692898e+01	2.657138e+02
1.870000e-06	3.724769e-06	4.166634e-09	2.671491e+01	2.645365e+02
1.880000e-06	3.693406e-06	4.075088e-09	2.648997e+01	2.632692e+02
1.890000e-06	3.660589e-06	4.002058e-09	2.625460e+01	2.619040e+02
1.900000e-06	3.626451e-06	4.016485e-09	2.600975e+01	2.604368e+02
1.910000e-06	3.591412e-06	3.942277e-09	2.575845e+01	2.588668e+02
1.920000e-06	3.555158e-06	3.982219e-09	2.549842e+01	2.571972e+02
1.930000e-06	3.517287e-06	3.949032e-09	2.522680e+01	2.554337e+02
1.940000e-06	3.477987e-06	3.874867e-09	2.494494e+01	2.535845e+02
1.950000e-06	3.437398e-06	3.929036e-09	2.465382e+01	2.516588e+02
1.960000e-06	3.395638e-06	3.821860e-09	2.435431e+01	2.496656e+02
1.970000e-06	3.352777e-06	3.753690e-09	2.404690e+01	2.476131e+02
1.980000e-06	3.308912e-06	3.842250e-09	2.373229e+01	2.455073e+02
1.990000e-06	3.264131e-06	3.783285e-09	2.341111e+01	2.433521e+02
2.000000e-06	3.218039e-06	3.693800e-09	2.308052e+01	2.411487e+02
2.010000e-06	3.170690e-06	3.633914e-09	2.274092e+01	2.388957e+02
2.020000e-06	3.122245e-06	3.631589e-09	2.239347e+01	2.365899e+02
2.030000e-06	3.072506e-06	3.671854e-09	2.203673e+01	2.342266e+02
2.040000e-06	3.021607e-06	3.586201e-09	2.167167e+01	2.318006e+02
2.050000e-06	2.969655e-06	3.496712e-09	2.129906e+01	2.293067e+02
2.060000e-06	2.916526e-06	3.442835e-09	2.091800e+01	2.267407e+02
2.070000e-06	2.861984e-06	3.445827e-09	2.052682e+01	2.240995e+02
2.080000e-06	2.806164e-06	3.479484e-09	2.012646e+01	2.213818e+02
2.090000e-06	2.749443e-06	3.375929e-09	1.971965e+01	2.185876e+02
2.100000e-06	2.691841e-06	3.259610e-09	1.930651e+01	2.157182e+02
2.110000e-06	2.633303e-06	3.220694e-09	1.888667e+01	2.127758e+02
2.120000e-06	2.573969e-06	3.249884e-09	1.846110e+01	2.097632e+02
2.130000e-06	2.513958e-06	3.256377e-09	1.803069e+01	2.066827e+02
2.140000e-06	2.453074e-06	3.118732e-09	1.759402e+01	2.035365e+02
2.150000e-06	2.390894e-06	3.010673e-09	1.714805e+01	2.003256e+02
2.160000e-06	2.327547e-06	3.008163e-09	1.669371e+01	1.970502e+02
2.170000e-06	2.263443e-06	3.023304e-09	1.623394e+01	1.937098e+02
2.180000e-06	2.198656e-06	2.971828e-09	1.576928e+01	1.903027e+02
2.190000e-06	2.133131e-06	2.840032e-09	1.529931e+01	1.868273e+02
2.200000e-06	2.066820e-06	2.765740e-09	1.482371e+01	1.832817e+02
2.210000e-06	1.999802e-06	2.760346e-09	1.434305e+01	1.796642e+02
2.220000e-06	1.932149e-06	2.742874e-09	1.385782e+01	1.759738e+02
2.230000e-06	1.863866e-06	2.662324e-09	1.336808e+01	1.722100e+02
2.240000e-06	1.794868e-06	2.547795e-09	1.287321e+01	1.683731e+02
2.250000e-06	1.725012e-06	2.494329e-09	1.237219e+01	1.644638e+02
2.260000e-06	1.654259e-06	2.473615e-09	1.186473e+01	1.604830e+02
2.270000e-06	1.582795e-06	2.425177e-09	1.135217e+01	1.564318e+02
2.280000e-06	1.510841e-06	2.337413e-09	1.083611e+01	1.523108e+02
2.290000e-06	1.438448e-06	2.249663e-09	1.031689e+01	1.481198e+02
2.300000e-06	1.365596e-06	2.192942e-09	9.794375e+00	1.438584e+02
2.310000e-06	1.292353e-06	2.141886e-09	9.269059e+00	1.395252e+02
2.320000e-06	1.218698e-06	2.083715e-09	8.740785e+00	1.351181e+02
2.330000e-06	1.144589e-06	2.007560e-09	8.209257e+00	1.306351e+02
2.340000e-06	1.070072e-06	1.923342e-09	7.674805e+00	1.260739e+02
2.350000e-06	9.951838e-07	1.847735e-09	7.137690e+00	1.214331e+02
2.360000e-06	9.199604e-07	1.783544e-09	6.598170e+00	1.167116e+02
2.370000e-06	8.444655e-07	1.726740e-09	6.056704e+00	1.119098e+02
2.380000e-06	7.688183e-07	1.654732e-09	5.514144e+00	1.070291e+02
2.390000e-06	6.929828e-07	1.561453e-09	4.970234e+00	1.020721e+02
2.400000e-06	6.168322e-07	1.466548e-09	4.424064e+00	9.704251e+01
2.410000e-06	5.403354e-07	1.397106e-09	3.875412e+00	9.194467e+01
2.420000e-06	4.635766e-07	1.347854e-09	3.324880e+00	8.678318e+01
2.430000e-06	3.867184e-07	1.272789e-09	2.773634e+00	8.156247e+01
2.440000e-06	3.097206e-07	1.160463e-09	2.221388e+00	7.628635e+01
2.450000e-06	2.324017e-07	1.058612e-09	1.666839e+00	7.095768e+01
2.460000e-06	1.548003e-07	1.000936e-09	1.110264e+00	6.557811e+01
2.470000e-06	7.703623e-08	9.515722e-10	5.525218e-01	6.014807e+01
2.480000e-06	-6.675273e-10	8.576733e-10	-4.787661e-03	5.466677e+01
2.490000e-06	-7.832378e-08	7.350524e-10	-5.617564e-01	4.913252e+01
2.500000e-06	-1.560332e-07	6.439606e-10	-1.119107e+00	4.354296e+01
2.510000e-06	-2.336732e-07	5.901813e-10	-1.675959e+00	3.789552e+01
2.520000e-06	-3.111557e-07	5.201624e-10	-2.231681e+00	3.218773e+01
2.530000e-06	-3.884103e-07	4.075776e-10	-2.785769e+00	2.641758e+01
2.540000e-06	-4.655272e-07	2.893473e-10	-3.338870e+00	2.058375e+01
2.550000e-06	-5.424546e-07	2.072823e-10	-3.890611e+00	1.468573e+01
2.560000e-06	-6.190526e-07	1.454314e-10	-4.439990e+00	8.723824e+00
2.570000e-06	-6.953142e-07	5.936928e-11	-4.986955e+00	2.699110e+00
2.580000e-06	-7.712967e-07	-5.502806e-11	-5.531919e+00	-3.386716e+00
2.590000e-06	-8.470270e-07	-1.628176e-10	-6.075075e+00	-9.531482e+00
2.600000e-06	-9.224563e-07	-2.450145e-10	-6.616072e+00	-1.573267e+01
2.610000e-06	-9.975092e-07	-3.227119e-10	-7.154368e+00	-2.198748e+01
2.620000e-06	-1.072106e-06	-4.210323e-10	-7.689392e+00	-2.829282e+01
2.630000e-06	-1.146267e-06	-5.329561e-10	-8.221296e+00	-3.464525e+01
2.640000e-06	-1.220075e-06	-6.357873e-10	-8.750660e+00	-4.104075e+01
2.650000e-06	-1.293500e-06	-7.247151e-10	-9.277287e+00	-4.747459e+01
2.660000e-06	-1.366405e-06	-8.149188e-10	-9.800174e+00	-5.394109e+01
2.670000e-06	-1.438767e-06	-9.148498e-10	-1.031917e+01	-6.043346e+01
2.680000e-06	-1.510773e-06	-1.018311e-09	-1.083562e+01	-6.694374e+01
2.690000e-06	-1.582474e-06	-1.120094e-09	-1.134987e+01	-7.346282e+01
2.700000e-06	-1.653614e-06	-1.221144e-09	-1.186011e+01	-7.998057e+01
2.710000e-06	-1.723854e-06	-1.317348e-09	-1.236388e+01	-8.648609e+01
2.720000e-06	-1.793094e-06	-1.407565e-09	-1.286049e+01	-9.296811e+01
2.730000e-06	-1.861537e-06	-1.502656e-09	-1.335138e+01	-9.941531e+01
2.740000e-06	-1.929411e-06	-1.607837e-09	-1.383818e+01	-1.058167e+02
2.750000e-06	-1.996726e-06	-1.712705e-09	-1.432099e+01	-1.121621e+02
2.760000e-06	-2.063412e-06	-1.802366e-09	-1.479927e+01	-1.184420e+02
2.770000e-06	-2.129470e-06	-1.882810e-09	-1.527305e+01	-1.246482e+02
2.780000e-06	-2.194809e-06	-1.976027e-09	-1.574168e+01	-1.307732e+02
2.790000e-06	-2.259366e-06	-2.084655e-09	-1.620470e+01	-1.368105e+02
2.800000e-06	-2.323295e-06	-2.183499e-09	-1.666321e+01	-1.427543e+02
2.810000e-06	-2.386471e-06	-2.258210e-09	-1.711632e+01	-1.485989e+02
2.820000e-06	-2.448499e-06	-2.331298e-09	-1.756121e+01	-1.543387e+02
2.830000e-06	-2.509387e-06	-2.424749e-09	-1.799791e+01	-1.599680e+02
2.840000e-06	-2.569445e-06	-2.526310e-09	-1.842866e+01	-1.654806e+02
2.850000e-06	-2.628780e-06	-2.607559e-09	-1.885423e+01	-1.708701e+02
2.860000e-06	-2.687256e-06	-2.667728e-09	-1.927363e+01	-1.761301e+02
2.870000e-06	-2.744767e-06	-2.736912e-09	-1.968611e+01	-1.812542e+02
2.880000e-06	-2.801324e-06	-2.826665e-09	-2.009175e+01	-1.862363e+02
2.890000e-06	-2.857102e-06	-2.913274e-09	-2.049180e+01	-1.910714e+02
2.900000e-06	-2.911782e-06	-2.978675e-09	-2.088398e+01	-1.957555e+02
2.910000e-06	-2.964955e-06	-3.034077e-09	-2.126535e+01	-2.002861e+02
2.920000e-06	-3.016820e-06	-3.100716e-09	-2.163734e+01	-2.046624e+02
2.930000e-06	-3.067524e-06	-3.179036e-09	-2.200100e+01	-2.088849e+02
2.940000e-06	-3.116870e-06	-3.248107e-09	-2.235492e+01	-2.129558e+02
