# Temperatura_=_20.0
# Concentracion g/m^3_=_12600.0
# C_Vs_to_Am_M_A/Vsm_=_65563218390.804596
# pendiente_HvsI_1/m_=_3716.3
# ordenada_HvsI_A/m_=_1297.0
# frecuencia_Hz_=_301586.6034030022

Tiempo_(s)	Campo_(V.s)	Magnetizacion_(V.s)	Campo_(kA/m)	Magnetizacion_(A/m)
0.000000e+00	-4.050705e-06	-4.271784e-09	-2.908886e+01	-2.804912e+02
1.000000e-08	-4.049370e-06	-4.277473e-09	-2.907928e+01	-2.804556e+02
2.000000e-08	-4.046424e-06	-4.277527e-09	-2.905812e+01	-2.803343e+02
3.000000e-08	-4.042217e-06	-4.272034e-09	-2.902791e+01	-2.801224e+02
4.000000e-08	-4.036883e-06	-4.265392e-09	-2.898961e+01	-2.798172e+02
5.000000e-08	-4.030242e-06	-4.259391e-09	-2.894191e+01	-2.794181e+02
6.000000e-08	-4.022366e-06	-4.256156e-09	-2.888535e+01	-2.789282e+02
7.000000e-08	-4.013163e-06	-4.254711e-09	-2.881926e+01	-2.783537e+02
8.000000e-08	-4.002302e-06	-4.229323e-09	-2.874127e+01	-2.777037e+02
9.000000e-08	-3.989740e-06	-4.220530e-09	-2.865106e+01	-2.769898e+02
1.000000e-07	-3.975189e-06	-4.244664e-09	-2.854657e+01	-2.762243e+02
1.100000e-07	-3.958522e-06	-4.234481e-09	-2.842688e+01	-2.754198e+02
1.200000e-07	-3.940415e-06	-4.261300e-09	-2.829685e+01	-2.745870e+02
1.300000e-07	-3.921346e-06	-4.134427e-09	-2.815991e+01	-2.737340e+02
1.400000e-07	-3.901460e-06	-4.061749e-09	-2.801711e+01	-2.728649e+02
1.500000e-07	-3.880652e-06	-4.254343e-09	-2.786768e+01	-2.719798e+02
1.600000e-07	-3.858779e-06	-4.133485e-09	-2.771061e+01	-2.710742e+02
1.700000e-07	-3.835658e-06	-4.058677e-09	-2.754457e+01	-2.701396e+02
1.800000e-07	-3.810699e-06	-4.170619e-09	-2.736533e+01	-2.691647e+02
1.900000e-07	-3.784047e-06	-3.992554e-09	-2.717394e+01	-2.681361e+02
2.000000e-07	-3.756386e-06	-3.989600e-09	-2.697530e+01	-2.670399e+02
2.100000e-07	-3.727618e-06	-4.204096e-09	-2.676872e+01	-2.658633e+02
2.200000e-07	-3.697466e-06	-4.028366e-09	-2.655219e+01	-2.645955e+02
2.300000e-07	-3.666062e-06	-3.866687e-09	-2.632667e+01	-2.632289e+02
2.400000e-07	-3.633467e-06	-3.977450e-09	-2.609260e+01	-2.617597e+02
2.500000e-07	-3.599421e-06	-3.970907e-09	-2.584811e+01	-2.601879e+02
2.600000e-07	-3.563848e-06	-3.991900e-09	-2.559265e+01	-2.585169e+02
2.700000e-07	-3.526886e-06	-3.933275e-09	-2.532722e+01	-2.567526e+02
2.800000e-07	-3.488726e-06	-3.760809e-09	-2.505318e+01	-2.549031e+02
2.900000e-07	-3.449553e-06	-3.801621e-09	-2.477188e+01	-2.529767e+02
3.000000e-07	-3.409221e-06	-3.880683e-09	-2.448225e+01	-2.509816e+02
3.100000e-07	-3.367325e-06	-3.825664e-09	-2.418139e+01	-2.489245e+02
3.200000e-07	-3.323929e-06	-3.773928e-09	-2.386975e+01	-2.468101e+02
3.300000e-07	-3.279437e-06	-3.656797e-09	-2.355025e+01	-2.446411e+02
3.400000e-07	-3.233864e-06	-3.611655e-09	-2.322297e+01	-2.424179e+02
3.500000e-07	-3.187096e-06	-3.711083e-09	-2.288712e+01	-2.401392e+02
3.600000e-07	-3.139146e-06	-3.703461e-09	-2.254279e+01	-2.378024e+02
3.700000e-07	-3.089819e-06	-3.538160e-09	-2.218856e+01	-2.354046e+02
3.800000e-07	-3.038948e-06	-3.428018e-09	-2.182325e+01	-2.329429e+02
3.900000e-07	-2.986861e-06	-3.497138e-09	-2.144920e+01	-2.304155e+02
4.000000e-07	-2.933761e-06	-3.552045e-09	-2.106788e+01	-2.278215e+02
4.100000e-07	-2.879616e-06	-3.477954e-09	-2.067906e+01	-2.251615e+02
4.200000e-07	-2.824561e-06	-3.328058e-09	-2.028369e+01	-2.224371e+02
4.300000e-07	-2.768723e-06	-3.249230e-09	-1.988271e+01	-2.196508e+02
4.400000e-07	-2.711795e-06	-3.317723e-09	-1.947390e+01	-2.168053e+02
4.500000e-07	-2.653526e-06	-3.356047e-09	-1.905546e+01	-2.139027e+02
4.600000e-07	-2.594206e-06	-3.230745e-09	-1.862947e+01	-2.109447e+02
4.700000e-07	-2.534109e-06	-3.073122e-09	-1.819790e+01	-2.079312e+02
4.800000e-07	-2.473254e-06	-3.042388e-09	-1.776090e+01	-2.048609e+02
4.900000e-07	-2.411553e-06	-3.116241e-09	-1.731781e+01	-2.017307e+02
5.000000e-07	-2.348979e-06	-3.116787e-09	-1.686845e+01	-1.985366e+02
5.100000e-07	-2.285671e-06	-2.965764e-09	-1.641382e+01	-1.952735e+02
5.200000e-07	-2.221616e-06	-2.833765e-09	-1.595383e+01	-1.919364e+02
5.300000e-07	-2.156594e-06	-2.842250e-09	-1.548690e+01	-1.885205e+02
5.400000e-07	-2.090479e-06	-2.895350e-09	-1.501212e+01	-1.850222e+02
5.500000e-07	-2.023438e-06	-2.828742e-09	-1.453068e+01	-1.814390e+02
5.600000e-07	-1.955812e-06	-2.670861e-09	-1.404505e+01	-1.777704e+02
5.700000e-07	-1.887684e-06	-2.581952e-09	-1.355581e+01	-1.740174e+02
5.800000e-07	-1.818931e-06	-2.598216e-09	-1.306208e+01	-1.701823e+02
5.900000e-07	-1.749556e-06	-2.609337e-09	-1.256389e+01	-1.662685e+02
6.000000e-07	-1.679527e-06	-2.511325e-09	-1.206099e+01	-1.622799e+02
6.100000e-07	-1.608830e-06	-2.373127e-09	-1.155331e+01	-1.582202e+02
6.200000e-07	-1.537604e-06	-2.310235e-09	-1.104182e+01	-1.540925e+02
6.300000e-07	-1.465959e-06	-2.317987e-09	-1.052732e+01	-1.498991e+02
6.400000e-07	-1.393877e-06	-2.287466e-09	-1.000969e+01	-1.456407e+02
6.500000e-07	-1.321215e-06	-2.173490e-09	-9.487889e+00	-1.413169e+02
6.600000e-07	-1.247895e-06	-2.057300e-09	-8.961363e+00	-1.369265e+02
6.700000e-07	-1.173922e-06	-2.005090e-09	-8.430151e+00	-1.324673e+02
6.800000e-07	-1.099384e-06	-1.984094e-09	-7.894883e+00	-1.279368e+02
6.900000e-07	-1.024378e-06	-1.924546e-09	-7.356251e+00	-1.233329e+02
7.000000e-07	-9.490113e-07	-1.821690e-09	-6.815026e+00	-1.186539e+02
7.100000e-07	-8.733319e-07	-1.723742e-09	-6.271558e+00	-1.138989e+02
7.200000e-07	-7.973242e-07	-1.664923e-09	-5.725733e+00	-1.090683e+02
7.300000e-07	-7.210326e-07	-1.618271e-09	-5.177868e+00	-1.041630e+02
7.400000e-07	-6.445326e-07	-1.545259e-09	-4.628508e+00	-9.918510e+01
7.500000e-07	-5.679030e-07	-1.446278e-09	-4.078217e+00	-9.413684e+01
7.600000e-07	-4.910878e-07	-1.353609e-09	-3.526593e+00	-8.902068e+01
7.700000e-07	-4.140248e-07	-1.285458e-09	-2.973189e+00	-8.383874e+01
7.800000e-07	-3.367798e-07	-1.223405e-09	-2.418478e+00	-7.859253e+01
7.900000e-07	-2.594426e-07	-1.147801e-09	-1.863105e+00	-7.328280e+01
8.000000e-07	-1.820368e-07	-1.056038e-09	-1.307240e+00	-6.790946e+01
8.100000e-07	-1.044723e-07	-9.630385e-10	-7.502348e-01	-6.247173e+01
8.200000e-07	-2.678333e-08	-8.806560e-10	-1.923361e-01	-5.696837e+01
8.300000e-07	5.091973e-08	-8.090152e-10	3.656640e-01	-5.139803e+01
8.400000e-07	1.285954e-07	-7.311359e-10	9.234673e-01	-4.575958e+01
8.500000e-07	2.061644e-07	-6.343399e-10	1.480505e+00	-4.005250e+01
8.600000e-07	2.836202e-07	-5.302638e-10	2.036729e+00	-3.427707e+01
8.700000e-07	3.610497e-07	-4.404625e-10	2.592764e+00	-2.843456e+01
8.800000e-07	4.383827e-07	-3.671873e-10	3.148107e+00	-2.252716e+01
8.900000e-07	5.155225e-07	-2.858565e-10	3.702063e+00	-1.655784e+01
9.000000e-07	5.925077e-07	-1.854524e-10	4.254907e+00	-1.053013e+01
9.100000e-07	6.692722e-07	-8.035313e-11	4.806168e+00	-4.447738e+00
9.200000e-07	7.457759e-07	1.118649e-11	5.355554e+00	1.685737e+00
9.300000e-07	8.219822e-07	9.329997e-11	5.902806e+00	7.867071e+00
9.400000e-07	8.978570e-07	1.844831e-10	6.447677e+00	1.409358e+01
9.500000e-07	9.734152e-07	2.883011e-10	6.990275e+00	2.036314e+01
9.600000e-07	1.048702e-06	3.925767e-10	7.530924e+00	2.667405e+01
9.700000e-07	1.123604e-06	4.873710e-10	8.068810e+00	3.302479e+01
9.800000e-07	1.197904e-06	5.763029e-10	8.602369e+00	3.941366e+01
9.900000e-07	1.271450e-06	6.697422e-10	9.130514e+00	4.583839e+01
1.000000e-06	1.344168e-06	7.737079e-10	9.652716e+00	5.229575e+01
1.010000e-06	1.416315e-06	8.805231e-10	1.017082e+01	5.878127e+01
1.020000e-06	1.488089e-06	9.805699e-10	1.068624e+01	6.528905e+01
1.030000e-06	1.559441e-06	1.074879e-09	1.119863e+01	7.181172e+01
1.040000e-06	1.630288e-06	1.170134e-09	1.170740e+01	7.834059e+01
1.050000e-06	1.700519e-06	1.271114e-09	1.221174e+01	8.486590e+01
1.060000e-06	1.770135e-06	1.377103e-09	1.271166e+01	9.137713e+01
1.070000e-06	1.839133e-06	1.479292e-09	1.320716e+01	9.786343e+01
1.080000e-06	1.907458e-06	1.571991e-09	1.369781e+01	1.043140e+02
1.090000e-06	1.975209e-06	1.660218e-09	1.418434e+01	1.107182e+02
1.100000e-06	2.042458e-06	1.754159e-09	1.466727e+01	1.170662e+02
1.110000e-06	2.109027e-06	1.858491e-09	1.514531e+01	1.233486e+02
1.120000e-06	2.174605e-06	1.961812e-09	1.561624e+01	1.295564e+02
1.130000e-06	2.239077e-06	2.051561e-09	1.607922e+01	1.356813e+02
1.140000e-06	2.302750e-06	2.135717e-09	1.653648e+01	1.417150e+02
1.150000e-06	2.365850e-06	2.230460e-09	1.698961e+01	1.476495e+02
1.160000e-06	2.428206e-06	2.334401e-09	1.743740e+01	1.534765e+02
1.170000e-06	2.489732e-06	2.428320e-09	1.787922e+01	1.591878e+02
1.180000e-06	2.550461e-06	2.502669e-09	1.831533e+01	1.647752e+02
1.190000e-06	2.610443e-06	2.571974e-09	1.874607e+01	1.702307e+02
1.200000e-06	2.669750e-06	2.653668e-09	1.917197e+01	1.755470e+02
1.210000e-06	2.728066e-06	2.744631e-09	1.959074e+01	1.807177e+02
1.220000e-06	2.785056e-06	2.823145e-09	2.000000e+01	1.857378e+02
1.230000e-06	2.840885e-06	2.885491e-09	2.040092e+01	1.906040e+02
1.240000e-06	2.895776e-06	2.948481e-09	2.079511e+01	1.953148e+02
1.250000e-06	2.949729e-06	3.027154e-09	2.118255e+01	1.998706e+02
1.260000e-06	3.002659e-06	3.110789e-09	2.156265e+01	2.042735e+02
1.270000e-06	3.054415e-06	3.176982e-09	2.193432e+01	2.085272e+02
1.280000e-06	3.104692e-06	3.226994e-09	2.229536e+01	2.126360e+02
1.290000e-06	3.153393e-06	3.281867e-09	2.264510e+01	2.166049e+02
1.300000e-06	3.200834e-06	3.349788e-09	2.298578e+01	2.204386e+02
1.310000e-06	3.247194e-06	3.415317e-09	2.331870e+01	2.241409e+02
1.320000e-06	3.292471e-06	3.463546e-09	2.364385e+01	2.277151e+02
1.330000e-06	3.336692e-06	3.503259e-09	2.396140e+01	2.311629e+02
1.340000e-06	3.379881e-06	3.552424e-09	2.427155e+01	2.344851e+02
1.350000e-06	3.421777e-06	3.611047e-09	2.457242e+01	2.376815e+02
1.360000e-06	3.462163e-06	3.664832e-09	2.486243e+01	2.407513e+02
1.370000e-06	3.501318e-06	3.704267e-09	2.514361e+01	2.436937e+02
1.380000e-06	3.539344e-06	3.739438e-09	2.541668e+01	2.465083e+02
1.390000e-06	3.576183e-06	3.781331e-09	2.568123e+01	2.491954e+02
1.400000e-06	3.611936e-06	3.828340e-09	2.593798e+01	2.517563e+02
1.410000e-06	3.646509e-06	3.868410e-09	2.618625e+01	2.541935e+02
1.420000e-06	3.679541e-06	3.896232e-09	2.642346e+01	2.565105e+02
1.430000e-06	3.711168e-06	3.922358e-09	2.665059e+01	2.587111e+02
1.440000e-06	3.741652e-06	3.955719e-09	2.686949e+01	2.607997e+02
1.450000e-06	3.770921e-06	3.994136e-09	2.707968e+01	2.627801e+02
1.460000e-06	3.799025e-06	4.026920e-09	2.728150e+01	2.646555e+02
1.470000e-06	3.825857e-06	4.049038e-09	2.747418e+01	2.664280e+02
1.480000e-06	3.851078e-06	4.067476e-09	2.765530e+01	2.680983e+02
1.490000e-06	3.874770e-06	4.090530e-09	2.782544e+01	2.696658e+02
1.500000e-06	3.897180e-06	4.116110e-09	2.798637e+01	2.711290e+02
1.510000e-06	3.918264e-06	4.136266e-09	2.813778e+01	2.724859e+02
1.520000e-06	3.938126e-06	4.150595e-09	2.828041e+01	2.737345e+02
1.530000e-06	3.956716e-06	4.163946e-09	2.841391e+01	2.748733e+02
1.540000e-06	3.973788e-06	4.182652e-09	2.853651e+01	2.759024e+02
1.550000e-06	3.989353e-06	4.204643e-09	2.864828e+01	2.768233e+02
1.560000e-06	4.003432e-06	4.220537e-09	2.874939e+01	2.776392e+02
1.570000e-06	4.016010e-06	4.226663e-09	2.883971e+01	2.783551e+02
1.580000e-06	4.027098e-06	4.230351e-09	2.891933e+01	2.789774e+02
1.590000e-06	4.036363e-06	4.239604e-09	2.898587e+01	2.795128e+02
1.600000e-06	4.043986e-06	4.250360e-09	2.904061e+01	2.799682e+02
1.610000e-06	4.050322e-06	4.255303e-09	2.908611e+01	2.803494e+02
1.620000e-06	4.055262e-06	4.255931e-09	2.912159e+01	2.806606e+02
1.630000e-06	4.058981e-06	4.257922e-09	2.914829e+01	2.809037e+02
1.640000e-06	4.061281e-06	4.265305e-09	2.916481e+01	2.810783e+02
1.650000e-06	4.061899e-06	4.272806e-09	2.916925e+01	2.811818e+02
1.660000e-06	4.061106e-06	4.275512e-09	2.916356e+01	2.812095e+02
1.670000e-06	4.059044e-06	4.269821e-09	2.914875e+01	2.811560e+02
1.680000e-06	4.055690e-06	4.266070e-09	2.912466e+01	2.810158e+02
1.690000e-06	4.051174e-06	4.264475e-09	2.909223e+01	2.807842e+02
1.700000e-06	4.045353e-06	4.259392e-09	2.905043e+01	2.804588e+02
1.710000e-06	4.037965e-06	4.249880e-09	2.899737e+01	2.800400e+02
1.720000e-06	4.029324e-06	4.232432e-09	2.893532e+01	2.795314e+02
1.730000e-06	4.019634e-06	4.225354e-09	2.886574e+01	2.789399e+02
1.740000e-06	4.008683e-06	4.246416e-09	2.878710e+01	2.782753e+02
1.750000e-06	3.995981e-06	4.185578e-09	2.869587e+01	2.775493e+02
1.760000e-06	3.980914e-06	4.168588e-09	2.858768e+01	2.767745e+02
1.770000e-06	3.963687e-06	4.106812e-09	2.846397e+01	2.759632e+02
1.780000e-06	3.945329e-06	4.207158e-09	2.833213e+01	2.751256e+02
1.790000e-06	3.926638e-06	4.300594e-09	2.819792e+01	2.742690e+02
1.800000e-06	3.907071e-06	4.039581e-09	2.805740e+01	2.733967e+02
1.810000e-06	3.885429e-06	4.131038e-09	2.790198e+01	2.725078e+02
1.820000e-06	3.862116e-06	4.216263e-09	2.773457e+01	2.715969e+02
1.830000e-06	3.838022e-06	4.023023e-09	2.756154e+01	2.706548e+02
1.840000e-06	3.812565e-06	4.162733e-09	2.737873e+01	2.696696e+02
1.850000e-06	3.785497e-06	4.213143e-09	2.718435e+01	2.686278e+02
1.860000e-06	3.757397e-06	3.955721e-09	2.698257e+01	2.675154e+02
1.870000e-06	3.728075e-06	4.095687e-09	2.677200e+01	2.663201e+02
1.880000e-06	3.697209e-06	4.269429e-09	2.655034e+01	2.650317e+02
1.890000e-06	3.664886e-06	4.068498e-09	2.631822e+01	2.636435e+02
1.900000e-06	3.631111e-06	4.015768e-09	2.607568e+01	2.621523e+02
1.910000e-06	3.596215e-06	3.950628e-09	2.582509e+01	2.605589e+02
1.920000e-06	3.560323e-06	3.902727e-09	2.556734e+01	2.588673e+02
1.930000e-06	3.522951e-06	4.102097e-09	2.529897e+01	2.570842e+02
1.940000e-06	3.484053e-06	3.966607e-09	2.501963e+01	2.552175e+02
1.950000e-06	3.443834e-06	3.820961e-09	2.473081e+01	2.532759e+02
1.960000e-06	3.402393e-06	3.860320e-09	2.443321e+01	2.512670e+02
1.970000e-06	3.359851e-06	3.749152e-09	2.412771e+01	2.491974e+02
1.980000e-06	3.316219e-06	3.890490e-09	2.381438e+01	2.470712e+02
1.990000e-06	3.271705e-06	3.911430e-09	2.349472e+01	2.448907e+02
2.000000e-06	3.226067e-06	3.637266e-09	2.316699e+01	2.426559e+02
2.010000e-06	3.179062e-06	3.588207e-09	2.282943e+01	2.403650e+02
2.020000e-06	3.131029e-06	3.662650e-09	2.248450e+01	2.380155e+02
2.030000e-06	3.081800e-06	3.757288e-09	2.213098e+01	2.356042e+02
2.040000e-06	3.031256e-06	3.649458e-09	2.176801e+01	2.331287e+02
2.050000e-06	2.979577e-06	3.405516e-09	2.139689e+01	2.305871e+02
2.060000e-06	2.926818e-06	3.430510e-09	2.101802e+01	2.279789e+02
2.070000e-06	2.872865e-06	3.519307e-09	2.063057e+01	2.253051e+02
2.080000e-06	2.817538e-06	3.543914e-09	2.023326e+01	2.225673e+02
2.090000e-06	2.761172e-06	3.399431e-09	1.982849e+01	2.197681e+02
2.100000e-06	2.703934e-06	3.193297e-09	1.941745e+01	2.169103e+02
2.110000e-06	2.645677e-06	3.250240e-09	1.899910e+01	2.139958e+02
2.120000e-06	2.586549e-06	3.323726e-09	1.857448e+01	2.110260e+02
2.130000e-06	2.526688e-06	3.295306e-09	1.814461e+01	2.080006e+02
2.140000e-06	2.466078e-06	3.134314e-09	1.770936e+01	2.049178e+02
2.150000e-06	2.404388e-06	2.972676e-09	1.726635e+01	2.017744e+02
2.160000e-06	2.341445e-06	3.047752e-09	1.681435e+01	1.985660e+02
2.170000e-06	2.277630e-06	3.095033e-09	1.635608e+01	1.952876e+02
2.180000e-06	2.213125e-06	3.006089e-09	1.589286e+01	1.919341e+02
2.190000e-06	2.147823e-06	2.838488e-09	1.542391e+01	1.885008e+02
2.200000e-06	2.081764e-06	2.753533e-09	1.494954e+01	1.849845e+02
2.210000e-06	2.015018e-06	2.812761e-09	1.447021e+01	1.813831e+02
2.220000e-06	1.947599e-06	2.799293e-09	1.398607e+01	1.776964e+02
2.230000e-06	1.879564e-06	2.685529e-09	1.349750e+01	1.739256e+02
2.240000e-06	1.810864e-06	2.548467e-09	1.300415e+01	1.700734e+02
2.250000e-06	1.741453e-06	2.502334e-09	1.250569e+01	1.661433e+02
2.260000e-06	1.671127e-06	2.526981e-09	1.200067e+01	1.621392e+02
2.270000e-06	1.599891e-06	2.478062e-09	1.148911e+01	1.580648e+02
2.280000e-06	1.528097e-06	2.358527e-09	1.097355e+01	1.539230e+02
2.290000e-06	1.455893e-06	2.244848e-09	1.045504e+01	1.497157e+02
2.300000e-06	1.383296e-06	2.206410e-09	9.933707e+00	1.454434e+02
2.310000e-06	1.310280e-06	2.190920e-09	9.409366e+00	1.411056e+02
2.320000e-06	1.236839e-06	2.117255e-09	8.881972e+00	1.367007e+02
2.330000e-06	1.163015e-06	2.014705e-09	8.351825e+00	1.322265e+02
2.340000e-06	1.088808e-06	1.924588e-09	7.818932e+00	1.276805e+02
2.350000e-06	1.014159e-06	1.876370e-09	7.282862e+00	1.230607e+02
2.360000e-06	9.391216e-07	1.836772e-09	6.744006e+00	1.183655e+02
2.370000e-06	8.637461e-07	1.764343e-09	6.202720e+00	1.135944e+02
2.380000e-06	7.881586e-07	1.668894e-09	5.659913e+00	1.087477e+02
2.390000e-06	7.123878e-07	1.574721e-09	5.115788e+00	1.038267e+02
2.400000e-06	6.363610e-07	1.510216e-09	4.569826e+00	9.883362e+01
2.410000e-06	5.600867e-07	1.450541e-09	4.022086e+00	9.377069e+01
2.420000e-06	4.836294e-07	1.369654e-09	3.473032e+00	8.864034e+01
2.430000e-06	4.070463e-07	1.276053e-09	2.923075e+00	8.344460e+01
2.440000e-06	3.302534e-07	1.187118e-09	2.371611e+00	7.818482e+01
2.450000e-06	2.532454e-07	1.115641e-09	1.818602e+00	7.286156e+01
2.460000e-06	1.760303e-07	1.047979e-09	1.264106e+00	6.747458e+01
2.470000e-06	9.863455e-08	9.692634e-10	7.083129e-01	6.202298e+01
2.480000e-06	2.117956e-08	8.732818e-10	1.520943e-01	5.650546e+01
2.490000e-06	-5.633952e-08	7.739157e-10	-4.045845e-01	5.092067e+01
2.500000e-06	-1.338343e-07	6.920068e-10	-9.610888e-01	4.526761e+01
2.510000e-06	-2.112823e-07	6.183798e-10	-1.517257e+00	3.954590e+01
2.520000e-06	-2.886685e-07	5.287294e-10	-2.072982e+00	3.375603e+01
2.530000e-06	-3.658268e-07	4.230920e-10	-2.627070e+00	2.789947e+01
2.540000e-06	-4.427565e-07	3.254272e-10	-3.179516e+00	2.197860e+01
2.550000e-06	-5.194406e-07	2.442896e-10	-3.730199e+00	1.599654e+01
2.560000e-06	-5.959634e-07	1.636217e-10	-4.279723e+00	9.956875e+00
2.570000e-06	-6.723082e-07	6.823538e-11	-4.827969e+00	3.863315e+00
2.580000e-06	-7.483425e-07	-3.363124e-11	-5.373986e+00	-2.280596e+00
2.590000e-06	-8.240579e-07	-1.301474e-10	-5.917712e+00	-8.471742e+00
2.600000e-06	-8.994749e-07	-2.217110e-10	-6.459296e+00	-1.470756e+01
2.610000e-06	-9.745807e-07	-3.154763e-10	-6.998644e+00	-2.098604e+01
2.620000e-06	-1.049263e-06	-4.143626e-10	-7.534949e+00	-2.730554e+01
2.630000e-06	-1.123489e-06	-5.149590e-10	-8.067983e+00	-3.366454e+01
2.640000e-06	-1.197307e-06	-6.144817e-10	-8.598085e+00	-4.006124e+01
2.650000e-06	-1.270773e-06	-7.105738e-10	-9.125658e+00	-4.649320e+01
2.660000e-06	-1.343792e-06	-8.055485e-10	-9.650017e+00	-5.295694e+01
2.670000e-06	-1.416294e-06	-9.021680e-10	-1.017067e+01	-5.944770e+01
2.680000e-06	-1.488427e-06	-1.002028e-09	-1.068867e+01	-6.595926e+01
2.690000e-06	-1.560158e-06	-1.105527e-09	-1.120378e+01	-7.248396e+01
2.700000e-06	-1.631319e-06	-1.210750e-09	-1.171481e+01	-7.901285e+01
2.710000e-06	-1.701653e-06	-1.310116e-09	-1.221989e+01	-8.553597e+01
2.720000e-06	-1.770990e-06	-1.402960e-09	-1.271781e+01	-9.204270e+01
2.730000e-06	-1.839569e-06	-1.499690e-09	-1.321029e+01	-9.852217e+01
2.740000e-06	-1.907628e-06	-1.603543e-09	-1.369903e+01	-1.049636e+02
2.750000e-06	-1.975134e-06	-1.705883e-09	-1.418380e+01	-1.113565e+02
2.760000e-06	-2.041959e-06	-1.796950e-09	-1.466369e+01	-1.176912e+02
2.770000e-06	-2.108080e-06	-1.882716e-09	-1.513851e+01	-1.239582e+02
2.780000e-06	-2.173514e-06	-1.976580e-09	-1.560841e+01	-1.301489e+02
2.790000e-06	-2.238253e-06	-2.080236e-09	-1.607331e+01	-1.362548e+02
2.800000e-06	-2.302328e-06	-2.178810e-09	-1.653344e+01	-1.422679e+02
2.810000e-06	-2.365620e-06	-2.261548e-09	-1.698795e+01	-1.481800e+02
2.820000e-06	-2.427781e-06	-2.339642e-09	-1.743434e+01	-1.539828e+02
2.830000e-06	-2.488809e-06	-2.428087e-09	-1.787260e+01	-1.596682e+02
2.840000e-06	-2.549055e-06	-2.523604e-09	-1.830523e+01	-1.652279e+02
2.850000e-06	-2.608635e-06	-2.608079e-09	-1.873309e+01	-1.706541e+02
2.860000e-06	-2.667386e-06	-2.675344e-09	-1.915499e+01	-1.759396e+02
2.870000e-06	-2.725105e-06	-2.743892e-09	-1.956948e+01	-1.810783e+02
2.880000e-06	-2.781835e-06	-2.827689e-09	-1.997687e+01	-1.860656e+02
2.890000e-06	-2.837780e-06	-2.913840e-09	-2.037862e+01	-1.908985e+02
2.900000e-06	-2.892687e-06	-2.984891e-09	-2.077292e+01	-1.955759e+02
2.910000e-06	-2.946111e-06	-3.042650e-09	-2.115657e+01	-2.000986e+02
2.920000e-06	-2.998205e-06	-3.104873e-09	-2.153066e+01	-2.044691e+02
2.930000e-06	-3.049160e-06	-3.179870e-09	-2.189658e+01	-2.086913e+02
2.940000e-06	-3.098782e-06	-3.251264e-09	-2.225293e+01	-2.127697e+02
