# Temperatura_=_20.0
# Concentracion g/m^3_=_12600.0
# C_Vs_to_Am_M_A/Vsm_=_65563218390.804596
# pendiente_HvsI_1/m_=_3716.3
# ordenada_HvsI_A/m_=_1297.0
# frecuencia_Hz_=_301607.2377017174

Tiempo_(s)	Campo_(V.s)	Magnetizacion_(V.s)	Campo_(kA/m)	Magnetizacion_(A/m)
0.000000e+00	-4.057508e-06	-2.094656e-11	-2.908619e+01	1.176012e-02
1.000000e-08	-4.056363e-06	-1.666412e-11	-2.907798e+01	3.954916e-02
2.000000e-08	-4.053643e-06	-1.640349e-11	-2.905848e+01	4.759766e-02
3.000000e-08	-4.049629e-06	-1.785064e-11	-2.902971e+01	3.183633e-02
4.000000e-08	-4.044473e-06	-1.730269e-11	-2.899275e+01	-8.740576e-03
5.000000e-08	-4.038059e-06	-1.713659e-11	-2.894676e+01	-7.190457e-02
6.000000e-08	-4.030450e-06	-1.825046e-11	-2.889222e+01	-1.524973e-01
7.000000e-08	-4.021542e-06	-1.916991e-11	-2.882836e+01	-2.431805e-01
8.000000e-08	-4.010953e-06	-2.956012e-11	-2.875246e+01	-3.355353e-01
9.000000e-08	-3.998606e-06	-2.950135e-11	-2.866395e+01	-4.213599e-01
1.000000e-07	-3.984296e-06	1.613913e-12	-2.856137e+01	-4.939803e-01
1.100000e-07	-3.967940e-06	3.735380e-12	-2.844412e+01	-5.493810e-01
1.200000e-07	-3.950089e-06	1.660273e-11	-2.831616e+01	-5.869828e-01
1.300000e-07	-3.931206e-06	-5.514105e-11	-2.818079e+01	-6.099399e-01
1.400000e-07	-3.911489e-06	-1.018772e-10	-2.803945e+01	-6.248945e-01
1.500000e-07	-3.890819e-06	4.676611e-11	-2.789128e+01	-6.412024e-01
1.600000e-07	-3.869094e-06	4.476223e-12	-2.773554e+01	-6.697219e-01
1.700000e-07	-3.846263e-06	-7.749122e-11	-2.757188e+01	-7.213182e-01
1.800000e-07	-3.821656e-06	9.695177e-12	-2.739548e+01	-8.052855e-01
1.900000e-07	-3.795226e-06	-5.872938e-11	-2.720602e+01	-9.279026e-01
2.000000e-07	-3.767742e-06	-7.163084e-11	-2.700900e+01	-1.091326e+00
2.100000e-07	-3.739193e-06	9.931730e-11	-2.680435e+01	-1.292980e+00
2.200000e-07	-3.709217e-06	2.961523e-12	-2.658947e+01	-1.525546e+00
2.300000e-07	-3.678001e-06	-1.403455e-10	-2.636570e+01	-1.777561e+00
2.400000e-07	-3.645620e-06	-4.053047e-11	-2.613357e+01	-2.034563e+00
2.500000e-07	-3.611798e-06	1.037007e-12	-2.589112e+01	-2.280644e+00
2.600000e-07	-3.576469e-06	1.390432e-11	-2.563787e+01	-2.500210e+00
2.700000e-07	-3.539698e-06	-1.155587e-11	-2.537427e+01	-2.679727e+00
2.800000e-07	-3.501688e-06	-1.089345e-10	-2.510179e+01	-2.809224e+00
2.900000e-07	-3.462682e-06	-5.336035e-11	-2.482219e+01	-2.883366e+00
3.000000e-07	-3.422549e-06	2.028699e-11	-2.453449e+01	-2.901954e+00
3.100000e-07	-3.380870e-06	-3.246079e-12	-2.423572e+01	-2.869806e+00
3.200000e-07	-3.337699e-06	-1.068825e-12	-2.392625e+01	-2.796029e+00
3.300000e-07	-3.293403e-06	-5.809431e-11	-2.360871e+01	-2.692799e+00
3.400000e-07	-3.247970e-06	-8.131046e-11	-2.328303e+01	-2.573807e+00
3.500000e-07	-3.201387e-06	1.595788e-11	-2.294910e+01	-2.452582e+00
3.600000e-07	-3.153646e-06	4.643708e-11	-2.260686e+01	-2.340911e+00
3.700000e-07	-3.104452e-06	-4.102691e-11	-2.225422e+01	-2.247556e+00
3.800000e-07	-3.053700e-06	-9.532241e-11	-2.189040e+01	-2.177422e+00
3.900000e-07	-3.001721e-06	-3.234646e-11	-2.151779e+01	-2.131267e+00
4.000000e-07	-2.948716e-06	3.956198e-11	-2.113782e+01	-2.105969e+00
4.100000e-07	-2.894673e-06	3.185913e-11	-2.075042e+01	-2.095286e+00
4.200000e-07	-2.839692e-06	-4.280737e-11	-2.035629e+01	-2.090991e+00
4.300000e-07	-2.783918e-06	-8.394926e-11	-1.995648e+01	-2.084204e+00
4.400000e-07	-2.727133e-06	-1.235612e-11	-1.954942e+01	-2.066733e+00
4.500000e-07	-2.668962e-06	6.505530e-11	-1.913241e+01	-2.032245e+00
4.600000e-07	-2.609711e-06	2.094061e-11	-1.870767e+01	-1.977114e+00
4.700000e-07	-2.549735e-06	-6.993712e-11	-1.827774e+01	-1.900841e+00
4.800000e-07	-2.488922e-06	-7.884482e-11	-1.784180e+01	-1.806025e+00
4.900000e-07	-2.427245e-06	1.554299e-11	-1.739967e+01	-1.697896e+00
5.000000e-07	-2.364723e-06	7.772877e-11	-1.695148e+01	-1.583520e+00
5.100000e-07	-2.301494e-06	1.010383e-11	-1.649823e+01	-1.470786e+00
5.200000e-07	-2.237577e-06	-6.853200e-11	-1.604004e+01	-1.367343e+00
5.300000e-07	-2.172601e-06	-3.773108e-11	-1.557426e+01	-1.279631e+00
5.400000e-07	-2.106460e-06	5.649887e-11	-1.510013e+01	-1.212141e+00
5.500000e-07	-2.039486e-06	6.881636e-11	-1.462002e+01	-1.166986e+00
5.600000e-07	-1.971980e-06	-1.307328e-11	-1.413611e+01	-1.143827e+00
5.700000e-07	-1.903951e-06	-6.073620e-11	-1.364844e+01	-1.140136e+00
5.800000e-07	-1.835234e-06	-6.600921e-12	-1.315585e+01	-1.151732e+00
5.900000e-07	-1.765829e-06	6.761421e-11	-1.265832e+01	-1.173495e+00
6.000000e-07	-1.695763e-06	4.987776e-11	-1.215605e+01	-1.200135e+00
6.100000e-07	-1.625058e-06	-2.628014e-11	-1.164920e+01	-1.226901e+00
6.200000e-07	-1.553861e-06	-4.461011e-11	-1.113883e+01	-1.250132e+00
6.300000e-07	-1.482255e-06	1.847136e-11	-1.062552e+01	-1.267578e+00
6.400000e-07	-1.410200e-06	6.273204e-11	-1.010900e+01	-1.278475e+00
6.500000e-07	-1.337533e-06	2.432131e-11	-9.588088e+00	-1.283371e+00
6.600000e-07	-1.264165e-06	-3.281049e-11	-9.062147e+00	-1.283774e+00
6.700000e-07	-1.190095e-06	-2.712772e-11	-8.531177e+00	-1.281684e+00
6.800000e-07	-1.115384e-06	2.358664e-11	-7.995611e+00	-1.279107e+00
6.900000e-07	-1.040253e-06	4.363369e-11	-7.457039e+00	-1.277636e+00
7.000000e-07	-9.648180e-07	1.096298e-11	-6.916284e+00	-1.278162e+00
7.100000e-07	-8.890725e-07	-2.159145e-11	-6.373303e+00	-1.280762e+00
7.200000e-07	-8.130326e-07	-7.507855e-12	-5.828212e+00	-1.284759e+00
7.300000e-07	-7.367432e-07	2.721044e-11	-5.281333e+00	-1.288942e+00
7.400000e-07	-6.601945e-07	3.305002e-11	-4.732594e+00	-1.291887e+00
7.500000e-07	-5.833983e-07	3.078087e-12	-4.182082e+00	-1.292300e+00
7.600000e-07	-5.064333e-07	-1.903013e-11	-3.630360e+00	-1.289333e+00
7.700000e-07	-4.292549e-07	-6.640206e-12	-3.077107e+00	-1.282788e+00
7.800000e-07	-3.519160e-07	1.580072e-11	-2.522705e+00	-1.273187e+00
7.900000e-07	-2.745410e-07	1.732427e-11	-1.968043e+00	-1.261673e+00
8.000000e-07	-1.971237e-07	8.244386e-13	-1.413078e+00	-1.249785e+00
8.100000e-07	-1.195738e-07	-9.053615e-12	-8.571632e-01	-1.239125e+00
8.200000e-07	-4.186017e-08	-1.880079e-12	-3.000740e-01	-1.230994e+00
8.300000e-07	3.592041e-08	1.329210e-11	2.574949e-01	-1.226061e+00
8.400000e-07	1.136884e-07	1.641980e-11	8.149737e-01	-1.224132e+00
8.500000e-07	1.913585e-07	2.196264e-12	1.371751e+00	-1.224059e+00
8.600000e-07	2.689182e-07	-1.294917e-11	1.927736e+00	-1.223831e+00
8.700000e-07	3.464620e-07	-1.009689e-11	2.483608e+00	-1.220815e+00
8.800000e-07	4.239256e-07	6.331300e-12	3.038904e+00	-1.212133e+00
8.900000e-07	5.012118e-07	1.264402e-11	3.592929e+00	-1.195109e+00
9.000000e-07	5.783184e-07	1.164364e-12	4.145667e+00	-1.167707e+00
9.100000e-07	6.552359e-07	-1.033696e-11	4.697049e+00	-1.128893e+00
9.200000e-07	7.319432e-07	-3.350601e-12	5.246924e+00	-1.078864e+00
9.300000e-07	8.083270e-07	1.294538e-11	5.794480e+00	-1.019085e+00
9.400000e-07	8.843616e-07	1.421766e-11	6.339533e+00	-9.521336e-01
9.500000e-07	9.601207e-07	-1.033536e-12	6.882611e+00	-8.813745e-01
9.600000e-07	1.035592e-06	-8.734489e-12	7.423623e+00	-8.105004e-01
9.700000e-07	1.110707e-06	1.112874e-12	7.962089e+00	-7.430187e-01
9.800000e-07	1.185321e-06	1.203386e-11	8.496955e+00	-6.817611e-01
9.900000e-07	1.259289e-06	9.885943e-12	9.027192e+00	-6.284933e-01
1.000000e-06	1.332559e-06	1.338475e-13	9.552429e+00	-5.836892e-01
1.010000e-06	1.405083e-06	-1.644454e-12	1.007232e+01	-5.465057e-01
1.020000e-06	1.476975e-06	6.589859e-12	1.058767e+01	-5.149631e-01
1.030000e-06	1.548394e-06	1.244732e-11	1.109964e+01	-4.863045e-01
1.040000e-06	1.619352e-06	7.806750e-12	1.160830e+01	-4.574763e-01
1.050000e-06	1.689814e-06	1.277847e-12	1.211341e+01	-4.256535e-01
1.060000e-06	1.759722e-06	1.904637e-12	1.261454e+01	-3.887261e-01
1.070000e-06	1.829030e-06	6.433977e-12	1.311138e+01	-3.456670e-01
1.080000e-06	1.897671e-06	7.825362e-12	1.360343e+01	-2.967216e-01
1.090000e-06	1.965644e-06	7.226244e-12	1.409069e+01	-2.433886e-01
1.100000e-06	2.033102e-06	8.467034e-12	1.457426e+01	-1.881924e-01
1.110000e-06	2.100045e-06	9.939776e-12	1.505414e+01	-1.342840e-01
1.120000e-06	2.166145e-06	9.316416e-12	1.552798e+01	-8.493386e-02
1.130000e-06	2.231145e-06	8.006079e-12	1.599393e+01	-4.299790e-02
1.140000e-06	2.295176e-06	7.083584e-12	1.645293e+01	-1.044379e-02
1.150000e-06	2.358532e-06	5.805347e-12	1.690710e+01	1.198549e-02
1.160000e-06	2.421276e-06	2.766495e-12	1.735688e+01	2.491492e-02
1.170000e-06	2.483245e-06	-7.432536e-13	1.780111e+01	3.026250e-02
1.180000e-06	2.544252e-06	2.286700e-14	1.823843e+01	3.095604e-02
1.190000e-06	2.604396e-06	5.064295e-12	1.866957e+01	3.048551e-02
1.200000e-06	2.663945e-06	8.282388e-12	1.909645e+01	3.236088e-02
1.210000e-06	2.722682e-06	6.090253e-12	1.951750e+01	3.956155e-02
1.220000e-06	2.780119e-06	5.726145e-12	1.992924e+01	5.406485e-02
1.230000e-06	2.836204e-06	1.024638e-11	2.033129e+01	7.652873e-02
1.240000e-06	2.891319e-06	1.343662e-11	2.072638e+01	1.061795e-01
1.250000e-06	2.945563e-06	8.911019e-12	2.111523e+01	1.409221e-01
1.260000e-06	2.998796e-06	4.424649e-13	2.149682e+01	1.776556e-01
1.270000e-06	3.050902e-06	-2.054191e-12	2.187034e+01	2.127420e-01
1.280000e-06	3.101628e-06	2.181178e-12	2.223397e+01	2.425542e-01
1.290000e-06	3.150782e-06	4.264358e-12	2.258633e+01	2.640133e-01
1.300000e-06	3.198504e-06	1.692270e-12	2.292843e+01	2.750311e-01
1.310000e-06	3.245073e-06	4.455538e-13	2.326226e+01	2.747854e-01
1.320000e-06	3.290584e-06	5.365316e-12	2.358850e+01	2.637876e-01
1.330000e-06	3.335023e-06	1.184492e-11	2.390706e+01	2.437343e-01
1.340000e-06	3.378397e-06	1.149270e-11	2.421799e+01	2.171701e-01
1.350000e-06	3.420538e-06	5.912640e-12	2.452008e+01	1.870228e-01
1.360000e-06	3.461234e-06	2.871923e-12	2.481180e+01	1.560928e-01
1.370000e-06	3.500694e-06	5.140983e-12	2.509467e+01	1.265840e-01
1.380000e-06	3.539012e-06	5.913836e-12	2.536936e+01	9.976207e-02
1.390000e-06	3.576063e-06	1.322987e-12	2.563496e+01	7.579886e-02
1.400000e-06	3.611989e-06	-3.739082e-12	2.589249e+01	5.383345e-02
1.410000e-06	3.646728e-06	-3.857877e-12	2.614152e+01	3.224169e-02
1.420000e-06	3.679984e-06	-7.310866e-13	2.637991e+01	9.068447e-03
1.430000e-06	3.711872e-06	-4.079245e-13	2.660850e+01	-1.745283e-02
1.440000e-06	3.742555e-06	-3.647149e-12	2.682845e+01	-4.838694e-02
1.450000e-06	3.772031e-06	-7.432401e-12	2.703975e+01	-8.368659e-02
1.460000e-06	3.800313e-06	-7.328315e-12	2.724249e+01	-1.219674e-01
1.470000e-06	3.827355e-06	-3.931556e-12	2.743634e+01	-1.605222e-01
1.480000e-06	3.852907e-06	-2.693518e-12	2.761951e+01	-1.955908e-01
1.490000e-06	3.876920e-06	-4.458528e-12	2.779165e+01	-2.228552e-01
1.500000e-06	3.899575e-06	-6.337457e-12	2.795405e+01	-2.380948e-01
1.510000e-06	3.920883e-06	-5.847721e-12	2.810679e+01	-2.378994e-01
1.520000e-06	3.940986e-06	-3.305993e-12	2.825090e+01	-2.203264e-01
1.530000e-06	3.959916e-06	-1.794197e-12	2.838660e+01	-1.853871e-01
1.540000e-06	3.977427e-06	-4.690234e-12	2.851212e+01	-1.352709e-01
1.550000e-06	3.993441e-06	-8.351216e-12	2.862692e+01	-7.425046e-02
1.560000e-06	4.007911e-06	-6.428501e-12	2.873065e+01	-8.259332e-03
1.570000e-06	4.020829e-06	-1.655768e-14	2.882325e+01	5.581420e-02
1.580000e-06	4.032261e-06	4.095409e-12	2.890520e+01	1.110278e-01
1.590000e-06	4.041983e-06	2.649613e-12	2.897490e+01	1.513545e-01
1.600000e-06	4.050026e-06	1.396342e-12	2.903255e+01	1.725792e-01
1.610000e-06	4.056634e-06	4.556895e-12	2.907992e+01	1.729821e-01
1.620000e-06	4.061803e-06	7.342530e-12	2.911697e+01	1.536989e-01
1.630000e-06	4.065669e-06	4.849313e-12	2.914469e+01	1.186858e-01
1.640000e-06	4.068200e-06	-3.681937e-13	2.916283e+01	7.427866e-02
1.650000e-06	4.069095e-06	-1.906097e-12	2.916925e+01	2.839454e-02
1.660000e-06	4.068541e-06	-4.221108e-13	2.916527e+01	-1.052237e-02
1.670000e-06	4.066724e-06	2.054810e-12	2.915225e+01	-3.466310e-02
1.680000e-06	4.063611e-06	6.946741e-13	2.912994e+01	-3.795784e-02
1.690000e-06	4.059363e-06	-1.443766e-12	2.909948e+01	-1.695641e-02
1.700000e-06	4.053887e-06	6.573070e-13	2.906023e+01	2.865222e-02
1.710000e-06	4.046839e-06	5.210332e-12	2.900971e+01	9.596998e-02
1.720000e-06	4.038410e-06	9.305709e-12	2.894928e+01	1.792945e-01
1.730000e-06	4.028892e-06	4.885225e-12	2.888105e+01	2.709540e-01
1.740000e-06	4.018174e-06	-1.417437e-11	2.880422e+01	3.624636e-01
1.750000e-06	4.005805e-06	3.202981e-11	2.871555e+01	4.458417e-01
1.760000e-06	3.991149e-06	4.425600e-11	2.861049e+01	5.148983e-01
1.770000e-06	3.974248e-06	6.085933e-11	2.848933e+01	5.663038e-01
1.780000e-06	3.955994e-06	-1.493008e-11	2.835848e+01	6.002720e-01
1.790000e-06	3.937296e-06	-8.211407e-11	2.822444e+01	6.207439e-01
1.800000e-06	3.917899e-06	9.426909e-11	2.808540e+01	6.350251e-01
1.810000e-06	3.896610e-06	5.697070e-11	2.793279e+01	6.529079e-01
1.820000e-06	3.873573e-06	-5.192253e-11	2.776765e+01	6.853839e-01
1.830000e-06	3.849648e-06	6.106240e-11	2.759614e+01	7.431132e-01
1.840000e-06	3.824434e-06	-9.713327e-12	2.741539e+01	8.348569e-01
1.850000e-06	3.797638e-06	-6.206356e-11	2.722332e+01	9.660888e-01
1.860000e-06	3.769689e-06	1.371337e-10	2.702296e+01	1.137983e+00
1.870000e-06	3.740529e-06	4.276923e-11	2.681393e+01	1.346928e+00
1.880000e-06	3.709847e-06	-1.340862e-10	2.659399e+01	1.584646e+00
1.890000e-06	3.677665e-06	9.397239e-12	2.636328e+01	1.838919e+00
1.900000e-06	3.644039e-06	6.374174e-11	2.612224e+01	2.094833e+00
1.910000e-06	3.609293e-06	6.967850e-11	2.587316e+01	2.336396e+00
1.920000e-06	3.573509e-06	8.581998e-11	2.561665e+01	2.548315e+00
1.930000e-06	3.536334e-06	-7.083644e-11	2.535016e+01	2.717704e+00
1.940000e-06	3.497742e-06	6.821327e-12	2.507351e+01	2.835514e+00
1.950000e-06	3.457744e-06	9.695527e-11	2.478679e+01	2.897487e+00
1.960000e-06	3.416426e-06	3.788856e-11	2.449060e+01	2.904533e+00
1.970000e-06	3.373971e-06	1.159910e-10	2.418626e+01	2.862468e+00
1.980000e-06	3.330427e-06	8.325314e-13	2.387412e+01	2.781174e+00
1.990000e-06	3.285960e-06	-8.500763e-11	2.355535e+01	2.673291e+00
2.000000e-06	3.240339e-06	9.659110e-11	2.322832e+01	2.552614e+00
2.010000e-06	3.193320e-06	1.277282e-10	2.289127e+01	2.432427e+00
2.020000e-06	3.145251e-06	4.112149e-11	2.254669e+01	2.323961e+00
2.030000e-06	3.096072e-06	-5.684702e-11	2.219415e+01	2.235206e+00
2.040000e-06	3.045616e-06	-3.460803e-11	2.183245e+01	2.170183e+00
2.050000e-06	2.994025e-06	1.256703e-10	2.146263e+01	2.128778e+00
2.060000e-06	2.941347e-06	1.079460e-10	2.108500e+01	2.107120e+00
2.070000e-06	2.887473e-06	6.402854e-12	2.069880e+01	2.098438e+00
2.080000e-06	2.832232e-06	-6.025655e-11	2.030281e+01	2.094249e+00
2.090000e-06	2.775852e-06	-6.673332e-12	1.989865e+01	2.085711e+00
2.100000e-06	2.718623e-06	1.334806e-10	1.948841e+01	2.064941e+00
2.110000e-06	2.660492e-06	8.856542e-11	1.907170e+01	2.026129e+00
2.120000e-06	2.601458e-06	-1.872509e-11	1.864852e+01	1.966296e+00
2.130000e-06	2.541648e-06	-6.231399e-11	1.821976e+01	1.885628e+00
2.140000e-06	2.481104e-06	1.668926e-11	1.778576e+01	1.787339e+00
2.150000e-06	2.419511e-06	1.329132e-10	1.734423e+01	1.677129e+00
2.160000e-06	2.356665e-06	5.615624e-11	1.689372e+01	1.562329e+00
2.170000e-06	2.292891e-06	-4.714324e-11	1.643656e+01	1.450866e+00
2.180000e-06	2.228448e-06	-3.999728e-11	1.597460e+01	1.350205e+00
2.190000e-06	2.163252e-06	5.378201e-11	1.550724e+01	1.266422e+00
2.200000e-06	2.097246e-06	1.039920e-10	1.503408e+01	1.203521e+00
2.210000e-06	2.030427e-06	1.667141e-11	1.455509e+01	1.163085e+00
2.220000e-06	1.962887e-06	-4.692801e-11	1.407093e+01	1.144273e+00
2.230000e-06	1.894805e-06	-1.027595e-11	1.358288e+01	1.144149e+00
2.240000e-06	1.826224e-06	6.904504e-11	1.309126e+01	1.158269e+00
2.250000e-06	1.756900e-06	7.692383e-11	1.259431e+01	1.181411e+00
2.260000e-06	1.686619e-06	-2.951741e-12	1.209050e+01	1.208344e+00
2.270000e-06	1.615478e-06	-3.381239e-11	1.158053e+01	1.234512e+00
2.280000e-06	1.543639e-06	1.583563e-11	1.106556e+01	1.256537e+00
2.290000e-06	1.471334e-06	7.145059e-11	1.054723e+01	1.272492e+00
2.300000e-06	1.398665e-06	5.164187e-11	1.002631e+01	1.281914e+00
2.310000e-06	1.325618e-06	-7.446245e-12	9.502673e+00	1.285593e+00
2.320000e-06	1.252162e-06	-1.044239e-11	8.976103e+00	1.285182e+00
2.330000e-06	1.178236e-06	2.917594e-11	8.446169e+00	1.282724e+00
2.340000e-06	1.103865e-06	5.781235e-11	7.913043e+00	1.280166e+00
2.350000e-06	1.029109e-06	3.666465e-11	7.377153e+00	1.278972e+00
2.360000e-06	9.539981e-07	-4.432413e-13	6.838721e+00	1.279860e+00
2.370000e-06	8.785606e-07	-9.289489e-13	6.297948e+00	1.282735e+00
2.380000e-06	8.028813e-07	2.620440e-11	5.755442e+00	1.286783e+00
2.390000e-06	7.270044e-07	4.413447e-11	5.211520e+00	1.290718e+00
2.400000e-06	6.509636e-07	2.550899e-11	4.666423e+00	1.293114e+00
2.410000e-06	5.747399e-07	3.624000e-12	4.120014e+00	1.292751e+00
2.420000e-06	4.981918e-07	9.174772e-12	3.571280e+00	1.288905e+00
2.430000e-06	4.213678e-07	2.678010e-11	3.020569e+00	1.281535e+00
2.440000e-06	3.444111e-07	3.275517e-11	2.468906e+00	1.271306e+00
2.450000e-06	2.672622e-07	1.991518e-11	1.915865e+00	1.259471e+00
2.460000e-06	1.898648e-07	4.635062e-12	1.361043e+00	1.247613e+00
2.470000e-06	1.123324e-07	3.720630e-12	8.052528e-01	1.237298e+00
2.480000e-06	3.475259e-08	1.786582e-11	2.491234e-01	1.229720e+00
2.490000e-06	-4.287437e-08	2.777804e-11	-3.073443e-01	1.225375e+00
2.500000e-06	-1.204640e-07	1.810988e-11	-8.635446e-01	1.223868e+00
2.510000e-06	-1.979879e-07	2.866195e-12	-1.419273e+00	1.223854e+00
2.520000e-06	-2.754252e-07	7.089585e-12	-1.974382e+00	1.223161e+00
2.530000e-06	-3.526576e-07	2.558840e-11	-2.528021e+00	1.219069e+00
2.540000e-06	-4.296461e-07	3.035924e-11	-3.079912e+00	1.208707e+00
2.550000e-06	-5.064626e-07	1.337009e-11	-3.630569e+00	1.189497e+00
2.560000e-06	-5.830953e-07	-2.151653e-12	-4.179910e+00	1.159593e+00
2.570000e-06	-6.594732e-07	3.941844e-12	-4.727424e+00	1.118212e+00
2.580000e-06	-7.356198e-07	1.823853e-11	-5.273280e+00	1.065825e+00
2.590000e-06	-8.114900e-07	1.641221e-11	-5.817154e+00	1.004156e+00
2.600000e-06	-8.871153e-07	1.092397e-12	-6.359273e+00	9.359828e-01
2.610000e-06	-9.624293e-07	-4.903584e-12	-6.899160e+00	8.647830e-01
2.620000e-06	-1.037289e-06	4.699785e-12	-7.435793e+00	7.942529e-01
2.630000e-06	-1.111688e-06	1.329516e-11	-7.969121e+00	7.277942e-01
2.640000e-06	-1.185644e-06	6.785440e-12	-8.499270e+00	6.680383e-01
2.650000e-06	-1.259217e-06	-6.565343e-12	-9.026682e+00	6.164865e-01
2.660000e-06	-1.332361e-06	-8.426918e-12	-9.551008e+00	5.733256e-01
2.670000e-06	-1.405055e-06	4.632584e-13	-1.007212e+01	5.374469e-01
2.680000e-06	-1.477352e-06	3.598325e-12	-1.059037e+01	5.066687e-01
2.690000e-06	-1.549285e-06	-3.659405e-12	-1.110603e+01	4.781274e-01
2.700000e-06	-1.620734e-06	-8.522830e-12	-1.161821e+01	4.487741e-01
2.710000e-06	-1.691425e-06	-4.267988e-12	-1.212495e+01	4.158991e-01
2.720000e-06	-1.761162e-06	9.686466e-14	-1.262486e+01	3.775988e-01
2.730000e-06	-1.829973e-06	-3.176526e-12	-1.311813e+01	3.331095e-01
2.740000e-06	-1.898160e-06	-9.360291e-12	-1.360693e+01	2.829545e-01
2.750000e-06	-1.965855e-06	-1.126720e-11	-1.409220e+01	2.288777e-01
2.760000e-06	-2.032906e-06	-1.101420e-11	-1.457286e+01	1.735763e-01
2.770000e-06	-2.099235e-06	-1.293534e-11	-1.504833e+01	1.202718e-01
2.780000e-06	-2.164873e-06	-1.614531e-11	-1.551886e+01	7.219012e-02
2.790000e-06	-2.229833e-06	-1.599116e-11	-1.598452e+01	3.203305e-02
2.800000e-06	-2.294117e-06	-1.334743e-11	-1.644534e+01	1.528239e-03
2.810000e-06	-2.357692e-06	-1.365898e-11	-1.690108e+01	-1.886970e-02
2.820000e-06	-2.420233e-06	-1.774970e-11	-1.734940e+01	-3.007662e-02
2.830000e-06	-2.481603e-06	-1.988062e-11	-1.778934e+01	-3.425721e-02
2.840000e-06	-2.542074e-06	-1.865938e-11	-1.822282e+01	-3.450189e-02
2.850000e-06	-2.601815e-06	-2.055695e-11	-1.865107e+01	-3.435218e-02
2.860000e-06	-2.660720e-06	-2.749920e-11	-1.907333e+01	-3.724931e-02
2.870000e-06	-2.718683e-06	-3.122413e-11	-1.948884e+01	-4.599341e-02
2.880000e-06	-2.775712e-06	-2.625663e-11	-1.989765e+01	-6.229936e-02
2.890000e-06	-2.831876e-06	-2.086983e-11	-2.030026e+01	-8.652025e-02
2.900000e-06	-2.887027e-06	-2.139565e-11	-2.069561e+01	-1.175824e-01
2.910000e-06	-2.940770e-06	-2.445320e-11	-2.108086e+01	-1.531426e-01
2.920000e-06	-2.993146e-06	-2.435794e-11	-2.145633e+01	-1.899412e-01
2.930000e-06	-3.044389e-06	-2.053986e-11	-2.182366e+01	-2.242955e-01
2.940000e-06	-3.094369e-06	-1.960619e-11	-2.218194e+01	-2.526526e-01
