# Temperatura_=_20.0
# Concentracion g/m^3_=_12600.0
# C_Vs_to_Am_M_A/Vsm_=_65563218390.804596
# pendiente_HvsI_1/m_=_3716.3
# ordenada_HvsI_A/m_=_1297.0
# frecuencia_Hz_=_301593.22601174325

Tiempo_(s)	Campo_(V.s)	Magnetizacion_(V.s)	Campo_(kA/m)	Magnetizacion_(A/m)
0.000000e+00	-4.046453e-06	-4.239250e-09	-2.908592e+01	-2.787703e+02
1.000000e-08	-4.044684e-06	-4.242892e-09	-2.907321e+01	-2.787050e+02
2.000000e-08	-4.041395e-06	-4.238241e-09	-2.904957e+01	-2.785665e+02
3.000000e-08	-4.036955e-06	-4.230385e-09	-2.901765e+01	-2.783488e+02
4.000000e-08	-4.031291e-06	-4.223682e-09	-2.897694e+01	-2.780465e+02
5.000000e-08	-4.024332e-06	-4.217938e-09	-2.892691e+01	-2.776558e+02
6.000000e-08	-4.016227e-06	-4.209329e-09	-2.886866e+01	-2.771755e+02
7.000000e-08	-4.006758e-06	-4.192428e-09	-2.880060e+01	-2.766079e+02
8.000000e-08	-3.995622e-06	-4.187605e-09	-2.872055e+01	-2.759587e+02
9.000000e-08	-3.982734e-06	-4.223566e-09	-2.862791e+01	-2.752375e+02
1.000000e-07	-3.967717e-06	-4.234989e-09	-2.851996e+01	-2.744563e+02
1.100000e-07	-3.950706e-06	-4.205149e-09	-2.839769e+01	-2.736290e+02
1.200000e-07	-3.932430e-06	-4.113808e-09	-2.826632e+01	-2.727694e+02
1.300000e-07	-3.913268e-06	-4.040719e-09	-2.812859e+01	-2.718904e+02
1.400000e-07	-3.893225e-06	-4.158339e-09	-2.798452e+01	-2.710014e+02
1.500000e-07	-3.872140e-06	-4.186105e-09	-2.783296e+01	-2.701082e+02
1.600000e-07	-3.850081e-06	-4.060681e-09	-2.767440e+01	-2.692114e+02
1.700000e-07	-3.826722e-06	-4.066724e-09	-2.750649e+01	-2.683064e+02
1.800000e-07	-3.801371e-06	-4.013458e-09	-2.732427e+01	-2.673838e+02
1.900000e-07	-3.774420e-06	-3.977634e-09	-2.713055e+01	-2.664301e+02
2.000000e-07	-3.746554e-06	-4.132929e-09	-2.693025e+01	-2.654294e+02
2.100000e-07	-3.717484e-06	-4.071200e-09	-2.672129e+01	-2.643646e+02
2.200000e-07	-3.687058e-06	-3.900805e-09	-2.650259e+01	-2.632194e+02
2.300000e-07	-3.655509e-06	-3.974820e-09	-2.627582e+01	-2.619799e+02
2.400000e-07	-3.622702e-06	-4.014065e-09	-2.604000e+01	-2.606356e+02
2.500000e-07	-3.588372e-06	-3.971144e-09	-2.579324e+01	-2.591805e+02
2.600000e-07	-3.552531e-06	-3.935023e-09	-2.553561e+01	-2.576132e+02
2.700000e-07	-3.515342e-06	-3.821134e-09	-2.526829e+01	-2.559366e+02
2.800000e-07	-3.476993e-06	-3.844232e-09	-2.499264e+01	-2.541571e+02
2.900000e-07	-3.437626e-06	-3.905204e-09	-2.470967e+01	-2.522835e+02
3.000000e-07	-3.397049e-06	-3.799847e-09	-2.441800e+01	-2.503253e+02
3.100000e-07	-3.354916e-06	-3.756434e-09	-2.411515e+01	-2.482920e+02
3.200000e-07	-3.311395e-06	-3.770249e-09	-2.380232e+01	-2.461912e+02
3.300000e-07	-3.266771e-06	-3.700282e-09	-2.348157e+01	-2.440283e+02
3.400000e-07	-3.220966e-06	-3.668906e-09	-2.315232e+01	-2.418058e+02
3.500000e-07	-3.174005e-06	-3.676583e-09	-2.281476e+01	-2.395234e+02
3.600000e-07	-3.125886e-06	-3.616242e-09	-2.246888e+01	-2.371786e+02
3.700000e-07	-3.076354e-06	-3.551405e-09	-2.211285e+01	-2.347673e+02
3.800000e-07	-3.025336e-06	-3.533781e-09	-2.174613e+01	-2.322850e+02
3.900000e-07	-2.973077e-06	-3.504203e-09	-2.137049e+01	-2.297278e+02
4.000000e-07	-2.919782e-06	-3.470997e-09	-2.098740e+01	-2.270931e+02
4.100000e-07	-2.865437e-06	-3.449945e-09	-2.059677e+01	-2.243802e+02
4.200000e-07	-2.810181e-06	-3.378382e-09	-2.019959e+01	-2.215908e+02
4.300000e-07	-2.754178e-06	-3.307134e-09	-1.979705e+01	-2.187288e+02
4.400000e-07	-2.697057e-06	-3.295154e-09	-1.938645e+01	-2.157996e+02
4.500000e-07	-2.638595e-06	-3.281315e-09	-1.896623e+01	-2.128093e+02
4.600000e-07	-2.579192e-06	-3.224190e-09	-1.853925e+01	-2.097641e+02
4.700000e-07	-2.519064e-06	-3.123985e-09	-1.810704e+01	-2.066692e+02
4.800000e-07	-2.458096e-06	-3.059898e-09	-1.766880e+01	-2.035279e+02
4.900000e-07	-2.396282e-06	-3.074280e-09	-1.722448e+01	-2.003411e+02
5.000000e-07	-2.333654e-06	-3.066219e-09	-1.677432e+01	-1.971072e+02
5.100000e-07	-2.270316e-06	-2.972433e-09	-1.631904e+01	-1.938221e+02
5.200000e-07	-2.206275e-06	-2.867830e-09	-1.585871e+01	-1.904798e+02
5.300000e-07	-2.141207e-06	-2.835306e-09	-1.539100e+01	-1.870731e+02
5.400000e-07	-2.074923e-06	-2.842463e-09	-1.491455e+01	-1.835945e+02
5.500000e-07	-2.007786e-06	-2.803207e-09	-1.443197e+01	-1.800370e+02
5.600000e-07	-1.940177e-06	-2.695319e-09	-1.394600e+01	-1.763950e+02
5.700000e-07	-1.872013e-06	-2.597373e-09	-1.345604e+01	-1.726649e+02
5.800000e-07	-1.803188e-06	-2.574622e-09	-1.296132e+01	-1.688454e+02
5.900000e-07	-1.733749e-06	-2.570874e-09	-1.246220e+01	-1.649371e+02
6.000000e-07	-1.663655e-06	-2.498955e-09	-1.195836e+01	-1.609429e+02
6.100000e-07	-1.592905e-06	-2.382132e-09	-1.144981e+01	-1.568667e+02
6.200000e-07	-1.521656e-06	-2.304806e-09	-1.093767e+01	-1.527132e+02
6.300000e-07	-1.450008e-06	-2.283224e-09	-1.042266e+01	-1.484871e+02
6.400000e-07	-1.377933e-06	-2.249826e-09	-9.904591e+00	-1.441921e+02
6.500000e-07	-1.305303e-06	-2.159556e-09	-9.382526e+00	-1.398312e+02
6.600000e-07	-1.232078e-06	-2.055099e-09	-8.856184e+00	-1.354058e+02
6.700000e-07	-1.158102e-06	-1.989852e-09	-8.324439e+00	-1.309160e+02
6.800000e-07	-1.083454e-06	-1.955229e-09	-7.787869e+00	-1.263609e+02
6.900000e-07	-1.008375e-06	-1.901975e-09	-7.248206e+00	-1.217389e+02
7.000000e-07	-9.329591e-07	-1.809765e-09	-6.706114e+00	-1.170485e+02
7.100000e-07	-8.572714e-07	-1.712427e-09	-6.162071e+00	-1.122882e+02
7.200000e-07	-7.812517e-07	-1.644049e-09	-5.615641e+00	-1.074575e+02
7.300000e-07	-7.050172e-07	-1.592040e-09	-5.067667e+00	-1.025567e+02
7.400000e-07	-6.286167e-07	-1.520723e-09	-4.518500e+00	-9.758736e+01
7.500000e-07	-5.519771e-07	-1.426547e-09	-3.967614e+00	-9.255164e+01
7.600000e-07	-4.750863e-07	-1.335739e-09	-3.414923e+00	-8.745231e+01
7.700000e-07	-3.979692e-07	-1.263094e-09	-2.860604e+00	-8.229222e+01
7.800000e-07	-3.207386e-07	-1.198345e-09	-2.305470e+00	-7.707378e+01
7.900000e-07	-2.435014e-07	-1.125976e-09	-1.750289e+00	-7.179862e+01
8.000000e-07	-1.662098e-07	-1.038888e-09	-1.194716e+00	-6.646731e+01
8.100000e-07	-8.879366e-08	-9.424220e-10	-6.382492e-01	-6.107923e+01
8.200000e-07	-1.126743e-08	-8.563506e-10	-8.099031e-02	-5.563274e+01
8.300000e-07	6.630716e-08	-7.871150e-10	4.766162e-01	-5.012542e+01
8.400000e-07	1.438031e-07	-7.138641e-10	1.033657e+00	-4.455454e+01
8.500000e-07	2.212144e-07	-6.171349e-10	1.590090e+00	-3.891755e+01
8.600000e-07	2.986004e-07	-5.102651e-10	2.146341e+00	-3.321256e+01
8.700000e-07	3.759725e-07	-4.219144e-10	2.702492e+00	-2.743875e+01
8.800000e-07	4.532736e-07	-3.523908e-10	3.258132e+00	-2.159663e+01
8.900000e-07	5.303656e-07	-2.722921e-10	3.812270e+00	-1.568805e+01
9.000000e-07	6.072077e-07	-1.681842e-10	4.364611e+00	-9.716108e+00
9.100000e-07	6.838238e-07	-6.003109e-11	4.915328e+00	-3.684826e+00
9.200000e-07	7.602326e-07	2.608593e-11	5.464555e+00	2.401277e+00
9.300000e-07	8.363930e-07	9.913062e-11	6.011996e+00	8.537631e+00
9.400000e-07	9.121901e-07	1.915275e-10	6.556826e+00	1.472003e+01
9.500000e-07	9.876402e-07	3.042832e-10	7.099162e+00	2.094490e+01
9.600000e-07	1.062799e-06	4.092951e-10	7.639403e+00	2.720944e+01
9.700000e-07	1.137516e-06	4.927472e-10	8.176467e+00	3.351155e+01
9.800000e-07	1.211550e-06	5.742223e-10	8.708630e+00	3.984949e+01
9.900000e-07	1.284721e-06	6.768392e-10	9.234580e+00	4.622153e+01
1.000000e-06	1.357154e-06	7.921556e-10	9.755229e+00	5.262540e+01
1.010000e-06	1.429152e-06	8.936632e-10	1.027275e+01	5.905778e+01
1.020000e-06	1.500808e-06	9.781245e-10	1.078781e+01	6.551389e+01
1.030000e-06	1.571978e-06	1.069424e-09	1.129938e+01	7.198721e+01
1.040000e-06	1.642538e-06	1.178683e-09	1.180657e+01	7.846942e+01
1.050000e-06	1.712557e-06	1.288960e-09	1.230986e+01	8.495056e+01
1.060000e-06	1.782036e-06	1.383418e-09	1.280928e+01	9.141940e+01
1.070000e-06	1.850846e-06	1.471305e-09	1.330389e+01	9.786393e+01
1.080000e-06	1.919001e-06	1.568153e-09	1.379379e+01	1.042720e+02
1.090000e-06	1.986671e-06	1.672868e-09	1.428020e+01	1.106319e+02
1.100000e-06	2.053826e-06	1.772485e-09	1.476291e+01	1.169329e+02
1.110000e-06	2.120128e-06	1.862244e-09	1.523949e+01	1.231653e+02
1.120000e-06	2.185310e-06	1.951653e-09	1.570802e+01	1.293210e+02
1.130000e-06	2.249514e-06	2.049717e-09	1.616951e+01	1.353931e+02
1.140000e-06	2.313084e-06	2.149649e-09	1.662646e+01	1.413758e+02
1.150000e-06	2.376044e-06	2.242036e-09	1.707901e+01	1.472635e+02
1.160000e-06	2.438205e-06	2.328427e-09	1.752583e+01	1.530510e+02
1.170000e-06	2.499547e-06	2.413378e-09	1.796676e+01	1.587326e+02
1.180000e-06	2.560080e-06	2.497078e-09	1.840187e+01	1.643019e+02
1.190000e-06	2.619926e-06	2.577753e-09	1.883204e+01	1.697516e+02
1.200000e-06	2.679036e-06	2.657007e-09	1.925692e+01	1.750739e+02
1.210000e-06	2.736943e-06	2.736414e-09	1.967316e+01	1.802602e+02
1.220000e-06	2.793507e-06	2.814216e-09	2.007974e+01	1.853023e+02
1.230000e-06	2.849104e-06	2.889430e-09	2.047937e+01	1.901927e+02
1.240000e-06	2.903835e-06	2.963516e-09	2.087278e+01	1.949251e+02
1.250000e-06	2.957553e-06	3.037013e-09	2.125890e+01	1.994953e+02
1.260000e-06	3.010260e-06	3.108064e-09	2.163776e+01	2.039015e+02
1.270000e-06	3.061818e-06	3.171615e-09	2.200836e+01	2.081442e+02
1.280000e-06	3.111868e-06	3.229867e-09	2.236812e+01	2.122266e+02
1.290000e-06	3.160368e-06	3.289201e-09	2.271674e+01	2.161539e+02
1.300000e-06	3.207616e-06	3.349456e-09	2.305636e+01	2.199326e+02
1.310000e-06	3.253710e-06	3.405456e-09	2.338768e+01	2.235702e+02
1.320000e-06	3.298693e-06	3.455854e-09	2.371102e+01	2.270742e+02
1.330000e-06	3.342677e-06	3.505879e-09	2.402718e+01	2.304511e+02
1.340000e-06	3.385595e-06	3.559164e-09	2.433567e+01	2.337064e+02
1.350000e-06	3.427037e-06	3.610990e-09	2.463356e+01	2.368439e+02
1.360000e-06	3.467065e-06	3.656235e-09	2.492128e+01	2.398656e+02
1.370000e-06	3.506051e-06	3.697492e-09	2.520151e+01	2.427720e+02
1.380000e-06	3.543914e-06	3.739874e-09	2.547367e+01	2.455624e+02
1.390000e-06	3.580573e-06	3.783160e-09	2.573717e+01	2.482358e+02
1.400000e-06	3.616107e-06	3.823658e-09	2.599259e+01	2.507907e+02
1.410000e-06	3.650259e-06	3.859718e-09	2.623808e+01	2.532263e+02
1.420000e-06	3.682856e-06	3.894255e-09	2.647238e+01	2.555427e+02
1.430000e-06	3.714209e-06	3.929032e-09	2.669775e+01	2.577408e+02
1.440000e-06	3.744395e-06	3.962137e-09	2.691473e+01	2.598227e+02
1.450000e-06	3.773342e-06	3.992902e-09	2.712280e+01	2.617911e+02
1.460000e-06	3.801138e-06	4.021387e-09	2.732260e+01	2.636490e+02
1.470000e-06	3.827547e-06	4.047964e-09	2.751242e+01	2.653993e+02
1.480000e-06	3.852324e-06	4.071500e-09	2.769052e+01	2.670443e+02
1.490000e-06	3.875686e-06	4.092247e-09	2.785845e+01	2.685854e+02
1.500000e-06	3.897733e-06	4.112542e-09	2.801692e+01	2.700228e+02
1.510000e-06	3.918504e-06	4.133264e-09	2.816622e+01	2.713557e+02
1.520000e-06	3.938160e-06	4.152277e-09	2.830751e+01	2.725827e+02
1.530000e-06	3.956530e-06	4.169170e-09	2.843956e+01	2.737020e+02
1.540000e-06	3.973333e-06	4.186835e-09	2.856034e+01	2.747122e+02
1.550000e-06	3.988590e-06	4.204352e-09	2.867000e+01	2.756129e+02
1.560000e-06	4.002410e-06	4.217770e-09	2.876934e+01	2.764051e+02
1.570000e-06	4.014755e-06	4.225754e-09	2.885807e+01	2.770917e+02
1.580000e-06	4.025408e-06	4.231416e-09	2.893465e+01	2.776772e+02
1.590000e-06	4.034288e-06	4.237766e-09	2.899848e+01	2.781679e+02
1.600000e-06	4.041648e-06	4.243566e-09	2.905138e+01	2.785709e+02
1.610000e-06	4.047676e-06	4.247289e-09	2.909471e+01	2.788938e+02
1.620000e-06	4.052395e-06	4.250018e-09	2.912863e+01	2.791434e+02
1.630000e-06	4.055843e-06	4.254617e-09	2.915342e+01	2.793252e+02
1.640000e-06	4.057750e-06	4.261540e-09	2.916712e+01	2.794426e+02
1.650000e-06	4.058046e-06	4.265321e-09	2.916925e+01	2.794965e+02
1.660000e-06	4.057006e-06	4.263210e-09	2.916177e+01	2.794851e+02
1.670000e-06	4.054712e-06	4.258159e-09	2.914529e+01	2.794046e+02
1.680000e-06	4.051220e-06	4.255068e-09	2.912019e+01	2.792496e+02
1.690000e-06	4.046528e-06	4.251930e-09	2.908646e+01	2.790141e+02
1.700000e-06	4.040395e-06	4.245891e-09	2.904238e+01	2.786931e+02
1.710000e-06	4.032788e-06	4.237328e-09	2.898770e+01	2.782832e+02
1.720000e-06	4.023993e-06	4.234513e-09	2.892448e+01	2.777839e+02
1.730000e-06	4.014090e-06	4.236858e-09	2.885329e+01	2.771981e+02
1.740000e-06	4.002893e-06	4.187541e-09	2.877281e+01	2.765326e+02
1.750000e-06	3.989696e-06	4.138073e-09	2.867795e+01	2.757974e+02
1.760000e-06	3.973983e-06	4.133615e-09	2.856500e+01	2.750051e+02
1.770000e-06	3.956360e-06	4.196048e-09	2.843833e+01	2.741697e+02
1.780000e-06	3.937946e-06	4.268646e-09	2.830598e+01	2.733049e+02
1.790000e-06	3.919274e-06	4.138322e-09	2.817176e+01	2.724230e+02
1.800000e-06	3.899392e-06	4.055160e-09	2.802885e+01	2.715329e+02
1.810000e-06	3.877317e-06	4.152699e-09	2.787017e+01	2.706390e+02
1.820000e-06	3.853887e-06	4.107242e-09	2.770175e+01	2.697409e+02
1.830000e-06	3.829639e-06	4.128563e-09	2.752746e+01	2.688331e+02
1.840000e-06	3.803836e-06	4.180826e-09	2.734199e+01	2.679050e+02
1.850000e-06	3.776645e-06	3.990451e-09	2.714654e+01	2.669426e+02
1.860000e-06	3.748432e-06	3.993046e-09	2.694374e+01	2.659296e+02
1.870000e-06	3.718786e-06	4.169644e-09	2.673065e+01	2.648488e+02
1.880000e-06	3.687664e-06	4.068959e-09	2.650695e+01	2.636845e+02
1.890000e-06	3.655080e-06	3.989877e-09	2.627273e+01	2.624232e+02
1.900000e-06	3.621077e-06	4.008815e-09	2.602832e+01	2.610555e+02
1.910000e-06	3.586112e-06	3.939971e-09	2.577699e+01	2.595763e+02
1.920000e-06	3.550063e-06	4.002040e-09	2.551787e+01	2.579852e+02
1.930000e-06	3.512396e-06	3.956462e-09	2.524711e+01	2.562859e+02
1.940000e-06	3.473187e-06	3.849085e-09	2.496528e+01	2.544854e+02
1.950000e-06	3.432680e-06	3.938493e-09	2.467412e+01	2.525928e+02
1.960000e-06	3.391066e-06	3.850441e-09	2.437500e+01	2.506177e+02
1.970000e-06	3.348358e-06	3.743213e-09	2.406801e+01	2.485693e+02
1.980000e-06	3.304600e-06	3.828994e-09	2.375348e+01	2.464549e+02
1.990000e-06	3.259920e-06	3.779084e-09	2.343232e+01	2.442791e+02
2.000000e-06	3.213924e-06	3.690281e-09	2.310170e+01	2.420438e+02
2.010000e-06	3.166671e-06	3.644814e-09	2.276204e+01	2.397483e+02
2.020000e-06	3.118399e-06	3.623335e-09	2.241506e+01	2.373896e+02
2.030000e-06	3.068860e-06	3.641886e-09	2.205898e+01	2.349634e+02
2.040000e-06	3.018092e-06	3.576861e-09	2.169406e+01	2.324654e+02
2.050000e-06	2.966291e-06	3.508927e-09	2.132171e+01	2.298917e+02
2.060000e-06	2.913377e-06	3.447236e-09	2.094137e+01	2.272401e+02
2.070000e-06	2.859097e-06	3.426229e-09	2.055120e+01	2.245106e+02
2.080000e-06	2.803500e-06	3.453661e-09	2.015157e+01	2.217053e+02
2.090000e-06	2.746981e-06	3.368678e-09	1.974531e+01	2.188283e+02
2.100000e-06	2.689573e-06	3.266123e-09	1.933267e+01	2.158854e+02
2.110000e-06	2.631150e-06	3.209267e-09	1.891272e+01	2.128829e+02
2.120000e-06	2.571872e-06	3.218076e-09	1.848663e+01	2.098266e+02
2.130000e-06	2.511931e-06	3.237438e-09	1.805577e+01	2.067216e+02
2.140000e-06	2.451284e-06	3.114533e-09	1.761984e+01	2.035705e+02
2.150000e-06	2.389473e-06	3.004808e-09	1.717554e+01	2.003738e+02
2.160000e-06	2.326341e-06	2.991947e-09	1.672175e+01	1.971293e+02
2.170000e-06	2.262363e-06	2.998246e-09	1.626187e+01	1.938325e+02
2.180000e-06	2.197778e-06	2.957479e-09	1.579764e+01	1.904770e+02
2.190000e-06	2.132432e-06	2.835801e-09	1.532793e+01	1.870555e+02
2.200000e-06	2.066272e-06	2.754477e-09	1.485237e+01	1.835605e+02
2.210000e-06	1.999404e-06	2.743583e-09	1.437172e+01	1.799853e+02
2.220000e-06	1.931877e-06	2.733409e-09	1.388634e+01	1.763246e+02
2.230000e-06	1.863752e-06	2.660673e-09	1.339666e+01	1.725754e+02
2.240000e-06	1.795045e-06	2.540686e-09	1.290279e+01	1.687367e+02
2.250000e-06	1.725531e-06	2.480998e-09	1.240313e+01	1.648097e+02
2.260000e-06	1.655050e-06	2.466614e-09	1.189651e+01	1.607975e+02
2.270000e-06	1.583757e-06	2.427390e-09	1.138405e+01	1.567043e+02
2.280000e-06	1.511903e-06	2.332788e-09	1.086756e+01	1.525348e+02
2.290000e-06	1.439647e-06	2.228044e-09	1.034819e+01	1.482936e+02
2.300000e-06	1.366974e-06	2.175180e-09	9.825814e+00	1.439843e+02
2.310000e-06	1.293872e-06	2.141287e-09	9.300357e+00	1.396094e+02
2.320000e-06	1.220385e-06	2.083441e-09	8.772132e+00	1.351702e+02
2.330000e-06	1.146490e-06	1.989481e-09	8.240975e+00	1.306665e+02
2.340000e-06	1.072177e-06	1.896234e-09	7.706814e+00	1.260972e+02
2.350000e-06	9.975043e-07	1.839419e-09	7.170065e+00	1.214607e+02
2.360000e-06	9.224672e-07	1.794381e-09	6.630698e+00	1.167554e+02
2.370000e-06	8.470973e-07	1.725360e-09	6.088939e+00	1.119800e+02
2.380000e-06	7.715091e-07	1.628172e-09	5.545611e+00	1.071341e+02
2.390000e-06	6.957457e-07	1.538153e-09	5.001023e+00	1.022185e+02
2.400000e-06	6.197441e-07	1.471900e-09	4.454723e+00	9.723468e+01
2.410000e-06	5.434852e-07	1.411732e-09	3.906574e+00	9.218506e+01
2.420000e-06	4.670427e-07	1.338093e-09	3.357105e+00	8.707245e+01
2.430000e-06	3.904731e-07	1.245384e-09	2.806722e+00	8.189965e+01
2.440000e-06	3.136990e-07	1.151948e-09	2.254870e+00	7.666892e+01
2.450000e-06	2.366902e-07	1.077129e-09	1.701330e+00	7.138170e+01
2.460000e-06	1.594807e-07	1.015614e-09	1.146348e+00	6.603828e+01
2.470000e-06	8.214843e-08	9.404696e-10	5.904833e-01	6.063783e+01
2.480000e-06	4.775869e-09	8.374849e-10	3.432897e-02	5.517850e+01
2.490000e-06	-7.263799e-08	7.342830e-10	-5.221221e-01	4.965776e+01
2.500000e-06	-1.499882e-07	6.605161e-10	-1.078116e+00	4.407289e+01
2.510000e-06	-2.273148e-07	5.973604e-10	-1.633940e+00	3.842142e+01
2.520000e-06	-3.045781e-07	5.088238e-10	-2.189309e+00	3.270169e+01
2.530000e-06	-3.816589e-07	3.965588e-10	-2.743366e+00	2.691312e+01
2.540000e-06	-4.585617e-07	2.964205e-10	-3.296144e+00	2.105653e+01
2.550000e-06	-5.352687e-07	2.243142e-10	-3.847513e+00	1.513405e+01
2.560000e-06	-6.117187e-07	1.524236e-10	-4.397037e+00	9.149000e+00
2.570000e-06	-6.878094e-07	5.234556e-11	-4.943977e+00	3.105554e+00
2.580000e-06	-7.636153e-07	-6.307893e-11	-5.488870e+00	-2.991723e+00
2.590000e-06	-8.392349e-07	-1.603302e-10	-6.032424e+00	-9.138306e+00
2.600000e-06	-9.145324e-07	-2.354801e-10	-6.573663e+00	-1.533010e+01
2.610000e-06	-9.894384e-07	-3.177711e-10	-7.112087e+00	-2.156372e+01
2.620000e-06	-1.063926e-06	-4.254432e-10	-7.647506e+00	-2.783650e+01
2.630000e-06	-1.137989e-06	-5.379208e-10	-8.179867e+00	-3.414645e+01
2.640000e-06	-1.211685e-06	-6.286557e-10	-8.709594e+00	-4.049188e+01
2.650000e-06	-1.284915e-06	-7.062768e-10	-9.235973e+00	-4.687099e+01
2.660000e-06	-1.357648e-06	-8.005797e-10	-9.758780e+00	-5.328132e+01
2.670000e-06	-1.429953e-06	-9.163355e-10	-1.027851e+01	-5.971927e+01
2.680000e-06	-1.501906e-06	-1.026602e-09	-1.079571e+01	-6.617970e+01
2.690000e-06	-1.573429e-06	-1.117061e-09	-1.130982e+01	-7.265571e+01
2.700000e-06	-1.644294e-06	-1.205012e-09	-1.181919e+01	-7.913861e+01
2.710000e-06	-1.714278e-06	-1.307066e-09	-1.232224e+01	-8.561813e+01
2.720000e-06	-1.783335e-06	-1.414345e-09	-1.281862e+01	-9.208281e+01
2.730000e-06	-1.851685e-06	-1.510046e-09	-1.330992e+01	-9.852058e+01
2.740000e-06	-1.919494e-06	-1.597125e-09	-1.379733e+01	-1.049193e+02
2.750000e-06	-1.986755e-06	-1.690477e-09	-1.428080e+01	-1.112675e+02
2.760000e-06	-2.053360e-06	-1.791881e-09	-1.475956e+01	-1.175545e+02
2.770000e-06	-2.119214e-06	-1.890561e-09	-1.523292e+01	-1.237712e+02
2.780000e-06	-2.184373e-06	-1.982153e-09	-1.570129e+01	-1.299096e+02
2.790000e-06	-2.248888e-06	-2.073126e-09	-1.616501e+01	-1.359630e+02
2.800000e-06	-2.312736e-06	-2.166997e-09	-1.662396e+01	-1.419258e+02
2.810000e-06	-2.375753e-06	-2.257827e-09	-1.707693e+01	-1.477925e+02
2.820000e-06	-2.437634e-06	-2.342568e-09	-1.752172e+01	-1.535579e+02
2.830000e-06	-2.498434e-06	-2.424880e-09	-1.795876e+01	-1.592160e+02
2.840000e-06	-2.558493e-06	-2.508534e-09	-1.839046e+01	-1.647603e+02
2.850000e-06	-2.617864e-06	-2.590252e-09	-1.881722e+01	-1.701835e+02
2.860000e-06	-2.676331e-06	-2.666879e-09	-1.923748e+01	-1.754773e+02
2.870000e-06	-2.733792e-06	-2.744155e-09	-1.965051e+01	-1.806334e+02
2.880000e-06	-2.790366e-06	-2.824251e-09	-2.005716e+01	-1.856437e+02
2.890000e-06	-2.846112e-06	-2.901315e-09	-2.045786e+01	-1.905007e+02
2.900000e-06	-2.900680e-06	-2.971858e-09	-2.085010e+01	-1.951986e+02
2.910000e-06	-2.953728e-06	-3.038491e-09	-2.123141e+01	-1.997338e+02
2.920000e-06	-3.005463e-06	-3.104286e-09	-2.160328e+01	-2.041048e+02
2.930000e-06	-3.056119e-06	-3.169822e-09	-2.196740e+01	-2.083129e+02
2.940000e-06	-3.105564e-06	-3.231805e-09	-2.232281e+01	-2.123616e+02
