# Temperatura_=_20.0
# Concentracion g/m^3_=_12600.0
# C_Vs_to_Am_M_A/Vsm_=_65563218390.804596
# pendiente_HvsI_1/m_=_3716.3
# ordenada_HvsI_A/m_=_1297.0
# frecuencia_Hz_=_301607.13742070354

Tiempo_(s)	Campo_(V.s)	Magnetizacion_(V.s)	Campo_(kA/m)	Magnetizacion_(A/m)
0.000000e+00	-4.042350e-06	-1.145256e-11	-2.908106e+01	-3.072520e-02
1.000000e-08	-4.040870e-06	-1.544566e-11	-2.907041e+01	5.875889e-04
2.000000e-08	-4.037848e-06	-1.417986e-11	-2.904867e+01	4.038357e-02
3.000000e-08	-4.033603e-06	-1.102489e-11	-2.901813e+01	8.632553e-02
4.000000e-08	-4.028146e-06	-1.115791e-11	-2.897887e+01	1.351179e-01
5.000000e-08	-4.021451e-06	-1.390101e-11	-2.893071e+01	1.829157e-01
6.000000e-08	-4.013611e-06	-1.335814e-11	-2.887431e+01	2.258240e-01
7.000000e-08	-4.004340e-06	-3.931663e-12	-2.880761e+01	2.604156e-01
8.000000e-08	-3.993339e-06	-4.212104e-12	-2.872847e+01	2.841940e-01
9.000000e-08	-3.980634e-06	-2.780780e-11	-2.863707e+01	2.959331e-01
1.000000e-07	-3.965870e-06	-4.209900e-11	-2.853085e+01	2.958440e-01
1.100000e-07	-3.949075e-06	-3.472937e-11	-2.841003e+01	2.855438e-01
1.200000e-07	-3.930915e-06	9.036322e-12	-2.827938e+01	2.678292e-01
1.300000e-07	-3.911872e-06	3.363593e-11	-2.814238e+01	2.462882e-01
1.400000e-07	-3.891987e-06	-3.473371e-11	-2.799933e+01	2.248039e-01
1.500000e-07	-3.871062e-06	-4.274591e-11	-2.784879e+01	2.070244e-01
1.600000e-07	-3.849151e-06	1.241101e-11	-2.769116e+01	1.958720e-01
1.700000e-07	-3.825974e-06	-7.762027e-12	-2.752443e+01	1.931650e-01
1.800000e-07	-3.800869e-06	3.665618e-12	-2.734382e+01	1.994038e-01
1.900000e-07	-3.774132e-06	1.382565e-11	-2.715147e+01	2.137511e-01
2.000000e-07	-3.746480e-06	-6.298113e-11	-2.695254e+01	2.342064e-01
2.100000e-07	-3.717637e-06	-3.322838e-11	-2.674504e+01	2.579476e-01
2.200000e-07	-3.687335e-06	6.164378e-11	-2.652704e+01	2.817865e-01
2.300000e-07	-3.655871e-06	2.286788e-11	-2.630069e+01	3.026704e-01
2.400000e-07	-3.623203e-06	-3.298313e-11	-2.606567e+01	3.181552e-01
2.500000e-07	-3.589106e-06	-2.488094e-11	-2.582038e+01	3.267803e-01
2.600000e-07	-3.553515e-06	5.241421e-12	-2.556433e+01	3.282920e-01
2.700000e-07	-3.516546e-06	4.398669e-11	-2.529837e+01	3.236834e-01
2.800000e-07	-3.478430e-06	2.567051e-11	-2.502416e+01	3.150473e-01
2.900000e-07	-3.439291e-06	-2.414981e-11	-2.474259e+01	3.052662e-01
3.000000e-07	-3.398946e-06	-3.651080e-11	-2.445235e+01	2.975862e-01
3.100000e-07	-3.357013e-06	-1.343519e-11	-2.415067e+01	2.951386e-01
3.200000e-07	-3.313596e-06	4.043671e-11	-2.383833e+01	3.004782e-01
3.300000e-07	-3.269061e-06	4.601519e-11	-2.351794e+01	3.152063e-01
3.400000e-07	-3.223435e-06	-2.580622e-11	-2.318971e+01	3.397285e-01
3.500000e-07	-3.176714e-06	-5.642502e-11	-2.285359e+01	3.731820e-01
3.600000e-07	-3.128859e-06	7.105909e-13	-2.250931e+01	4.135372e-01
3.700000e-07	-3.079498e-06	6.307820e-11	-2.215420e+01	4.578561e-01
3.800000e-07	-3.028609e-06	3.236020e-11	-2.178811e+01	5.026676e-01
3.900000e-07	-2.976518e-06	-5.509949e-11	-2.141336e+01	5.444037e-01
4.000000e-07	-2.923344e-06	-6.175286e-11	-2.103082e+01	5.798348e-01
4.100000e-07	-2.869142e-06	2.001708e-11	-2.064089e+01	6.064452e-01
4.200000e-07	-2.814096e-06	6.171646e-11	-2.024488e+01	6.226990e-01
4.300000e-07	-2.758298e-06	-4.655178e-13	-1.984346e+01	6.281676e-01
4.400000e-07	-2.701370e-06	-7.301663e-11	-1.943391e+01	6.235079e-01
4.500000e-07	-2.643082e-06	-4.229504e-11	-1.901459e+01	6.103049e-01
4.600000e-07	-2.583806e-06	4.776373e-11	-1.858815e+01	5.908079e-01
4.700000e-07	-2.523782e-06	5.816530e-11	-1.815633e+01	5.676059e-01
4.800000e-07	-2.462950e-06	-3.103235e-11	-1.771870e+01	5.432906e-01
4.900000e-07	-2.401282e-06	-8.479228e-11	-1.727505e+01	5.201547e-01
5.000000e-07	-2.338738e-06	-2.211686e-11	-1.682511e+01	4.999643e-01
5.100000e-07	-2.275493e-06	5.216868e-11	-1.637011e+01	4.838288e-01
5.200000e-07	-2.211640e-06	2.284276e-11	-1.591075e+01	4.721770e-01
5.300000e-07	-2.146797e-06	-6.380633e-11	-1.544427e+01	4.648291e-01
5.400000e-07	-2.080744e-06	-7.660426e-11	-1.496907e+01	4.611427e-01
5.500000e-07	-2.013817e-06	4.342806e-13	-1.448759e+01	4.601997e-01
5.600000e-07	-1.946346e-06	4.469740e-11	-1.400220e+01	4.610008e-01
5.700000e-07	-1.878355e-06	-6.318498e-12	-1.351307e+01	4.626335e-01
5.800000e-07	-1.809700e-06	-7.172312e-11	-1.301915e+01	4.643928e-01
5.900000e-07	-1.740338e-06	-5.865016e-11	-1.252016e+01	4.658380e-01
6.000000e-07	-1.670351e-06	4.809241e-12	-1.201667e+01	4.667896e-01
6.100000e-07	-1.599772e-06	2.156380e-11	-1.150891e+01	4.672738e-01
6.200000e-07	-1.528665e-06	-2.877119e-11	-1.099736e+01	4.674369e-01
6.300000e-07	-1.457107e-06	-6.709412e-11	-1.048257e+01	4.674505e-01
6.400000e-07	-1.385111e-06	-4.203618e-11	-9.964623e+00	4.674308e-01
6.500000e-07	-1.312578e-06	2.366309e-12	-9.442815e+00	4.673894e-01
6.600000e-07	-1.239381e-06	5.239325e-12	-8.916225e+00	4.672218e-01
6.700000e-07	-1.165535e-06	-2.991225e-11	-8.384968e+00	4.667361e-01
6.800000e-07	-1.091100e-06	-5.279333e-11	-7.849480e+00	4.657082e-01
6.900000e-07	-1.016168e-06	-3.632258e-11	-7.310412e+00	4.639497e-01
7.000000e-07	-9.408566e-07	-6.154425e-12	-6.768613e+00	4.613677e-01
7.100000e-07	-8.652683e-07	-4.061345e-12	-6.224824e+00	4.580001e-01
7.200000e-07	-7.894499e-07	-2.958220e-11	-5.679379e+00	4.540124e-01
7.300000e-07	-7.133989e-07	-4.438843e-11	-5.132261e+00	4.496551e-01
7.400000e-07	-6.371029e-07	-2.850504e-11	-4.583380e+00	4.451847e-01
7.500000e-07	-5.605621e-07	-4.098236e-12	-4.032738e+00	4.407651e-01
7.600000e-07	-4.837803e-07	-2.571211e-12	-3.480362e+00	4.363695e-01
7.700000e-07	-4.068117e-07	-2.394047e-11	-2.926643e+00	4.317066e-01
7.800000e-07	-3.297535e-07	-3.955965e-11	-2.372278e+00	4.261916e-01
7.900000e-07	-2.526402e-07	-2.866706e-11	-1.817518e+00	4.189764e-01
8.000000e-07	-1.754104e-07	-6.712956e-12	-1.261920e+00	4.090428e-01
8.100000e-07	-9.805029e-08	-4.078772e-12	-7.053833e-01	3.953504e-01
8.200000e-07	-2.059098e-08	-2.344402e-11	-1.481335e-01	3.770197e-01
8.300000e-07	5.688346e-08	-3.519489e-11	4.092251e-01	3.535213e-01
8.400000e-07	1.343162e-07	-2.056871e-11	9.662834e-01	3.248385e-01
8.500000e-07	2.117314e-07	1.034821e-12	1.523216e+00	2.915719e-01
8.600000e-07	2.891014e-07	1.137953e-12	2.079823e+00	2.549601e-01
8.700000e-07	3.664087e-07	-1.681635e-11	2.635980e+00	2.168037e-01
8.800000e-07	4.436164e-07	-2.461795e-11	3.191419e+00	1.792955e-01
8.900000e-07	5.206729e-07	-1.030140e-11	3.745771e+00	1.447728e-01
9.000000e-07	5.974520e-07	6.164283e-12	4.298128e+00	1.154258e-01
9.100000e-07	6.739757e-07	2.083917e-12	4.848646e+00	9.300101e-02
9.200000e-07	7.503407e-07	-1.447558e-11	5.398023e+00	7.854799e-02
9.300000e-07	8.264295e-07	-1.759919e-11	5.945414e+00	7.224723e-02
9.400000e-07	9.022025e-07	-1.753453e-12	6.490532e+00	7.335296e-02
9.500000e-07	9.776785e-07	1.139474e-11	7.033513e+00	8.026410e-02
9.600000e-07	1.052856e-06	6.769857e-12	7.574346e+00	9.071975e-02
9.700000e-07	1.127646e-06	-4.444558e-12	8.112394e+00	1.020950e-01
9.800000e-07	1.201776e-06	-6.049930e-12	8.645696e+00	1.117566e-01
9.900000e-07	1.275103e-06	3.143870e-12	9.173213e+00	1.174278e-01
1.000000e-06	1.347652e-06	1.188559e-11	9.695139e+00	1.175058e-01
1.010000e-06	1.419609e-06	1.017537e-11	1.021281e+01	1.112848e-01
1.020000e-06	1.491189e-06	1.524072e-12	1.072776e+01	9.904618e-02
1.030000e-06	1.562336e-06	-1.710428e-12	1.123959e+01	8.199918e-02
1.040000e-06	1.632937e-06	5.394485e-12	1.174750e+01	6.207778e-02
1.050000e-06	1.702967e-06	1.319138e-11	1.225131e+01	4.162143e-02
1.060000e-06	1.772465e-06	1.118460e-11	1.275129e+01	2.298615e-02
1.070000e-06	1.841373e-06	1.832304e-12	1.324701e+01	8.145162e-03
1.080000e-06	1.909578e-06	-2.262475e-12	1.373769e+01	-1.659016e-03
1.090000e-06	1.977217e-06	3.368544e-12	1.422429e+01	-6.155065e-03
1.100000e-06	2.044410e-06	8.833014e-12	1.470768e+01	-6.135030e-03
1.110000e-06	2.110895e-06	5.314365e-12	1.518598e+01	-3.379219e-03
1.120000e-06	2.176259e-06	-2.053967e-12	1.565622e+01	-4.201452e-04
1.130000e-06	2.240535e-06	-2.458406e-12	1.611862e+01	-1.768251e-04
1.140000e-06	2.304129e-06	5.980051e-12	1.657612e+01	-5.511606e-03
1.150000e-06	2.367200e-06	1.114261e-11	1.702987e+01	-1.877498e-02
1.160000e-06	2.429533e-06	6.643086e-12	1.747830e+01	-4.140742e-02
1.170000e-06	2.490973e-06	-2.040593e-13	1.792030e+01	-7.366053e-02
1.180000e-06	2.551520e-06	-1.612001e-12	1.835588e+01	-1.144831e-01
1.190000e-06	2.611317e-06	2.126321e-12	1.878606e+01	-1.615941e-01
1.200000e-06	2.670527e-06	3.015057e-12	1.921203e+01	-2.117372e-01
1.210000e-06	2.728711e-06	-1.000616e-12	1.963061e+01	-2.610836e-01
1.220000e-06	2.785470e-06	-6.391250e-12	2.003894e+01	-3.057283e-01
1.230000e-06	2.841119e-06	-6.393435e-12	2.043929e+01	-3.422089e-01
1.240000e-06	2.895885e-06	-7.528320e-13	2.083327e+01	-3.679733e-01
1.250000e-06	2.949716e-06	2.904937e-12	2.122054e+01	-3.817260e-01
1.260000e-06	3.002546e-06	2.413581e-12	2.160061e+01	-3.836056e-01
1.270000e-06	3.054103e-06	1.512173e-12	2.197152e+01	-3.751626e-01
1.280000e-06	3.104085e-06	3.479481e-12	2.233109e+01	-3.591428e-01
1.290000e-06	3.152511e-06	7.250387e-12	2.267947e+01	-3.391058e-01
1.300000e-06	3.199736e-06	7.687593e-12	2.301921e+01	-3.189326e-01
1.310000e-06	3.245911e-06	2.939510e-12	2.335140e+01	-3.022951e-01
1.320000e-06	3.290988e-06	-2.317707e-12	2.367569e+01	-2.921624e-01
1.330000e-06	3.335035e-06	-2.091039e-12	2.399257e+01	-2.904145e-01
1.340000e-06	3.377964e-06	2.875657e-12	2.430140e+01	-2.976198e-01
1.350000e-06	3.419459e-06	5.557582e-12	2.459992e+01	-3.130052e-01
1.360000e-06	3.459582e-06	2.362255e-12	2.488856e+01	-3.346216e-01
1.370000e-06	3.498611e-06	-1.317860e-12	2.516934e+01	-3.596778e-01
1.380000e-06	3.536447e-06	1.926803e-12	2.544154e+01	-3.849921e-01
1.390000e-06	3.573009e-06	8.526144e-12	2.570457e+01	-4.074932e-01
1.400000e-06	3.608597e-06	1.003560e-11	2.596059e+01	-4.246965e-01
1.410000e-06	3.643034e-06	5.294229e-12	2.620834e+01	-4.350858e-01
1.420000e-06	3.675891e-06	1.920187e-12	2.644472e+01	-4.383443e-01
1.430000e-06	3.707383e-06	6.616237e-12	2.667127e+01	-4.354047e-01
1.440000e-06	3.737669e-06	1.307237e-11	2.688915e+01	-4.283110e-01
1.450000e-06	3.766700e-06	1.348758e-11	2.709800e+01	-4.199157e-01
1.460000e-06	3.794547e-06	1.040198e-11	2.729834e+01	-4.134580e-01
1.470000e-06	3.821099e-06	1.104170e-11	2.748936e+01	-4.120862e-01
1.480000e-06	3.846067e-06	1.602715e-11	2.766898e+01	-4.183939e-01
1.490000e-06	3.869576e-06	1.866502e-11	2.783810e+01	-4.340369e-01
1.500000e-06	3.891800e-06	1.676701e-11	2.799799e+01	-4.594841e-01
1.510000e-06	3.912720e-06	1.468769e-11	2.814849e+01	-4.939350e-01
1.520000e-06	3.932455e-06	1.669731e-11	2.829046e+01	-5.354133e-01
1.530000e-06	3.950932e-06	2.109275e-11	2.842338e+01	-5.810183e-01
1.540000e-06	3.967939e-06	2.435336e-11	2.854574e+01	-6.272955e-01
1.550000e-06	3.983397e-06	2.426575e-11	2.865694e+01	-6.706711e-01
1.560000e-06	3.997337e-06	2.192253e-11	2.875723e+01	-7.078891e-01
1.570000e-06	4.009831e-06	2.079335e-11	2.884711e+01	-7.363905e-01
1.580000e-06	4.020727e-06	2.088838e-11	2.892550e+01	-7.545862e-01
1.590000e-06	4.029813e-06	2.048092e-11	2.899086e+01	-7.619917e-01
1.600000e-06	4.037344e-06	1.947607e-11	2.904504e+01	-7.592122e-01
1.610000e-06	4.043566e-06	1.896479e-11	2.908980e+01	-7.477917e-01
1.620000e-06	4.048427e-06	1.982050e-11	2.912477e+01	-7.299539e-01
1.630000e-06	4.052027e-06	2.205739e-11	2.915067e+01	-7.082789e-01
1.640000e-06	4.054135e-06	2.442310e-11	2.916584e+01	-6.853659e-01
1.650000e-06	4.054609e-06	2.531295e-11	2.916925e+01	-6.635286e-01
1.660000e-06	4.053717e-06	2.505177e-11	2.916283e+01	-6.445635e-01
1.670000e-06	4.051521e-06	2.496310e-11	2.914703e+01	-6.296141e-01
1.680000e-06	4.048062e-06	2.542092e-11	2.912215e+01	-6.191424e-01
1.690000e-06	4.043445e-06	2.512009e-11	2.908893e+01	-6.129960e-01
1.700000e-06	4.037452e-06	2.297966e-11	2.904582e+01	-6.105515e-01
1.710000e-06	4.029943e-06	1.979804e-11	2.899180e+01	-6.108997e-01
1.720000e-06	4.021226e-06	2.316724e-11	2.892909e+01	-6.130411e-01
1.730000e-06	4.011405e-06	3.133539e-11	2.885843e+01	-6.160557e-01
1.740000e-06	4.000313e-06	1.457991e-11	2.877864e+01	-6.192260e-01
1.750000e-06	3.987346e-06	-7.539439e-12	2.868536e+01	-6.220978e-01
1.760000e-06	3.971942e-06	-9.150526e-12	2.857454e+01	-6.244794e-01
1.770000e-06	3.954544e-06	3.155542e-11	2.844937e+01	-6.263887e-01
1.780000e-06	3.936206e-06	6.428148e-11	2.831744e+01	-6.279682e-01
1.790000e-06	3.917535e-06	-8.394525e-12	2.818312e+01	-6.293904e-01
1.800000e-06	3.897785e-06	-3.025593e-11	2.804104e+01	-6.307757e-01
1.810000e-06	3.875925e-06	2.671935e-11	2.788378e+01	-6.321415e-01
1.820000e-06	3.852621e-06	1.167379e-13	2.771613e+01	-6.333888e-01
1.830000e-06	3.828484e-06	8.102110e-12	2.754248e+01	-6.343290e-01
1.840000e-06	3.802843e-06	3.456584e-11	2.735802e+01	-6.347378e-01
1.850000e-06	3.775745e-06	-4.863599e-11	2.716308e+01	-6.344236e-01
1.860000e-06	3.747630e-06	-3.144041e-11	2.696081e+01	-6.332877e-01
1.870000e-06	3.718280e-06	7.316939e-11	2.674967e+01	-6.313609e-01
1.880000e-06	3.687432e-06	2.776995e-11	2.652774e+01	-6.288033e-01
1.890000e-06	3.655021e-06	-3.523297e-11	2.629457e+01	-6.258627e-01
1.900000e-06	3.621222e-06	-2.074594e-11	2.605142e+01	-6.227974e-01
1.910000e-06	3.586387e-06	-2.559558e-12	2.580082e+01	-6.197785e-01
1.920000e-06	3.550387e-06	5.330756e-11	2.554182e+01	-6.167909e-01
1.930000e-06	3.512901e-06	5.237073e-11	2.527215e+01	-6.135574e-01
1.940000e-06	3.473965e-06	-1.485340e-11	2.499204e+01	-6.095078e-01
1.950000e-06	3.433668e-06	-3.410956e-11	2.470214e+01	-6.038055e-01
1.960000e-06	3.392181e-06	-3.054243e-11	2.440368e+01	-5.954376e-01
1.970000e-06	3.349580e-06	4.525744e-11	2.409720e+01	-5.833608e-01
1.980000e-06	3.305876e-06	8.729941e-11	2.378279e+01	-5.666828e-01
1.990000e-06	3.261271e-06	-2.581920e-11	2.346190e+01	-5.448526e-01
2.000000e-06	3.215478e-06	-8.893586e-11	2.313246e+01	-5.178247e-01
2.010000e-06	3.168402e-06	-2.317443e-11	2.279379e+01	-4.861676e-01
2.020000e-06	3.120300e-06	8.205237e-11	2.244774e+01	-4.510890e-01
2.030000e-06	3.070956e-06	7.863143e-11	2.209275e+01	-4.143648e-01
2.040000e-06	3.020313e-06	-6.013044e-11	2.172842e+01	-3.781733e-01
2.050000e-06	2.968612e-06	-8.559111e-11	2.135648e+01	-3.448515e-01
2.060000e-06	2.915936e-06	2.498016e-11	2.097752e+01	-3.166039e-01
2.070000e-06	2.862012e-06	9.269112e-11	2.058959e+01	-2.952060e-01
2.080000e-06	2.806666e-06	3.967315e-11	2.019143e+01	-2.817471e-01
2.090000e-06	2.750226e-06	-7.440918e-11	1.978539e+01	-2.764534e-01
2.100000e-06	2.692897e-06	-6.146743e-11	1.937296e+01	-2.786249e-01
2.110000e-06	2.634674e-06	4.929392e-11	1.895410e+01	-2.866996e-01
2.120000e-06	2.575607e-06	8.505701e-11	1.852917e+01	-2.984433e-01
2.130000e-06	2.515790e-06	8.161876e-12	1.809884e+01	-3.112411e-01
2.140000e-06	2.455245e-06	-7.504337e-11	1.766327e+01	-3.224515e-01
2.150000e-06	2.393645e-06	-2.553392e-11	1.722011e+01	-3.297715e-01
2.160000e-06	2.330736e-06	6.940194e-11	1.676754e+01	-3.315586e-01
2.170000e-06	2.266863e-06	6.419634e-11	1.630803e+01	-3.270587e-01
2.180000e-06	2.202309e-06	-1.828150e-11	1.584362e+01	-3.165040e-01
2.190000e-06	2.137032e-06	-5.850017e-11	1.537402e+01	-3.010609e-01
2.200000e-06	2.071017e-06	7.934688e-12	1.489910e+01	-2.826341e-01
2.210000e-06	2.004279e-06	6.916998e-11	1.441898e+01	-2.635517e-01
2.220000e-06	1.936842e-06	4.187815e-11	1.393383e+01	-2.461783e-01
2.230000e-06	1.868786e-06	-1.901632e-11	1.344423e+01	-2.325154e-01
2.240000e-06	1.800180e-06	-2.927327e-11	1.295067e+01	-2.238488e-01
2.250000e-06	1.730892e-06	2.326315e-11	1.245220e+01	-2.205020e-01
2.260000e-06	1.660751e-06	5.532713e-11	1.194760e+01	-2.217356e-01
2.270000e-06	1.589689e-06	2.953423e-11	1.143638e+01	-2.258144e-01
2.280000e-06	1.517891e-06	-9.922264e-12	1.091986e+01	-2.302357e-01
2.290000e-06	1.445641e-06	-1.086936e-11	1.040008e+01	-2.320897e-01
2.300000e-06	1.373053e-06	2.187794e-11	9.877878e+00	-2.285003e-01
2.310000e-06	1.300080e-06	4.002727e-11	9.352898e+00	-2.170811e-01
2.320000e-06	1.226653e-06	2.599145e-11	8.824659e+00	-1.963383e-01
2.330000e-06	1.152783e-06	2.050019e-13	8.293232e+00	-1.659567e-01
2.340000e-06	1.078512e-06	-3.472791e-12	7.758916e+00	-1.269225e-01
2.350000e-06	1.003925e-06	2.089967e-11	7.222333e+00	-8.145988e-02
2.360000e-06	9.290532e-07	3.959054e-11	6.683698e+00	-3.278492e-02
2.370000e-06	8.538458e-07	2.797817e-11	6.142649e+00	1.529096e-02
2.380000e-06	7.784003e-07	8.124711e-13	5.599887e+00	5.885409e-02
2.390000e-06	7.027766e-07	-5.819808e-12	5.055842e+00	9.440824e-02
2.400000e-06	6.268580e-07	1.298893e-11	4.509677e+00	1.193460e-01
2.410000e-06	5.507052e-07	2.662994e-11	3.961827e+00	1.323036e-01
2.420000e-06	4.744170e-07	1.530251e-11	3.413002e+00	1.333466e-01
2.430000e-06	3.979387e-07	-5.756716e-12	2.862810e+00	1.239586e-01
2.440000e-06	3.212722e-07	-6.101439e-12	2.311263e+00	1.068334e-01
2.450000e-06	2.444572e-07	1.404369e-11	1.758649e+00	8.550097e-02
2.460000e-06	1.674652e-07	2.435487e-11	1.204761e+00	6.383892e-02
2.470000e-06	9.034450e-08	8.351616e-12	6.499471e-01	4.554198e-02
2.480000e-06	1.317693e-08	-1.159999e-11	9.479611e-02	3.362450e-02
2.490000e-06	-6.400103e-08	-8.036792e-12	-4.604296e-01	3.002789e-02
2.500000e-06	-1.411148e-07	9.875134e-12	-1.015194e+00	3.538850e-02
2.510000e-06	-2.181714e-07	1.171663e-11	-1.569546e+00	4.899795e-02
2.520000e-06	-2.951904e-07	-7.032342e-12	-2.123628e+00	6.895918e-02
2.530000e-06	-3.720644e-07	-1.896849e-11	-2.676667e+00	9.251313e-02
2.540000e-06	-4.487377e-07	-8.914238e-12	-3.228262e+00	1.164858e-01
2.550000e-06	-5.252844e-07	5.289042e-12	-3.778947e+00	1.377886e-01
2.560000e-06	-6.017144e-07	1.751842e-12	-4.328792e+00	1.538976e-01
2.570000e-06	-6.779202e-07	-1.363614e-11	-4.877024e+00	1.632409e-01
2.580000e-06	-7.537989e-07	-1.950934e-11	-5.422902e+00	1.654393e-01
2.590000e-06	-8.293311e-07	-1.020517e-11	-5.966288e+00	1.613648e-01
2.600000e-06	-9.045372e-07	-1.376638e-12	-6.507328e+00	1.530117e-01
2.610000e-06	-9.794061e-07	-6.042217e-12	-7.045942e+00	1.432012e-01
2.620000e-06	-1.053899e-06	-1.726539e-11	-7.581848e+00	1.351646e-01
2.630000e-06	-1.127985e-06	-2.030714e-11	-8.114836e+00	1.320659e-01
2.640000e-06	-1.201603e-06	-1.204545e-11	-8.644451e+00	1.365366e-01
2.650000e-06	-1.274733e-06	-4.225436e-12	-9.170549e+00	1.502867e-01
2.660000e-06	-1.347480e-06	-7.861513e-12	-9.693902e+00	1.738476e-01
2.670000e-06	-1.419863e-06	-1.900431e-11	-1.021463e+01	2.064817e-01
2.680000e-06	-1.491886e-06	-2.265279e-11	-1.073277e+01	2.462666e-01
2.690000e-06	-1.563479e-06	-1.428750e-11	-1.124782e+01	2.903398e-01
2.700000e-06	-1.634321e-06	-6.984455e-12	-1.175747e+01	3.352645e-01
2.710000e-06	-1.704256e-06	-1.119788e-11	-1.226058e+01	3.774623e-01
2.720000e-06	-1.773317e-06	-2.011387e-11	-1.275742e+01	4.136514e-01
2.730000e-06	-1.841700e-06	-1.986717e-11	-1.324937e+01	4.412306e-01
2.740000e-06	-1.909605e-06	-8.987870e-12	-1.373788e+01	4.585580e-01
2.750000e-06	-1.976912e-06	-1.900862e-12	-1.422210e+01	4.650926e-01
2.760000e-06	-2.043513e-06	-8.043402e-12	-1.470123e+01	4.613880e-01
2.770000e-06	-2.109389e-06	-1.656817e-11	-1.517515e+01	4.489466e-01
2.780000e-06	-2.174584e-06	-1.466080e-11	-1.564417e+01	4.299654e-01
2.790000e-06	-2.239148e-06	-6.208057e-12	-1.610865e+01	4.070147e-01
2.800000e-06	-2.303080e-06	-3.830902e-12	-1.656858e+01	3.827006e-01
2.810000e-06	-2.366201e-06	-1.002175e-11	-1.702268e+01	3.593573e-01
2.820000e-06	-2.428162e-06	-1.300406e-11	-1.746843e+01	3.388111e-01
2.830000e-06	-2.489022e-06	-5.910050e-12	-1.790627e+01	3.222398e-01
2.840000e-06	-2.549113e-06	2.827086e-12	-1.833857e+01	3.101386e-01
2.850000e-06	-2.608423e-06	4.304981e-12	-1.876525e+01	3.023830e-01
2.860000e-06	-2.666781e-06	5.389703e-13	-1.918508e+01	2.983688e-01
2.870000e-06	-2.724242e-06	-1.691616e-12	-1.959846e+01	2.971965e-01
2.880000e-06	-2.780910e-06	-5.249647e-13	-2.000613e+01	2.978668e-01
2.890000e-06	-2.836697e-06	2.905433e-12	-2.040747e+01	2.994522e-01
2.900000e-06	-2.891204e-06	2.740104e-12	-2.079960e+01	3.012231e-01
2.910000e-06	-2.944248e-06	-2.308854e-12	-2.118121e+01	3.027119e-01
2.920000e-06	-2.996133e-06	-4.523136e-12	-2.155447e+01	3.037144e-01
2.930000e-06	-3.046896e-06	-1.639083e-12	-2.191967e+01	3.042400e-01
2.940000e-06	-3.096220e-06	3.038492e-12	-2.227450e+01	3.044272e-01
