# Temperatura_=_20.0
# Concentracion g/m^3_=_12600.0
# C_Vs_to_Am_M_A/Vsm_=_65563218390.804596
# pendiente_HvsI_1/m_=_3716.3
# ordenada_HvsI_A/m_=_1297.0
# frecuencia_Hz_=_301586.7022723685

Tiempo_(s)	Campo_(V.s)	Magnetizacion_(V.s)	Campo_(kA/m)	Magnetizacion_(A/m)
0.000000e+00	-4.045839e-06	-4.261398e-09	-2.908547e+01	-2.811971e+02
1.000000e-08	-4.044459e-06	-4.268804e-09	-2.907555e+01	-2.811647e+02
2.000000e-08	-4.041486e-06	-4.271314e-09	-2.905417e+01	-2.810394e+02
3.000000e-08	-4.037282e-06	-4.266578e-09	-2.902395e+01	-2.808181e+02
4.000000e-08	-4.031909e-06	-4.259288e-09	-2.898532e+01	-2.804998e+02
5.000000e-08	-4.025200e-06	-4.251895e-09	-2.893709e+01	-2.800867e+02
6.000000e-08	-4.017356e-06	-4.243517e-09	-2.888070e+01	-2.795836e+02
7.000000e-08	-4.008175e-06	-4.227509e-09	-2.881470e+01	-2.789983e+02
8.000000e-08	-3.997246e-06	-4.200854e-09	-2.873613e+01	-2.783400e+02
9.000000e-08	-3.984617e-06	-4.227305e-09	-2.864534e+01	-2.776190e+02
1.000000e-07	-3.969965e-06	-4.261763e-09	-2.854001e+01	-2.768456e+02
1.100000e-07	-3.953295e-06	-4.251459e-09	-2.842016e+01	-2.760282e+02
1.200000e-07	-3.935241e-06	-4.197511e-09	-2.829038e+01	-2.751731e+02
1.300000e-07	-3.916241e-06	-4.047762e-09	-2.815378e+01	-2.742832e+02
1.400000e-07	-3.896403e-06	-4.120921e-09	-2.801117e+01	-2.733582e+02
1.500000e-07	-3.875532e-06	-4.278517e-09	-2.786113e+01	-2.723939e+02
1.600000e-07	-3.853671e-06	-4.106567e-09	-2.770397e+01	-2.713837e+02
1.700000e-07	-3.830662e-06	-4.082179e-09	-2.753856e+01	-2.703186e+02
1.800000e-07	-3.805717e-06	-4.095976e-09	-2.735923e+01	-2.691889e+02
1.900000e-07	-3.779022e-06	-3.945998e-09	-2.716733e+01	-2.679853e+02
2.000000e-07	-3.751418e-06	-4.122198e-09	-2.696888e+01	-2.667000e+02
2.100000e-07	-3.722698e-06	-4.214170e-09	-2.676241e+01	-2.653276e+02
2.200000e-07	-3.692519e-06	-3.916928e-09	-2.654545e+01	-2.638659e+02
2.300000e-07	-3.661134e-06	-3.887909e-09	-2.631983e+01	-2.623160e+02
2.400000e-07	-3.628524e-06	-4.028649e-09	-2.608540e+01	-2.606819e+02
2.500000e-07	-3.594454e-06	-4.011663e-09	-2.584047e+01	-2.589702e+02
2.600000e-07	-3.558923e-06	-3.991004e-09	-2.558504e+01	-2.571888e+02
2.700000e-07	-3.522015e-06	-3.828820e-09	-2.531970e+01	-2.553463e+02
2.800000e-07	-3.483911e-06	-3.760277e-09	-2.504578e+01	-2.534504e+02
2.900000e-07	-3.444806e-06	-3.899310e-09	-2.476465e+01	-2.515073e+02
3.000000e-07	-3.404493e-06	-3.874093e-09	-2.447484e+01	-2.495207e+02
3.100000e-07	-3.362569e-06	-3.777590e-09	-2.417345e+01	-2.474918e+02
3.200000e-07	-3.319216e-06	-3.747530e-09	-2.386178e+01	-2.454192e+02
3.300000e-07	-3.274765e-06	-3.656009e-09	-2.354223e+01	-2.432991e+02
3.400000e-07	-3.229218e-06	-3.654958e-09	-2.321479e+01	-2.411263e+02
3.500000e-07	-3.182581e-06	-3.736154e-09	-2.287952e+01	-2.388947e+02
3.600000e-07	-3.134785e-06	-3.656091e-09	-2.253591e+01	-2.365984e+02
3.700000e-07	-3.085529e-06	-3.494551e-09	-2.218182e+01	-2.342326e+02
3.800000e-07	-3.034722e-06	-3.469021e-09	-2.181657e+01	-2.317939e+02
3.900000e-07	-2.982641e-06	-3.535734e-09	-2.144215e+01	-2.292808e+02
4.000000e-07	-2.929512e-06	-3.522228e-09	-2.106021e+01	-2.266939e+02
4.100000e-07	-2.875416e-06	-3.437285e-09	-2.067131e+01	-2.240352e+02
4.200000e-07	-2.820428e-06	-3.329381e-09	-2.027601e+01	-2.213078e+02
4.300000e-07	-2.764670e-06	-3.289275e-09	-1.987516e+01	-2.185155e+02
4.400000e-07	-2.707836e-06	-3.341467e-09	-1.946658e+01	-2.156616e+02
4.500000e-07	-2.649642e-06	-3.326059e-09	-1.904823e+01	-2.127485e+02
4.600000e-07	-2.590401e-06	-3.205319e-09	-1.862235e+01	-2.097775e+02
4.700000e-07	-2.530430e-06	-3.087900e-09	-1.819121e+01	-2.067482e+02
4.800000e-07	-2.469680e-06	-3.069507e-09	-1.775449e+01	-2.036586e+02
4.900000e-07	-2.408031e-06	-3.116709e-09	-1.731129e+01	-2.005058e+02
5.000000e-07	-2.345505e-06	-3.082671e-09	-1.686180e+01	-1.972860e+02
5.100000e-07	-2.282277e-06	-2.944370e-09	-1.640725e+01	-1.939953e+02
5.200000e-07	-2.218366e-06	-2.848194e-09	-1.594779e+01	-1.906304e+02
5.300000e-07	-2.153436e-06	-2.859726e-09	-1.548101e+01	-1.871890e+02
5.400000e-07	-2.087327e-06	-2.876591e-09	-1.500576e+01	-1.836698e+02
5.500000e-07	-2.020366e-06	-2.799245e-09	-1.452438e+01	-1.800735e+02
5.600000e-07	-1.952859e-06	-2.667122e-09	-1.403907e+01	-1.764016e+02
5.700000e-07	-1.884814e-06	-2.589852e-09	-1.354990e+01	-1.726568e+02
5.800000e-07	-1.816126e-06	-2.589463e-09	-1.305610e+01	-1.688423e+02
5.900000e-07	-1.746797e-06	-2.580304e-09	-1.255769e+01	-1.649611e+02
6.000000e-07	-1.676838e-06	-2.485980e-09	-1.205476e+01	-1.610156e+02
6.100000e-07	-1.606231e-06	-2.367296e-09	-1.154716e+01	-1.570071e+02
6.200000e-07	-1.535084e-06	-2.314144e-09	-1.103569e+01	-1.529355e+02
6.300000e-07	-1.463540e-06	-2.309910e-09	-1.052136e+01	-1.487994e+02
6.400000e-07	-1.391617e-06	-2.267107e-09	-1.000431e+01	-1.445962e+02
6.500000e-07	-1.319135e-06	-2.160617e-09	-9.483236e+00	-1.403226e+02
6.600000e-07	-1.245999e-06	-2.059408e-09	-8.957463e+00	-1.359749e+02
6.700000e-07	-1.172125e-06	-2.006778e-09	-8.426383e+00	-1.315496e+02
6.800000e-07	-1.097552e-06	-1.972459e-09	-7.890279e+00	-1.270444e+02
6.900000e-07	-1.022562e-06	-1.906186e-09	-7.351179e+00	-1.224577e+02
7.000000e-07	-9.472696e-07	-1.808123e-09	-6.809905e+00	-1.177898e+02
7.100000e-07	-8.716596e-07	-1.718427e-09	-6.266345e+00	-1.130420e+02
7.200000e-07	-7.957283e-07	-1.660746e-09	-5.720477e+00	-1.082172e+02
7.300000e-07	-7.195701e-07	-1.609067e-09	-5.172977e+00	-1.033186e+02
7.400000e-07	-6.432202e-07	-1.530861e-09	-4.624099e+00	-9.835012e+01
7.500000e-07	-5.666388e-07	-1.435853e-09	-4.073556e+00	-9.331503e+01
7.600000e-07	-4.898108e-07	-1.351268e-09	-3.521241e+00	-8.821598e+01
7.700000e-07	-4.128020e-07	-1.282537e-09	-2.967626e+00	-8.305447e+01
7.800000e-07	-3.356738e-07	-1.208047e-09	-2.413153e+00	-7.783066e+01
7.900000e-07	-2.584488e-07	-1.123749e-09	-1.857984e+00	-7.254351e+01
8.000000e-07	-1.811335e-07	-1.040541e-09	-1.302165e+00	-6.719096e+01
8.100000e-07	-1.037260e-07	-9.588494e-10	-7.456847e-01	-6.177046e+01
8.200000e-07	-2.625614e-08	-8.741972e-10	-1.887549e-01	-5.627942e+01
8.300000e-07	5.125525e-08	-7.902347e-10	3.684731e-01	-5.071579e+01
8.400000e-07	1.287810e-07	-7.092618e-10	9.258040e-01	-4.507850e+01
8.500000e-07	2.062539e-07	-6.234041e-10	1.482755e+00	-3.936783e+01
8.600000e-07	2.836961e-07	-5.272819e-10	2.039487e+00	-3.358545e+01
8.700000e-07	3.611095e-07	-4.279722e-10	2.596010e+00	-2.773442e+01
8.800000e-07	4.384007e-07	-3.398074e-10	3.151655e+00	-2.181878e+01
8.900000e-07	5.155596e-07	-2.588259e-10	3.706349e+00	-1.584322e+01
9.000000e-07	5.924918e-07	-1.703563e-10	4.259413e+00	-9.812450e+00
9.100000e-07	6.691247e-07	-6.799465e-11	4.810325e+00	-3.730743e+00
9.200000e-07	7.455569e-07	3.289545e-11	5.359795e+00	2.398509e+00
9.300000e-07	8.217228e-07	1.196847e-10	5.907351e+00	8.573050e+00
9.400000e-07	8.975191e-07	2.027830e-10	6.452249e+00	1.479181e+01
9.500000e-07	9.730490e-07	2.981219e-10	6.995232e+00	2.105469e+01
9.600000e-07	1.048305e-06	4.070392e-10	7.536244e+00	2.736223e+01
9.700000e-07	1.123172e-06	5.127987e-10	8.074460e+00	3.371499e+01
9.800000e-07	1.197447e-06	6.036983e-10	8.608423e+00	4.011297e+01
9.900000e-07	1.270909e-06	6.906869e-10	9.136540e+00	4.655497e+01
1.000000e-06	1.343543e-06	7.933384e-10	9.658706e+00	5.303809e+01
1.010000e-06	1.415584e-06	9.078660e-10	1.017661e+01	5.955734e+01
1.020000e-06	1.487225e-06	1.012406e-09	1.069164e+01	6.610555e+01
1.030000e-06	1.558484e-06	1.101213e-09	1.120391e+01	7.267344e+01
1.040000e-06	1.629238e-06	1.190547e-09	1.171256e+01	7.924995e+01
1.050000e-06	1.699315e-06	1.294161e-09	1.221635e+01	8.582273e+01
1.060000e-06	1.768813e-06	1.404053e-09	1.271596e+01	9.237873e+01
1.070000e-06	1.837736e-06	1.505103e-09	1.321145e+01	9.890482e+01
1.080000e-06	1.905992e-06	1.595037e-09	1.370214e+01	1.053883e+02
1.090000e-06	1.973698e-06	1.687870e-09	1.418888e+01	1.118174e+02
1.100000e-06	2.040892e-06	1.790974e-09	1.467194e+01	1.181815e+02
1.110000e-06	2.107379e-06	1.897369e-09	1.514991e+01	1.244711e+02
1.120000e-06	2.172815e-06	1.993860e-09	1.562033e+01	1.306778e+02
1.130000e-06	2.237133e-06	2.081226e-09	1.608271e+01	1.367942e+02
1.140000e-06	2.300723e-06	2.170048e-09	1.653986e+01	1.428134e+02
1.150000e-06	2.363770e-06	2.266993e-09	1.699310e+01	1.487286e+02
1.160000e-06	2.426062e-06	2.364743e-09	1.744092e+01	1.545334e+02
1.170000e-06	2.487492e-06	2.453393e-09	1.788254e+01	1.602209e+02
1.180000e-06	2.548077e-06	2.530465e-09	1.831808e+01	1.657845e+02
1.190000e-06	2.607944e-06	2.604292e-09	1.874847e+01	1.712174e+02
1.200000e-06	2.667218e-06	2.686136e-09	1.917458e+01	1.765133e+02
1.210000e-06	2.725500e-06	2.772711e-09	1.959357e+01	1.816665e+02
1.220000e-06	2.782347e-06	2.849952e-09	2.000225e+01	1.866724e+02
1.230000e-06	2.838070e-06	2.915852e-09	2.040284e+01	1.915275e+02
1.240000e-06	2.892910e-06	2.983639e-09	2.079708e+01	1.962301e+02
1.250000e-06	2.946775e-06	3.059741e-09	2.118432e+01	2.007798e+02
1.260000e-06	2.999608e-06	3.138288e-09	2.156413e+01	2.051776e+02
1.270000e-06	3.051301e-06	3.205257e-09	2.193575e+01	2.094256e+02
1.280000e-06	3.101561e-06	3.261523e-09	2.229706e+01	2.135270e+02
1.290000e-06	3.150203e-06	3.318899e-09	2.264676e+01	2.174848e+02
1.300000e-06	3.197605e-06	3.382740e-09	2.298753e+01	2.213024e+02
1.310000e-06	3.243911e-06	3.444070e-09	2.332042e+01	2.249828e+02
1.320000e-06	3.288994e-06	3.494729e-09	2.364452e+01	2.285282e+02
1.330000e-06	3.333030e-06	3.538364e-09	2.396109e+01	2.319403e+02
1.340000e-06	3.376171e-06	3.586950e-09	2.427123e+01	2.352205e+02
1.350000e-06	3.417996e-06	3.641058e-09	2.457191e+01	2.383698e+02
1.360000e-06	3.458290e-06	3.690379e-09	2.486158e+01	2.413891e+02
1.370000e-06	3.497437e-06	3.731799e-09	2.514301e+01	2.442800e+02
1.380000e-06	3.535496e-06	3.772856e-09	2.541662e+01	2.470443e+02
1.390000e-06	3.572358e-06	3.817101e-09	2.568162e+01	2.496848e+02
1.400000e-06	3.608157e-06	3.859859e-09	2.593898e+01	2.522050e+02
1.410000e-06	3.642683e-06	3.894963e-09	2.618718e+01	2.546091e+02
1.420000e-06	3.675573e-06	3.924111e-09	2.642363e+01	2.569013e+02
1.430000e-06	3.707142e-06	3.954105e-09	2.665058e+01	2.590861e+02
1.440000e-06	3.737587e-06	3.986753e-09	2.686945e+01	2.611669e+02
1.450000e-06	3.766775e-06	4.019413e-09	2.707928e+01	2.631466e+02
1.460000e-06	3.794812e-06	4.047972e-09	2.728084e+01	2.650267e+02
1.470000e-06	3.821623e-06	4.074333e-09	2.747358e+01	2.668071e+02
1.480000e-06	3.846821e-06	4.100750e-09	2.765473e+01	2.684869e+02
1.490000e-06	3.870480e-06	4.125334e-09	2.782481e+01	2.700639e+02
1.500000e-06	3.892838e-06	4.146947e-09	2.798555e+01	2.715355e+02
1.510000e-06	3.913841e-06	4.165842e-09	2.813653e+01	2.728994e+02
1.520000e-06	3.933685e-06	4.183194e-09	2.827920e+01	2.741538e+02
1.530000e-06	3.952333e-06	4.198635e-09	2.841325e+01	2.752984e+02
1.540000e-06	3.969486e-06	4.214054e-09	2.853657e+01	2.763343e+02
1.550000e-06	3.985114e-06	4.230994e-09	2.864891e+01	2.772647e+02
1.560000e-06	3.999255e-06	4.246361e-09	2.875057e+01	2.780942e+02
1.570000e-06	4.011893e-06	4.257486e-09	2.884143e+01	2.788287e+02
1.580000e-06	4.022908e-06	4.266168e-09	2.892061e+01	2.794747e+02
1.590000e-06	4.032142e-06	4.274663e-09	2.898700e+01	2.800388e+02
1.600000e-06	4.039802e-06	4.283388e-09	2.904206e+01	2.805264e+02
1.610000e-06	4.046096e-06	4.290910e-09	2.908731e+01	2.809415e+02
1.620000e-06	4.051001e-06	4.294470e-09	2.912257e+01	2.812858e+02
1.630000e-06	4.054672e-06	4.295478e-09	2.914896e+01	2.815590e+02
1.640000e-06	4.056916e-06	4.299515e-09	2.916510e+01	2.817583e+02
1.650000e-06	4.057494e-06	4.306258e-09	2.916925e+01	2.818792e+02
1.660000e-06	4.056684e-06	4.310638e-09	2.916343e+01	2.819166e+02
1.670000e-06	4.054643e-06	4.305998e-09	2.914875e+01	2.818647e+02
1.680000e-06	4.051299e-06	4.300175e-09	2.912472e+01	2.817191e+02
1.690000e-06	4.046849e-06	4.296900e-09	2.909273e+01	2.814771e+02
1.700000e-06	4.041063e-06	4.293473e-09	2.905113e+01	2.811383e+02
1.710000e-06	4.033674e-06	4.286809e-09	2.899801e+01	2.807055e+02
1.720000e-06	4.025085e-06	4.278952e-09	2.893627e+01	2.801842e+02
1.730000e-06	4.015370e-06	4.290385e-09	2.886642e+01	2.795825e+02
1.740000e-06	4.004336e-06	4.262129e-09	2.878710e+01	2.789099e+02
1.750000e-06	3.991516e-06	4.184116e-09	2.869494e+01	2.781770e+02
1.760000e-06	3.976284e-06	4.164994e-09	2.858544e+01	2.773936e+02
1.770000e-06	3.958932e-06	4.187127e-09	2.846069e+01	2.765678e+02
1.780000e-06	3.940554e-06	4.335255e-09	2.832858e+01	2.757052e+02
1.790000e-06	3.921951e-06	4.265515e-09	2.819483e+01	2.748081e+02
1.800000e-06	3.902420e-06	4.021326e-09	2.805443e+01	2.738752e+02
1.810000e-06	3.880653e-06	4.175814e-09	2.789794e+01	2.729019e+02
1.820000e-06	3.857316e-06	4.179317e-09	2.773018e+01	2.718808e+02
1.830000e-06	3.833263e-06	4.091868e-09	2.755726e+01	2.708027e+02
1.840000e-06	3.807760e-06	4.258035e-09	2.737392e+01	2.696581e+02
1.850000e-06	3.780759e-06	4.069242e-09	2.717981e+01	2.684376e+02
1.860000e-06	3.752740e-06	3.884621e-09	2.697838e+01	2.671341e+02
1.870000e-06	3.723432e-06	4.190217e-09	2.676769e+01	2.657428e+02
1.880000e-06	3.692700e-06	4.200394e-09	2.654675e+01	2.642621e+02
1.890000e-06	3.660421e-06	3.951028e-09	2.631470e+01	2.626937e+02
1.900000e-06	3.626543e-06	3.938326e-09	2.607115e+01	2.610425e+02
1.910000e-06	3.591692e-06	3.877542e-09	2.582061e+01	2.593152e+02
1.920000e-06	3.555841e-06	3.965290e-09	2.556288e+01	2.575202e+02
1.930000e-06	3.518466e-06	4.036876e-09	2.529419e+01	2.556657e+02
1.940000e-06	3.479657e-06	3.799307e-09	2.501520e+01	2.537594e+02
1.950000e-06	3.439439e-06	3.808934e-09	2.472606e+01	2.518068e+02
1.960000e-06	3.397922e-06	3.820293e-09	2.442760e+01	2.498112e+02
1.970000e-06	3.355326e-06	3.709463e-09	2.412138e+01	2.477733e+02
1.980000e-06	3.311689e-06	3.865590e-09	2.380767e+01	2.456910e+02
1.990000e-06	3.267172e-06	3.788491e-09	2.348764e+01	2.435602e+02
2.000000e-06	3.221447e-06	3.573380e-09	2.315893e+01	2.413754e+02
2.010000e-06	3.174431e-06	3.586527e-09	2.282093e+01	2.391305e+02
2.020000e-06	3.126406e-06	3.648970e-09	2.247568e+01	2.368198e+02
2.030000e-06	3.077156e-06	3.690343e-09	2.212162e+01	2.344386e+02
2.040000e-06	3.026654e-06	3.529144e-09	2.175856e+01	2.319841e+02
2.050000e-06	2.975062e-06	3.386766e-09	2.138767e+01	2.294553e+02
2.060000e-06	2.922411e-06	3.435073e-09	2.100916e+01	2.268528e+02
2.070000e-06	2.868488e-06	3.462668e-09	2.062151e+01	2.241792e+02
2.080000e-06	2.813155e-06	3.460750e-09	2.022372e+01	2.214377e+02
2.090000e-06	2.756773e-06	3.313994e-09	1.981839e+01	2.186320e+02
2.100000e-06	2.699539e-06	3.188135e-09	1.940694e+01	2.157654e+02
2.110000e-06	2.641366e-06	3.227844e-09	1.898873e+01	2.128400e+02
2.120000e-06	2.582302e-06	3.249719e-09	1.856412e+01	2.098566e+02
2.130000e-06	2.522497e-06	3.226595e-09	1.813419e+01	2.068147e+02
2.140000e-06	2.461969e-06	3.066155e-09	1.769905e+01	2.037120e+02
2.150000e-06	2.400351e-06	2.952044e-09	1.725608e+01	2.005452e+02
2.160000e-06	2.337446e-06	3.013143e-09	1.680386e+01	1.973107e+02
2.170000e-06	2.273639e-06	3.019757e-09	1.634515e+01	1.940044e+02
2.180000e-06	2.209167e-06	2.935976e-09	1.588166e+01	1.906234e+02
2.190000e-06	2.143917e-06	2.793277e-09	1.541258e+01	1.871654e+02
2.200000e-06	2.077896e-06	2.732939e-09	1.493796e+01	1.836297e+02
2.210000e-06	2.011163e-06	2.763981e-09	1.445821e+01	1.800171e+02
2.220000e-06	1.943734e-06	2.735642e-09	1.397347e+01	1.763294e+02
2.230000e-06	1.875748e-06	2.637563e-09	1.348472e+01	1.725696e+02
2.240000e-06	1.807201e-06	2.511036e-09	1.299194e+01	1.687406e+02
2.250000e-06	1.737910e-06	2.469642e-09	1.249380e+01	1.648456e+02
2.260000e-06	1.667740e-06	2.475728e-09	1.198935e+01	1.608866e+02
2.270000e-06	1.596633e-06	2.421285e-09	1.147817e+01	1.568647e+02
2.280000e-06	1.524815e-06	2.313316e-09	1.096187e+01	1.527795e+02
2.290000e-06	1.452609e-06	2.213880e-09	1.044278e+01	1.486294e+02
2.300000e-06	1.380054e-06	2.180069e-09	9.921186e+00	1.444116e+02
2.310000e-06	1.307142e-06	2.150472e-09	9.397022e+00	1.401225e+02
2.320000e-06	1.233791e-06	2.076605e-09	8.869705e+00	1.357585e+02
2.330000e-06	1.160017e-06	1.980394e-09	8.339343e+00	1.313164e+02
2.340000e-06	1.085859e-06	1.896365e-09	7.806224e+00	1.267939e+02
2.350000e-06	1.011276e-06	1.847669e-09	7.270043e+00	1.221898e+02
2.360000e-06	9.363380e-07	1.797103e-09	6.731317e+00	1.175047e+02
2.370000e-06	8.610898e-07	1.718378e-09	6.190359e+00	1.127403e+02
2.380000e-06	7.856142e-07	1.625425e-09	5.647767e+00	1.078994e+02
2.390000e-06	7.099040e-07	1.546579e-09	5.103487e+00	1.029857e+02
2.400000e-06	6.339128e-07	1.487036e-09	4.557188e+00	9.800273e+01
2.410000e-06	5.577008e-07	1.414578e-09	4.009301e+00	9.295385e+01
2.420000e-06	4.813223e-07	1.328570e-09	3.460218e+00	8.784144e+01
2.430000e-06	4.047827e-07	1.247760e-09	2.909975e+00	8.266670e+01
2.440000e-06	3.281265e-07	1.170162e-09	2.358896e+00	7.742955e+01
2.450000e-06	2.513645e-07	1.088331e-09	1.807055e+00	7.212868e+01
2.460000e-06	1.744265e-07	1.004314e-09	1.253949e+00	6.676189e+01
2.470000e-06	9.730346e-08	9.275458e-10	6.995129e-01	6.132658e+01
2.480000e-06	2.004579e-08	8.480928e-10	1.441088e-01	5.582023e+01
2.490000e-06	-5.722178e-08	7.559969e-10	-4.113663e-01	5.024096e+01
2.500000e-06	-1.344686e-07	6.648847e-10	-9.666923e-01	4.458798e+01
2.510000e-06	-2.117440e-07	5.823047e-10	-1.522224e+00	3.886184e+01
2.520000e-06	-2.889725e-07	4.999794e-10	-2.077418e+00	3.306456e+01
2.530000e-06	-3.659924e-07	4.092628e-10	-2.631113e+00	2.719941e+01
2.540000e-06	-4.427803e-07	3.120643e-10	-3.183140e+00	2.127063e+01
2.550000e-06	-5.193760e-07	2.164543e-10	-3.733785e+00	1.528294e+01
2.560000e-06	-5.958235e-07	1.294875e-10	-4.283364e+00	9.241022e+00
2.570000e-06	-6.720719e-07	4.511321e-11	-4.831513e+00	3.148976e+00
2.580000e-06	-7.479884e-07	-4.737484e-11	-5.377275e+00	-2.990031e+00
2.590000e-06	-8.236120e-07	-1.483397e-10	-5.920932e+00	-9.174001e+00
2.600000e-06	-8.989613e-07	-2.459945e-10	-6.462617e+00	-1.540209e+01
2.610000e-06	-9.739326e-07	-3.325391e-10	-7.001584e+00	-2.167439e+01
2.620000e-06	-1.048441e-06	-4.212668e-10	-7.537221e+00	-2.799148e+01
2.630000e-06	-1.122552e-06	-5.248908e-10	-8.070004e+00	-3.435387e+01
2.640000e-06	-1.196316e-06	-6.345623e-10	-8.600296e+00	-4.076133e+01
2.650000e-06	-1.269678e-06	-7.322860e-10	-9.127694e+00	-4.721236e+01
2.660000e-06	-1.342568e-06	-8.206713e-10	-9.651695e+00	-5.370362e+01
2.670000e-06	-1.415019e-06	-9.154705e-10	-1.017255e+01	-6.022966e+01
2.680000e-06	-1.487142e-06	-1.019942e-09	-1.069104e+01	-6.678283e+01
2.690000e-06	-1.558859e-06	-1.124388e-09	-1.120661e+01	-7.335345e+01
2.700000e-06	-1.629895e-06	-1.222555e-09	-1.171729e+01	-7.993013e+01
2.710000e-06	-1.699967e-06	-1.317381e-09	-1.222103e+01	-8.650033e+01
2.720000e-06	-1.769053e-06	-1.414971e-09	-1.271769e+01	-9.305092e+01
2.730000e-06	-1.837481e-06	-1.518055e-09	-1.320962e+01	-9.956883e+01
2.740000e-06	-1.905481e-06	-1.620464e-09	-1.369847e+01	-1.060415e+02
2.750000e-06	-1.972956e-06	-1.717313e-09	-1.418354e+01	-1.124575e+02
2.760000e-06	-2.039747e-06	-1.809820e-09	-1.466371e+01	-1.188063e+02
2.770000e-06	-2.105801e-06	-1.902107e-09	-1.513857e+01	-1.250787e+02
2.780000e-06	-2.171114e-06	-1.997065e-09	-1.560810e+01	-1.312665e+02
2.790000e-06	-2.235741e-06	-2.093039e-09	-1.607270e+01	-1.373626e+02
2.800000e-06	-2.299840e-06	-2.185593e-09	-1.653351e+01	-1.433599e+02
2.810000e-06	-2.363132e-06	-2.270982e-09	-1.698851e+01	-1.492519e+02
2.820000e-06	-2.425223e-06	-2.353673e-09	-1.743489e+01	-1.550320e+02
2.830000e-06	-2.486267e-06	-2.440658e-09	-1.787373e+01	-1.606935e+02
2.840000e-06	-2.546507e-06	-2.531671e-09	-1.830680e+01	-1.662295e+02
2.850000e-06	-2.605986e-06	-2.615750e-09	-1.873438e+01	-1.716335e+02
2.860000e-06	-2.664572e-06	-2.687372e-09	-1.915556e+01	-1.768992e+02
2.870000e-06	-2.722147e-06	-2.759392e-09	-1.956947e+01	-1.820211e+02
2.880000e-06	-2.778809e-06	-2.840064e-09	-1.997681e+01	-1.869948e+02
2.890000e-06	-2.834743e-06	-2.920086e-09	-2.037892e+01	-1.918172e+02
2.900000e-06	-2.889540e-06	-2.989534e-09	-2.077285e+01	-1.964869e+02
2.910000e-06	-2.942790e-06	-3.052037e-09	-2.115567e+01	-2.010038e+02
2.920000e-06	-2.994762e-06	-3.116764e-09	-2.152929e+01	-2.053692e+02
2.930000e-06	-3.045588e-06	-3.186187e-09	-2.189468e+01	-2.095855e+02
2.940000e-06	-3.095113e-06	-3.252140e-09	-2.225071e+01	-2.136556e+02
