# Temperatura_=_20.0
# Concentracion g/m^3_=_12600.0
# C_Vs_to_Am_M_A/Vsm_=_65563218390.804596
# pendiente_HvsI_1/m_=_3716.3
# ordenada_HvsI_A/m_=_1297.0
# frecuencia_Hz_=_301586.8774777382

Tiempo_(s)	Campo_(V.s)	Magnetizacion_(V.s)	Campo_(kA/m)	Magnetizacion_(A/m)
0.000000e+00	-4.043339e-06	-4.260515e-09	-2.908648e+01	-2.811312e+02
1.000000e-08	-4.041730e-06	-4.270088e-09	-2.907491e+01	-2.810925e+02
2.000000e-08	-4.038546e-06	-4.273354e-09	-2.905201e+01	-2.809649e+02
3.000000e-08	-4.034229e-06	-4.264492e-09	-2.902095e+01	-2.807463e+02
4.000000e-08	-4.028732e-06	-4.252260e-09	-2.898141e+01	-2.804355e+02
5.000000e-08	-4.021921e-06	-4.245287e-09	-2.893241e+01	-2.800329e+02
6.000000e-08	-4.013919e-06	-4.240754e-09	-2.887485e+01	-2.795400e+02
7.000000e-08	-4.004533e-06	-4.224522e-09	-2.880733e+01	-2.789593e+02
8.000000e-08	-3.993477e-06	-4.198643e-09	-2.872779e+01	-2.782938e+02
9.000000e-08	-3.980710e-06	-4.215847e-09	-2.863595e+01	-2.775471e+02
1.000000e-07	-3.965828e-06	-4.242385e-09	-2.852889e+01	-2.767227e+02
1.100000e-07	-3.948961e-06	-4.239358e-09	-2.840756e+01	-2.758238e+02
1.200000e-07	-3.930801e-06	-4.181349e-09	-2.827692e+01	-2.748532e+02
1.300000e-07	-3.911711e-06	-4.055929e-09	-2.813960e+01	-2.738130e+02
1.400000e-07	-3.891819e-06	-4.119919e-09	-2.799650e+01	-2.727051e+02
1.500000e-07	-3.870909e-06	-4.234207e-09	-2.784607e+01	-2.715311e+02
1.600000e-07	-3.849002e-06	-4.115916e-09	-2.768848e+01	-2.702925e+02
1.700000e-07	-3.825758e-06	-4.083044e-09	-2.752127e+01	-2.689913e+02
1.800000e-07	-3.800468e-06	-4.047280e-09	-2.733935e+01	-2.676301e+02
1.900000e-07	-3.773601e-06	-3.966209e-09	-2.714607e+01	-2.662118e+02
2.000000e-07	-3.745855e-06	-4.136228e-09	-2.694648e+01	-2.647405e+02
2.100000e-07	-3.716927e-06	-4.155136e-09	-2.673838e+01	-2.632204e+02
2.200000e-07	-3.686569e-06	-3.899186e-09	-2.652000e+01	-2.616559e+02
2.300000e-07	-3.655091e-06	-3.894651e-09	-2.629355e+01	-2.600514e+02
2.400000e-07	-3.622424e-06	-4.022307e-09	-2.605855e+01	-2.584102e+02
2.500000e-07	-3.588210e-06	-4.009180e-09	-2.581243e+01	-2.567346e+02
2.600000e-07	-3.552455e-06	-3.929823e-09	-2.555522e+01	-2.550251e+02
2.700000e-07	-3.515380e-06	-3.787728e-09	-2.528852e+01	-2.532803e+02
2.800000e-07	-3.477224e-06	-3.804075e-09	-2.501404e+01	-2.514968e+02
2.900000e-07	-3.438046e-06	-3.911082e-09	-2.473220e+01	-2.496695e+02
3.000000e-07	-3.397591e-06	-3.832122e-09	-2.444118e+01	-2.477918e+02
3.100000e-07	-3.355513e-06	-3.737773e-09	-2.413848e+01	-2.458562e+02
3.200000e-07	-3.312045e-06	-3.724883e-09	-2.382579e+01	-2.438553e+02
3.300000e-07	-3.267513e-06	-3.674585e-09	-2.350544e+01	-2.417819e+02
3.400000e-07	-3.221815e-06	-3.662449e-09	-2.317670e+01	-2.396305e+02
3.500000e-07	-3.175028e-06	-3.682875e-09	-2.284014e+01	-2.373970e+02
3.600000e-07	-3.127203e-06	-3.613426e-09	-2.249610e+01	-2.350798e+02
3.700000e-07	-3.077896e-06	-3.505836e-09	-2.214139e+01	-2.326792e+02
3.800000e-07	-3.026943e-06	-3.481857e-09	-2.177486e+01	-2.301980e+02
3.900000e-07	-2.974752e-06	-3.507027e-09	-2.139941e+01	-2.276403e+02
4.000000e-07	-2.921546e-06	-3.476893e-09	-2.101666e+01	-2.250117e+02
4.100000e-07	-2.867312e-06	-3.414893e-09	-2.062652e+01	-2.223179e+02
4.200000e-07	-2.812131e-06	-3.337513e-09	-2.022957e+01	-2.195646e+02
4.300000e-07	-2.756245e-06	-3.286142e-09	-1.982754e+01	-2.167565e+02
4.400000e-07	-2.699284e-06	-3.294652e-09	-1.941778e+01	-2.138968e+02
4.500000e-07	-2.640914e-06	-3.275314e-09	-1.899788e+01	-2.109871e+02
4.600000e-07	-2.581584e-06	-3.188790e-09	-1.857109e+01	-2.080270e+02
4.700000e-07	-2.521575e-06	-3.089787e-09	-1.813940e+01	-2.050147e+02
4.800000e-07	-2.460724e-06	-3.055859e-09	-1.770166e+01	-2.019466e+02
4.900000e-07	-2.398950e-06	-3.076131e-09	-1.725728e+01	-1.988186e+02
5.000000e-07	-2.336356e-06	-3.042561e-09	-1.680699e+01	-1.956260e+02
5.100000e-07	-2.273070e-06	-2.932882e-09	-1.635174e+01	-1.923643e+02
5.200000e-07	-2.209118e-06	-2.847319e-09	-1.589169e+01	-1.890294e+02
5.300000e-07	-2.144135e-06	-2.838561e-09	-1.542422e+01	-1.856184e+02
5.400000e-07	-2.077979e-06	-2.838804e-09	-1.494831e+01	-1.821292e+02
5.500000e-07	-2.011002e-06	-2.770137e-09	-1.446650e+01	-1.785610e+02
5.600000e-07	-1.943462e-06	-2.657936e-09	-1.398064e+01	-1.749138e+02
5.700000e-07	-1.875333e-06	-2.585792e-09	-1.349054e+01	-1.711883e+02
5.800000e-07	-1.806547e-06	-2.571735e-09	-1.299572e+01	-1.673856e+02
5.900000e-07	-1.737174e-06	-2.549843e-09	-1.249667e+01	-1.635070e+02
6.000000e-07	-1.667133e-06	-2.464424e-09	-1.199282e+01	-1.595537e+02
6.100000e-07	-1.596438e-06	-2.363996e-09	-1.148426e+01	-1.555266e+02
6.200000e-07	-1.525279e-06	-2.309018e-09	-1.097237e+01	-1.514261e+02
6.300000e-07	-1.453701e-06	-2.278624e-09	-1.045746e+01	-1.472526e+02
6.400000e-07	-1.381726e-06	-2.220063e-09	-9.939695e+00	-1.430062e+02
6.500000e-07	-1.309287e-06	-2.132532e-09	-9.418589e+00	-1.386870e+02
6.600000e-07	-1.236224e-06	-2.054515e-09	-8.892998e+00	-1.342954e+02
6.700000e-07	-1.162418e-06	-1.992394e-09	-8.362063e+00	-1.298320e+02
6.800000e-07	-1.087934e-06	-1.930919e-09	-7.826245e+00	-1.252978e+02
6.900000e-07	-1.012978e-06	-1.863446e-09	-7.287035e+00	-1.206943e+02
7.000000e-07	-9.376491e-07	-1.793375e-09	-6.745146e+00	-1.160230e+02
7.100000e-07	-8.620272e-07	-1.718620e-09	-6.201147e+00	-1.112857e+02
7.200000e-07	-7.861094e-07	-1.637869e-09	-5.655019e+00	-1.064837e+02
7.300000e-07	-7.099374e-07	-1.560499e-09	-5.107062e+00	-1.016183e+02
7.400000e-07	-6.335993e-07	-1.495195e-09	-4.557910e+00	-9.668954e+01
7.500000e-07	-5.571049e-07	-1.429924e-09	-4.007634e+00	-9.169719e+01
7.600000e-07	-4.803796e-07	-1.343473e-09	-3.455697e+00	-8.664001e+01
7.700000e-07	-4.033594e-07	-1.243579e-09	-2.901638e+00	-8.151614e+01
7.800000e-07	-3.261486e-07	-1.162290e-09	-2.346208e+00	-7.632329e+01
7.900000e-07	-2.488715e-07	-1.108015e-09	-1.790302e+00	-7.105906e+01
8.000000e-07	-1.715853e-07	-1.044142e-09	-1.234330e+00	-6.572128e+01
8.100000e-07	-9.427445e-08	-9.418786e-10	-6.781802e-01	-6.030842e+01
8.200000e-07	-1.682628e-08	-8.288225e-10	-1.210429e-01	-5.481985e+01
8.300000e-07	6.076913e-08	-7.517340e-10	4.371536e-01	-4.925607e+01
8.400000e-07	1.383322e-07	-7.009627e-10	9.951175e-01	-4.361873e+01
8.500000e-07	2.157742e-07	-6.198591e-10	1.552210e+00	-3.791058e+01
8.600000e-07	2.931221e-07	-4.956148e-10	2.108626e+00	-3.213523e+01
8.700000e-07	3.704045e-07	-3.825371e-10	2.664571e+00	-2.629685e+01
8.800000e-07	4.476291e-07	-3.177446e-10	3.220100e+00	-2.039973e+01
8.900000e-07	5.246952e-07	-2.609928e-10	3.774489e+00	-1.444795e+01
9.000000e-07	6.015512e-07	-1.612923e-10	4.327366e+00	-8.444984e+00
9.100000e-07	6.781962e-07	-3.291993e-11	4.878726e+00	-2.393532e+00
9.200000e-07	7.545927e-07	6.943632e-11	5.428298e+00	3.704615e+00
9.300000e-07	8.306570e-07	1.341857e-10	5.975480e+00	9.848490e+00
9.400000e-07	9.063799e-07	2.069228e-10	6.520206e+00	1.603773e+01
9.500000e-07	9.818610e-07	3.178378e-10	7.063193e+00	2.227226e+01
9.600000e-07	1.057091e-06	4.431742e-10	7.604373e+00	2.855186e+01
9.700000e-07	1.131880e-06	5.405409e-10	8.142384e+00	3.487575e+01
9.800000e-07	1.205961e-06	6.108553e-10	8.675296e+00	4.124218e+01
9.900000e-07	1.279156e-06	6.943775e-10	9.201835e+00	4.764817e+01
1.000000e-06	1.351593e-06	8.111412e-10	9.722924e+00	5.408931e+01
1.010000e-06	1.423575e-06	9.324444e-10	1.024074e+01	6.055972e+01
1.020000e-06	1.495189e-06	1.027471e-09	1.075591e+01	6.705220e+01
1.030000e-06	1.566373e-06	1.106830e-09	1.126798e+01	7.355842e+01
1.040000e-06	1.636956e-06	1.199464e-09	1.177574e+01	8.006926e+01
1.050000e-06	1.706913e-06	1.313978e-09	1.227898e+01	8.657512e+01
1.060000e-06	1.776327e-06	1.428740e-09	1.277832e+01	9.306623e+01
1.070000e-06	1.845081e-06	1.523094e-09	1.327292e+01	9.953294e+01
1.080000e-06	1.913169e-06	1.604530e-09	1.376272e+01	1.059658e+02
1.090000e-06	1.980784e-06	1.696761e-09	1.424912e+01	1.123556e+02
1.100000e-06	2.047866e-06	1.804779e-09	1.473169e+01	1.186936e+02
1.110000e-06	2.114110e-06	1.912200e-09	1.520823e+01	1.249707e+02
1.120000e-06	2.179343e-06	2.002876e-09	1.567750e+01	1.311781e+02
1.130000e-06	2.243593e-06	2.083911e-09	1.613969e+01	1.373067e+02
1.140000e-06	2.307129e-06	2.174498e-09	1.659674e+01	1.433470e+02
1.150000e-06	2.370040e-06	2.278713e-09	1.704931e+01	1.492892e+02
1.160000e-06	2.432230e-06	2.381010e-09	1.749668e+01	1.551233e+02
1.170000e-06	2.493606e-06	2.465588e-09	1.793820e+01	1.608393e+02
1.180000e-06	2.554128e-06	2.537418e-09	1.837358e+01	1.664274e+02
1.190000e-06	2.613954e-06	2.613887e-09	1.880395e+01	1.718789e+02
1.200000e-06	2.673077e-06	2.702663e-09	1.922926e+01	1.771857e+02
1.210000e-06	2.731096e-06	2.790435e-09	1.964663e+01	1.823418e+02
1.220000e-06	2.787759e-06	2.860450e-09	2.005424e+01	1.873424e+02
1.230000e-06	2.843356e-06	2.920849e-09	2.045419e+01	1.921850e+02
1.240000e-06	2.898029e-06	2.990428e-09	2.084749e+01	1.968691e+02
1.250000e-06	2.951719e-06	3.071043e-09	2.123372e+01	2.013956e+02
1.260000e-06	3.004425e-06	3.147971e-09	2.161287e+01	2.057674e+02
1.270000e-06	3.055931e-06	3.208964e-09	2.198339e+01	2.099881e+02
1.280000e-06	3.105894e-06	3.262776e-09	2.234280e+01	2.140621e+02
1.290000e-06	3.154333e-06	3.324099e-09	2.269126e+01	2.179942e+02
1.300000e-06	3.201520e-06	3.390730e-09	2.303071e+01	2.217887e+02
1.310000e-06	3.247592e-06	3.449555e-09	2.336214e+01	2.254495e+02
1.320000e-06	3.292618e-06	3.495620e-09	2.368604e+01	2.289800e+02
1.330000e-06	3.336631e-06	3.538858e-09	2.400265e+01	2.323826e+02
1.340000e-06	3.379556e-06	3.590899e-09	2.431144e+01	2.356591e+02
1.350000e-06	3.421056e-06	3.646907e-09	2.460998e+01	2.388108e+02
1.360000e-06	3.461140e-06	3.695469e-09	2.489833e+01	2.418387e+02
1.370000e-06	3.500093e-06	3.735493e-09	2.517854e+01	2.447434e+02
1.380000e-06	3.537912e-06	3.775274e-09	2.545061e+01	2.475258e+02
1.390000e-06	3.574580e-06	3.818898e-09	2.571438e+01	2.501871e+02
1.400000e-06	3.610216e-06	3.862427e-09	2.597073e+01	2.527284e+02
1.410000e-06	3.644607e-06	3.899167e-09	2.621813e+01	2.551511e+02
1.420000e-06	3.677405e-06	3.929672e-09	2.645407e+01	2.574569e+02
1.430000e-06	3.708863e-06	3.960222e-09	2.668037e+01	2.596472e+02
1.440000e-06	3.739186e-06	3.993965e-09	2.689851e+01	2.617233e+02
1.450000e-06	3.768244e-06	4.029011e-09	2.710754e+01	2.636864e+02
1.460000e-06	3.796106e-06	4.059557e-09	2.730797e+01	2.655372e+02
1.470000e-06	3.822646e-06	4.083250e-09	2.749889e+01	2.672763e+02
1.480000e-06	3.847548e-06	4.104278e-09	2.767802e+01	2.689040e+02
1.490000e-06	3.870977e-06	4.125927e-09	2.784656e+01	2.704209e+02
1.500000e-06	3.893114e-06	4.148444e-09	2.800581e+01	2.718279e+02
1.510000e-06	3.913950e-06	4.169598e-09	2.815570e+01	2.731262e+02
1.520000e-06	3.933654e-06	4.185384e-09	2.829744e+01	2.743180e+02
1.530000e-06	3.952103e-06	4.198071e-09	2.843016e+01	2.754062e+02
1.540000e-06	3.969042e-06	4.214900e-09	2.855201e+01	2.763948e+02
1.550000e-06	3.984470e-06	4.236234e-09	2.866300e+01	2.772881e+02
1.560000e-06	3.998365e-06	4.253066e-09	2.876296e+01	2.780912e+02
1.570000e-06	4.010780e-06	4.260849e-09	2.885227e+01	2.788090e+02
1.580000e-06	4.021623e-06	4.266445e-09	2.893026e+01	2.794461e+02
1.590000e-06	4.030650e-06	4.275768e-09	2.899520e+01	2.800066e+02
1.600000e-06	4.038110e-06	4.286029e-09	2.904886e+01	2.804932e+02
1.610000e-06	4.044225e-06	4.292734e-09	2.909286e+01	2.809074e+02
1.620000e-06	4.048973e-06	4.293860e-09	2.912702e+01	2.812492e+02
1.630000e-06	4.052481e-06	4.293434e-09	2.915225e+01	2.815173e+02
1.640000e-06	4.054475e-06	4.299243e-09	2.916659e+01	2.817091e+02
1.650000e-06	4.054844e-06	4.308914e-09	2.916925e+01	2.818215e+02
1.660000e-06	4.053861e-06	4.314210e-09	2.916218e+01	2.818507e+02
1.670000e-06	4.051592e-06	4.309726e-09	2.914585e+01	2.817933e+02
1.680000e-06	4.048116e-06	4.304526e-09	2.912085e+01	2.816464e+02
1.690000e-06	4.043556e-06	4.303628e-09	2.908805e+01	2.814081e+02
1.700000e-06	4.037578e-06	4.302917e-09	2.904504e+01	2.810776e+02
1.710000e-06	4.030045e-06	4.295933e-09	2.899085e+01	2.806556e+02
1.720000e-06	4.021303e-06	4.286908e-09	2.892796e+01	2.801437e+02
1.730000e-06	4.011433e-06	4.294527e-09	2.885696e+01	2.795446e+02
1.740000e-06	4.000300e-06	4.273350e-09	2.877688e+01	2.788615e+02
1.750000e-06	3.987231e-06	4.213924e-09	2.868286e+01	2.780980e+02
1.760000e-06	3.971670e-06	4.186058e-09	2.857092e+01	2.772574e+02
1.770000e-06	3.954111e-06	4.206266e-09	2.844460e+01	2.763430e+02
1.780000e-06	3.935693e-06	4.319251e-09	2.831211e+01	2.753574e+02
1.790000e-06	3.917054e-06	4.246675e-09	2.817803e+01	2.743027e+02
1.800000e-06	3.897307e-06	4.051701e-09	2.803598e+01	2.731805e+02
1.810000e-06	3.875364e-06	4.136548e-09	2.787812e+01	2.719926e+02
1.820000e-06	3.851982e-06	4.148520e-09	2.770992e+01	2.707405e+02
1.830000e-06	3.827838e-06	4.124699e-09	2.753624e+01	2.694263e+02
1.840000e-06	3.802217e-06	4.195744e-09	2.735193e+01	2.680526e+02
1.850000e-06	3.775118e-06	4.004946e-09	2.715698e+01	2.666227e+02
1.860000e-06	3.746967e-06	3.916892e-09	2.695448e+01	2.651406e+02
1.870000e-06	3.717494e-06	4.165548e-09	2.674246e+01	2.636107e+02
1.880000e-06	3.686549e-06	4.128289e-09	2.651985e+01	2.620374e+02
1.890000e-06	3.654107e-06	3.887225e-09	2.628648e+01	2.604249e+02
1.900000e-06	3.620239e-06	3.862186e-09	2.604284e+01	2.587763e+02
1.910000e-06	3.585348e-06	3.888599e-09	2.579185e+01	2.570935e+02
1.920000e-06	3.549374e-06	3.966150e-09	2.553306e+01	2.553767e+02
1.930000e-06	3.511914e-06	3.921464e-09	2.526358e+01	2.536240e+02
1.940000e-06	3.472941e-06	3.742857e-09	2.498322e+01	2.518317e+02
1.950000e-06	3.432609e-06	3.816683e-09	2.469309e+01	2.499942e+02
1.960000e-06	3.391090e-06	3.825332e-09	2.439441e+01	2.481048e+02
1.970000e-06	3.348440e-06	3.711092e-09	2.408760e+01	2.461560e+02
1.980000e-06	3.304724e-06	3.786643e-09	2.377312e+01	2.441401e+02
1.990000e-06	3.260188e-06	3.727343e-09	2.345275e+01	2.420506e+02
2.000000e-06	3.214398e-06	3.596368e-09	2.312335e+01	2.398819e+02
2.010000e-06	3.167251e-06	3.586592e-09	2.278419e+01	2.376306e+02
2.020000e-06	3.119144e-06	3.607773e-09	2.243812e+01	2.352955e+02
2.030000e-06	3.069768e-06	3.626929e-09	2.208292e+01	2.328774e+02
2.040000e-06	3.019089e-06	3.504687e-09	2.171835e+01	2.303795e+02
2.050000e-06	2.967378e-06	3.406171e-09	2.134637e+01	2.278062e+02
2.060000e-06	2.914655e-06	3.416070e-09	2.096709e+01	2.251632e+02
2.070000e-06	2.860603e-06	3.412709e-09	2.057826e+01	2.224563e+02
2.080000e-06	2.805124e-06	3.409986e-09	2.017916e+01	2.196910e+02
2.090000e-06	2.748718e-06	3.299167e-09	1.977339e+01	2.168717e+02
2.100000e-06	2.691465e-06	3.200180e-09	1.936154e+01	2.140013e+02
2.110000e-06	2.633196e-06	3.208559e-09	1.894237e+01	2.110809e+02
2.120000e-06	2.574015e-06	3.208866e-09	1.851664e+01	2.081100e+02
2.130000e-06	2.514117e-06	3.182079e-09	1.808575e+01	2.050861e+02
2.140000e-06	2.453575e-06	3.054366e-09	1.765023e+01	2.020056e+02
2.150000e-06	2.391891e-06	2.966999e-09	1.720650e+01	1.988643e+02
2.160000e-06	2.328880e-06	2.992931e-09	1.675322e+01	1.956573e+02
2.170000e-06	2.265046e-06	2.977471e-09	1.629401e+01	1.923802e+02
2.180000e-06	2.200547e-06	2.903157e-09	1.583003e+01	1.890294e+02
2.190000e-06	2.135251e-06	2.786980e-09	1.536031e+01	1.856018e+02
2.200000e-06	2.069191e-06	2.733719e-09	1.488510e+01	1.820958e+02
2.210000e-06	2.002416e-06	2.738638e-09	1.440474e+01	1.785108e+02
2.220000e-06	1.934918e-06	2.698899e-09	1.391918e+01	1.748467e+02
2.230000e-06	1.866850e-06	2.613634e-09	1.342952e+01	1.711047e+02
2.240000e-06	1.798235e-06	2.512450e-09	1.293592e+01	1.672857e+02
2.250000e-06	1.728872e-06	2.468147e-09	1.243695e+01	1.633911e+02
2.260000e-06	1.658591e-06	2.442951e-09	1.193137e+01	1.594220e+02
2.270000e-06	1.587402e-06	2.380207e-09	1.141926e+01	1.553791e+02
2.280000e-06	1.515540e-06	2.298998e-09	1.090231e+01	1.512631e+02
2.290000e-06	1.443259e-06	2.222964e-09	1.038234e+01	1.470740e+02
2.300000e-06	1.370661e-06	2.165146e-09	9.860094e+00	1.428121e+02
2.310000e-06	1.297679e-06	2.101072e-09	9.335089e+00	1.384774e+02
2.320000e-06	1.224297e-06	2.038523e-09	8.807201e+00	1.340704e+02
2.330000e-06	1.150497e-06	1.979178e-09	8.276309e+00	1.295918e+02
2.340000e-06	1.076267e-06	1.901886e-09	7.742323e+00	1.250427e+02
2.350000e-06	1.001700e-06	1.815732e-09	7.205906e+00	1.204246e+02
2.360000e-06	9.267617e-07	1.743590e-09	6.666826e+00	1.157391e+02
2.370000e-06	8.515080e-07	1.696712e-09	6.125475e+00	1.109879e+02
2.380000e-06	7.760174e-07	1.639052e-09	5.582420e+00	1.061724e+02
2.390000e-06	7.002750e-07	1.543438e-09	5.037554e+00	1.012934e+02
2.400000e-06	6.243080e-07	1.441596e-09	4.491072e+00	9.635122e+01
2.410000e-06	5.481217e-07	1.372078e-09	3.943012e+00	9.134518e+01
2.420000e-06	4.717135e-07	1.329144e-09	3.393356e+00	8.627397e+01
2.430000e-06	3.951378e-07	1.261922e-09	2.842494e+00	8.113559e+01
2.440000e-06	3.184717e-07	1.149220e-09	2.290983e+00	7.592772e+01
2.450000e-06	2.416382e-07	1.039620e-09	1.738268e+00	7.064797e+01
2.460000e-06	1.645469e-07	9.785026e-10	1.183698e+00	6.529428e+01
2.470000e-06	8.733071e-08	9.398973e-10	6.282291e-01	5.986529e+01
2.480000e-06	1.014914e-08	8.567368e-10	7.300965e-02	5.436061e+01
2.490000e-06	-6.706257e-08	7.280494e-10	-4.824266e-01	4.878096e+01
2.500000e-06	-1.443092e-07	6.250149e-10	-1.038114e+00	4.312826e+01
2.510000e-06	-2.215170e-07	5.727342e-10	-1.593522e+00	3.740545e+01
2.520000e-06	-2.986355e-07	5.142894e-10	-2.148288e+00	3.161632e+01
2.530000e-06	-3.756057e-07	4.046146e-10	-2.701987e+00	2.576506e+01
2.540000e-06	-4.524204e-07	2.769721e-10	-3.254567e+00	1.985598e+01
2.550000e-06	-5.290573e-07	1.867085e-10	-3.805868e+00	1.389304e+01
2.560000e-06	-6.054636e-07	1.286738e-10	-4.355511e+00	7.879564e+00
2.570000e-06	-6.815734e-07	5.083593e-11	-4.903020e+00	1.818062e+00
2.580000e-06	-7.573664e-07	-6.411960e-11	-5.448251e+00	-4.289864e+00
2.590000e-06	-8.328794e-07	-1.814166e-10	-5.991467e+00	-1.044340e+01
2.600000e-06	-9.081010e-07	-2.672733e-10	-6.532587e+00	-1.664228e+01
2.610000e-06	-9.829440e-07	-3.344466e-10	-7.070984e+00	-2.288642e+01
2.620000e-06	-1.057345e-06	-4.232063e-10	-7.606201e+00	-2.917552e+01
2.630000e-06	-1.131344e-06	-5.411098e-10	-8.138523e+00	-3.550863e+01
2.640000e-06	-1.204995e-06	-6.555288e-10	-8.668348e+00	-4.188376e+01
2.650000e-06	-1.278302e-06	-7.424544e-10	-9.195698e+00	-4.829763e+01
2.660000e-06	-1.351167e-06	-8.199084e-10	-9.719863e+00	-5.474551e+01
2.670000e-06	-1.423512e-06	-9.175089e-10	-1.024029e+01	-6.122122e+01
2.680000e-06	-1.495474e-06	-1.034162e-09	-1.075796e+01	-6.771730e+01
2.690000e-06	-1.567007e-06	-1.144268e-09	-1.127255e+01	-7.422522e+01
2.700000e-06	-1.637870e-06	-1.234308e-09	-1.178231e+01	-8.073574e+01
2.710000e-06	-1.707786e-06	-1.317116e-09	-1.228526e+01	-8.723918e+01
2.720000e-06	-1.776756e-06	-1.413856e-09	-1.278141e+01	-9.372580e+01
2.730000e-06	-1.845126e-06	-1.525471e-09	-1.327325e+01	-1.001860e+02
2.740000e-06	-1.912992e-06	-1.630157e-09	-1.376145e+01	-1.066103e+02
2.750000e-06	-1.980253e-06	-1.718616e-09	-1.424530e+01	-1.129897e+02
2.760000e-06	-2.046891e-06	-1.803400e-09	-1.472468e+01	-1.193152e+02
2.770000e-06	-2.112834e-06	-1.898997e-09	-1.519905e+01	-1.255781e+02
2.780000e-06	-2.178050e-06	-2.003403e-09	-1.566819e+01	-1.317694e+02
2.790000e-06	-2.242601e-06	-2.103940e-09	-1.613255e+01	-1.378798e+02
2.800000e-06	-2.306489e-06	-2.192199e-09	-1.659214e+01	-1.438998e+02
2.810000e-06	-2.369509e-06	-2.272512e-09	-1.704549e+01	-1.498196e+02
2.820000e-06	-2.431449e-06	-2.358908e-09	-1.749106e+01	-1.556291e+02
2.830000e-06	-2.492407e-06	-2.454221e-09	-1.792958e+01	-1.613184e+02
2.840000e-06	-2.552591e-06	-2.544427e-09	-1.836252e+01	-1.668779e+02
2.850000e-06	-2.611980e-06	-2.619345e-09	-1.878975e+01	-1.722989e+02
2.860000e-06	-2.670449e-06	-2.688896e-09	-1.921036e+01	-1.775739e+02
2.870000e-06	-2.727910e-06	-2.767860e-09	-1.962371e+01	-1.826968e+02
2.880000e-06	-2.784441e-06	-2.854291e-09	-2.003037e+01	-1.876637e+02
2.890000e-06	-2.840119e-06	-2.932023e-09	-2.043091e+01	-1.924723e+02
2.900000e-06	-2.894562e-06	-2.996040e-09	-2.082255e+01	-1.971223e+02
2.910000e-06	-2.947571e-06	-3.058199e-09	-2.120388e+01	-2.016154e+02
2.920000e-06	-2.999353e-06	-3.128079e-09	-2.157638e+01	-2.059543e+02
2.930000e-06	-3.049978e-06	-3.201488e-09	-2.194057e+01	-2.101431e+02
2.940000e-06	-3.099308e-06	-3.264661e-09	-2.229543e+01	-2.141863e+02
