# Temperatura_=_20.0
# Concentracion g/m^3_=_12600.0
# C_Vs_to_Am_M_A/Vsm_=_65563218390.804596
# pendiente_HvsI_1/m_=_3716.3
# ordenada_HvsI_A/m_=_1297.0
# frecuencia_Hz_=_301589.20627318806

Tiempo_(s)	Campo_(V.s)	Magnetizacion_(V.s)	Campo_(kA/m)	Magnetizacion_(A/m)
0.000000e+00	-4.055065e-06	-4.256585e-09	-2.908793e+01	-2.802747e+02
1.000000e-08	-4.053449e-06	-4.260544e-09	-2.907633e+01	-2.802302e+02
2.000000e-08	-4.050319e-06	-4.259170e-09	-2.905388e+01	-2.801043e+02
3.000000e-08	-4.045961e-06	-4.254548e-09	-2.902262e+01	-2.798934e+02
4.000000e-08	-4.040337e-06	-4.252107e-09	-2.898228e+01	-2.795952e+02
5.000000e-08	-4.033444e-06	-4.249165e-09	-2.893283e+01	-2.792096e+02
6.000000e-08	-4.025424e-06	-4.241281e-09	-2.887531e+01	-2.787391e+02
7.000000e-08	-4.016018e-06	-4.227688e-09	-2.880783e+01	-2.781889e+02
8.000000e-08	-4.004920e-06	-4.222155e-09	-2.872822e+01	-2.775666e+02
9.000000e-08	-3.992046e-06	-4.233133e-09	-2.863588e+01	-2.768816e+02
1.000000e-07	-3.977081e-06	-4.237242e-09	-2.852853e+01	-2.761441e+02
1.100000e-07	-3.960161e-06	-4.219224e-09	-2.840716e+01	-2.753644e+02
1.200000e-07	-3.941947e-06	-4.162812e-09	-2.827651e+01	-2.745511e+02
1.300000e-07	-3.922780e-06	-4.120151e-09	-2.813901e+01	-2.737106e+02
1.400000e-07	-3.902710e-06	-4.157006e-09	-2.799505e+01	-2.728462e+02
1.500000e-07	-3.881644e-06	-4.171413e-09	-2.784394e+01	-2.719575e+02
1.600000e-07	-3.859585e-06	-4.126782e-09	-2.768570e+01	-2.710407e+02
1.700000e-07	-3.836289e-06	-4.082219e-09	-2.751860e+01	-2.700886e+02
1.800000e-07	-3.811096e-06	-4.038124e-09	-2.733788e+01	-2.690914e+02
1.900000e-07	-3.784229e-06	-4.044015e-09	-2.714515e+01	-2.680380e+02
2.000000e-07	-3.756402e-06	-4.093153e-09	-2.694555e+01	-2.669170e+02
2.100000e-07	-3.727399e-06	-4.069579e-09	-2.673750e+01	-2.657176e+02
2.200000e-07	-3.696972e-06	-3.999235e-09	-2.651924e+01	-2.644312e+02
2.300000e-07	-3.665373e-06	-3.980156e-09	-2.629257e+01	-2.630516e+02
2.400000e-07	-3.632557e-06	-3.993880e-09	-2.605718e+01	-2.615760e+02
2.500000e-07	-3.598280e-06	-4.012125e-09	-2.581130e+01	-2.600045e+02
2.600000e-07	-3.562483e-06	-3.977648e-09	-2.555452e+01	-2.583400e+02
2.700000e-07	-3.525265e-06	-3.884061e-09	-2.528755e+01	-2.565877e+02
2.800000e-07	-3.486899e-06	-3.845673e-09	-2.501234e+01	-2.547539e+02
2.900000e-07	-3.447520e-06	-3.855974e-09	-2.472986e+01	-2.528454e+02
3.000000e-07	-3.406913e-06	-3.847890e-09	-2.443858e+01	-2.508682e+02
3.100000e-07	-3.364714e-06	-3.835626e-09	-2.413588e+01	-2.488272e+02
3.200000e-07	-3.321098e-06	-3.773278e-09	-2.382301e+01	-2.467254e+02
3.300000e-07	-3.276379e-06	-3.678948e-09	-2.350223e+01	-2.445638e+02
3.400000e-07	-3.230568e-06	-3.678089e-09	-2.317362e+01	-2.423415e+02
3.500000e-07	-3.183706e-06	-3.724487e-09	-2.283746e+01	-2.400564e+02
3.600000e-07	-3.135637e-06	-3.674791e-09	-2.249265e+01	-2.377052e+02
3.700000e-07	-3.086057e-06	-3.552748e-09	-2.213700e+01	-2.352849e+02
3.800000e-07	-3.034967e-06	-3.488018e-09	-2.177053e+01	-2.327927e+02
3.900000e-07	-2.982658e-06	-3.512249e-09	-2.139530e+01	-2.302269e+02
4.000000e-07	-2.929251e-06	-3.541867e-09	-2.101220e+01	-2.275876e+02
4.100000e-07	-2.874808e-06	-3.473426e-09	-2.062167e+01	-2.248761e+02
4.200000e-07	-2.819521e-06	-3.335219e-09	-2.022508e+01	-2.220952e+02
4.300000e-07	-2.763471e-06	-3.281818e-09	-1.982302e+01	-2.192488e+02
4.400000e-07	-2.706310e-06	-3.339723e-09	-1.941299e+01	-2.163410e+02
4.500000e-07	-2.647790e-06	-3.353647e-09	-1.899322e+01	-2.133759e+02
4.600000e-07	-2.588285e-06	-3.228580e-09	-1.856637e+01	-2.103568e+02
4.700000e-07	-2.528104e-06	-3.077576e-09	-1.813468e+01	-2.072856e+02
4.800000e-07	-2.467082e-06	-3.059086e-09	-1.769696e+01	-2.041625e+02
4.900000e-07	-2.405167e-06	-3.132260e-09	-1.725282e+01	-2.009861e+02
5.000000e-07	-2.342466e-06	-3.107982e-09	-1.680306e+01	-1.977536e+02
5.100000e-07	-2.279058e-06	-2.950347e-09	-1.634822e+01	-1.944608e+02
5.200000e-07	-2.214915e-06	-2.829307e-09	-1.588810e+01	-1.911029e+02
5.300000e-07	-2.149717e-06	-2.853768e-09	-1.542042e+01	-1.876752e+02
5.400000e-07	-2.083350e-06	-2.907864e-09	-1.494436e+01	-1.841732e+02
5.500000e-07	-2.016159e-06	-2.831220e-09	-1.446238e+01	-1.805936e+02
5.600000e-07	-1.948456e-06	-2.662340e-09	-1.397673e+01	-1.769344e+02
5.700000e-07	-1.880201e-06	-2.574623e-09	-1.348712e+01	-1.731949e+02
5.800000e-07	-1.811251e-06	-2.611755e-09	-1.299253e+01	-1.693758e+02
5.900000e-07	-1.741655e-06	-2.623267e-09	-1.249330e+01	-1.654788e+02
6.000000e-07	-1.671476e-06	-2.504644e-09	-1.198989e+01	-1.615061e+02
6.100000e-07	-1.600610e-06	-2.351384e-09	-1.148155e+01	-1.574603e+02
6.200000e-07	-1.529215e-06	-2.302752e-09	-1.096941e+01	-1.533433e+02
6.300000e-07	-1.457520e-06	-2.332505e-09	-1.045513e+01	-1.491568e+02
6.400000e-07	-1.385458e-06	-2.300194e-09	-9.938210e+00	-1.449011e+02
6.500000e-07	-1.312706e-06	-2.165989e-09	-9.416347e+00	-1.405759e+02
6.600000e-07	-1.239192e-06	-2.039315e-09	-8.889016e+00	-1.361798e+02
6.700000e-07	-1.165044e-06	-2.003626e-09	-8.357135e+00	-1.317109e+02
6.800000e-07	-1.090285e-06	-1.998889e-09	-7.820869e+00	-1.271671e+02
6.900000e-07	-1.015113e-06	-1.928822e-09	-7.281640e+00	-1.225466e+02
7.000000e-07	-9.395997e-07	-1.800977e-09	-6.739968e+00	-1.178480e+02
7.100000e-07	-8.637514e-07	-1.702729e-09	-6.195890e+00	-1.130709e+02
7.200000e-07	-7.876489e-07	-1.665232e-09	-5.649989e+00	-1.082160e+02
7.300000e-07	-7.113136e-07	-1.628090e-09	-5.102418e+00	-1.032850e+02
7.400000e-07	-6.347697e-07	-1.541276e-09	-4.553351e+00	-9.828041e+01
7.500000e-07	-5.580028e-07	-1.429704e-09	-4.002684e+00	-9.320550e+01
7.600000e-07	-4.809984e-07	-1.343715e-09	-3.450313e+00	-8.806368e+01
7.700000e-07	-4.038099e-07	-1.285527e-09	-2.896622e+00	-8.285822e+01
7.800000e-07	-3.264702e-07	-1.220011e-09	-2.341847e+00	-7.759186e+01
7.900000e-07	-2.490326e-07	-1.130003e-09	-1.786369e+00	-7.226652e+01
8.000000e-07	-1.715758e-07	-1.031924e-09	-1.230753e+00	-6.688317e+01
8.100000e-07	-9.403573e-08	-9.440493e-10	-6.745402e-01	-6.144181e+01
8.200000e-07	-1.631435e-08	-8.697664e-10	-1.170267e-01	-5.594160e+01
8.300000e-07	6.144733e-08	-7.999437e-10	4.407760e-01	-5.038113e+01
8.400000e-07	1.391204e-07	-7.179973e-10	9.979432e-01	-4.475873e+01
8.500000e-07	2.167044e-07	-6.195399e-10	1.554471e+00	-3.907285e+01
8.600000e-07	2.942877e-07	-5.167083e-10	2.110994e+00	-3.332232e+01
8.700000e-07	3.718357e-07	-4.284223e-10	2.667264e+00	-2.750666e+01
8.800000e-07	4.492185e-07	-3.548534e-10	3.222349e+00	-2.162620e+01
8.900000e-07	5.264130e-07	-2.723199e-10	3.776083e+00	-1.568207e+01
9.000000e-07	6.034593e-07	-1.668305e-10	4.328754e+00	-9.676184e+00
9.100000e-07	6.803249e-07	-5.644957e-11	4.880129e+00	-3.611037e+00
9.200000e-07	7.569390e-07	3.044178e-11	5.429700e+00	2.510479e+00
9.300000e-07	8.332373e-07	1.011263e-10	5.977006e+00	8.685272e+00
9.400000e-07	9.091726e-07	1.906812e-10	6.521707e+00	1.491021e+01
9.500000e-07	9.848353e-07	3.058548e-10	7.064453e+00	2.118218e+01
9.600000e-07	1.060278e-06	4.161604e-10	7.605622e+00	2.749810e+01
9.700000e-07	1.135368e-06	5.020101e-10	8.144259e+00	3.385479e+01
9.800000e-07	1.209730e-06	5.822856e-10	8.677676e+00	4.024878e+01
9.900000e-07	1.283207e-06	6.857042e-10	9.204743e+00	4.667611e+01
1.000000e-06	1.355927e-06	8.057076e-10	9.726381e+00	5.313209e+01
1.010000e-06	1.428072e-06	9.113808e-10	1.024389e+01	5.961109e+01
1.020000e-06	1.499803e-06	9.947655e-10	1.075843e+01	6.610647e+01
1.030000e-06	1.571093e-06	1.082126e-09	1.126982e+01	7.261053e+01
1.040000e-06	1.641847e-06	1.190492e-09	1.177735e+01	7.911463e+01
1.050000e-06	1.711998e-06	1.303997e-09	1.228056e+01	8.560938e+01
1.060000e-06	1.781557e-06	1.402229e-09	1.277953e+01	9.208489e+01
1.070000e-06	1.850537e-06	1.489846e-09	1.327433e+01	9.853111e+01
1.080000e-06	1.918872e-06	1.586533e-09	1.376452e+01	1.049381e+02
1.090000e-06	1.986662e-06	1.692626e-09	1.425079e+01	1.112962e+02
1.100000e-06	2.053956e-06	1.792855e-09	1.473351e+01	1.175965e+02
1.110000e-06	2.120438e-06	1.882852e-09	1.521039e+01	1.238303e+02
1.120000e-06	2.185821e-06	1.974118e-09	1.567940e+01	1.299899e+02
1.130000e-06	2.250187e-06	2.071547e-09	1.614111e+01	1.360677e+02
1.140000e-06	2.313876e-06	2.166367e-09	1.659797e+01	1.420565e+02
1.150000e-06	2.376981e-06	2.255958e-09	1.705064e+01	1.479491e+02
1.160000e-06	2.439306e-06	2.346510e-09	1.749771e+01	1.537385e+02
1.170000e-06	2.500794e-06	2.438370e-09	1.793878e+01	1.594172e+02
1.180000e-06	2.561464e-06	2.524144e-09	1.837398e+01	1.649779e+02
1.190000e-06	2.621448e-06	2.601761e-09	1.880426e+01	1.704131e+02
1.200000e-06	2.680733e-06	2.679773e-09	1.922952e+01	1.757157e+02
1.210000e-06	2.738914e-06	2.763638e-09	1.964687e+01	1.808791e+02
1.220000e-06	2.795776e-06	2.843337e-09	2.005475e+01	1.858973e+02
1.230000e-06	2.851562e-06	2.910739e-09	2.045492e+01	1.907659e+02
1.240000e-06	2.906423e-06	2.975017e-09	2.084845e+01	1.954816e+02
1.250000e-06	2.960325e-06	3.049658e-09	2.123510e+01	2.000426e+02
1.260000e-06	3.013169e-06	3.129373e-09	2.161416e+01	2.044488e+02
1.270000e-06	3.064762e-06	3.196218e-09	2.198425e+01	2.087016e+02
1.280000e-06	3.114823e-06	3.250083e-09	2.234335e+01	2.128033e+02
1.290000e-06	3.163332e-06	3.307445e-09	2.269132e+01	2.167573e+02
1.300000e-06	3.210618e-06	3.374544e-09	2.303051e+01	2.205675e+02
1.310000e-06	3.256835e-06	3.438158e-09	2.336204e+01	2.242377e+02
1.320000e-06	3.301994e-06	3.485517e-09	2.368597e+01	2.277719e+02
1.330000e-06	3.346173e-06	3.526086e-09	2.400288e+01	2.311734e+02
1.340000e-06	3.389281e-06	3.576457e-09	2.431211e+01	2.344452e+02
1.350000e-06	3.430881e-06	3.633961e-09	2.461051e+01	2.375897e+02
1.360000e-06	3.471046e-06	3.682912e-09	2.489862e+01	2.406092e+02
1.370000e-06	3.510136e-06	3.720827e-09	2.517902e+01	2.435056e+02
1.380000e-06	3.548058e-06	3.760588e-09	2.545105e+01	2.462811e+02
1.390000e-06	3.584792e-06	3.806848e-09	2.571455e+01	2.489377e+02
1.400000e-06	3.620461e-06	3.851401e-09	2.597041e+01	2.514782e+02
1.410000e-06	3.654828e-06	3.885419e-09	2.621693e+01	2.539051e+02
1.420000e-06	3.687683e-06	3.912441e-09	2.645261e+01	2.562215e+02
1.430000e-06	3.719211e-06	3.943176e-09	2.667877e+01	2.584302e+02
1.440000e-06	3.749554e-06	3.979111e-09	2.689643e+01	2.605338e+02
1.450000e-06	3.778725e-06	4.012726e-09	2.710568e+01	2.625340e+02
1.460000e-06	3.806702e-06	4.040274e-09	2.730636e+01	2.644318e+02
1.470000e-06	3.833293e-06	4.066114e-09	2.749710e+01	2.662274e+02
1.480000e-06	3.858277e-06	4.093434e-09	2.767632e+01	2.679196e+02
1.490000e-06	3.881772e-06	4.119773e-09	2.784486e+01	2.695066e+02
1.500000e-06	3.903959e-06	4.142422e-09	2.800401e+01	2.709861e+02
1.510000e-06	3.924892e-06	4.162042e-09	2.815417e+01	2.723556e+02
1.520000e-06	3.944638e-06	4.178835e-09	2.829581e+01	2.736130e+02
1.530000e-06	3.963068e-06	4.193687e-09	2.842801e+01	2.747575e+02
1.540000e-06	3.980010e-06	4.210400e-09	2.854954e+01	2.757893e+02
1.550000e-06	3.995442e-06	4.228179e-09	2.866024e+01	2.767103e+02
1.560000e-06	4.009364e-06	4.242676e-09	2.876010e+01	2.775243e+02
1.570000e-06	4.021808e-06	4.252105e-09	2.884937e+01	2.782365e+02
1.580000e-06	4.032669e-06	4.260489e-09	2.892727e+01	2.788532e+02
1.590000e-06	4.041772e-06	4.271643e-09	2.899257e+01	2.793813e+02
1.600000e-06	4.049307e-06	4.283387e-09	2.904662e+01	2.798275e+02
1.610000e-06	4.055472e-06	4.290291e-09	2.909085e+01	2.801977e+02
1.620000e-06	4.060307e-06	4.290490e-09	2.912553e+01	2.804962e+02
1.630000e-06	4.063894e-06	4.289945e-09	2.915126e+01	2.807256e+02
1.640000e-06	4.065955e-06	4.294137e-09	2.916605e+01	2.808862e+02
1.650000e-06	4.066402e-06	4.298714e-09	2.916925e+01	2.809763e+02
1.660000e-06	4.065486e-06	4.297359e-09	2.916268e+01	2.809927e+02
1.670000e-06	4.063224e-06	4.293030e-09	2.914645e+01	2.809311e+02
1.680000e-06	4.059763e-06	4.291358e-09	2.912162e+01	2.807874e+02
1.690000e-06	4.055174e-06	4.292542e-09	2.908871e+01	2.805580e+02
1.700000e-06	4.049087e-06	4.290400e-09	2.904504e+01	2.802410e+02
1.710000e-06	4.041503e-06	4.281121e-09	2.899065e+01	2.798369e+02
1.720000e-06	4.032778e-06	4.272564e-09	2.892805e+01	2.793489e+02
1.730000e-06	4.022972e-06	4.265884e-09	2.885771e+01	2.787825e+02
1.740000e-06	4.011864e-06	4.236221e-09	2.877804e+01	2.781460e+02
1.750000e-06	3.998762e-06	4.200486e-09	2.868405e+01	2.774489e+02
1.760000e-06	3.983280e-06	4.187433e-09	2.857299e+01	2.767016e+02
1.770000e-06	3.965858e-06	4.220602e-09	2.844802e+01	2.759141e+02
1.780000e-06	3.947478e-06	4.254056e-09	2.831618e+01	2.750945e+02
1.790000e-06	3.928769e-06	4.195628e-09	2.818198e+01	2.742488e+02
1.800000e-06	3.908907e-06	4.144490e-09	2.803950e+01	2.733794e+02
1.810000e-06	3.886977e-06	4.156680e-09	2.788219e+01	2.724852e+02
1.820000e-06	3.863635e-06	4.164376e-09	2.771476e+01	2.715616e+02
1.830000e-06	3.839402e-06	4.179349e-09	2.754093e+01	2.706007e+02
1.840000e-06	3.813669e-06	4.161683e-09	2.735634e+01	2.695925e+02
1.850000e-06	3.786477e-06	4.078659e-09	2.716128e+01	2.685256e+02
1.860000e-06	3.758181e-06	4.059384e-09	2.695831e+01	2.673887e+02
1.870000e-06	3.728558e-06	4.111217e-09	2.674582e+01	2.661713e+02
1.880000e-06	3.697479e-06	4.097539e-09	2.652288e+01	2.648654e+02
1.890000e-06	3.664899e-06	4.048231e-09	2.628918e+01	2.634655e+02
1.900000e-06	3.630967e-06	3.978334e-09	2.604577e+01	2.619692e+02
1.910000e-06	3.596039e-06	3.916974e-09	2.579523e+01	2.603775e+02
1.920000e-06	3.559931e-06	3.957663e-09	2.553622e+01	2.586938e+02
1.930000e-06	3.522239e-06	3.975549e-09	2.526584e+01	2.569235e+02
1.940000e-06	3.483045e-06	3.931830e-09	2.498470e+01	2.550732e+02
1.950000e-06	3.442541e-06	3.873517e-09	2.469415e+01	2.531495e+02
1.960000e-06	3.400875e-06	3.764438e-09	2.439527e+01	2.511583e+02
1.970000e-06	3.358131e-06	3.763807e-09	2.408866e+01	2.491041e+02
1.980000e-06	3.314387e-06	3.863961e-09	2.377487e+01	2.469895e+02
1.990000e-06	3.269687e-06	3.816709e-09	2.345423e+01	2.448151e+02
2.000000e-06	3.223676e-06	3.652197e-09	2.312418e+01	2.425796e+02
2.010000e-06	3.176408e-06	3.575942e-09	2.278511e+01	2.402807e+02
2.020000e-06	3.128124e-06	3.648552e-09	2.243876e+01	2.379150e+02
2.030000e-06	3.078605e-06	3.702641e-09	2.208355e+01	2.354795e+02
2.040000e-06	3.027834e-06	3.589983e-09	2.171936e+01	2.329716e+02
2.050000e-06	2.976007e-06	3.426899e-09	2.134759e+01	2.303901e+02
2.060000e-06	2.923033e-06	3.387582e-09	2.096760e+01	2.277352e+02
2.070000e-06	2.868740e-06	3.478559e-09	2.057814e+01	2.250086e+02
2.080000e-06	2.813173e-06	3.504135e-09	2.017955e+01	2.222134e+02
2.090000e-06	2.756630e-06	3.351544e-09	1.977395e+01	2.193535e+02
2.100000e-06	2.699185e-06	3.195589e-09	1.936188e+01	2.164332e+02
2.110000e-06	2.640745e-06	3.196642e-09	1.894268e+01	2.134563e+02
2.120000e-06	2.581487e-06	3.292614e-09	1.851761e+01	2.104260e+02
2.130000e-06	2.521554e-06	3.267559e-09	1.808769e+01	2.073437e+02
2.140000e-06	2.460809e-06	3.077224e-09	1.765196e+01	2.042094e+02
2.150000e-06	2.398798e-06	2.953696e-09	1.720714e+01	2.010214e+02
2.160000e-06	2.335539e-06	2.997822e-09	1.675336e+01	1.977764e+02
2.170000e-06	2.271539e-06	3.057364e-09	1.629428e+01	1.944701e+02
2.180000e-06	2.206886e-06	2.968371e-09	1.583051e+01	1.910977e+02
2.190000e-06	2.141443e-06	2.792130e-09	1.536107e+01	1.876544e+02
2.200000e-06	2.075247e-06	2.723590e-09	1.488623e+01	1.841360e+02
2.210000e-06	2.008283e-06	2.773637e-09	1.440589e+01	1.805395e+02
2.220000e-06	1.940651e-06	2.778333e-09	1.392074e+01	1.768632e+02
2.230000e-06	1.872469e-06	2.646536e-09	1.343165e+01	1.731066e+02
2.240000e-06	1.803624e-06	2.497194e-09	1.293781e+01	1.692707e+02
2.250000e-06	1.733926e-06	2.466270e-09	1.243785e+01	1.653573e+02
2.260000e-06	1.663272e-06	2.497336e-09	1.193104e+01	1.613688e+02
2.270000e-06	1.591839e-06	2.450874e-09	1.141863e+01	1.573076e+02
2.280000e-06	1.519890e-06	2.310623e-09	1.090252e+01	1.531757e+02
2.290000e-06	1.447534e-06	2.200432e-09	1.038350e+01	1.489744e+02
2.300000e-06	1.374784e-06	2.184284e-09	9.861646e+00	1.447039e+02
2.310000e-06	1.301633e-06	2.178225e-09	9.336918e+00	1.403637e+02
2.320000e-06	1.228054e-06	2.096382e-09	8.809117e+00	1.359522e+02
2.330000e-06	1.154027e-06	1.968397e-09	8.278107e+00	1.314674e+02
2.340000e-06	1.079568e-06	1.882742e-09	7.743995e+00	1.269074e+02
2.350000e-06	1.004736e-06	1.853051e-09	7.207205e+00	1.222703e+02
2.360000e-06	9.296336e-07	1.812550e-09	6.668478e+00	1.175549e+02
2.370000e-06	8.542473e-07	1.721537e-09	6.127715e+00	1.127611e+02
2.380000e-06	7.785785e-07	1.615172e-09	5.584925e+00	1.078898e+02
2.390000e-06	7.027038e-07	1.542323e-09	5.040658e+00	1.029428e+02
2.400000e-06	6.265992e-07	1.492585e-09	4.494742e+00	9.792290e+01
2.410000e-06	5.501863e-07	1.427166e-09	3.946615e+00	9.283340e+01
2.420000e-06	4.735746e-07	1.335197e-09	3.397061e+00	8.767772e+01
2.430000e-06	3.968253e-07	1.239478e-09	2.846520e+00	8.245905e+01
2.440000e-06	3.198597e-07	1.157767e-09	2.294428e+00	7.717997e+01
2.450000e-06	2.426175e-07	1.085598e-09	1.740352e+00	7.184220e+01
2.460000e-06	1.650790e-07	1.012987e-09	1.184150e+00	6.644649e+01
2.470000e-06	8.742952e-08	9.286313e-10	6.271523e-01	6.099266e+01
2.480000e-06	9.811489e-09	8.318593e-10	7.038010e-02	5.547971e+01
2.490000e-06	-6.781411e-08	7.391351e-10	-4.864464e-01	4.990615e+01
2.500000e-06	-1.454362e-07	6.644820e-10	-1.043248e+00	4.427032e+01
2.510000e-06	-2.230344e-07	5.946929e-10	-1.599878e+00	3.857070e+01
2.520000e-06	-3.005144e-07	5.049015e-10	-2.155660e+00	3.280628e+01
2.530000e-06	-3.777366e-07	3.955610e-10	-2.709593e+00	2.697672e+01
2.540000e-06	-4.547555e-07	2.954300e-10	-3.262067e+00	2.108254e+01
2.550000e-06	-5.315580e-07	2.202240e-10	-3.812989e+00	1.512504e+01
2.560000e-06	-6.081455e-07	1.459234e-10	-4.362369e+00	9.106268e+00
2.570000e-06	-6.844655e-07	4.522420e-11	-4.909831e+00	3.028833e+00
2.580000e-06	-7.604850e-07	-7.005382e-11	-5.455136e+00	-3.104319e+00
2.590000e-06	-8.362983e-07	-1.657712e-10	-5.998962e+00	-9.290076e+00
2.600000e-06	-9.118181e-07	-2.387059e-10	-6.540684e+00	-1.552531e+01
2.610000e-06	-9.869131e-07	-3.224173e-10	-7.079358e+00	-2.180691e+01
2.620000e-06	-1.061567e-06	-4.353446e-10	-7.614866e+00	-2.813180e+01
2.630000e-06	-1.135791e-06	-5.519870e-10	-8.147292e+00	-3.449674e+01
2.640000e-06	-1.209654e-06	-6.425559e-10	-8.677132e+00	-4.089819e+01
2.650000e-06	-1.283119e-06	-7.194222e-10	-9.204112e+00	-4.733204e+01
2.660000e-06	-1.356048e-06	-8.163207e-10	-9.727246e+00	-5.379341e+01
2.670000e-06	-1.428428e-06	-9.338296e-10	-1.024644e+01	-6.027648e+01
2.680000e-06	-1.500413e-06	-1.039550e-09	-1.076281e+01	-6.677436e+01
2.690000e-06	-1.572113e-06	-1.123304e-09	-1.127713e+01	-7.327914e+01
2.700000e-06	-1.643293e-06	-1.210687e-09	-1.178772e+01	-7.978200e+01
2.710000e-06	-1.713615e-06	-1.317172e-09	-1.229216e+01	-8.627343e+01
2.720000e-06	-1.782915e-06	-1.426286e-09	-1.278927e+01	-9.274347e+01
2.730000e-06	-1.851396e-06	-1.519986e-09	-1.328049e+01	-9.918206e+01
2.740000e-06	-1.919346e-06	-1.607258e-09	-1.376792e+01	-1.055793e+02
2.750000e-06	-1.986768e-06	-1.706960e-09	-1.425155e+01	-1.119258e+02
2.760000e-06	-2.053526e-06	-1.812612e-09	-1.473042e+01	-1.182124e+02
2.770000e-06	-2.119610e-06	-1.906189e-09	-1.520446e+01	-1.244310e+02
2.780000e-06	-2.185037e-06	-1.990119e-09	-1.567378e+01	-1.305736e+02
2.790000e-06	-2.249695e-06	-2.080183e-09	-1.613759e+01	-1.366329e+02
2.800000e-06	-2.313699e-06	-2.177567e-09	-1.659670e+01	-1.426016e+02
2.810000e-06	-2.377016e-06	-2.266809e-09	-1.705089e+01	-1.484727e+02
2.820000e-06	-2.439222e-06	-2.345261e-09	-1.749711e+01	-1.542389e+02
2.830000e-06	-2.500272e-06	-2.427233e-09	-1.793504e+01	-1.598929e+02
2.840000e-06	-2.560495e-06	-2.518603e-09	-1.836703e+01	-1.654273e+02
2.850000e-06	-2.619957e-06	-2.605900e-09	-1.879357e+01	-1.708347e+02
2.860000e-06	-2.678546e-06	-2.679003e-09	-1.921383e+01	-1.761079e+02
2.870000e-06	-2.736186e-06	-2.750018e-09	-1.962730e+01	-1.812406e+02
2.880000e-06	-2.792872e-06	-2.831849e-09	-2.003392e+01	-1.862271e+02
2.890000e-06	-2.848738e-06	-2.914953e-09	-2.043466e+01	-1.910631e+02
2.900000e-06	-2.903514e-06	-2.983316e-09	-2.082758e+01	-1.957456e+02
2.910000e-06	-2.956749e-06	-3.040791e-09	-2.120945e+01	-2.002734e+02
2.920000e-06	-3.008618e-06	-3.105079e-09	-2.158152e+01	-2.046465e+02
2.930000e-06	-3.059384e-06	-3.179096e-09	-2.194567e+01	-2.088666e+02
2.940000e-06	-3.108946e-06	-3.246225e-09	-2.230120e+01	-2.129363e+02
