# Temperatura_=_20.0
# Concentracion g/m^3_=_12600.0
# C_Vs_to_Am_M_A/Vsm_=_65563218390.804596
# pendiente_HvsI_1/m_=_3716.3
# ordenada_HvsI_A/m_=_1297.0
# frecuencia_Hz_=_301592.5375298855

Tiempo_(s)	Campo_(V.s)	Magnetizacion_(V.s)	Campo_(kA/m)	Magnetizacion_(A/m)
0.000000e+00	-4.046233e-06	-4.219630e-09	-2.908826e+01	-2.779166e+02
1.000000e-08	-4.044608e-06	-4.222292e-09	-2.907658e+01	-2.778246e+02
2.000000e-08	-4.041448e-06	-4.221845e-09	-2.905386e+01	-2.776645e+02
3.000000e-08	-4.037078e-06	-4.217834e-09	-2.902244e+01	-2.774372e+02
4.000000e-08	-4.031490e-06	-4.211923e-09	-2.898227e+01	-2.771424e+02
5.000000e-08	-4.024652e-06	-4.205672e-09	-2.893311e+01	-2.767791e+02
6.000000e-08	-4.016642e-06	-4.198811e-09	-2.887553e+01	-2.763465e+02
7.000000e-08	-4.007253e-06	-4.185871e-09	-2.880803e+01	-2.758437e+02
8.000000e-08	-3.996204e-06	-4.177903e-09	-2.872860e+01	-2.752711e+02
9.000000e-08	-3.983416e-06	-4.199274e-09	-2.863667e+01	-2.746300e+02
1.000000e-07	-3.968570e-06	-4.208787e-09	-2.852994e+01	-2.739238e+02
1.100000e-07	-3.951728e-06	-4.190705e-09	-2.840887e+01	-2.731571e+02
1.200000e-07	-3.933545e-06	-4.123489e-09	-2.827815e+01	-2.723362e+02
1.300000e-07	-3.914413e-06	-4.062849e-09	-2.814061e+01	-2.714683e+02
1.400000e-07	-3.894395e-06	-4.135270e-09	-2.799670e+01	-2.705610e+02
1.500000e-07	-3.873397e-06	-4.158560e-09	-2.784575e+01	-2.696213e+02
1.600000e-07	-3.851447e-06	-4.075325e-09	-2.768795e+01	-2.686548e+02
1.700000e-07	-3.828220e-06	-4.064040e-09	-2.752097e+01	-2.676654e+02
1.800000e-07	-3.803060e-06	-4.020972e-09	-2.734010e+01	-2.666541e+02
1.900000e-07	-3.776328e-06	-3.998645e-09	-2.714792e+01	-2.656189e+02
2.000000e-07	-3.748634e-06	-4.097731e-09	-2.694883e+01	-2.645549e+02
2.100000e-07	-3.719698e-06	-4.048038e-09	-2.674081e+01	-2.634544e+02
2.200000e-07	-3.689308e-06	-3.922015e-09	-2.652234e+01	-2.623075e+02
2.300000e-07	-3.657768e-06	-3.971423e-09	-2.629560e+01	-2.611029e+02
2.400000e-07	-3.625058e-06	-4.014254e-09	-2.606044e+01	-2.598290e+02
2.500000e-07	-3.590868e-06	-3.978407e-09	-2.581465e+01	-2.584744e+02
2.600000e-07	-3.555169e-06	-3.917956e-09	-2.555802e+01	-2.570295e+02
2.700000e-07	-3.518122e-06	-3.819581e-09	-2.529169e+01	-2.554864e+02
2.800000e-07	-3.479880e-06	-3.840776e-09	-2.501677e+01	-2.538400e+02
2.900000e-07	-3.440560e-06	-3.896799e-09	-2.473409e+01	-2.520881e+02
3.000000e-07	-3.400046e-06	-3.826479e-09	-2.444284e+01	-2.502311e+02
3.100000e-07	-3.357980e-06	-3.759147e-09	-2.414042e+01	-2.482716e+02
3.200000e-07	-3.314478e-06	-3.723405e-09	-2.382769e+01	-2.462144e+02
3.300000e-07	-3.269902e-06	-3.687952e-09	-2.350723e+01	-2.440652e+02
3.400000e-07	-3.224249e-06	-3.698980e-09	-2.317904e+01	-2.418305e+02
3.500000e-07	-3.177473e-06	-3.686848e-09	-2.284277e+01	-2.395164e+02
3.600000e-07	-3.129529e-06	-3.597861e-09	-2.249810e+01	-2.371287e+02
3.700000e-07	-3.080140e-06	-3.526467e-09	-2.214304e+01	-2.346720e+02
3.800000e-07	-3.029196e-06	-3.527084e-09	-2.177681e+01	-2.321502e+02
3.900000e-07	-2.976984e-06	-3.525415e-09	-2.140146e+01	-2.295659e+02
4.000000e-07	-2.923738e-06	-3.475365e-09	-2.101867e+01	-2.269209e+02
4.100000e-07	-2.869496e-06	-3.406075e-09	-2.062873e+01	-2.242162e+02
4.200000e-07	-2.814367e-06	-3.343824e-09	-2.023241e+01	-2.214525e+02
4.300000e-07	-2.758474e-06	-3.326516e-09	-1.983059e+01	-2.186302e+02
4.400000e-07	-2.701434e-06	-3.326531e-09	-1.942054e+01	-2.157496e+02
4.500000e-07	-2.643010e-06	-3.267731e-09	-1.900053e+01	-2.128111e+02
4.600000e-07	-2.583602e-06	-3.176027e-09	-1.857344e+01	-2.098148e+02
4.700000e-07	-2.523514e-06	-3.112935e-09	-1.814147e+01	-2.067607e+02
4.800000e-07	-2.462659e-06	-3.103075e-09	-1.770399e+01	-2.036482e+02
4.900000e-07	-2.400933e-06	-3.099246e-09	-1.726024e+01	-2.004763e+02
5.000000e-07	-2.338306e-06	-3.030542e-09	-1.681002e+01	-1.972432e+02
5.100000e-07	-2.274930e-06	-2.928006e-09	-1.635441e+01	-1.939466e+02
5.200000e-07	-2.210961e-06	-2.876863e-09	-1.589454e+01	-1.905833e+02
5.300000e-07	-2.146048e-06	-2.880178e-09	-1.542788e+01	-1.871500e+02
5.400000e-07	-2.079893e-06	-2.853291e-09	-1.495229e+01	-1.836432e+02
5.500000e-07	-2.012806e-06	-2.761595e-09	-1.447001e+01	-1.800596e+02
5.600000e-07	-1.945210e-06	-2.663358e-09	-1.398406e+01	-1.763965e+02
5.700000e-07	-1.877127e-06	-2.619686e-09	-1.349462e+01	-1.726523e+02
5.800000e-07	-1.808415e-06	-2.609036e-09	-1.300065e+01	-1.688263e+02
5.900000e-07	-1.739034e-06	-2.559089e-09	-1.250187e+01	-1.649191e+02
6.000000e-07	-1.668988e-06	-2.456873e-09	-1.199831e+01	-1.609324e+02
6.100000e-07	-1.598277e-06	-2.370457e-09	-1.148997e+01	-1.568689e+02
6.200000e-07	-1.527019e-06	-2.336684e-09	-1.097770e+01	-1.527316e+02
6.300000e-07	-1.455410e-06	-2.307643e-09	-1.046290e+01	-1.485239e+02
6.400000e-07	-1.383368e-06	-2.232840e-09	-9.944993e+00	-1.442486e+02
6.500000e-07	-1.310786e-06	-2.132686e-09	-9.423206e+00	-1.399080e+02
6.600000e-07	-1.237591e-06	-2.061467e-09	-8.897006e+00	-1.355035e+02
6.700000e-07	-1.163689e-06	-2.019241e-09	-8.365729e+00	-1.310352e+02
6.800000e-07	-1.089147e-06	-1.962818e-09	-7.829848e+00	-1.265023e+02
6.900000e-07	-1.014087e-06	-1.877521e-09	-7.290246e+00	-1.219034e+02
7.000000e-07	-9.386657e-07	-1.789408e-09	-6.748042e+00	-1.172362e+02
7.100000e-07	-8.629758e-07	-1.722328e-09	-6.203910e+00	-1.124987e+02
7.200000e-07	-7.870188e-07	-1.663732e-09	-5.657857e+00	-1.076889e+02
7.300000e-07	-7.108761e-07	-1.591249e-09	-5.110469e+00	-1.028058e+02
7.400000e-07	-6.344981e-07	-1.506965e-09	-4.561389e+00	-9.784913e+01
7.500000e-07	-5.578618e-07	-1.427451e-09	-4.010453e+00	-9.282002e+01
7.600000e-07	-4.810264e-07	-1.354207e-09	-3.458086e+00	-8.772047e+01
7.700000e-07	-4.039657e-07	-1.275127e-09	-2.904098e+00	-8.255340e+01
7.800000e-07	-3.267734e-07	-1.192009e-09	-2.349165e+00	-7.732224e+01
7.900000e-07	-2.495252e-07	-1.116650e-09	-1.793830e+00	-7.203053e+01
8.000000e-07	-1.722260e-07	-1.042540e-09	-1.238128e+00	-6.668149e+01
8.100000e-07	-9.482945e-08	-9.544689e-10	-6.817264e-01	-6.127760e+01
8.200000e-07	-1.730795e-08	-8.604612e-10	-1.244264e-01	-5.582035e+01
8.300000e-07	6.024890e-08	-7.810615e-10	4.331277e-01	-5.031009e+01
8.400000e-07	1.377748e-07	-7.115047e-10	9.904591e-01	-4.474605e+01
8.500000e-07	2.152255e-07	-6.258943e-10	1.547250e+00	-3.912655e+01
8.600000e-07	2.925999e-07	-5.210854e-10	2.103493e+00	-3.344933e+01
8.700000e-07	3.699540e-07	-4.244877e-10	2.659589e+00	-2.771196e+01
8.800000e-07	4.472318e-07	-3.517396e-10	3.215137e+00	-2.191233e+01
8.900000e-07	5.242710e-07	-2.795642e-10	3.768970e+00	-1.604898e+01
9.000000e-07	6.010635e-07	-1.812777e-10	4.321029e+00	-1.012153e+01
9.100000e-07	6.777271e-07	-6.800467e-11	4.872162e+00	-4.130791e+00
9.200000e-07	7.541772e-07	2.465704e-11	5.421760e+00	1.921116e+00
9.300000e-07	8.303267e-07	9.466168e-11	5.969196e+00	8.030907e+00
9.400000e-07	9.061833e-07	1.790758e-10	6.514527e+00	1.419433e+01
9.500000e-07	9.817538e-07	2.925331e-10	7.057801e+00	2.040649e+01
9.600000e-07	1.057025e-06	4.066488e-10	7.598927e+00	2.666211e+01
9.700000e-07	1.131804e-06	4.937019e-10	8.136506e+00	3.295590e+01
9.800000e-07	1.205816e-06	5.686432e-10	8.668576e+00	3.928273e+01
9.900000e-07	1.278979e-06	6.647018e-10	9.194542e+00	4.563775e+01
1.000000e-06	1.351449e-06	7.834817e-10	9.715532e+00	5.201635e+01
1.010000e-06	1.423500e-06	8.930763e-10	1.023350e+01	5.841403e+01
1.020000e-06	1.495197e-06	9.758210e-10	1.074893e+01	6.482620e+01
1.030000e-06	1.566439e-06	1.056393e-09	1.126108e+01	7.124785e+01
1.040000e-06	1.637069e-06	1.161209e-09	1.176884e+01	7.767330e+01
1.050000e-06	1.707022e-06	1.279125e-09	1.227173e+01	8.409598e+01
1.060000e-06	1.776445e-06	1.381587e-09	1.277082e+01	9.050828e+01
1.070000e-06	1.845321e-06	1.465006e-09	1.326597e+01	9.690154e+01
1.080000e-06	1.913522e-06	1.552890e-09	1.375626e+01	1.032661e+02
1.090000e-06	1.981185e-06	1.658049e-09	1.424269e+01	1.095918e+02
1.100000e-06	2.048330e-06	1.764970e-09	1.472539e+01	1.158677e+02
1.110000e-06	2.114675e-06	1.855665e-09	1.520234e+01	1.220831e+02
1.120000e-06	2.179975e-06	1.935560e-09	1.567178e+01	1.282274e+02
1.130000e-06	2.244250e-06	2.024397e-09	1.613385e+01	1.342908e+02
1.140000e-06	2.307831e-06	2.127899e-09	1.659093e+01	1.402639e+02
1.150000e-06	2.370825e-06	2.229582e-09	1.704380e+01	1.461385e+02
1.160000e-06	2.433094e-06	2.316100e-09	1.749145e+01	1.519072e+02
1.170000e-06	2.494547e-06	2.394698e-09	1.793323e+01	1.575630e+02
1.180000e-06	2.555152e-06	2.477540e-09	1.836892e+01	1.630999e+02
1.190000e-06	2.615041e-06	2.564634e-09	1.879946e+01	1.685121e+02
1.200000e-06	2.674219e-06	2.647006e-09	1.922489e+01	1.737941e+02
1.210000e-06	2.732255e-06	2.720987e-09	1.964211e+01	1.789407e+02
1.220000e-06	2.788932e-06	2.791330e-09	2.004956e+01	1.839467e+02
1.230000e-06	2.844536e-06	2.866277e-09	2.044929e+01	1.888074e+02
1.240000e-06	2.899210e-06	2.945254e-09	2.084234e+01	1.935187e+02
1.250000e-06	2.952928e-06	3.019396e-09	2.122852e+01	1.980773e+02
1.260000e-06	3.005647e-06	3.085236e-09	2.160751e+01	2.024809e+02
1.270000e-06	3.057211e-06	3.146325e-09	2.197821e+01	2.067289e+02
1.280000e-06	3.107258e-06	3.209826e-09	2.233800e+01	2.108219e+02
1.290000e-06	3.155760e-06	3.274549e-09	2.268667e+01	2.147624e+02
1.300000e-06	3.203041e-06	3.332599e-09	2.302657e+01	2.185542e+02
1.310000e-06	3.249205e-06	3.382686e-09	2.335845e+01	2.222024e+02
1.320000e-06	3.294324e-06	3.431023e-09	2.368281e+01	2.257127e+02
1.330000e-06	3.338456e-06	3.484003e-09	2.400007e+01	2.290915e+02
1.340000e-06	3.381531e-06	3.538529e-09	2.430974e+01	2.323448e+02
1.350000e-06	3.423147e-06	3.587874e-09	2.460891e+01	2.354778e+02
1.360000e-06	3.463336e-06	3.630884e-09	2.489783e+01	2.384950e+02
1.370000e-06	3.502409e-06	3.674790e-09	2.517873e+01	2.413990e+02
1.380000e-06	3.540278e-06	3.723200e-09	2.545096e+01	2.441917e+02
1.390000e-06	3.576956e-06	3.769328e-09	2.571464e+01	2.468730e+02
1.400000e-06	3.612542e-06	3.807925e-09	2.597047e+01	2.494424e+02
1.410000e-06	3.646790e-06	3.839894e-09	2.621667e+01	2.518982e+02
1.420000e-06	3.679541e-06	3.873735e-09	2.645212e+01	2.542389e+02
1.430000e-06	3.711028e-06	3.910956e-09	2.667848e+01	2.564630e+02
1.440000e-06	3.741326e-06	3.944806e-09	2.689629e+01	2.585697e+02
1.450000e-06	3.770363e-06	3.973206e-09	2.710504e+01	2.605591e+02
1.460000e-06	3.798231e-06	3.999672e-09	2.730538e+01	2.624322e+02
1.470000e-06	3.824797e-06	4.029028e-09	2.749636e+01	2.641909e+02
1.480000e-06	3.849764e-06	4.057886e-09	2.767585e+01	2.658379e+02
1.490000e-06	3.873282e-06	4.079909e-09	2.784492e+01	2.673762e+02
1.500000e-06	3.895482e-06	4.097427e-09	2.800452e+01	2.688090e+02
1.510000e-06	3.916393e-06	4.116173e-09	2.815484e+01	2.701392e+02
1.520000e-06	3.936154e-06	4.136716e-09	2.829691e+01	2.713692e+02
1.530000e-06	3.954523e-06	4.154958e-09	2.842896e+01	2.725004e+02
1.540000e-06	3.971331e-06	4.169661e-09	2.854979e+01	2.735340e+02
1.550000e-06	3.986764e-06	4.183679e-09	2.866074e+01	2.744701e+02
1.560000e-06	4.000746e-06	4.197986e-09	2.876125e+01	2.753089e+02
1.570000e-06	4.013169e-06	4.210274e-09	2.885056e+01	2.760502e+02
1.580000e-06	4.023942e-06	4.219525e-09	2.892801e+01	2.766944e+02
1.590000e-06	4.033000e-06	4.227549e-09	2.899313e+01	2.772425e+02
1.600000e-06	4.040552e-06	4.235296e-09	2.904742e+01	2.776962e+02
1.610000e-06	4.046730e-06	4.242550e-09	2.909183e+01	2.780583e+02
1.620000e-06	4.051546e-06	4.246314e-09	2.912646e+01	2.783322e+02
1.630000e-06	4.055052e-06	4.247586e-09	2.915166e+01	2.785220e+02
1.640000e-06	4.057057e-06	4.249861e-09	2.916607e+01	2.786322e+02
1.650000e-06	4.057499e-06	4.252535e-09	2.916925e+01	2.786667e+02
1.660000e-06	4.056553e-06	4.252859e-09	2.916245e+01	2.786292e+02
1.670000e-06	4.054324e-06	4.249571e-09	2.914643e+01	2.785224e+02
1.680000e-06	4.050928e-06	4.245896e-09	2.912201e+01	2.783478e+02
1.690000e-06	4.046408e-06	4.242494e-09	2.908952e+01	2.781060e+02
1.700000e-06	4.040414e-06	4.237605e-09	2.904643e+01	2.777965e+02
1.710000e-06	4.032882e-06	4.230032e-09	2.899228e+01	2.774184e+02
1.720000e-06	4.024143e-06	4.224790e-09	2.892946e+01	2.769706e+02
1.730000e-06	4.014310e-06	4.222967e-09	2.885877e+01	2.764527e+02
1.740000e-06	4.003243e-06	4.184542e-09	2.877921e+01	2.758651e+02
1.750000e-06	3.990233e-06	4.145105e-09	2.868568e+01	2.752097e+02
1.760000e-06	3.974763e-06	4.134985e-09	2.857446e+01	2.744899e+02
1.770000e-06	3.957331e-06	4.175479e-09	2.844914e+01	2.737110e+02
1.780000e-06	3.938994e-06	4.228286e-09	2.831732e+01	2.728793e+02
1.790000e-06	3.920365e-06	4.145859e-09	2.818340e+01	2.720023e+02
1.800000e-06	3.900623e-06	4.082000e-09	2.804147e+01	2.710873e+02
1.810000e-06	3.878725e-06	4.134765e-09	2.788405e+01	2.701413e+02
1.820000e-06	3.855391e-06	4.105558e-09	2.771630e+01	2.691697e+02
1.830000e-06	3.831184e-06	4.109656e-09	2.754228e+01	2.681755e+02
1.840000e-06	3.805412e-06	4.125679e-09	2.735701e+01	2.671592e+02
1.850000e-06	3.778206e-06	3.994684e-09	2.716142e+01	2.661182e+02
1.860000e-06	3.750035e-06	4.000068e-09	2.695890e+01	2.650470e+02
1.870000e-06	3.720569e-06	4.117997e-09	2.674707e+01	2.639374e+02
1.880000e-06	3.689587e-06	4.038110e-09	2.652434e+01	2.627790e+02
1.890000e-06	3.657055e-06	3.953452e-09	2.629047e+01	2.615605e+02
1.900000e-06	3.623137e-06	3.956420e-09	2.604663e+01	2.602701e+02
1.910000e-06	3.588245e-06	3.942616e-09	2.579580e+01	2.588968e+02
1.920000e-06	3.552226e-06	4.000048e-09	2.553686e+01	2.574313e+02
1.930000e-06	3.514705e-06	3.947220e-09	2.526712e+01	2.558663e+02
1.940000e-06	3.475696e-06	3.842942e-09	2.498668e+01	2.541974e+02
1.950000e-06	3.435312e-06	3.875420e-09	2.469637e+01	2.524227e+02
1.960000e-06	3.393765e-06	3.829386e-09	2.439768e+01	2.505433e+02
1.970000e-06	3.351131e-06	3.801388e-09	2.409119e+01	2.485623e+02
1.980000e-06	3.307424e-06	3.839845e-09	2.377698e+01	2.464848e+02
1.990000e-06	3.262868e-06	3.731343e-09	2.345667e+01	2.443167e+02
2.000000e-06	3.217036e-06	3.653037e-09	2.312719e+01	2.420643e+02
2.010000e-06	3.169861e-06	3.658027e-09	2.278805e+01	2.397339e+02
2.020000e-06	3.121689e-06	3.660393e-09	2.244174e+01	2.373309e+02
2.030000e-06	3.072269e-06	3.638307e-09	2.208646e+01	2.348600e+02
2.040000e-06	3.021594e-06	3.531385e-09	2.172216e+01	2.323245e+02
2.050000e-06	2.969884e-06	3.471777e-09	2.135042e+01	2.297270e+02
2.060000e-06	2.917070e-06	3.468020e-09	2.097074e+01	2.270689e+02
2.070000e-06	2.862886e-06	3.459311e-09	2.058121e+01	2.243515e+02
2.080000e-06	2.807371e-06	3.425698e-09	2.018211e+01	2.215751e+02
2.090000e-06	2.750943e-06	3.316566e-09	1.977646e+01	2.187402e+02
2.100000e-06	2.693647e-06	3.256884e-09	1.936455e+01	2.158471e+02
2.110000e-06	2.635365e-06	3.255978e-09	1.894557e+01	2.128961e+02
2.120000e-06	2.576238e-06	3.243468e-09	1.852051e+01	2.098873e+02
2.130000e-06	2.516383e-06	3.187883e-09	1.809021e+01	2.068206e+02
2.140000e-06	2.455777e-06	3.069237e-09	1.765451e+01	2.036954e+02
2.150000e-06	2.393973e-06	3.021832e-09	1.721021e+01	2.005104e+02
2.160000e-06	2.330895e-06	3.034365e-09	1.675674e+01	1.972639e+02
2.170000e-06	2.267069e-06	3.002644e-09	1.629790e+01	1.939532e+02
2.180000e-06	2.202546e-06	2.916195e-09	1.583404e+01	1.905751e+02
2.190000e-06	2.137216e-06	2.813429e-09	1.536439e+01	1.871263e+02
2.200000e-06	2.071189e-06	2.780035e-09	1.488972e+01	1.836031e+02
2.210000e-06	2.004471e-06	2.772431e-09	1.441009e+01	1.800026e+02
2.220000e-06	1.937044e-06	2.717864e-09	1.392536e+01	1.763221e+02
2.230000e-06	1.868988e-06	2.622316e-09	1.343611e+01	1.725603e+02
2.240000e-06	1.800318e-06	2.535448e-09	1.294243e+01	1.687167e+02
2.250000e-06	1.730873e-06	2.504683e-09	1.244320e+01	1.647922e+02
2.260000e-06	1.660457e-06	2.471150e-09	1.193698e+01	1.607887e+02
2.270000e-06	1.589155e-06	2.398117e-09	1.142439e+01	1.567090e+02
2.280000e-06	1.517307e-06	2.308678e-09	1.090788e+01	1.525563e+02
2.290000e-06	1.445133e-06	2.238605e-09	1.038902e+01	1.483337e+02
2.300000e-06	1.372570e-06	2.195277e-09	9.867369e+00	1.440442e+02
2.310000e-06	1.299534e-06	2.136298e-09	9.342318e+00	1.396897e+02
2.320000e-06	1.226082e-06	2.059118e-09	8.814274e+00	1.352714e+02
2.330000e-06	1.152237e-06	1.981882e-09	8.283398e+00	1.307893e+02
2.340000e-06	1.077969e-06	1.914920e-09	7.749491e+00	1.262424e+02
2.350000e-06	1.003346e-06	1.851184e-09	7.213029e+00	1.216289e+02
2.360000e-06	9.283495e-07	1.780405e-09	6.673879e+00	1.169468e+02
2.370000e-06	8.529864e-07	1.709524e-09	6.132096e+00	1.121938e+02
2.380000e-06	7.774140e-07	1.637395e-09	5.588808e+00	1.073682e+02
2.390000e-06	7.016494e-07	1.560791e-09	5.044138e+00	1.024692e+02
2.400000e-06	6.256833e-07	1.477613e-09	4.498021e+00	9.749683e+01
2.410000e-06	5.494935e-07	1.399048e-09	3.950294e+00	9.245232e+01
2.420000e-06	4.730923e-07	1.332701e-09	3.401048e+00	8.733794e+01
2.430000e-06	3.965406e-07	1.259704e-09	2.850720e+00	8.215674e+01
2.440000e-06	3.198240e-07	1.166314e-09	2.299206e+00	7.691221e+01
2.450000e-06	2.428990e-07	1.070289e-09	1.746194e+00	7.160787e+01
2.460000e-06	1.657134e-07	9.977826e-10	1.191310e+00	6.624680e+01
2.470000e-06	8.834959e-08	9.367892e-10	6.351428e-01	6.083129e+01
2.480000e-06	1.100102e-08	8.527587e-10	7.908605e-02	5.536260e+01
2.490000e-06	-6.636230e-08	7.470571e-10	-4.770768e-01	4.984081e+01
2.500000e-06	-1.437830e-07	6.553480e-10	-1.033652e+00	4.426495e+01
2.510000e-06	-2.211068e-07	5.882626e-10	-1.589531e+00	3.863319e+01
2.520000e-06	-2.982154e-07	5.142312e-10	-2.143862e+00	3.294318e+01
2.530000e-06	-3.751418e-07	4.108968e-10	-2.696884e+00	2.719254e+01
2.540000e-06	-4.519436e-07	2.997655e-10	-3.249010e+00	2.137924e+01
2.550000e-06	-5.285538e-07	2.147010e-10	-3.799759e+00	1.550206e+01
2.560000e-06	-6.049548e-07	1.478446e-10	-4.349004e+00	9.560830e+00
2.570000e-06	-6.811276e-07	6.258596e-11	-4.896608e+00	3.556669e+00
2.580000e-06	-7.569853e-07	-4.911575e-11	-5.441947e+00	-2.508052e+00
2.590000e-06	-8.325934e-07	-1.553915e-10	-5.985492e+00	-8.629820e+00
2.600000e-06	-9.079236e-07	-2.349939e-10	-6.527038e+00	-1.480422e+01
2.610000e-06	-9.828614e-07	-3.099256e-10	-7.065764e+00	-2.102623e+01
2.620000e-06	-1.057375e-06	-4.109931e-10	-7.601437e+00	-2.729057e+01
2.630000e-06	-1.131477e-06	-5.301063e-10	-8.134157e+00	-3.359196e+01
2.640000e-06	-1.205230e-06	-6.315593e-10	-8.664364e+00	-3.992533e+01
2.650000e-06	-1.278591e-06	-7.084634e-10	-9.191753e+00	-4.628588e+01
2.660000e-06	-1.351420e-06	-7.919619e-10	-9.715320e+00	-5.266905e+01
2.670000e-06	-1.423727e-06	-9.013955e-10	-1.023513e+01	-5.907033e+01
2.680000e-06	-1.495686e-06	-1.015687e-09	-1.075245e+01	-6.548507e+01
2.690000e-06	-1.567270e-06	-1.109337e-09	-1.126706e+01	-7.190813e+01
2.700000e-06	-1.638249e-06	-1.190381e-09	-1.177733e+01	-7.833368e+01
2.710000e-06	-1.708320e-06	-1.284321e-09	-1.228107e+01	-8.475491e+01
2.720000e-06	-1.777452e-06	-1.395405e-09	-1.277806e+01	-9.116399e+01
2.730000e-06	-1.845868e-06	-1.501745e-09	-1.326989e+01	-9.755204e+01
2.740000e-06	-1.913725e-06	-1.589655e-09	-1.375772e+01	-1.039093e+02
2.750000e-06	-1.981057e-06	-1.674450e-09	-1.424176e+01	-1.102253e+02
2.760000e-06	-2.047748e-06	-1.771698e-09	-1.472120e+01	-1.164892e+02
2.770000e-06	-2.113726e-06	-1.876085e-09	-1.519552e+01	-1.226903e+02
2.780000e-06	-2.178983e-06	-1.971865e-09	-1.566465e+01	-1.288182e+02
2.790000e-06	-2.243554e-06	-2.055472e-09	-1.612885e+01	-1.348631e+02
2.800000e-06	-2.307525e-06	-2.139824e-09	-1.658873e+01	-1.408159e+02
2.810000e-06	-2.370662e-06	-2.231456e-09	-1.704262e+01	-1.466685e+02
2.820000e-06	-2.432630e-06	-2.324976e-09	-1.748811e+01	-1.524136e+02
2.830000e-06	-2.493554e-06	-2.410374e-09	-1.792609e+01	-1.580446e+02
2.840000e-06	-2.553735e-06	-2.487556e-09	-1.835873e+01	-1.635553e+02
2.850000e-06	-2.613173e-06	-2.564630e-09	-1.878603e+01	-1.689402e+02
2.860000e-06	-2.671672e-06	-2.646354e-09	-1.920658e+01	-1.741937e+02
2.870000e-06	-2.729213e-06	-2.730558e-09	-1.962024e+01	-1.793107e+02
2.880000e-06	-2.785858e-06	-2.808315e-09	-2.002746e+01	-1.842860e+02
2.890000e-06	-2.841651e-06	-2.876331e-09	-2.042855e+01	-1.891152e+02
2.900000e-06	-2.896258e-06	-2.943371e-09	-2.082112e+01	-1.937941e+02
2.910000e-06	-2.949402e-06	-3.014550e-09	-2.120317e+01	-1.983197e+02
2.920000e-06	-3.001281e-06	-3.085472e-09	-2.157613e+01	-2.026901e+02
2.930000e-06	-3.052006e-06	-3.149220e-09	-2.194079e+01	-2.069048e+02
2.940000e-06	-3.101395e-06	-3.205735e-09	-2.229585e+01	-2.109650e+02
