# Temperatura_=_20.0
# Concentracion g/m^3_=_12600.0
# C_Vs_to_Am_M_A/Vsm_=_65563218390.804596
# pendiente_HvsI_1/m_=_3716.3
# ordenada_HvsI_A/m_=_1297.0
# frecuencia_Hz_=_301590.9356832439

Tiempo_(s)	Campo_(V.s)	Magnetizacion_(V.s)	Campo_(kA/m)	Magnetizacion_(A/m)
0.000000e+00	-4.045675e-06	-4.275348e-09	-2.908551e+01	-2.805732e+02
1.000000e-08	-4.044123e-06	-4.281377e-09	-2.907435e+01	-2.805058e+02
2.000000e-08	-4.041068e-06	-4.283014e-09	-2.905239e+01	-2.803586e+02
3.000000e-08	-4.036786e-06	-4.277022e-09	-2.902161e+01	-2.801297e+02
4.000000e-08	-4.031263e-06	-4.268419e-09	-2.898190e+01	-2.798185e+02
5.000000e-08	-4.024435e-06	-4.262379e-09	-2.893281e+01	-2.794264e+02
6.000000e-08	-4.016497e-06	-4.258768e-09	-2.887575e+01	-2.789570e+02
7.000000e-08	-4.007262e-06	-4.250576e-09	-2.880935e+01	-2.784161e+02
8.000000e-08	-3.996328e-06	-4.236576e-09	-2.873075e+01	-2.778110e+02
9.000000e-08	-3.983593e-06	-4.242905e-09	-2.863919e+01	-2.771505e+02
1.000000e-07	-3.968850e-06	-4.258838e-09	-2.853320e+01	-2.764435e+02
1.100000e-07	-3.952109e-06	-4.245268e-09	-2.841284e+01	-2.756984e+02
1.200000e-07	-3.933958e-06	-4.214086e-09	-2.828235e+01	-2.749220e+02
1.300000e-07	-3.914881e-06	-4.135796e-09	-2.814520e+01	-2.741185e+02
1.400000e-07	-3.894936e-06	-4.147305e-09	-2.800180e+01	-2.732894e+02
1.500000e-07	-3.874003e-06	-4.225197e-09	-2.785131e+01	-2.724328e+02
1.600000e-07	-3.852065e-06	-4.134429e-09	-2.769359e+01	-2.715440e+02
1.700000e-07	-3.828870e-06	-4.102788e-09	-2.752684e+01	-2.706153e+02
1.800000e-07	-3.803739e-06	-4.121330e-09	-2.734617e+01	-2.696375e+02
1.900000e-07	-3.776923e-06	-4.027753e-09	-2.715338e+01	-2.686002e+02
2.000000e-07	-3.749157e-06	-4.072233e-09	-2.695376e+01	-2.674935e+02
2.100000e-07	-3.720243e-06	-4.139375e-09	-2.674589e+01	-2.663082e+02
2.200000e-07	-3.689929e-06	-3.986796e-09	-2.652796e+01	-2.650375e+02
2.300000e-07	-3.658450e-06	-3.930173e-09	-2.630164e+01	-2.636768e+02
2.400000e-07	-3.625811e-06	-4.017092e-09	-2.606699e+01	-2.622243e+02
2.500000e-07	-3.591706e-06	-4.006112e-09	-2.582180e+01	-2.606808e+02
2.600000e-07	-3.556054e-06	-3.984681e-09	-2.556549e+01	-2.590491e+02
2.700000e-07	-3.519007e-06	-3.914342e-09	-2.529914e+01	-2.573336e+02
2.800000e-07	-3.480777e-06	-3.798588e-09	-2.502430e+01	-2.555394e+02
2.900000e-07	-3.441538e-06	-3.829682e-09	-2.474220e+01	-2.536714e+02
3.000000e-07	-3.401139e-06	-3.908157e-09	-2.445176e+01	-2.517336e+02
3.100000e-07	-3.359136e-06	-3.851446e-09	-2.414979e+01	-2.497290e+02
3.200000e-07	-3.315626e-06	-3.729123e-09	-2.383698e+01	-2.476587e+02
3.300000e-07	-3.271049e-06	-3.653989e-09	-2.351651e+01	-2.455226e+02
3.400000e-07	-3.225422e-06	-3.683885e-09	-2.318848e+01	-2.433190e+02
3.500000e-07	-3.178638e-06	-3.744866e-09	-2.285214e+01	-2.410459e+02
3.600000e-07	-3.130704e-06	-3.689974e-09	-2.250753e+01	-2.387009e+02
3.700000e-07	-3.081415e-06	-3.523106e-09	-2.215317e+01	-2.362820e+02
3.800000e-07	-3.030609e-06	-3.451214e-09	-2.178791e+01	-2.337883e+02
3.900000e-07	-2.978514e-06	-3.547025e-09	-2.141339e+01	-2.312202e+02
4.000000e-07	-2.925301e-06	-3.580554e-09	-2.103083e+01	-2.285792e+02
4.100000e-07	-2.871019e-06	-3.451286e-09	-2.064058e+01	-2.258683e+02
4.200000e-07	-2.815850e-06	-3.301254e-09	-2.024395e+01	-2.230912e+02
4.300000e-07	-2.759948e-06	-3.284377e-09	-1.984205e+01	-2.202520e+02
4.400000e-07	-2.702987e-06	-3.371375e-09	-1.943255e+01	-2.173543e+02
4.500000e-07	-2.644649e-06	-3.360704e-09	-1.901314e+01	-2.144009e+02
4.600000e-07	-2.585239e-06	-3.192655e-09	-1.858602e+01	-2.113932e+02
4.700000e-07	-2.525126e-06	-3.059369e-09	-1.815385e+01	-2.083310e+02
4.800000e-07	-2.464252e-06	-3.088074e-09	-1.771621e+01	-2.052121e+02
4.900000e-07	-2.402518e-06	-3.158440e-09	-1.727239e+01	-2.020329e+02
5.000000e-07	-2.339967e-06	-3.092817e-09	-1.682269e+01	-1.987888e+02
5.100000e-07	-2.276631e-06	-2.918949e-09	-1.636735e+01	-1.954744e+02
5.200000e-07	-2.212593e-06	-2.829538e-09	-1.590697e+01	-1.920844e+02
5.300000e-07	-2.147677e-06	-2.882420e-09	-1.544026e+01	-1.886144e+02
5.400000e-07	-2.081665e-06	-2.915436e-09	-1.496568e+01	-1.850611e+02
5.500000e-07	-2.014687e-06	-2.796828e-09	-1.448416e+01	-1.814230e+02
5.600000e-07	-1.947048e-06	-2.635933e-09	-1.399789e+01	-1.777002e+02
5.700000e-07	-1.878922e-06	-2.592201e-09	-1.350811e+01	-1.738947e+02
5.800000e-07	-1.810220e-06	-2.632426e-09	-1.301419e+01	-1.700096e+02
5.900000e-07	-1.740900e-06	-2.606947e-09	-1.251583e+01	-1.660490e+02
6.000000e-07	-1.670924e-06	-2.469250e-09	-1.201275e+01	-1.620169e+02
6.100000e-07	-1.600250e-06	-2.341175e-09	-1.150465e+01	-1.579174e+02
6.200000e-07	-1.529007e-06	-2.318063e-09	-1.099247e+01	-1.537533e+02
6.300000e-07	-1.457333e-06	-2.333119e-09	-1.047718e+01	-1.495264e+02
6.400000e-07	-1.385294e-06	-2.270206e-09	-9.959275e+00	-1.452369e+02
6.500000e-07	-1.312796e-06	-2.137841e-09	-9.438063e+00	-1.408839e+02
6.600000e-07	-1.239715e-06	-2.040543e-09	-8.912662e+00	-1.364651e+02
6.700000e-07	-1.165924e-06	-2.014219e-09	-8.382159e+00	-1.319779e+02
6.800000e-07	-1.091477e-06	-1.988977e-09	-7.846942e+00	-1.274191e+02
6.900000e-07	-1.016540e-06	-1.902029e-09	-7.308195e+00	-1.227862e+02
7.000000e-07	-9.411761e-07	-1.784692e-09	-6.766384e+00	-1.180775e+02
7.100000e-07	-8.654710e-07	-1.703015e-09	-6.222118e+00	-1.132923e+02
7.200000e-07	-7.895220e-07	-1.661549e-09	-5.676099e+00	-1.084311e+02
7.300000e-07	-7.133888e-07	-1.607406e-09	-5.128756e+00	-1.034957e+02
7.400000e-07	-6.370024e-07	-1.516869e-09	-4.579592e+00	-9.848882e+01
7.500000e-07	-5.603848e-07	-1.417960e-09	-4.028766e+00	-9.341374e+01
7.600000e-07	-4.835787e-07	-1.341919e-09	-3.476585e+00	-8.827391e+01
7.700000e-07	-4.065673e-07	-1.280391e-09	-2.922928e+00	-8.307244e+01
7.800000e-07	-3.293411e-07	-1.207024e-09	-2.367727e+00	-7.781175e+01
7.900000e-07	-2.519860e-07	-1.117931e-09	-1.811600e+00	-7.249331e+01
8.000000e-07	-1.746294e-07	-1.026202e-09	-1.255461e+00	-6.711752e+01
8.100000e-07	-9.721311e-08	-9.421848e-10	-6.988928e-01	-6.168379e+01
8.200000e-07	-1.966282e-08	-8.632094e-10	-1.413617e-01	-5.619071e+01
8.300000e-07	5.795457e-08	-7.837264e-10	4.166519e-01	-5.063646e+01
8.400000e-07	1.355190e-07	-6.990826e-10	9.742846e-01	-4.501911e+01
8.500000e-07	2.130162e-07	-6.077351e-10	1.531434e+00	-3.933707e+01
8.600000e-07	2.904437e-07	-5.138152e-10	2.088082e+00	-3.358939e+01
8.700000e-07	3.677741e-07	-4.246682e-10	2.644033e+00	-2.777599e+01
8.800000e-07	4.450142e-07	-3.424641e-10	3.199334e+00	-2.189772e+01
8.900000e-07	5.220945e-07	-2.579809e-10	3.753486e+00	-1.595640e+01
9.000000e-07	5.989773e-07	-1.625981e-10	4.306219e+00	-9.954547e+00
9.100000e-07	6.756190e-07	-6.142709e-11	4.857218e+00	-3.895221e+00
9.200000e-07	7.520136e-07	3.182795e-11	5.406440e+00	2.218296e+00
9.300000e-07	8.281168e-07	1.151071e-10	5.953568e+00	8.382743e+00
9.400000e-07	9.038931e-07	2.024019e-10	6.498345e+00	1.459506e+01
9.500000e-07	9.794196e-07	3.022521e-10	7.041327e+00	2.085250e+01
9.600000e-07	1.054676e-06	4.070665e-10	7.582365e+00	2.715254e+01
9.700000e-07	1.129436e-06	5.047823e-10	8.119841e+00	3.349279e+01
9.800000e-07	1.203474e-06	5.933063e-10	8.652117e+00	3.987075e+01
9.900000e-07	1.276666e-06	6.853491e-10	9.178313e+00	4.628346e+01
1.000000e-06	1.349125e-06	7.904135e-10	9.699248e+00	5.272728e+01
1.010000e-06	1.421137e-06	9.002689e-10	1.021696e+01	5.919763e+01
1.020000e-06	1.492794e-06	1.000889e-09	1.073212e+01	6.568877e+01
1.030000e-06	1.564006e-06	1.090673e-09	1.124409e+01	7.219382e+01
1.040000e-06	1.634676e-06	1.181559e-09	1.175215e+01	7.870475e+01
1.050000e-06	1.704729e-06	1.283583e-09	1.225579e+01	8.521261e+01
1.060000e-06	1.774153e-06	1.391959e-09	1.275489e+01	9.170774e+01
1.070000e-06	1.842971e-06	1.492582e-09	1.324964e+01	9.818008e+01
1.080000e-06	1.911160e-06	1.582194e-09	1.373987e+01	1.046195e+02
1.090000e-06	1.978865e-06	1.671771e-09	1.422663e+01	1.110158e+02
1.100000e-06	2.046087e-06	1.771905e-09	1.470990e+01	1.173593e+02
1.110000e-06	2.112414e-06	1.879688e-09	1.518674e+01	1.236407e+02
1.120000e-06	2.177599e-06	1.980381e-09	1.565538e+01	1.298508e+02
1.130000e-06	2.241849e-06	2.066113e-09	1.611729e+01	1.359810e+02
1.140000e-06	2.305469e-06	2.147665e-09	1.657468e+01	1.420228e+02
1.150000e-06	2.368506e-06	2.240528e-09	1.702786e+01	1.479676e+02
1.160000e-06	2.430779e-06	2.342609e-09	1.747557e+01	1.538072e+02
1.170000e-06	2.492243e-06	2.434350e-09	1.791744e+01	1.595331e+02
1.180000e-06	2.552926e-06	2.508006e-09	1.835371e+01	1.651372e+02
1.190000e-06	2.612848e-06	2.578508e-09	1.878451e+01	1.706116e+02
1.200000e-06	2.672003e-06	2.663767e-09	1.920979e+01	1.759490e+02
1.210000e-06	2.730063e-06	2.758489e-09	1.962720e+01	1.811432e+02
1.220000e-06	2.786777e-06	2.837989e-09	2.003493e+01	1.861891e+02
1.230000e-06	2.842419e-06	2.898528e-09	2.043496e+01	1.910831e+02
1.240000e-06	2.897216e-06	2.960801e-09	2.082891e+01	1.958233e+02
1.250000e-06	2.951097e-06	3.040502e-09	2.121628e+01	2.004094e+02
1.260000e-06	3.003913e-06	3.125003e-09	2.159599e+01	2.048425e+02
1.270000e-06	3.055437e-06	3.190775e-09	2.196641e+01	2.091252e+02
1.280000e-06	3.105440e-06	3.240197e-09	2.232589e+01	2.132606e+02
1.290000e-06	3.153957e-06	3.295631e-09	2.267470e+01	2.172525e+02
1.300000e-06	3.201296e-06	3.365634e-09	2.301503e+01	2.211046e+02
1.310000e-06	3.247523e-06	3.432719e-09	2.334737e+01	2.248202e+02
1.320000e-06	3.292621e-06	3.480382e-09	2.367159e+01	2.284019e+02
1.330000e-06	3.336716e-06	3.518840e-09	2.398860e+01	2.318514e+02
1.340000e-06	3.379709e-06	3.568363e-09	2.429770e+01	2.351699e+02
1.350000e-06	3.421276e-06	3.629179e-09	2.459653e+01	2.383576e+02
1.360000e-06	3.461433e-06	3.681853e-09	2.488523e+01	2.414146e+02
1.370000e-06	3.500484e-06	3.718159e-09	2.516598e+01	2.443411e+02
1.380000e-06	3.538411e-06	3.752960e-09	2.543865e+01	2.471374e+02
1.390000e-06	3.575163e-06	3.798050e-09	2.570287e+01	2.498046e+02
1.400000e-06	3.610833e-06	3.845750e-09	2.595931e+01	2.523448e+02
1.410000e-06	3.645187e-06	3.882925e-09	2.620629e+01	2.547607e+02
1.420000e-06	3.678015e-06	3.909430e-09	2.644230e+01	2.570560e+02
1.430000e-06	3.709587e-06	3.936206e-09	2.666928e+01	2.592346e+02
1.440000e-06	3.740006e-06	3.970252e-09	2.688797e+01	2.613007e+02
1.450000e-06	3.769153e-06	4.006826e-09	2.709752e+01	2.632581e+02
1.460000e-06	3.797104e-06	4.036211e-09	2.729846e+01	2.651102e+02
1.470000e-06	3.823682e-06	4.058092e-09	2.748954e+01	2.668590e+02
1.480000e-06	3.848686e-06	4.079843e-09	2.766930e+01	2.685056e+02
1.490000e-06	3.872288e-06	4.105469e-09	2.783898e+01	2.700502e+02
1.500000e-06	3.894582e-06	4.131017e-09	2.799927e+01	2.714919e+02
1.510000e-06	3.915539e-06	4.151009e-09	2.814993e+01	2.728292e+02
1.520000e-06	3.935312e-06	4.165743e-09	2.829208e+01	2.740609e+02
1.530000e-06	3.953821e-06	4.179228e-09	2.842515e+01	2.751858e+02
1.540000e-06	3.970823e-06	4.195955e-09	2.854738e+01	2.762041e+02
1.550000e-06	3.986278e-06	4.213366e-09	2.865849e+01	2.771167e+02
1.560000e-06	4.000226e-06	4.225916e-09	2.875877e+01	2.779262e+02
1.570000e-06	4.012710e-06	4.232971e-09	2.884852e+01	2.786363e+02
1.580000e-06	4.023543e-06	4.238987e-09	2.892640e+01	2.792519e+02
1.590000e-06	4.032622e-06	4.248083e-09	2.899167e+01	2.797782e+02
1.600000e-06	4.040194e-06	4.258546e-09	2.904611e+01	2.802207e+02
1.610000e-06	4.046420e-06	4.265991e-09	2.909087e+01	2.805840e+02
1.620000e-06	4.051254e-06	4.269120e-09	2.912562e+01	2.808720e+02
1.630000e-06	4.054784e-06	4.271192e-09	2.915100e+01	2.810869e+02
1.640000e-06	4.056844e-06	4.274509e-09	2.916581e+01	2.812292e+02
1.650000e-06	4.057322e-06	4.277708e-09	2.916925e+01	2.812982e+02
1.660000e-06	4.056468e-06	4.278431e-09	2.916311e+01	2.812919e+02
1.670000e-06	4.054362e-06	4.273663e-09	2.914797e+01	2.812077e+02
1.680000e-06	4.051048e-06	4.269591e-09	2.912414e+01	2.810430e+02
1.690000e-06	4.046531e-06	4.266917e-09	2.909167e+01	2.807964e+02
1.700000e-06	4.040506e-06	4.262684e-09	2.904835e+01	2.804677e+02
1.710000e-06	4.032998e-06	4.255370e-09	2.899438e+01	2.800587e+02
1.720000e-06	4.024329e-06	4.245853e-09	2.893205e+01	2.795734e+02
1.730000e-06	4.014545e-06	4.239359e-09	2.886171e+01	2.790180e+02
1.740000e-06	4.003471e-06	4.222973e-09	2.878210e+01	2.784003e+02
1.750000e-06	3.990473e-06	4.175251e-09	2.868865e+01	2.777291e+02
1.760000e-06	3.975074e-06	4.166277e-09	2.857794e+01	2.770133e+02
1.770000e-06	3.957702e-06	4.173028e-09	2.845305e+01	2.762609e+02
1.780000e-06	3.939347e-06	4.231334e-09	2.832109e+01	2.754784e+02
1.790000e-06	3.920695e-06	4.208153e-09	2.818700e+01	2.746694e+02
1.800000e-06	3.901023e-06	4.086261e-09	2.804557e+01	2.738346e+02
1.810000e-06	3.879232e-06	4.155921e-09	2.788890e+01	2.729717e+02
1.820000e-06	3.855937e-06	4.165979e-09	2.772143e+01	2.720750e+02
1.830000e-06	3.831778e-06	4.087539e-09	2.754775e+01	2.711366e+02
1.840000e-06	3.806122e-06	4.156474e-09	2.736330e+01	2.701469e+02
1.850000e-06	3.779032e-06	4.114721e-09	2.716854e+01	2.690955e+02
1.860000e-06	3.750975e-06	4.011046e-09	2.696683e+01	2.679726e+02
1.870000e-06	3.721631e-06	4.132011e-09	2.675587e+01	2.667696e+02
1.880000e-06	3.690723e-06	4.173062e-09	2.653366e+01	2.654799e+02
1.890000e-06	3.658238e-06	4.033687e-09	2.630012e+01	2.640995e+02
1.900000e-06	3.624367e-06	3.990836e-09	2.605661e+01	2.626274e+02
1.910000e-06	3.589532e-06	3.953862e-09	2.580617e+01	2.610647e+02
1.920000e-06	3.553549e-06	3.966427e-09	2.554748e+01	2.594146e+02
1.930000e-06	3.515989e-06	4.067489e-09	2.527745e+01	2.576818e+02
1.940000e-06	3.476974e-06	3.959431e-09	2.499696e+01	2.558713e+02
1.950000e-06	3.436694e-06	3.812653e-09	2.470738e+01	2.539880e+02
1.960000e-06	3.395213e-06	3.802195e-09	2.440915e+01	2.520358e+02
1.970000e-06	3.352581e-06	3.848267e-09	2.410266e+01	2.500170e+02
1.980000e-06	3.308959e-06	3.928249e-09	2.378905e+01	2.479327e+02
1.990000e-06	3.264406e-06	3.820357e-09	2.346875e+01	2.457822e+02
2.000000e-06	3.218519e-06	3.620150e-09	2.313885e+01	2.435639e+02
2.010000e-06	3.171361e-06	3.611942e-09	2.279982e+01	2.412756e+02
2.020000e-06	3.123257e-06	3.734507e-09	2.245398e+01	2.389149e+02
2.030000e-06	3.073913e-06	3.773595e-09	2.209924e+01	2.364800e+02
2.040000e-06	3.023295e-06	3.576397e-09	2.173533e+01	2.339702e+02
2.050000e-06	2.971622e-06	3.399053e-09	2.136384e+01	2.313863e+02
2.060000e-06	2.918889e-06	3.469909e-09	2.098473e+01	2.287300e+02
2.070000e-06	2.864881e-06	3.572637e-09	2.059645e+01	2.260046e+02
2.080000e-06	2.809521e-06	3.529946e-09	2.019845e+01	2.232139e+02
2.090000e-06	2.753126e-06	3.322689e-09	1.979301e+01	2.203618e+02
2.100000e-06	2.695829e-06	3.193621e-09	1.938109e+01	2.174519e+02
2.110000e-06	2.637579e-06	3.294545e-09	1.896231e+01	2.144868e+02
2.120000e-06	2.578482e-06	3.362906e-09	1.853744e+01	2.114675e+02
2.130000e-06	2.518643e-06	3.259075e-09	1.810724e+01	2.083934e+02
2.140000e-06	2.457937e-06	3.064191e-09	1.767081e+01	2.052619e+02
2.150000e-06	2.396055e-06	2.990005e-09	1.722592e+01	2.020693e+02
2.160000e-06	2.333014e-06	3.087802e-09	1.677270e+01	1.988105e+02
2.170000e-06	2.269199e-06	3.105234e-09	1.631392e+01	1.954803e+02
2.180000e-06	2.204689e-06	2.958948e-09	1.585014e+01	1.920735e+02
2.190000e-06	2.139358e-06	2.793508e-09	1.538046e+01	1.885858e+02
2.200000e-06	2.073262e-06	2.778894e-09	1.490527e+01	1.850144e+02
2.210000e-06	2.006492e-06	2.844683e-09	1.442524e+01	1.813581e+02
2.220000e-06	1.939066e-06	2.793997e-09	1.394050e+01	1.776174e+02
2.230000e-06	1.871067e-06	2.640412e-09	1.345164e+01	1.737945e+02
2.240000e-06	1.802404e-06	2.521318e-09	1.295800e+01	1.698928e+02
2.250000e-06	1.732844e-06	2.518330e-09	1.245791e+01	1.659165e+02
2.260000e-06	1.662396e-06	2.534605e-09	1.195144e+01	1.618697e+02
2.270000e-06	1.591192e-06	2.450873e-09	1.143954e+01	1.577561e+02
2.280000e-06	1.519435e-06	2.313944e-09	1.092365e+01	1.535784e+02
2.290000e-06	1.447277e-06	2.230221e-09	1.040489e+01	1.493381e+02
2.300000e-06	1.374712e-06	2.219372e-09	9.883194e+00	1.450352e+02
2.310000e-06	1.301728e-06	2.193350e-09	9.358495e+00	1.406682e+02
2.320000e-06	1.228314e-06	2.099460e-09	8.830701e+00	1.362350e+02
2.330000e-06	1.154447e-06	1.988719e-09	8.299647e+00	1.317327e+02
2.340000e-06	1.080165e-06	1.918540e-09	7.765612e+00	1.271582e+02
2.350000e-06	1.005565e-06	1.882626e-09	7.229296e+00	1.225092e+02
2.360000e-06	9.306553e-07	1.824642e-09	6.690747e+00	1.177841e+02
2.370000e-06	8.553771e-07	1.730627e-09	6.149550e+00	1.129825e+02
2.380000e-06	7.798527e-07	1.637100e-09	5.606584e+00	1.081052e+02
2.390000e-06	7.041284e-07	1.566415e-09	5.062180e+00	1.031542e+02
2.400000e-06	6.281206e-07	1.507045e-09	4.515739e+00	9.813238e+01
2.410000e-06	5.518678e-07	1.432670e-09	3.967535e+00	9.304313e+01
2.420000e-06	4.754415e-07	1.345223e-09	3.418084e+00	8.788983e+01
2.430000e-06	3.988369e-07	1.260926e-09	2.867352e+00	8.267548e+01
2.440000e-06	3.219958e-07	1.182620e-09	2.314920e+00	7.740231e+01
2.450000e-06	2.450044e-07	1.104682e-09	1.761407e+00	7.207157e+01
2.460000e-06	1.678644e-07	1.022944e-09	1.206825e+00	6.668343e+01
2.470000e-06	9.053475e-08	9.399400e-10	6.508802e-01	6.123710e+01
2.480000e-06	1.315791e-08	8.537819e-10	9.459600e-02	5.573107e+01
2.490000e-06	-6.422497e-08	7.642828e-10	-4.617317e-01	5.016344e+01
2.500000e-06	-1.416115e-07	6.783597e-10	-1.018085e+00	4.453233e+01
2.510000e-06	-2.189417e-07	5.968503e-10	-1.574034e+00	3.883626e+01
2.520000e-06	-2.961812e-07	5.115731e-10	-2.129332e+00	3.307446e+01
2.530000e-06	-3.732716e-07	4.183760e-10	-2.683556e+00	2.724703e+01
2.540000e-06	-4.501118e-07	3.232101e-10	-3.235982e+00	2.135506e+01
2.550000e-06	-5.266755e-07	2.323712e-10	-3.786420e+00	1.540051e+01
2.560000e-06	-6.030186e-07	1.448201e-10	-4.335273e+00	9.386063e+00
2.570000e-06	-6.791152e-07	5.353807e-11	-4.882353e+00	3.314830e+00
2.580000e-06	-7.549362e-07	-4.317243e-11	-5.427452e+00	-2.809886e+00
2.590000e-06	-8.305183e-07	-1.409287e-10	-5.970833e+00	-8.984854e+00
2.600000e-06	-9.058272e-07	-2.347428e-10	-6.512251e+00	-1.520708e+01
2.610000e-06	-9.807842e-07	-3.251965e-10	-7.051138e+00	-2.147386e+01
2.620000e-06	-1.055317e-06	-4.186091e-10	-7.586976e+00	-2.778274e+01
2.630000e-06	-1.129428e-06	-5.183202e-10	-8.119777e+00	-3.413131e+01
2.640000e-06	-1.203161e-06	-6.213954e-10	-8.649867e+00	-4.051699e+01
2.650000e-06	-1.276451e-06	-7.196376e-10	-9.176773e+00	-4.693672e+01
2.660000e-06	-1.349261e-06	-8.130366e-10	-9.700225e+00	-5.338667e+01
2.670000e-06	-1.421637e-06	-9.084927e-10	-1.022056e+01	-5.986201e+01
2.680000e-06	-1.493639e-06	-1.009297e-09	-1.073820e+01	-6.635677e+01
2.690000e-06	-1.565292e-06	-1.113243e-09	-1.125333e+01	-7.286380e+01
2.700000e-06	-1.636341e-06	-1.215287e-09	-1.176413e+01	-7.937487e+01
2.710000e-06	-1.706409e-06	-1.310600e-09	-1.226786e+01	-8.588085e+01
2.720000e-06	-1.775503e-06	-1.401760e-09	-1.276460e+01	-9.237197e+01
2.730000e-06	-1.843867e-06	-1.498880e-09	-1.325609e+01	-9.883811e+01
2.740000e-06	-1.911733e-06	-1.602799e-09	-1.374400e+01	-1.052691e+02
2.750000e-06	-1.979119e-06	-1.704726e-09	-1.422845e+01	-1.116550e+02
2.760000e-06	-2.045813e-06	-1.797902e-09	-1.470793e+01	-1.179860e+02
2.770000e-06	-2.111756e-06	-1.886897e-09	-1.518202e+01	-1.242528e+02
2.780000e-06	-2.177012e-06	-1.983335e-09	-1.565116e+01	-1.304466e+02
2.790000e-06	-2.241549e-06	-2.086703e-09	-1.611513e+01	-1.365585e+02
2.800000e-06	-2.305445e-06	-2.182626e-09	-1.657450e+01	-1.425803e+02
2.810000e-06	-2.368682e-06	-2.263587e-09	-1.702913e+01	-1.485033e+02
2.820000e-06	-2.430833e-06	-2.342513e-09	-1.747596e+01	-1.543192e+02
2.830000e-06	-2.491800e-06	-2.433602e-09	-1.791426e+01	-1.600197e+02
2.840000e-06	-2.551927e-06	-2.528614e-09	-1.834653e+01	-1.655967e+02
2.850000e-06	-2.611329e-06	-2.610920e-09	-1.877359e+01	-1.710423e+02
2.860000e-06	-2.669842e-06	-2.679006e-09	-1.919426e+01	-1.763495e+02
2.870000e-06	-2.727370e-06	-2.751674e-09	-1.960784e+01	-1.815124e+02
2.880000e-06	-2.783960e-06	-2.839703e-09	-2.001468e+01	-1.865260e+02
2.890000e-06	-2.839701e-06	-2.925906e-09	-2.041542e+01	-1.913872e+02
2.900000e-06	-2.894362e-06	-2.993920e-09	-2.080840e+01	-1.960943e+02
2.910000e-06	-2.947601e-06	-3.050507e-09	-2.119115e+01	-2.006475e+02
2.920000e-06	-2.999514e-06	-3.114619e-09	-2.156436e+01	-2.050482e+02
2.930000e-06	-3.050261e-06	-3.189848e-09	-2.192919e+01	-2.092989e+02
2.940000e-06	-3.099786e-06	-3.258150e-09	-2.228525e+01	-2.134033e+02
