# Temperatura_=_20.0
# Concentracion g/m^3_=_12600.0
# C_Vs_to_Am_M_A/Vsm_=_65563218390.804596
# pendiente_HvsI_1/m_=_3716.3
# ordenada_HvsI_A/m_=_1297.0
# frecuencia_Hz_=_301595.61650431564

Tiempo_(s)	Campo_(V.s)	Magnetizacion_(V.s)	Campo_(kA/m)	Magnetizacion_(A/m)
0.000000e+00	-4.040802e-06	-4.206040e-09	-2.909069e+01	-2.766924e+02
1.000000e-08	-4.039537e-06	-4.207346e-09	-2.908158e+01	-2.766140e+02
2.000000e-08	-4.036676e-06	-4.206270e-09	-2.906099e+01	-2.764626e+02
3.000000e-08	-4.032591e-06	-4.204718e-09	-2.903158e+01	-2.762352e+02
4.000000e-08	-4.027345e-06	-4.201774e-09	-2.899381e+01	-2.759285e+02
5.000000e-08	-4.020764e-06	-4.194885e-09	-2.894643e+01	-2.755399e+02
6.000000e-08	-4.013066e-06	-4.185262e-09	-2.889102e+01	-2.750677e+02
7.000000e-08	-4.004042e-06	-4.169714e-09	-2.882604e+01	-2.745126e+02
8.000000e-08	-3.993274e-06	-4.145749e-09	-2.874852e+01	-2.738776e+02
9.000000e-08	-3.980800e-06	-4.180945e-09	-2.865872e+01	-2.731683e+02
1.000000e-07	-3.966299e-06	-4.219144e-09	-2.855433e+01	-2.723930e+02
1.100000e-07	-3.949759e-06	-4.197227e-09	-2.843525e+01	-2.715619e+02
1.200000e-07	-3.931765e-06	-4.135315e-09	-2.830570e+01	-2.706863e+02
1.300000e-07	-3.912738e-06	-3.978787e-09	-2.816873e+01	-2.697777e+02
1.400000e-07	-3.892915e-06	-4.061125e-09	-2.802602e+01	-2.688465e+02
1.500000e-07	-3.872132e-06	-4.241759e-09	-2.787640e+01	-2.679007e+02
1.600000e-07	-3.850359e-06	-4.045927e-09	-2.771964e+01	-2.669453e+02
1.700000e-07	-3.827473e-06	-4.011745e-09	-2.755488e+01	-2.659813e+02
1.800000e-07	-3.802646e-06	-4.054252e-09	-2.737615e+01	-2.650053e+02
1.900000e-07	-3.776013e-06	-3.892464e-09	-2.718441e+01	-2.640103e+02
2.000000e-07	-3.748470e-06	-4.062601e-09	-2.698613e+01	-2.629856e+02
2.100000e-07	-3.719840e-06	-4.162598e-09	-2.678001e+01	-2.619180e+02
2.200000e-07	-3.689752e-06	-3.841255e-09	-2.656340e+01	-2.607930e+02
2.300000e-07	-3.658487e-06	-3.839819e-09	-2.633831e+01	-2.595962e+02
2.400000e-07	-3.626073e-06	-4.037509e-09	-2.610496e+01	-2.583144e+02
2.500000e-07	-3.592195e-06	-3.984088e-09	-2.586106e+01	-2.569367e+02
2.600000e-07	-3.556821e-06	-3.917858e-09	-2.560640e+01	-2.554556e+02
2.700000e-07	-3.520069e-06	-3.772250e-09	-2.534181e+01	-2.538670e+02
2.800000e-07	-3.482122e-06	-3.728724e-09	-2.506862e+01	-2.521703e+02
2.900000e-07	-3.443119e-06	-3.893798e-09	-2.478783e+01	-2.503684e+02
3.000000e-07	-3.402953e-06	-3.871134e-09	-2.449866e+01	-2.484665e+02
3.100000e-07	-3.361190e-06	-3.715635e-09	-2.419800e+01	-2.464716e+02
3.200000e-07	-3.317951e-06	-3.654318e-09	-2.388671e+01	-2.443912e+02
3.300000e-07	-3.273655e-06	-3.636039e-09	-2.356782e+01	-2.422327e+02
3.400000e-07	-3.228201e-06	-3.690288e-09	-2.324058e+01	-2.400027e+02
3.500000e-07	-3.181610e-06	-3.710140e-09	-2.290516e+01	-2.377060e+02
3.600000e-07	-3.133962e-06	-3.567608e-09	-2.256214e+01	-2.353459e+02
3.700000e-07	-3.084943e-06	-3.436793e-09	-2.220924e+01	-2.329240e+02
3.800000e-07	-3.034311e-06	-3.476480e-09	-2.184473e+01	-2.304404e+02
3.900000e-07	-2.982392e-06	-3.563961e-09	-2.147094e+01	-2.278945e+02
4.000000e-07	-2.929417e-06	-3.487608e-09	-2.108956e+01	-2.252850e+02
4.100000e-07	-2.875336e-06	-3.339392e-09	-2.070022e+01	-2.226109e+02
4.200000e-07	-2.820253e-06	-3.273641e-09	-2.030367e+01	-2.198713e+02
4.300000e-07	-2.764504e-06	-3.313994e-09	-1.990232e+01	-2.170664e+02
4.400000e-07	-2.707827e-06	-3.355844e-09	-1.949428e+01	-2.141967e+02
4.500000e-07	-2.649737e-06	-3.251496e-09	-1.907609e+01	-2.112633e+02
4.600000e-07	-2.590595e-06	-3.100377e-09	-1.865031e+01	-2.082675e+02
4.700000e-07	-2.530753e-06	-3.061499e-09	-1.821949e+01	-2.052104e+02
4.800000e-07	-2.470076e-06	-3.110336e-09	-1.778266e+01	-2.020926e+02
4.900000e-07	-2.408544e-06	-3.111586e-09	-1.733968e+01	-1.989137e+02
5.000000e-07	-2.346122e-06	-2.994347e-09	-1.689028e+01	-1.956724e+02
5.100000e-07	-2.282925e-06	-2.864106e-09	-1.643532e+01	-1.923663e+02
5.200000e-07	-2.219140e-06	-2.849765e-09	-1.597611e+01	-1.889923e+02
5.300000e-07	-2.154384e-06	-2.894575e-09	-1.550992e+01	-1.855467e+02
5.400000e-07	-2.088401e-06	-2.851693e-09	-1.503489e+01	-1.820258e+02
5.500000e-07	-2.021500e-06	-2.712659e-09	-1.455326e+01	-1.784264e+02
5.600000e-07	-1.954055e-06	-2.612738e-09	-1.406770e+01	-1.747462e+02
5.700000e-07	-1.886139e-06	-2.611575e-09	-1.357876e+01	-1.709842e+02
5.800000e-07	-1.817577e-06	-2.614220e-09	-1.308517e+01	-1.671406e+02
5.900000e-07	-1.748361e-06	-2.538201e-09	-1.258686e+01	-1.632172e+02
6.000000e-07	-1.678546e-06	-2.411147e-09	-1.208425e+01	-1.592166e+02
6.100000e-07	-1.608103e-06	-2.334221e-09	-1.157711e+01	-1.551424e+02
6.200000e-07	-1.537091e-06	-2.325845e-09	-1.106588e+01	-1.509984e+02
6.300000e-07	-1.465634e-06	-2.304089e-09	-1.055144e+01	-1.467881e+02
6.400000e-07	-1.393811e-06	-2.211779e-09	-1.003438e+01	-1.425141e+02
6.500000e-07	-1.321509e-06	-2.095528e-09	-9.513859e+00	-1.381784e+02
6.600000e-07	-1.248593e-06	-2.032134e-09	-8.988916e+00	-1.337814e+02
6.700000e-07	-1.174943e-06	-2.005461e-09	-8.458690e+00	-1.293224e+02
6.800000e-07	-1.100583e-06	-1.956038e-09	-7.923359e+00	-1.248001e+02
6.900000e-07	-1.025704e-06	-1.862786e-09	-7.384283e+00	-1.202123e+02
7.000000e-07	-9.504064e-07	-1.761655e-09	-6.842201e+00	-1.155568e+02
7.100000e-07	-8.748151e-07	-1.691428e-09	-6.298001e+00	-1.108319e+02
7.200000e-07	-7.989969e-07	-1.646806e-09	-5.752168e+00	-1.060368e+02
7.300000e-07	-7.229596e-07	-1.588345e-09	-5.204757e+00	-1.011715e+02
7.400000e-07	-6.467129e-07	-1.493990e-09	-4.655839e+00	-9.623750e+01
7.500000e-07	-5.702682e-07	-1.391334e-09	-4.105496e+00	-9.123713e+01
7.600000e-07	-4.936190e-07	-1.316848e-09	-3.553680e+00	-8.617369e+01
7.700000e-07	-4.167439e-07	-1.265189e-09	-3.000238e+00	-8.105080e+01
7.800000e-07	-3.396823e-07	-1.197342e-09	-2.445454e+00	-7.587199e+01
7.900000e-07	-2.625077e-07	-1.102144e-09	-1.889855e+00	-7.064018e+01
8.000000e-07	-1.853400e-07	-1.003651e-09	-1.334307e+00	-6.535726e+01
8.100000e-07	-1.081066e-07	-9.261880e-10	-7.782852e-01	-6.002389e+01
8.200000e-07	-3.066300e-08	-8.629466e-10	-2.207502e-01	-5.463933e+01
8.300000e-07	4.689028e-08	-7.882982e-10	3.375742e-01	-4.920169e+01
8.400000e-07	1.244135e-07	-6.907264e-10	8.956822e-01	-4.370814e+01
8.500000e-07	2.018135e-07	-5.869780e-10	1.452903e+00	-3.815546e+01
8.600000e-07	2.791698e-07	-5.032629e-10	2.009809e+00	-3.254055e+01
8.700000e-07	3.565335e-07	-4.349279e-10	2.566769e+00	-2.686094e+01
8.800000e-07	4.337911e-07	-3.554410e-10	3.122965e+00	-2.111531e+01
8.900000e-07	5.108373e-07	-2.530952e-10	3.677639e+00	-1.530375e+01
9.000000e-07	5.876218e-07	-1.503737e-10	4.230429e+00	-9.427957e+00
9.100000e-07	6.641736e-07	-6.562926e-11	4.781543e+00	-3.491097e+00
9.200000e-07	7.404480e-07	9.795606e-12	5.330661e+00	2.502381e+00
9.300000e-07	8.164439e-07	9.703763e-11	5.877773e+00	8.547151e+00
9.400000e-07	8.922337e-07	2.020556e-10	6.423401e+00	1.463746e+01
9.500000e-07	9.677814e-07	3.057397e-10	6.967287e+00	2.076757e+01
9.600000e-07	1.043000e-06	3.955290e-10	7.508805e+00	2.693215e+01
9.700000e-07	1.117707e-06	4.795042e-10	8.046635e+00	3.312654e+01
9.800000e-07	1.191707e-06	5.724722e-10	8.579382e+00	3.934680e+01
9.900000e-07	1.264925e-06	6.756988e-10	9.106495e+00	4.558965e+01
1.000000e-06	1.337436e-06	7.795713e-10	9.628515e+00	5.185222e+01
1.010000e-06	1.409443e-06	8.743685e-10	1.014691e+01	5.813170e+01
1.020000e-06	1.481067e-06	9.604192e-10	1.066255e+01	6.442494e+01
1.030000e-06	1.552250e-06	1.050847e-09	1.117501e+01	7.072804e+01
1.040000e-06	1.622850e-06	1.154426e-09	1.168328e+01	7.703609e+01
1.050000e-06	1.692852e-06	1.262226e-09	1.218724e+01	8.334297e+01
1.060000e-06	1.762327e-06	1.358421e-09	1.268741e+01	8.964137e+01
1.070000e-06	1.831203e-06	1.443579e-09	1.318326e+01	9.592288e+01
1.080000e-06	1.899420e-06	1.533480e-09	1.367437e+01	1.021784e+02
1.090000e-06	1.967119e-06	1.637626e-09	1.416175e+01	1.083982e+02
1.100000e-06	2.034374e-06	1.741567e-09	1.464594e+01	1.145728e+02
1.110000e-06	2.100888e-06	1.830360e-09	1.512479e+01	1.206930e+02
1.120000e-06	2.166252e-06	1.909393e-09	1.559536e+01	1.267499e+02
1.130000e-06	2.230541e-06	1.998341e-09	1.605819e+01	1.327358e+02
1.140000e-06	2.294148e-06	2.102197e-09	1.651612e+01	1.386433e+02
1.150000e-06	2.357152e-06	2.203034e-09	1.696969e+01	1.444658e+02
1.160000e-06	2.419428e-06	2.285703e-09	1.741804e+01	1.501969e+02
1.170000e-06	2.480891e-06	2.359421e-09	1.786052e+01	1.558303e+02
1.180000e-06	2.541460e-06	2.443306e-09	1.829657e+01	1.613595e+02
1.190000e-06	2.601302e-06	2.536671e-09	1.872739e+01	1.667773e+02
1.200000e-06	2.660553e-06	2.621725e-09	1.915395e+01	1.720763e+02
1.210000e-06	2.718779e-06	2.690722e-09	1.957313e+01	1.772486e+02
1.220000e-06	2.775579e-06	2.755656e-09	1.998205e+01	1.822863e+02
1.230000e-06	2.831237e-06	2.832414e-09	2.038275e+01	1.871815e+02
1.240000e-06	2.886035e-06	2.916363e-09	2.077725e+01	1.919275e+02
1.250000e-06	2.939901e-06	2.989946e-09	2.116505e+01	1.965189e+02
1.260000e-06	2.992715e-06	3.051181e-09	2.154526e+01	2.009518e+02
1.270000e-06	3.044354e-06	3.111852e-09	2.191703e+01	2.052248e+02
1.280000e-06	3.094549e-06	3.181169e-09	2.227839e+01	2.093388e+02
1.290000e-06	3.143199e-06	3.251837e-09	2.262863e+01	2.132966e+02
1.300000e-06	3.190580e-06	3.310196e-09	2.296974e+01	2.171034e+02
1.310000e-06	3.236873e-06	3.355110e-09	2.330302e+01	2.207656e+02
1.320000e-06	3.282066e-06	3.401668e-09	2.362837e+01	2.242902e+02
1.330000e-06	3.326219e-06	3.458134e-09	2.394624e+01	2.276848e+02
1.340000e-06	3.369372e-06	3.515439e-09	2.425691e+01	2.309560e+02
1.350000e-06	3.411074e-06	3.562251e-09	2.455713e+01	2.341094e+02
1.360000e-06	3.451281e-06	3.600857e-09	2.484659e+01	2.371493e+02
1.370000e-06	3.490437e-06	3.643673e-09	2.512849e+01	2.400779e+02
1.380000e-06	3.528506e-06	3.696325e-09	2.540255e+01	2.428961e+02
1.390000e-06	3.565362e-06	3.746445e-09	2.566789e+01	2.456034e+02
1.400000e-06	3.601151e-06	3.783168e-09	2.592554e+01	2.481980e+02
1.410000e-06	3.635705e-06	3.812154e-09	2.617430e+01	2.506779e+02
1.420000e-06	3.668654e-06	3.845498e-09	2.641151e+01	2.530412e+02
1.430000e-06	3.700283e-06	3.886087e-09	2.663921e+01	2.552862e+02
1.440000e-06	3.730759e-06	3.924019e-09	2.685862e+01	2.574122e+02
1.450000e-06	3.759957e-06	3.951045e-09	2.706882e+01	2.594193e+02
1.460000e-06	3.788020e-06	3.972000e-09	2.727085e+01	2.613086e+02
1.470000e-06	3.814860e-06	3.998582e-09	2.746408e+01	2.630820e+02
1.480000e-06	3.840100e-06	4.031181e-09	2.764579e+01	2.647418e+02
1.490000e-06	3.863809e-06	4.057525e-09	2.781648e+01	2.662905e+02
1.500000e-06	3.886191e-06	4.072280e-09	2.797761e+01	2.677303e+02
1.510000e-06	3.907235e-06	4.084626e-09	2.812911e+01	2.690632e+02
1.520000e-06	3.927153e-06	4.104976e-09	2.827250e+01	2.702906e+02
1.530000e-06	3.945889e-06	4.129949e-09	2.840739e+01	2.714135e+02
1.540000e-06	3.963096e-06	4.148798e-09	2.853126e+01	2.724328e+02
1.550000e-06	3.978729e-06	4.158658e-09	2.864381e+01	2.733492e+02
1.560000e-06	3.992875e-06	4.166764e-09	2.874565e+01	2.741639e+02
1.570000e-06	4.005536e-06	4.179783e-09	2.883680e+01	2.748785e+02
1.580000e-06	4.016649e-06	4.193676e-09	2.891681e+01	2.754956e+02
1.590000e-06	4.025973e-06	4.199556e-09	2.898393e+01	2.760187e+02
1.600000e-06	4.033735e-06	4.198577e-09	2.903982e+01	2.764518e+02
1.610000e-06	4.040150e-06	4.199986e-09	2.908599e+01	2.767998e+02
1.620000e-06	4.045097e-06	4.207955e-09	2.912161e+01	2.770672e+02
1.630000e-06	4.048783e-06	4.216968e-09	2.914815e+01	2.772584e+02
1.640000e-06	4.051073e-06	4.221026e-09	2.916463e+01	2.773768e+02
1.650000e-06	4.051714e-06	4.220297e-09	2.916925e+01	2.774244e+02
1.660000e-06	4.050962e-06	4.220057e-09	2.916384e+01	2.774018e+02
1.670000e-06	4.048991e-06	4.219233e-09	2.914964e+01	2.773078e+02
1.680000e-06	4.045750e-06	4.218284e-09	2.912631e+01	2.771404e+02
1.690000e-06	4.041372e-06	4.211832e-09	2.909479e+01	2.768962e+02
1.700000e-06	4.035650e-06	4.201109e-09	2.905360e+01	2.765721e+02
1.710000e-06	4.028360e-06	4.190950e-09	2.900112e+01	2.761655e+02
1.720000e-06	4.019838e-06	4.184585e-09	2.893976e+01	2.756754e+02
1.730000e-06	4.010237e-06	4.199837e-09	2.887064e+01	2.751028e+02
1.740000e-06	3.999436e-06	4.167851e-09	2.879289e+01	2.744512e+02
1.750000e-06	3.986880e-06	4.079455e-09	2.870249e+01	2.737270e+02
1.760000e-06	3.971883e-06	4.061828e-09	2.859452e+01	2.729388e+02
1.770000e-06	3.954694e-06	4.092854e-09	2.847078e+01	2.720971e+02
1.780000e-06	3.936389e-06	4.252023e-09	2.833899e+01	2.712134e+02
1.790000e-06	3.917810e-06	4.182323e-09	2.820524e+01	2.702991e+02
1.800000e-06	3.898372e-06	3.920184e-09	2.806530e+01	2.693641e+02
1.810000e-06	3.876807e-06	4.091166e-09	2.791005e+01	2.684159e+02
1.820000e-06	3.853659e-06	4.097972e-09	2.774340e+01	2.674587e+02
1.830000e-06	3.829751e-06	3.985546e-09	2.757129e+01	2.664924e+02
1.840000e-06	3.804351e-06	4.169600e-09	2.738843e+01	2.655131e+02
1.850000e-06	3.777455e-06	3.989328e-09	2.719479e+01	2.645127e+02
1.860000e-06	3.749612e-06	3.798642e-09	2.699434e+01	2.634799e+02
1.870000e-06	3.720469e-06	4.131390e-09	2.678453e+01	2.624011e+02
1.880000e-06	3.689798e-06	4.139713e-09	2.656373e+01	2.612619e+02
1.890000e-06	3.657581e-06	3.872115e-09	2.633179e+01	2.600478e+02
1.900000e-06	3.623816e-06	3.919150e-09	2.608871e+01	2.587462e+02
1.910000e-06	3.589076e-06	3.915486e-09	2.583861e+01	2.573469e+02
1.920000e-06	3.553363e-06	4.003982e-09	2.558150e+01	2.558429e+02
1.930000e-06	3.516179e-06	4.059791e-09	2.531380e+01	2.542310e+02
1.940000e-06	3.477514e-06	3.767925e-09	2.503545e+01	2.525114e+02
1.950000e-06	3.437419e-06	3.770316e-09	2.474679e+01	2.506875e+02
1.960000e-06	3.396102e-06	3.871777e-09	2.444934e+01	2.487650e+02
1.970000e-06	3.353711e-06	3.803905e-09	2.414416e+01	2.467510e+02
1.980000e-06	3.310211e-06	3.877007e-09	2.383100e+01	2.446532e+02
1.990000e-06	3.265864e-06	3.704092e-09	2.351173e+01	2.424789e+02
2.000000e-06	3.220393e-06	3.541563e-09	2.318437e+01	2.402341e+02
2.010000e-06	3.173505e-06	3.668679e-09	2.284681e+01	2.379236e+02
2.020000e-06	3.125606e-06	3.720924e-09	2.250197e+01	2.355501e+02
2.030000e-06	3.076546e-06	3.666869e-09	2.214879e+01	2.331149e+02
2.040000e-06	3.026183e-06	3.448814e-09	2.178621e+01	2.306180e+02
2.050000e-06	2.974700e-06	3.380212e-09	2.141557e+01	2.280585e+02
2.060000e-06	2.922172e-06	3.533917e-09	2.103741e+01	2.254352e+02
2.070000e-06	2.868456e-06	3.515634e-09	2.065069e+01	2.227470e+02
2.080000e-06	2.813301e-06	3.400171e-09	2.025362e+01	2.199934e+02
2.090000e-06	2.757076e-06	3.236688e-09	1.984884e+01	2.171745e+02
2.100000e-06	2.699991e-06	3.214165e-09	1.943787e+01	2.142910e+02
2.110000e-06	2.641930e-06	3.329361e-09	1.901988e+01	2.113440e+02
2.120000e-06	2.582988e-06	3.266220e-09	1.859554e+01	2.083350e+02
2.130000e-06	2.523268e-06	3.142234e-09	1.816561e+01	2.052648e+02
2.140000e-06	2.462853e-06	3.017551e-09	1.773066e+01	2.021339e+02
2.150000e-06	2.401388e-06	3.009602e-09	1.728816e+01	1.989417e+02
2.160000e-06	2.338636e-06	3.090180e-09	1.683639e+01	1.956867e+02
2.170000e-06	2.274965e-06	3.001600e-09	1.637801e+01	1.923663e+02
2.180000e-06	2.210651e-06	2.859815e-09	1.591500e+01	1.889772e+02
2.190000e-06	2.145593e-06	2.770037e-09	1.544663e+01	1.855157e+02
2.200000e-06	2.079740e-06	2.788405e-09	1.497254e+01	1.819781e+02
2.210000e-06	2.013185e-06	2.805596e-09	1.449340e+01	1.783616e+02
2.220000e-06	1.945855e-06	2.692104e-09	1.400867e+01	1.746638e+02
2.230000e-06	1.877837e-06	2.575232e-09	1.351899e+01	1.708842e+02
2.240000e-06	1.809367e-06	2.508942e-09	1.302606e+01	1.670233e+02
2.250000e-06	1.740304e-06	2.509042e-09	1.252886e+01	1.630830e+02
2.260000e-06	1.670337e-06	2.481528e-09	1.202515e+01	1.590662e+02
2.270000e-06	1.599387e-06	2.374225e-09	1.151437e+01	1.549767e+02
2.280000e-06	1.527677e-06	2.271762e-09	1.099811e+01	1.508182e+02
2.290000e-06	1.455536e-06	2.212746e-09	1.047875e+01	1.465939e+02
2.300000e-06	1.383060e-06	2.191961e-09	9.956973e+00	1.423066e+02
2.310000e-06	1.310197e-06	2.135527e-09	9.432420e+00	1.379577e+02
2.320000e-06	1.236895e-06	2.039066e-09	8.904702e+00	1.335474e+02
2.330000e-06	1.163125e-06	1.950556e-09	8.373609e+00	1.290750e+02
2.340000e-06	1.088994e-06	1.883890e-09	7.839927e+00	1.245387e+02
2.350000e-06	1.014557e-06	1.840484e-09	7.304034e+00	1.199365e+02
2.360000e-06	9.398035e-07	1.781168e-09	6.765868e+00	1.152662e+02
2.370000e-06	8.647151e-07	1.693623e-09	6.225289e+00	1.105263e+02
2.380000e-06	7.893186e-07	1.599331e-09	5.682491e+00	1.057160e+02
2.390000e-06	7.137121e-07	1.526184e-09	5.138182e+00	1.008358e+02
2.400000e-06	6.378859e-07	1.476260e-09	4.592291e+00	9.588728e+01
2.410000e-06	5.617986e-07	1.406759e-09	4.044521e+00	9.087305e+01
2.420000e-06	4.855124e-07	1.310844e-09	3.495318e+00	8.579650e+01
2.430000e-06	4.090736e-07	1.218816e-09	2.945017e+00	8.066129e+01
2.440000e-06	3.325034e-07	1.147228e-09	2.393771e+00	7.547084e+01
2.450000e-06	2.557192e-07	1.084198e-09	1.840983e+00	7.022790e+01
2.460000e-06	1.787149e-07	1.006023e-09	1.286611e+00	6.493411e+01
2.470000e-06	1.016207e-07	9.129006e-10	7.315916e-01	5.958981e+01
2.480000e-06	2.445842e-08	8.198865e-10	1.760820e-01	5.419402e+01
2.490000e-06	-5.269923e-08	7.414720e-10	-3.793942e-01	4.874460e+01
2.500000e-06	-1.298215e-07	6.742138e-10	-9.346158e-01	4.323860e+01
2.510000e-06	-2.069339e-07	5.927246e-10	-1.489766e+00	3.767277e+01
2.520000e-06	-2.839768e-07	4.903874e-10	-2.044416e+00	3.204411e+01
2.530000e-06	-3.608402e-07	3.915467e-10	-2.597774e+00	2.635036e+01
2.540000e-06	-4.375417e-07	3.123790e-10	-3.149966e+00	2.059048e+01
2.550000e-06	-5.141517e-07	2.352289e-10	-3.701499e+00	1.476491e+01
2.560000e-06	-5.905937e-07	1.429455e-10	-4.251823e+00	8.875657e+00
2.570000e-06	-6.667802e-07	4.120764e-11	-4.800308e+00	2.926195e+00
2.580000e-06	-7.426423e-07	-5.231698e-11	-5.346458e+00	-3.078802e+00
2.590000e-06	-8.181661e-07	-1.357145e-10	-5.890172e+00	-9.133878e+00
2.600000e-06	-8.934130e-07	-2.215158e-10	-6.431892e+00	-1.523324e+01
2.610000e-06	-9.683012e-07	-3.154533e-10	-6.971029e+00	-2.137123e+01
2.620000e-06	-1.042776e-06	-4.172150e-10	-7.507194e+00	-2.754262e+01
2.630000e-06	-1.116882e-06	-5.173763e-10	-8.040699e+00	-3.374292e+01
2.640000e-06	-1.190617e-06	-6.095394e-10	-8.571534e+00	-3.996833e+01
2.650000e-06	-1.263927e-06	-6.953628e-10	-9.099312e+00	-4.621570e+01
2.660000e-06	-1.336758e-06	-7.873895e-10	-9.623641e+00	-5.248220e+01
2.670000e-06	-1.409156e-06	-8.925227e-10	-1.014485e+01	-5.876497e+01
2.680000e-06	-1.481223e-06	-9.968577e-10	-1.066368e+01	-6.506074e+01
2.690000e-06	-1.552874e-06	-1.088045e-09	-1.117950e+01	-7.136541e+01
2.700000e-06	-1.623878e-06	-1.172370e-09	-1.169069e+01	-7.767382e+01
2.710000e-06	-1.693950e-06	-1.265604e-09	-1.219515e+01	-8.397960e+01
2.720000e-06	-1.763003e-06	-1.371791e-09	-1.269228e+01	-9.027518e+01
2.730000e-06	-1.831400e-06	-1.474400e-09	-1.318468e+01	-9.655197e+01
2.740000e-06	-1.899316e-06	-1.560607e-09	-1.367363e+01	-1.028007e+02
2.750000e-06	-1.966648e-06	-1.642088e-09	-1.415837e+01	-1.090117e+02
2.760000e-06	-2.033332e-06	-1.738384e-09	-1.463844e+01	-1.151755e+02
2.770000e-06	-2.099316e-06	-1.846841e-09	-1.511347e+01	-1.212828e+02
2.780000e-06	-2.164578e-06	-1.944003e-09	-1.558331e+01	-1.273252e+02
2.790000e-06	-2.229188e-06	-2.023009e-09	-1.604845e+01	-1.332949e+02
2.800000e-06	-2.293188e-06	-2.102885e-09	-1.650921e+01	-1.391848e+02
2.810000e-06	-2.356389e-06	-2.197513e-09	-1.696420e+01	-1.449883e+02
2.820000e-06	-2.418437e-06	-2.295886e-09	-1.741090e+01	-1.506991e+02
2.830000e-06	-2.479384e-06	-2.379621e-09	-1.784968e+01	-1.563108e+02
2.840000e-06	-2.539587e-06	-2.451044e-09	-1.828309e+01	-1.618168e+02
2.850000e-06	-2.599075e-06	-2.526718e-09	-1.871136e+01	-1.672099e+02
2.860000e-06	-2.657684e-06	-2.613732e-09	-1.913330e+01	-1.724825e+02
2.870000e-06	-2.715314e-06	-2.702742e-09	-1.954819e+01	-1.776267e+02
2.880000e-06	-2.772028e-06	-2.777760e-09	-1.995649e+01	-1.826345e+02
2.890000e-06	-2.827872e-06	-2.839908e-09	-2.035852e+01	-1.874983e+02
2.900000e-06	-2.882531e-06	-2.908077e-09	-2.075202e+01	-1.922117e+02
2.910000e-06	-2.935766e-06	-2.987826e-09	-2.113528e+01	-1.967693e+02
2.920000e-06	-2.987747e-06	-3.063401e-09	-2.150950e+01	-2.011681e+02
2.930000e-06	-3.038562e-06	-3.123928e-09	-2.187532e+01	-2.054070e+02
2.940000e-06	-3.088095e-06	-3.175322e-09	-2.223193e+01	-2.094872e+02
