# Temperatura_=_20.0
# Concentracion g/m^3_=_12600.0
# C_Vs_to_Am_M_A/Vsm_=_65563218390.804596
# pendiente_HvsI_1/m_=_3716.3
# ordenada_HvsI_A/m_=_1297.0
# frecuencia_Hz_=_301588.92363088025

Tiempo_(s)	Campo_(V.s)	Magnetizacion_(V.s)	Campo_(kA/m)	Magnetizacion_(A/m)
0.000000e+00	-4.040456e-06	-4.234681e-09	-2.908718e+01	-2.788157e+02
1.000000e-08	-4.038951e-06	-4.245139e-09	-2.907635e+01	-2.787598e+02
2.000000e-08	-4.035848e-06	-4.248610e-09	-2.905400e+01	-2.786145e+02
3.000000e-08	-4.031545e-06	-4.241968e-09	-2.902303e+01	-2.783786e+02
4.000000e-08	-4.026090e-06	-4.231946e-09	-2.898376e+01	-2.780524e+02
5.000000e-08	-4.019343e-06	-4.223672e-09	-2.893519e+01	-2.776391e+02
6.000000e-08	-4.011424e-06	-4.217858e-09	-2.887818e+01	-2.771439e+02
7.000000e-08	-4.002102e-06	-4.205694e-09	-2.881107e+01	-2.765745e+02
8.000000e-08	-3.991070e-06	-4.183027e-09	-2.873165e+01	-2.759401e+02
9.000000e-08	-3.978356e-06	-4.215744e-09	-2.864013e+01	-2.752511e+02
1.000000e-07	-3.963546e-06	-4.240366e-09	-2.853351e+01	-2.745178e+02
1.100000e-07	-3.946727e-06	-4.219112e-09	-2.841243e+01	-2.737497e+02
1.200000e-07	-3.928596e-06	-4.166076e-09	-2.828190e+01	-2.729542e+02
1.300000e-07	-3.909547e-06	-4.032595e-09	-2.814477e+01	-2.721365e+02
1.400000e-07	-3.889696e-06	-4.130021e-09	-2.800186e+01	-2.712980e+02
1.500000e-07	-3.868820e-06	-4.258996e-09	-2.785158e+01	-2.704374e+02
1.600000e-07	-3.846938e-06	-4.054394e-09	-2.769405e+01	-2.695495e+02
1.700000e-07	-3.823746e-06	-4.069399e-09	-2.752709e+01	-2.686268e+02
1.800000e-07	-3.798579e-06	-4.093625e-09	-2.734591e+01	-2.676596e+02
1.900000e-07	-3.771803e-06	-3.919072e-09	-2.715315e+01	-2.666370e+02
2.000000e-07	-3.744124e-06	-4.101260e-09	-2.695389e+01	-2.655482e+02
2.100000e-07	-3.715280e-06	-4.170386e-09	-2.674624e+01	-2.643830e+02
2.200000e-07	-3.684972e-06	-3.880451e-09	-2.652806e+01	-2.631333e+02
2.300000e-07	-3.653556e-06	-3.907496e-09	-2.630189e+01	-2.617932e+02
2.400000e-07	-3.621010e-06	-4.022405e-09	-2.606759e+01	-2.603594e+02
2.500000e-07	-3.586954e-06	-3.960353e-09	-2.582243e+01	-2.588315e+02
2.600000e-07	-3.551332e-06	-3.967618e-09	-2.556598e+01	-2.572113e+02
2.700000e-07	-3.514349e-06	-3.834255e-09	-2.529974e+01	-2.555029e+02
2.800000e-07	-3.476221e-06	-3.770553e-09	-2.502526e+01	-2.537112e+02
2.900000e-07	-3.437036e-06	-3.886406e-09	-2.474317e+01	-2.518421e+02
3.000000e-07	-3.396628e-06	-3.839434e-09	-2.445227e+01	-2.499011e+02
3.100000e-07	-3.354638e-06	-3.759862e-09	-2.414999e+01	-2.478929e+02
3.200000e-07	-3.311236e-06	-3.753492e-09	-2.383754e+01	-2.458212e+02
3.300000e-07	-3.266772e-06	-3.664424e-09	-2.351744e+01	-2.436881e+02
3.400000e-07	-3.221138e-06	-3.641742e-09	-2.318892e+01	-2.414945e+02
3.500000e-07	-3.174401e-06	-3.708731e-09	-2.285247e+01	-2.392398e+02
3.600000e-07	-3.126633e-06	-3.648499e-09	-2.250858e+01	-2.369227e+02
3.700000e-07	-3.077332e-06	-3.511729e-09	-2.215367e+01	-2.345415e+02
3.800000e-07	-3.026379e-06	-3.478830e-09	-2.178686e+01	-2.320942e+02
3.900000e-07	-2.974284e-06	-3.519044e-09	-2.141182e+01	-2.295792e+02
4.000000e-07	-2.921208e-06	-3.501936e-09	-2.102973e+01	-2.269955e+02
4.100000e-07	-2.867062e-06	-3.444432e-09	-2.063993e+01	-2.243426e+02
4.200000e-07	-2.811985e-06	-3.346489e-09	-2.024344e+01	-2.216208e+02
4.300000e-07	-2.756195e-06	-3.284170e-09	-1.984181e+01	-2.188308e+02
4.400000e-07	-2.699319e-06	-3.318288e-09	-1.943236e+01	-2.159738e+02
4.500000e-07	-2.640986e-06	-3.311388e-09	-1.901242e+01	-2.130507e+02
4.600000e-07	-2.581656e-06	-3.215825e-09	-1.858530e+01	-2.100625e+02
4.700000e-07	-2.521692e-06	-3.100722e-09	-1.815362e+01	-2.070098e+02
4.800000e-07	-2.460937e-06	-3.061175e-09	-1.771625e+01	-2.038925e+02
4.900000e-07	-2.399299e-06	-3.098453e-09	-1.727251e+01	-2.007101e+02
5.000000e-07	-2.336846e-06	-3.079045e-09	-1.682292e+01	-1.974617e+02
5.100000e-07	-2.273664e-06	-2.955271e-09	-1.636807e+01	-1.941460e+02
5.200000e-07	-2.209776e-06	-2.851828e-09	-1.590814e+01	-1.907616e+02
5.300000e-07	-2.144951e-06	-2.849200e-09	-1.544147e+01	-1.873076e+02
5.400000e-07	-2.078933e-06	-2.862708e-09	-1.496621e+01	-1.837831e+02
5.500000e-07	-2.011934e-06	-2.795892e-09	-1.448388e+01	-1.801879e+02
5.600000e-07	-1.944372e-06	-2.674019e-09	-1.399751e+01	-1.765221e+02
5.700000e-07	-1.876383e-06	-2.594294e-09	-1.350805e+01	-1.727864e+02
5.800000e-07	-1.807764e-06	-2.585259e-09	-1.301407e+01	-1.689819e+02
5.900000e-07	-1.738460e-06	-2.575939e-09	-1.251515e+01	-1.651096e+02
6.000000e-07	-1.668559e-06	-2.489521e-09	-1.201193e+01	-1.611705e+02
6.100000e-07	-1.597987e-06	-2.377341e-09	-1.150389e+01	-1.571654e+02
6.200000e-07	-1.526782e-06	-2.319939e-09	-1.099128e+01	-1.530944e+02
6.300000e-07	-1.455224e-06	-2.304323e-09	-1.047614e+01	-1.489572e+02
6.400000e-07	-1.383365e-06	-2.257551e-09	-9.958826e+00	-1.447527e+02
6.500000e-07	-1.310988e-06	-2.158897e-09	-9.437779e+00	-1.404795e+02
6.600000e-07	-1.237991e-06	-2.067725e-09	-8.912281e+00	-1.361358e+02
6.700000e-07	-1.164331e-06	-2.013128e-09	-8.381999e+00	-1.317197e+02
6.800000e-07	-1.089979e-06	-1.969452e-09	-7.846743e+00	-1.272295e+02
6.900000e-07	-1.015069e-06	-1.900781e-09	-7.307464e+00	-1.226638e+02
7.000000e-07	-9.397769e-07	-1.814378e-09	-6.765439e+00	-1.180219e+02
7.100000e-07	-8.642199e-07	-1.736597e-09	-6.221506e+00	-1.133038e+02
7.200000e-07	-7.884293e-07	-1.672158e-09	-5.675890e+00	-1.085101e+02
7.300000e-07	-7.124090e-07	-1.605278e-09	-5.128622e+00	-1.036421e+02
7.400000e-07	-6.361336e-07	-1.527248e-09	-4.579516e+00	-9.870165e+01
7.500000e-07	-5.596308e-07	-1.449285e-09	-4.028773e+00	-9.369091e+01
7.600000e-07	-4.829884e-07	-1.373156e-09	-3.477026e+00	-8.861211e+01
7.700000e-07	-4.061580e-07	-1.290141e-09	-2.923925e+00	-8.346735e+01
7.800000e-07	-3.290989e-07	-1.202955e-09	-2.369178e+00	-7.825847e+01
7.900000e-07	-2.519155e-07	-1.128918e-09	-1.813536e+00	-7.298689e+01
8.000000e-07	-1.747553e-07	-1.062498e-09	-1.258061e+00	-6.765356e+01
8.100000e-07	-9.753781e-08	-9.789458e-10	-7.021732e-01	-6.225903e+01
8.200000e-07	-2.015099e-08	-8.786070e-10	-1.450666e-01	-5.680345e+01
8.300000e-07	5.735823e-08	-7.912755e-10	4.129210e-01	-5.128675e+01
8.400000e-07	1.348604e-07	-7.271526e-10	9.708576e-01	-4.570875e+01
8.500000e-07	2.122787e-07	-6.553305e-10	1.528191e+00	-4.006929e+01
8.600000e-07	2.896186e-07	-5.523517e-10	2.084960e+00	-3.436830e+01
8.700000e-07	3.668911e-07	-4.403702e-10	2.641243e+00	-2.860589e+01
8.800000e-07	4.440815e-07	-3.571194e-10	3.196936e+00	-2.278236e+01
8.900000e-07	5.210795e-07	-2.938242e-10	3.751243e+00	-1.689817e+01
9.000000e-07	5.978286e-07	-2.119827e-10	4.303759e+00	-1.095393e+01
9.100000e-07	6.743499e-07	-9.879830e-11	4.854635e+00	-4.950355e+00
9.200000e-07	7.506498e-07	1.096343e-11	5.403916e+00	1.111718e+00
9.300000e-07	8.266833e-07	8.875727e-11	5.951280e+00	7.231333e+00
9.400000e-07	9.023938e-07	1.580013e-10	6.496319e+00	1.340732e+01
9.500000e-07	9.778151e-07	2.534822e-10	7.039276e+00	1.963814e+01
9.600000e-07	1.052930e-06	3.741727e-10	7.580026e+00	2.592179e+01
9.700000e-07	1.127570e-06	4.821895e-10	8.117359e+00	3.225555e+01
9.800000e-07	1.201532e-06	5.615256e-10	8.649810e+00	3.863582e+01
9.900000e-07	1.274674e-06	6.397353e-10	9.176361e+00	4.505801e+01
1.000000e-06	1.347077e-06	7.449539e-10	9.697586e+00	5.151639e+01
1.010000e-06	1.419010e-06	8.648765e-10	1.021543e+01	5.800415e+01
1.020000e-06	1.490584e-06	9.676269e-10	1.073069e+01	6.451339e+01
1.030000e-06	1.561711e-06	1.051037e-09	1.124274e+01	7.103530e+01
1.040000e-06	1.632334e-06	1.138319e-09	1.175115e+01	7.756036e+01
1.050000e-06	1.702326e-06	1.245149e-09	1.225502e+01	8.407861e+01
1.060000e-06	1.771643e-06	1.359220e-09	1.275403e+01	9.057986e+01
1.070000e-06	1.840367e-06	1.459740e-09	1.324878e+01	9.705395e+01
1.080000e-06	1.908467e-06	1.545927e-09	1.373903e+01	1.034909e+02
1.090000e-06	1.976071e-06	1.634983e-09	1.422571e+01	1.098812e+02
1.100000e-06	2.043207e-06	1.736514e-09	1.470902e+01	1.162154e+02
1.110000e-06	2.109507e-06	1.844011e-09	1.518631e+01	1.224847e+02
1.120000e-06	2.174689e-06	1.941198e-09	1.565555e+01	1.286804e+02
1.130000e-06	2.238856e-06	2.025013e-09	1.611749e+01	1.347940e+02
1.140000e-06	2.302389e-06	2.109070e-09	1.657486e+01	1.408170e+02
1.150000e-06	2.365341e-06	2.204761e-09	1.702805e+01	1.467410e+02
1.160000e-06	2.427520e-06	2.306499e-09	1.747568e+01	1.525575e+02
1.170000e-06	2.488919e-06	2.398366e-09	1.791769e+01	1.582582e+02
1.180000e-06	2.549493e-06	2.473752e-09	1.835376e+01	1.638350e+02
1.190000e-06	2.609307e-06	2.543669e-09	1.878436e+01	1.692801e+02
1.200000e-06	2.668398e-06	2.624284e-09	1.920976e+01	1.745866e+02
1.210000e-06	2.726393e-06	2.714432e-09	1.962726e+01	1.797486e+02
1.220000e-06	2.783045e-06	2.793995e-09	2.003510e+01	1.847613e+02
1.230000e-06	2.838605e-06	2.857437e-09	2.043507e+01	1.896214e+02
1.240000e-06	2.893240e-06	2.921375e-09	2.082839e+01	1.943270e+02
1.250000e-06	2.946912e-06	2.999177e-09	2.121477e+01	1.988779e+02
1.260000e-06	2.999573e-06	3.081603e-09	2.159388e+01	2.032749e+02
1.270000e-06	3.051051e-06	3.148671e-09	2.196447e+01	2.075200e+02
1.280000e-06	3.101029e-06	3.199901e-09	2.232426e+01	2.116161e+02
1.290000e-06	3.149468e-06	3.251374e-09	2.267297e+01	2.155665e+02
1.300000e-06	3.196697e-06	3.314405e-09	2.301298e+01	2.193746e+02
1.310000e-06	3.242875e-06	3.378255e-09	2.334540e+01	2.230437e+02
1.320000e-06	3.287939e-06	3.427695e-09	2.366982e+01	2.265768e+02
1.330000e-06	3.331963e-06	3.467469e-09	2.398675e+01	2.299766e+02
1.340000e-06	3.374992e-06	3.514382e-09	2.429652e+01	2.332452e+02
1.350000e-06	3.416644e-06	3.571389e-09	2.459637e+01	2.363847e+02
1.360000e-06	3.456833e-06	3.625380e-09	2.488569e+01	2.393968e+02
1.370000e-06	3.495890e-06	3.666467e-09	2.516686e+01	2.422833e+02
1.380000e-06	3.533793e-06	3.702235e-09	2.543972e+01	2.450463e+02
1.390000e-06	3.570492e-06	3.742045e-09	2.570392e+01	2.476878e+02
1.400000e-06	3.606130e-06	3.785730e-09	2.596048e+01	2.502105e+02
1.410000e-06	3.640487e-06	3.823790e-09	2.620781e+01	2.526170e+02
1.420000e-06	3.673257e-06	3.851772e-09	2.644372e+01	2.549101e+02
1.430000e-06	3.704706e-06	3.877409e-09	2.667012e+01	2.570926e+02
1.440000e-06	3.734986e-06	3.908549e-09	2.688810e+01	2.591667e+02
1.450000e-06	3.764025e-06	3.944598e-09	2.709716e+01	2.611343e+02
1.460000e-06	3.791982e-06	3.977251e-09	2.729842e+01	2.629966e+02
1.470000e-06	3.818605e-06	4.002539e-09	2.749008e+01	2.647540e+02
1.480000e-06	3.843534e-06	4.023305e-09	2.766954e+01	2.664066e+02
1.490000e-06	3.867004e-06	4.044536e-09	2.783850e+01	2.679537e+02
1.500000e-06	3.889215e-06	4.068638e-09	2.799840e+01	2.693947e+02
1.510000e-06	3.910098e-06	4.091283e-09	2.814873e+01	2.707293e+02
1.520000e-06	3.929819e-06	4.107606e-09	2.829070e+01	2.719575e+02
1.530000e-06	3.948274e-06	4.119500e-09	2.842356e+01	2.730803e+02
1.540000e-06	3.965230e-06	4.134121e-09	2.854563e+01	2.740995e+02
1.550000e-06	3.980748e-06	4.153121e-09	2.865734e+01	2.750183e+02
1.560000e-06	3.994749e-06	4.170193e-09	2.875814e+01	2.758405e+02
1.570000e-06	4.007211e-06	4.180272e-09	2.884785e+01	2.765706e+02
1.580000e-06	4.018092e-06	4.185683e-09	2.892618e+01	2.772135e+02
1.590000e-06	4.027177e-06	4.193478e-09	2.899158e+01	2.777737e+02
1.600000e-06	4.034718e-06	4.204402e-09	2.904587e+01	2.782549e+02
1.610000e-06	4.040923e-06	4.213143e-09	2.909054e+01	2.786598e+02
1.620000e-06	4.045725e-06	4.216250e-09	2.912511e+01	2.789895e+02
1.630000e-06	4.049319e-06	4.216051e-09	2.915098e+01	2.792437e+02
1.640000e-06	4.051431e-06	4.220684e-09	2.916619e+01	2.794204e+02
1.650000e-06	4.051856e-06	4.227143e-09	2.916925e+01	2.795167e+02
1.660000e-06	4.050880e-06	4.229234e-09	2.916222e+01	2.795291e+02
1.670000e-06	4.048647e-06	4.222945e-09	2.914615e+01	2.794543e+02
1.680000e-06	4.045218e-06	4.216850e-09	2.912146e+01	2.792897e+02
1.690000e-06	4.040688e-06	4.213192e-09	2.908885e+01	2.790343e+02
1.700000e-06	4.034737e-06	4.209789e-09	2.904601e+01	2.786892e+02
1.710000e-06	4.027224e-06	4.203073e-09	2.899192e+01	2.782578e+02
1.720000e-06	4.018541e-06	4.193130e-09	2.892942e+01	2.777461e+02
1.730000e-06	4.008776e-06	4.199300e-09	2.885911e+01	2.771619e+02
1.740000e-06	3.997805e-06	4.162184e-09	2.878013e+01	2.765150e+02
1.750000e-06	3.984993e-06	4.097098e-09	2.868791e+01	2.758157e+02
1.760000e-06	3.969675e-06	4.095997e-09	2.857763e+01	2.750742e+02
1.770000e-06	3.952266e-06	4.119019e-09	2.845230e+01	2.742997e+02
1.780000e-06	3.933887e-06	4.245090e-09	2.831999e+01	2.734992e+02
1.790000e-06	3.915287e-06	4.158425e-09	2.818609e+01	2.726770e+02
1.800000e-06	3.895681e-06	3.952455e-09	2.804495e+01	2.718341e+02
1.810000e-06	3.873855e-06	4.139289e-09	2.788783e+01	2.709681e+02
1.820000e-06	3.850562e-06	4.097188e-09	2.772014e+01	2.700736e+02
1.830000e-06	3.826486e-06	3.997800e-09	2.754681e+01	2.691423e+02
1.840000e-06	3.800848e-06	4.189164e-09	2.736225e+01	2.681641e+02
1.850000e-06	3.773756e-06	4.011097e-09	2.716721e+01	2.671283e+02
1.860000e-06	3.745705e-06	3.880866e-09	2.696528e+01	2.660239e+02
1.870000e-06	3.716335e-06	4.190050e-09	2.675384e+01	2.648413e+02
1.880000e-06	3.685500e-06	4.161742e-09	2.653186e+01	2.635727e+02
1.890000e-06	3.653168e-06	3.982808e-09	2.629910e+01	2.622127e+02
1.900000e-06	3.619347e-06	4.037540e-09	2.605562e+01	2.607587e+02
1.910000e-06	3.584562e-06	3.941385e-09	2.580521e+01	2.592108e+02
1.920000e-06	3.548695e-06	4.004740e-09	2.554700e+01	2.575714e+02
1.930000e-06	3.511243e-06	4.067438e-09	2.527739e+01	2.558447e+02
1.940000e-06	3.472272e-06	3.850477e-09	2.499683e+01	2.540360e+02
1.950000e-06	3.431942e-06	3.900703e-09	2.470650e+01	2.521510e+02
1.960000e-06	3.390443e-06	3.895585e-09	2.440775e+01	2.501953e+02
1.970000e-06	3.347860e-06	3.758790e-09	2.410119e+01	2.481733e+02
1.980000e-06	3.304230e-06	3.906670e-09	2.378710e+01	2.460883e+02
1.990000e-06	3.259779e-06	3.833392e-09	2.346710e+01	2.439423e+02
2.000000e-06	3.214096e-06	3.657385e-09	2.313822e+01	2.417356e+02
2.010000e-06	3.167062e-06	3.662532e-09	2.279963e+01	2.394677e+02
2.020000e-06	3.119030e-06	3.683775e-09	2.245385e+01	2.371371e+02
2.030000e-06	3.069727e-06	3.724569e-09	2.209892e+01	2.347419e+02
2.040000e-06	3.019152e-06	3.589670e-09	2.173483e+01	2.322803e+02
2.050000e-06	2.967561e-06	3.472224e-09	2.136343e+01	2.297507e+02
2.060000e-06	2.914886e-06	3.491105e-09	2.098422e+01	2.271522e+02
2.070000e-06	2.860893e-06	3.492326e-09	2.059553e+01	2.244846e+02
2.080000e-06	2.805540e-06	3.510620e-09	2.019704e+01	2.217481e+02
2.090000e-06	2.749216e-06	3.379602e-09	1.979156e+01	2.189437e+02
2.100000e-06	2.692046e-06	3.258664e-09	1.937999e+01	2.160724e+02
2.110000e-06	2.633870e-06	3.276734e-09	1.896119e+01	2.131353e+02
2.120000e-06	2.574798e-06	3.283490e-09	1.853593e+01	2.101334e+02
2.130000e-06	2.515019e-06	3.275691e-09	1.810558e+01	2.070669e+02
2.140000e-06	2.454512e-06	3.123861e-09	1.767000e+01	2.039357e+02
2.150000e-06	2.392842e-06	3.011581e-09	1.722604e+01	2.007393e+02
2.160000e-06	2.329907e-06	3.058570e-09	1.677297e+01	1.974766e+02
2.170000e-06	2.266137e-06	3.056870e-09	1.631389e+01	1.941463e+02
2.180000e-06	2.201703e-06	2.985409e-09	1.585002e+01	1.907471e+02
2.190000e-06	2.136460e-06	2.849859e-09	1.538034e+01	1.872781e+02
2.200000e-06	2.070428e-06	2.789111e-09	1.490498e+01	1.837385e+02
2.210000e-06	2.003746e-06	2.806169e-09	1.442493e+01	1.801281e+02
2.220000e-06	1.936389e-06	2.770069e-09	1.394004e+01	1.764473e+02
2.230000e-06	1.868404e-06	2.680944e-09	1.345061e+01	1.726968e+02
2.240000e-06	1.799870e-06	2.560811e-09	1.295724e+01	1.688777e+02
2.250000e-06	1.730614e-06	2.519793e-09	1.245866e+01	1.649911e+02
2.260000e-06	1.660426e-06	2.513825e-09	1.195338e+01	1.610378e+02
2.270000e-06	1.589305e-06	2.454108e-09	1.144138e+01	1.570186e+02
2.280000e-06	1.517539e-06	2.358896e-09	1.092474e+01	1.529336e+02
2.290000e-06	1.445405e-06	2.270443e-09	1.040545e+01	1.487820e+02
2.300000e-06	1.372908e-06	2.230540e-09	9.883543e+00	1.445630e+02
2.310000e-06	1.300044e-06	2.185055e-09	9.358997e+00	1.402749e+02
2.320000e-06	1.226755e-06	2.112726e-09	8.831394e+00	1.359158e+02
2.330000e-06	1.152993e-06	2.031142e-09	8.300378e+00	1.314840e+02
2.340000e-06	1.078818e-06	1.951906e-09	7.766396e+00	1.269778e+02
2.350000e-06	1.004254e-06	1.889025e-09	7.229612e+00	1.223958e+02
2.360000e-06	9.293208e-07	1.824466e-09	6.690166e+00	1.177376e+02
2.370000e-06	8.540995e-07	1.756172e-09	6.148649e+00	1.130033e+02
2.380000e-06	7.786461e-07	1.682906e-09	5.605461e+00	1.081935e+02
2.390000e-06	7.029698e-07	1.603444e-09	5.060669e+00	1.033099e+02
2.400000e-06	6.270552e-07	1.522295e-09	4.514161e+00	9.835425e+01
2.410000e-06	5.508467e-07	1.441900e-09	3.965537e+00	9.332877e+01
2.420000e-06	4.744480e-07	1.376829e-09	3.415544e+00	8.823569e+01
2.430000e-06	3.979527e-07	1.311816e-09	2.864855e+00	8.307709e+01
2.440000e-06	3.213213e-07	1.219371e-09	2.313187e+00	7.785470e+01
2.450000e-06	2.445517e-07	1.115791e-09	1.760524e+00	7.256985e+01
2.460000e-06	1.675899e-07	1.035999e-09	1.206477e+00	6.722342e+01
2.470000e-06	9.045380e-08	9.805674e-10	6.511755e-01	6.181583e+01
2.480000e-06	1.334671e-08	9.055078e-10	9.608277e-02	5.634720e+01
2.490000e-06	-6.371850e-08	7.952217e-10	-4.587085e-01	5.081742e+01
2.500000e-06	-1.408560e-07	6.915070e-10	-1.014021e+00	4.522630e+01
2.510000e-06	-2.180183e-07	6.201570e-10	-1.569510e+00	3.957368e+01
2.520000e-06	-2.950903e-07	5.559754e-10	-2.124350e+00	3.385955e+01
2.530000e-06	-3.719446e-07	4.630575e-10	-2.677623e+00	2.808404e+01
2.540000e-06	-4.485867e-07	3.480400e-10	-3.229368e+00	2.224750e+01
2.550000e-06	-5.250850e-07	2.479350e-10	-3.780079e+00	1.635042e+01
2.560000e-06	-6.014080e-07	1.765760e-10	-4.329527e+00	1.039343e+01
2.570000e-06	-6.774749e-07	1.040589e-10	-4.877131e+00	4.377287e+00
2.580000e-06	-7.532553e-07	2.068099e-12	-5.422673e+00	-1.697170e+00
2.590000e-06	-8.287614e-07	-1.138499e-10	-5.966241e+00	-7.828939e+00
2.600000e-06	-9.040054e-07	-2.106959e-10	-6.507921e+00	-1.401678e+01
2.610000e-06	-9.788935e-07	-2.855601e-10	-7.047039e+00	-2.025909e+01
2.620000e-06	-1.053308e-06	-3.702838e-10	-7.582745e+00	-2.655370e+01
2.630000e-06	-1.127289e-06	-4.819325e-10	-8.115340e+00	-3.289772e+01
2.640000e-06	-1.200928e-06	-5.980193e-10	-8.645463e+00	-3.928736e+01
2.650000e-06	-1.274145e-06	-6.917099e-10	-9.172548e+00	-4.571779e+01
2.660000e-06	-1.346898e-06	-7.725117e-10	-9.696298e+00	-5.218306e+01
2.670000e-06	-1.419217e-06	-8.657903e-10	-1.021692e+01	-5.867608e+01
2.680000e-06	-1.491153e-06	-9.769737e-10	-1.073479e+01	-6.518877e+01
2.690000e-06	-1.562668e-06	-1.087080e-09	-1.124963e+01	-7.171214e+01
2.700000e-06	-1.633520e-06	-1.183534e-09	-1.175969e+01	-7.823656e+01
2.710000e-06	-1.703515e-06	-1.273673e-09	-1.226358e+01	-8.475199e+01
2.720000e-06	-1.772551e-06	-1.369263e-09	-1.276057e+01	-9.124824e+01
2.730000e-06	-1.840892e-06	-1.474108e-09	-1.325255e+01	-9.771517e+01
2.740000e-06	-1.908732e-06	-1.578334e-09	-1.374093e+01	-1.041429e+02
2.750000e-06	-1.976004e-06	-1.675301e-09	-1.422522e+01	-1.105219e+02
2.760000e-06	-2.042623e-06	-1.765571e-09	-1.470481e+01	-1.168429e+02
2.770000e-06	-2.108508e-06	-1.855130e-09	-1.517912e+01	-1.230971e+02
2.780000e-06	-2.173665e-06	-1.950886e-09	-1.564818e+01	-1.292759e+02
2.790000e-06	-2.238125e-06	-2.050798e-09	-1.611223e+01	-1.353707e+02
2.800000e-06	-2.302017e-06	-2.145615e-09	-1.657219e+01	-1.413732e+02
2.810000e-06	-2.365116e-06	-2.229295e-09	-1.702643e+01	-1.472749e+02
2.820000e-06	-2.427058e-06	-2.309855e-09	-1.747235e+01	-1.530672e+02
2.830000e-06	-2.487937e-06	-2.398378e-09	-1.791062e+01	-1.587420e+02
2.840000e-06	-2.548045e-06	-2.493631e-09	-1.834334e+01	-1.642912e+02
2.850000e-06	-2.607416e-06	-2.579580e-09	-1.877075e+01	-1.697071e+02
2.860000e-06	-2.665897e-06	-2.649042e-09	-1.919175e+01	-1.749831e+02
2.870000e-06	-2.723363e-06	-2.719443e-09	-1.960545e+01	-1.801134e+02
2.880000e-06	-2.779895e-06	-2.802591e-09	-2.001242e+01	-1.850936e+02
2.890000e-06	-2.835631e-06	-2.887111e-09	-2.041366e+01	-1.899206e+02
2.900000e-06	-2.890214e-06	-2.957596e-09	-2.080660e+01	-1.945931e+02
2.910000e-06	-2.943360e-06	-3.016767e-09	-2.118920e+01	-1.991108e+02
2.920000e-06	-2.995259e-06	-3.078943e-09	-2.156282e+01	-2.034750e+02
2.930000e-06	-3.046013e-06	-3.150793e-09	-2.192820e+01	-2.076879e+02
2.940000e-06	-3.095427e-06	-3.220566e-09	-2.228393e+01	-2.117525e+02
