# Temperatura_=_20.0
# Concentracion g/m^3_=_9000.0
# C_Vs_to_Am_M_A/Vsm_=_65563218390.804596
# pendiente_HvsI_1/m_=_3716.3
# ordenada_HvsI_A/m_=_1297.0
# frecuencia_Hz_=_301075.5901940458

Tiempo_(s)	Campo_(V.s)	Magnetizacion_(V.s)	Campo_(kA/m)	Magnetizacion_(A/m)
0.000000e+00	-6.721929e-06	-5.439113e-09	-4.746844e+01	-3.562100e+02
1.000000e-08	-6.718670e-06	-5.440708e-09	-4.744542e+01	-3.560951e+02
2.000000e-08	-6.713270e-06	-5.440139e-09	-4.740729e+01	-3.559355e+02
3.000000e-08	-6.705761e-06	-5.438164e-09	-4.735426e+01	-3.557350e+02
4.000000e-08	-6.695884e-06	-5.433201e-09	-4.728452e+01	-3.554979e+02
5.000000e-08	-6.683508e-06	-5.428164e-09	-4.719712e+01	-3.552294e+02
6.000000e-08	-6.668668e-06	-5.418649e-09	-4.709232e+01	-3.549349e+02
7.000000e-08	-6.651469e-06	-5.408359e-09	-4.697087e+01	-3.546194e+02
8.000000e-08	-6.632172e-06	-5.441004e-09	-4.683460e+01	-3.542879e+02
9.000000e-08	-6.610587e-06	-5.476642e-09	-4.668217e+01	-3.539439e+02
1.000000e-07	-6.586311e-06	-5.444288e-09	-4.651074e+01	-3.535899e+02
1.100000e-07	-6.559357e-06	-5.403907e-09	-4.632040e+01	-3.532265e+02
1.200000e-07	-6.530091e-06	-5.391823e-09	-4.611373e+01	-3.528524e+02
1.300000e-07	-6.498927e-06	-5.352665e-09	-4.589366e+01	-3.524642e+02
1.400000e-07	-6.465990e-06	-5.337897e-09	-4.566107e+01	-3.520566e+02
1.500000e-07	-6.431106e-06	-5.424218e-09	-4.541473e+01	-3.516226e+02
1.600000e-07	-6.394134e-06	-5.346947e-09	-4.515363e+01	-3.511538e+02
1.700000e-07	-6.355090e-06	-5.306822e-09	-4.487792e+01	-3.506416e+02
1.800000e-07	-6.313710e-06	-5.373489e-09	-4.458570e+01	-3.500772e+02
1.900000e-07	-6.269797e-06	-5.310097e-09	-4.427560e+01	-3.494530e+02
2.000000e-07	-6.223596e-06	-5.324169e-09	-4.394934e+01	-3.487627e+02
2.100000e-07	-6.174953e-06	-5.313326e-09	-4.360584e+01	-3.480026e+02
2.200000e-07	-6.123693e-06	-5.284771e-09	-4.324385e+01	-3.471711e+02
2.300000e-07	-6.070069e-06	-5.291420e-09	-4.286517e+01	-3.462696e+02
2.400000e-07	-6.014205e-06	-5.255807e-09	-4.247068e+01	-3.453016e+02
2.500000e-07	-5.956124e-06	-5.271828e-09	-4.206053e+01	-3.442725e+02
2.600000e-07	-5.895877e-06	-5.246789e-09	-4.163508e+01	-3.431890e+02
2.700000e-07	-5.833551e-06	-5.194877e-09	-4.119495e+01	-3.420579e+02
2.800000e-07	-5.769163e-06	-5.193447e-09	-4.074026e+01	-3.408857e+02
2.900000e-07	-5.702661e-06	-5.194442e-09	-4.027064e+01	-3.396774e+02
3.000000e-07	-5.634030e-06	-5.179439e-09	-3.978599e+01	-3.384361e+02
3.100000e-07	-5.563315e-06	-5.130302e-09	-3.928662e+01	-3.371627e+02
3.200000e-07	-5.490627e-06	-5.141170e-09	-3.877332e+01	-3.358559e+02
3.300000e-07	-5.415816e-06	-5.113764e-09	-3.824502e+01	-3.345123e+02
3.400000e-07	-5.338753e-06	-5.064438e-09	-3.770082e+01	-3.331274e+02
3.500000e-07	-5.259539e-06	-5.069952e-09	-3.714143e+01	-3.316958e+02
3.600000e-07	-5.178307e-06	-5.043589e-09	-3.656779e+01	-3.302122e+02
3.700000e-07	-5.095281e-06	-5.003588e-09	-3.598149e+01	-3.286724e+02
3.800000e-07	-5.010612e-06	-4.969737e-09	-3.538358e+01	-3.270731e+02
3.900000e-07	-4.924370e-06	-4.971282e-09	-3.477456e+01	-3.254128e+02
4.000000e-07	-4.836486e-06	-4.944613e-09	-3.415395e+01	-3.236914e+02
4.100000e-07	-4.746792e-06	-4.900850e-09	-3.352056e+01	-3.219100e+02
4.200000e-07	-4.655292e-06	-4.883409e-09	-3.287441e+01	-3.200701e+02
4.300000e-07	-4.562154e-06	-4.862129e-09	-3.221669e+01	-3.181730e+02
4.400000e-07	-4.467460e-06	-4.830795e-09	-3.154799e+01	-3.162188e+02
4.500000e-07	-4.371128e-06	-4.796418e-09	-3.086772e+01	-3.142061e+02
4.600000e-07	-4.273164e-06	-4.772297e-09	-3.017592e+01	-3.121312e+02
4.700000e-07	-4.173610e-06	-4.729071e-09	-2.947290e+01	-3.099880e+02
4.800000e-07	-4.072532e-06	-4.683917e-09	-2.875912e+01	-3.077687e+02
4.900000e-07	-3.970100e-06	-4.655804e-09	-2.803577e+01	-3.054636e+02
5.000000e-07	-3.866215e-06	-4.625697e-09	-2.730216e+01	-3.030625e+02
5.100000e-07	-3.760856e-06	-4.578932e-09	-2.655814e+01	-3.005552e+02
5.200000e-07	-3.654131e-06	-4.533474e-09	-2.580448e+01	-2.979329e+02
5.300000e-07	-3.546058e-06	-4.503031e-09	-2.504129e+01	-2.951882e+02
5.400000e-07	-3.436741e-06	-4.465813e-09	-2.426933e+01	-2.923161e+02
5.500000e-07	-3.326346e-06	-4.416292e-09	-2.348975e+01	-2.893137e+02
5.600000e-07	-3.214752e-06	-4.367282e-09	-2.270171e+01	-2.861796e+02
5.700000e-07	-3.101777e-06	-4.319163e-09	-2.190391e+01	-2.829135e+02
5.800000e-07	-2.987540e-06	-4.261935e-09	-2.109719e+01	-2.795147e+02
5.900000e-07	-2.872111e-06	-4.207846e-09	-2.028207e+01	-2.759813e+02
6.000000e-07	-2.755573e-06	-4.156550e-09	-1.945911e+01	-2.723083e+02
6.100000e-07	-2.638045e-06	-4.097974e-09	-1.862915e+01	-2.684875e+02
6.200000e-07	-2.519720e-06	-4.032543e-09	-1.779358e+01	-2.645064e+02
6.300000e-07	-2.400447e-06	-3.970261e-09	-1.695131e+01	-2.603485e+02
6.400000e-07	-2.280062e-06	-3.906399e-09	-1.610118e+01	-2.559933e+02
6.500000e-07	-2.158866e-06	-3.833767e-09	-1.524532e+01	-2.514172e+02
6.600000e-07	-2.037063e-06	-3.756174e-09	-1.438519e+01	-2.465946e+02
6.700000e-07	-1.914480e-06	-3.678440e-09	-1.351954e+01	-2.414989e+02
6.800000e-07	-1.791047e-06	-3.598305e-09	-1.264789e+01	-2.361033e+02
6.900000e-07	-1.666983e-06	-3.508910e-09	-1.177178e+01	-2.303808e+02
7.000000e-07	-1.542375e-06	-3.415389e-09	-1.089183e+01	-2.243047e+02
7.100000e-07	-1.417227e-06	-3.318212e-09	-1.000807e+01	-2.178471e+02
7.200000e-07	-1.291637e-06	-3.215286e-09	-9.121189e+00	-2.109780e+02
7.300000e-07	-1.165711e-06	-3.103273e-09	-8.231936e+00	-2.036628e+02
7.400000e-07	-1.039449e-06	-2.984599e-09	-7.340304e+00	-1.958610e+02
7.500000e-07	-9.127916e-07	-2.856277e-09	-6.445886e+00	-1.875243e+02
7.600000e-07	-7.857798e-07	-2.714414e-09	-5.548964e+00	-1.785955e+02
7.700000e-07	-6.584484e-07	-2.563881e-09	-4.649784e+00	-1.690085e+02
7.800000e-07	-5.308210e-07	-2.404903e-09	-3.748514e+00	-1.586902e+02
7.900000e-07	-4.029984e-07	-2.233191e-09	-2.845865e+00	-1.475631e+02
8.000000e-07	-2.750069e-07	-2.048239e-09	-1.942024e+00	-1.355506e+02
8.100000e-07	-1.468603e-07	-1.851971e-09	-1.037088e+00	-1.225824e+02
8.200000e-07	-1.861512e-08	-1.638941e-09	-1.314549e-01	-1.086022e+02
8.300000e-07	1.096472e-07	-1.409011e-09	7.742986e-01	-9.357469e+01
8.400000e-07	2.378279e-07	-1.164267e-09	1.679476e+00	-7.749334e+01
8.500000e-07	3.658431e-07	-9.047896e-10	2.583484e+00	-6.038609e+01
8.600000e-07	4.937017e-07	-6.300998e-10	3.486387e+00	-4.232003e+01
8.700000e-07	6.213930e-07	-3.414132e-10	4.388109e+00	-2.340339e+01
8.800000e-07	7.487732e-07	-4.169273e-11	5.287632e+00	-3.784747e+00
8.900000e-07	8.758211e-07	2.659370e-10	6.184811e+00	1.635070e+01
9.000000e-07	1.002594e-06	5.799508e-10	7.080048e+00	3.678782e+01
9.100000e-07	1.129057e-06	8.955604e-10	7.973093e+00	5.729064e+01
9.200000e-07	1.255141e-06	1.205378e-09	8.863468e+00	7.761342e+01
9.300000e-07	1.380820e-06	1.508199e-09	9.750975e+00	9.751259e+01
9.400000e-07	1.506121e-06	1.801911e-09	1.063582e+01	1.167589e+02
9.500000e-07	1.630943e-06	2.081458e-09	1.151728e+01	1.351485e+02
9.600000e-07	1.755227e-06	2.343330e-09	1.239494e+01	1.525126e+02
9.700000e-07	1.878969e-06	2.588555e-09	1.326877e+01	1.687239e+02
9.800000e-07	2.002005e-06	2.815508e-09	1.413761e+01	1.837008e+02
9.900000e-07	2.124249e-06	3.020704e-09	1.500087e+01	1.974078e+02
1.000000e-06	2.245700e-06	3.207270e-09	1.585852e+01	2.098535e+02
1.010000e-06	2.366347e-06	3.375149e-09	1.671050e+01	2.210847e+02
1.020000e-06	2.486107e-06	3.525752e-09	1.755621e+01	2.311798e+02
1.030000e-06	2.604856e-06	3.662046e-09	1.839479e+01	2.402397e+02
1.040000e-06	2.722719e-06	3.787663e-09	1.922710e+01	2.483787e+02
1.050000e-06	2.839709e-06	3.902112e-09	2.005325e+01	2.557157e+02
1.060000e-06	2.955640e-06	4.005670e-09	2.087193e+01	2.623663e+02
1.070000e-06	3.070324e-06	4.100793e-09	2.168180e+01	2.684365e+02
1.080000e-06	3.183691e-06	4.189905e-09	2.248236e+01	2.740182e+02
1.090000e-06	3.295848e-06	4.272360e-09	2.327438e+01	2.791872e+02
1.100000e-06	3.406789e-06	4.344369e-09	2.405782e+01	2.840024e+02
1.110000e-06	3.516543e-06	4.409221e-09	2.483287e+01	2.885073e+02
1.120000e-06	3.625196e-06	4.469517e-09	2.560015e+01	2.927323e+02
1.130000e-06	3.732692e-06	4.527307e-09	2.635926e+01	2.966979e+02
1.140000e-06	3.838847e-06	4.582881e-09	2.710889e+01	3.004182e+02
1.150000e-06	3.943540e-06	4.634664e-09	2.784821e+01	3.039040e+02
1.160000e-06	4.046767e-06	4.681495e-09	2.857717e+01	3.071653e+02
1.170000e-06	4.148545e-06	4.725425e-09	2.929589e+01	3.102132e+02
1.180000e-06	4.248902e-06	4.768267e-09	3.000459e+01	3.130609e+02
1.190000e-06	4.347756e-06	4.810206e-09	3.070267e+01	3.157236e+02
1.200000e-06	4.444942e-06	4.847801e-09	3.138897e+01	3.182184e+02
1.210000e-06	4.540420e-06	4.881087e-09	3.206321e+01	3.205628e+02
1.220000e-06	4.634274e-06	4.911460e-09	3.272598e+01	3.227737e+02
1.230000e-06	4.726632e-06	4.940494e-09	3.337819e+01	3.248667e+02
1.240000e-06	4.817391e-06	4.966877e-09	3.401911e+01	3.268546e+02
1.250000e-06	4.906363e-06	4.991104e-09	3.464740e+01	3.287475e+02
1.260000e-06	4.993581e-06	5.015901e-09	3.526331e+01	3.305524e+02
1.270000e-06	5.079095e-06	5.042121e-09	3.586719e+01	3.322736e+02
1.280000e-06	5.162947e-06	5.069202e-09	3.645933e+01	3.339136e+02
1.290000e-06	5.245033e-06	5.091986e-09	3.703900e+01	3.354736e+02
1.300000e-06	5.325155e-06	5.111985e-09	3.760480e+01	3.369544e+02
1.310000e-06	5.403336e-06	5.131791e-09	3.815689e+01	3.383575e+02
1.320000e-06	5.479615e-06	5.151464e-09	3.869555e+01	3.396850e+02
1.330000e-06	5.553787e-06	5.169748e-09	3.921933e+01	3.409402e+02
1.340000e-06	5.625756e-06	5.185762e-09	3.972756e+01	3.421276e+02
1.350000e-06	5.695700e-06	5.201355e-09	4.022149e+01	3.432523e+02
1.360000e-06	5.763733e-06	5.218002e-09	4.070192e+01	3.443196e+02
1.370000e-06	5.829731e-06	5.235913e-09	4.116798e+01	3.453349e+02
1.380000e-06	5.893526e-06	5.252003e-09	4.161848e+01	3.463025e+02
1.390000e-06	5.955289e-06	5.265835e-09	4.205463e+01	3.472257e+02
1.400000e-06	6.015164e-06	5.279400e-09	4.247745e+01	3.481066e+02
1.410000e-06	6.072927e-06	5.292513e-09	4.288536e+01	3.489458e+02
1.420000e-06	6.128502e-06	5.304483e-09	4.327782e+01	3.497430e+02
1.430000e-06	6.181898e-06	5.314869e-09	4.365489e+01	3.504974e+02
1.440000e-06	6.232737e-06	5.325125e-09	4.401389e+01	3.512077e+02
1.450000e-06	6.280911e-06	5.336456e-09	4.435408e+01	3.518733e+02
1.460000e-06	6.326802e-06	5.348195e-09	4.467816e+01	3.524940e+02
1.470000e-06	6.370626e-06	5.359161e-09	4.498763e+01	3.530708e+02
1.480000e-06	6.412142e-06	5.369027e-09	4.528080e+01	3.536057e+02
1.490000e-06	6.451225e-06	5.377703e-09	4.555680e+01	3.541016e+02
1.500000e-06	6.488123e-06	5.385381e-09	4.581736e+01	3.545622e+02
1.510000e-06	6.522829e-06	5.392876e-09	4.606245e+01	3.549915e+02
1.520000e-06	6.555188e-06	5.400139e-09	4.629096e+01	3.553935e+02
1.530000e-06	6.585237e-06	5.406457e-09	4.650316e+01	3.557712e+02
1.540000e-06	6.613156e-06	5.412051e-09	4.670031e+01	3.561271e+02
1.550000e-06	6.638757e-06	5.418107e-09	4.688109e+01	3.564623e+02
1.560000e-06	6.661840e-06	5.425264e-09	4.704411e+01	3.567763e+02
1.570000e-06	6.682650e-06	5.431764e-09	4.719106e+01	3.570675e+02
1.580000e-06	6.701313e-06	5.436134e-09	4.732285e+01	3.573332e+02
1.590000e-06	6.717525e-06	5.439538e-09	4.743733e+01	3.575698e+02
1.600000e-06	6.731181e-06	5.443489e-09	4.753377e+01	3.577730e+02
1.610000e-06	6.742280e-06	5.447221e-09	4.761215e+01	3.579387e+02
1.620000e-06	6.750702e-06	5.449763e-09	4.767163e+01	3.580628e+02
1.630000e-06	6.756689e-06	5.451333e-09	4.771390e+01	3.581422e+02
1.640000e-06	6.760476e-06	5.453290e-09	4.774065e+01	3.581743e+02
1.650000e-06	6.761907e-06	5.458143e-09	4.775075e+01	3.581580e+02
1.660000e-06	6.760932e-06	5.457098e-09	4.774386e+01	3.580931e+02
1.670000e-06	6.757825e-06	5.453819e-09	4.772192e+01	3.579810e+02
1.680000e-06	6.752607e-06	5.451865e-09	4.768508e+01	3.578241e+02
1.690000e-06	6.745060e-06	5.449059e-09	4.763178e+01	3.576259e+02
1.700000e-06	6.735250e-06	5.446357e-09	4.756250e+01	3.573908e+02
1.710000e-06	6.723261e-06	5.443584e-09	4.747784e+01	3.571239e+02
1.720000e-06	6.708868e-06	5.448095e-09	4.737620e+01	3.568306e+02
1.730000e-06	6.692227e-06	5.431648e-09	4.725869e+01	3.565160e+02
1.740000e-06	6.673515e-06	5.350580e-09	4.712655e+01	3.561850e+02
1.750000e-06	6.652074e-06	5.347487e-09	4.697514e+01	3.558414e+02
1.760000e-06	6.627381e-06	5.381122e-09	4.680077e+01	3.554876e+02
1.770000e-06	6.600009e-06	5.385956e-09	4.660747e+01	3.551244e+02
1.780000e-06	6.570595e-06	5.448103e-09	4.639976e+01	3.547507e+02
1.790000e-06	6.539338e-06	5.463408e-09	4.617903e+01	3.543632e+02
1.800000e-06	6.506479e-06	5.334383e-09	4.594698e+01	3.539568e+02
1.810000e-06	6.471661e-06	5.404049e-09	4.570111e+01	3.535244e+02
1.820000e-06	6.434414e-06	5.412954e-09	4.543808e+01	3.530580e+02
1.830000e-06	6.394946e-06	5.343734e-09	4.515937e+01	3.525487e+02
1.840000e-06	6.353269e-06	5.447576e-09	4.486506e+01	3.519879e+02
1.850000e-06	6.309450e-06	5.334685e-09	4.455562e+01	3.513677e+02
1.860000e-06	6.263505e-06	5.347679e-09	4.423117e+01	3.506818e+02
1.870000e-06	6.215118e-06	5.384728e-09	4.388948e+01	3.499263e+02
1.880000e-06	6.164483e-06	5.302503e-09	4.353190e+01	3.490995e+02
1.890000e-06	6.111459e-06	5.357515e-09	4.315746e+01	3.482024e+02
1.900000e-06	6.055849e-06	5.265591e-09	4.276476e+01	3.472385e+02
1.910000e-06	5.998025e-06	5.277091e-09	4.235642e+01	3.462131e+02
1.920000e-06	5.938197e-06	5.321716e-09	4.193394e+01	3.451328e+02
1.930000e-06	5.876261e-06	5.232214e-09	4.149656e+01	3.440045e+02
1.940000e-06	5.812067e-06	5.253548e-09	4.104324e+01	3.428346e+02
1.950000e-06	5.745773e-06	5.192570e-09	4.057509e+01	3.416283e+02
1.960000e-06	5.677391e-06	5.213448e-09	4.009219e+01	3.403888e+02
1.970000e-06	5.606719e-06	5.167135e-09	3.959313e+01	3.391173e+02
1.980000e-06	5.533951e-06	5.146480e-09	3.907926e+01	3.378124e+02
1.990000e-06	5.459206e-06	5.172078e-09	3.855143e+01	3.364712e+02
2.000000e-06	5.382336e-06	5.086236e-09	3.800859e+01	3.350889e+02
2.010000e-06	5.303302e-06	5.114572e-09	3.745047e+01	3.336604e+02
2.020000e-06	5.222357e-06	5.076675e-09	3.687886e+01	3.321802e+02
2.030000e-06	5.139739e-06	5.061078e-09	3.629544e+01	3.306441e+02
2.040000e-06	5.055301e-06	5.017467e-09	3.569916e+01	3.290486e+02
2.050000e-06	4.968963e-06	4.985414e-09	3.508947e+01	3.273922e+02
2.060000e-06	4.880751e-06	4.988099e-09	3.446654e+01	3.256748e+02
2.070000e-06	4.790822e-06	4.931740e-09	3.383148e+01	3.238971e+02
2.080000e-06	4.699310e-06	4.924269e-09	3.318525e+01	3.220609e+02
2.090000e-06	4.606169e-06	4.884986e-09	3.252751e+01	3.201674e+02
2.100000e-06	4.511308e-06	4.864253e-09	3.185763e+01	3.182169e+02
2.110000e-06	4.414799e-06	4.824762e-09	3.117611e+01	3.162080e+02
2.120000e-06	4.316850e-06	4.806769e-09	3.048442e+01	3.141372e+02
2.130000e-06	4.217496e-06	4.777061e-09	2.978281e+01	3.119987e+02
2.140000e-06	4.116598e-06	4.721418e-09	2.907030e+01	3.097847e+02
2.150000e-06	4.014061e-06	4.693436e-09	2.834620e+01	3.074856e+02
2.160000e-06	3.909971e-06	4.661064e-09	2.761115e+01	3.050912e+02
2.170000e-06	3.804466e-06	4.628883e-09	2.686610e+01	3.025914e+02
2.180000e-06	3.697768e-06	4.572358e-09	2.611263e+01	2.999771e+02
2.190000e-06	3.589890e-06	4.535743e-09	2.535083e+01	2.972409e+02
2.200000e-06	3.480775e-06	4.495508e-09	2.458028e+01	2.943776e+02
2.210000e-06	3.370458e-06	4.454798e-09	2.380126e+01	2.913840e+02
2.220000e-06	3.258847e-06	4.408631e-09	2.301309e+01	2.882589e+02
2.230000e-06	3.145950e-06	4.360296e-09	2.221584e+01	2.850018e+02
2.240000e-06	3.031846e-06	4.302751e-09	2.141007e+01	2.816121e+02
2.250000e-06	2.916659e-06	4.244956e-09	2.059666e+01	2.780879e+02
2.260000e-06	2.800280e-06	4.197151e-09	1.977481e+01	2.744247e+02
2.270000e-06	2.682730e-06	4.139508e-09	1.894471e+01	2.706143e+02
2.280000e-06	2.564099e-06	4.073871e-09	1.810697e+01	2.666448e+02
2.290000e-06	2.444404e-06	4.005700e-09	1.726172e+01	2.624997e+02
2.300000e-06	2.323833e-06	3.947796e-09	1.641027e+01	2.581588e+02
2.310000e-06	2.202488e-06	3.882477e-09	1.555337e+01	2.535989e+02
2.320000e-06	2.080425e-06	3.808566e-09	1.469140e+01	2.487943e+02
2.330000e-06	1.957776e-06	3.727537e-09	1.382528e+01	2.437186e+02
2.340000e-06	1.834594e-06	3.644880e-09	1.295541e+01	2.383448e+02
2.350000e-06	1.710685e-06	3.558156e-09	1.208039e+01	2.326461e+02
2.360000e-06	1.586030e-06	3.469860e-09	1.120011e+01	2.265957e+02
2.370000e-06	1.460734e-06	3.375390e-09	1.031531e+01	2.201659e+02
2.380000e-06	1.334930e-06	3.267733e-09	9.426914e+00	2.133267e+02
2.390000e-06	1.208784e-06	3.154635e-09	8.536103e+00	2.060442e+02
2.400000e-06	1.082324e-06	3.039736e-09	7.643078e+00	1.982783e+02
2.410000e-06	9.555151e-07	2.920937e-09	6.747588e+00	1.899811e+02
2.420000e-06	8.283287e-07	2.786694e-09	5.849432e+00	1.810962e+02
2.430000e-06	7.007536e-07	2.638867e-09	4.948531e+00	1.715581e+02
2.440000e-06	5.728510e-07	2.482835e-09	4.045318e+00	1.612941e+02
2.450000e-06	4.446596e-07	2.315814e-09	3.140065e+00	1.502270e+02
2.460000e-06	3.162559e-07	2.135007e-09	2.233313e+00	1.382797e+02
2.470000e-06	1.877686e-07	1.938539e-09	1.325970e+00	1.253814e+02
2.480000e-06	5.924090e-08	1.724142e-09	4.183431e-01	1.114744e+02
2.490000e-06	-6.930214e-08	1.495031e-09	-4.893929e-01	9.652189e+01
2.500000e-06	-1.978281e-07	1.255054e-09	-1.397009e+00	8.051487e+01
2.510000e-06	-3.262497e-07	1.000444e-09	-2.303887e+00	6.347870e+01
2.520000e-06	-4.544945e-07	7.262529e-10	-3.209517e+00	4.547757e+01
2.530000e-06	-5.825327e-07	4.353398e-10	-4.113688e+00	2.661676e+01
2.540000e-06	-7.103230e-07	1.357768e-10	-5.016108e+00	7.042068e+00
2.550000e-06	-8.378122e-07	-1.692753e-10	-5.916402e+00	-1.306375e+01
2.560000e-06	-9.649438e-07	-4.794200e-10	-6.814171e+00	-3.348741e+01
2.570000e-06	-1.091666e-06	-7.946646e-10	-7.709046e+00	-5.399410e+01
2.580000e-06	-1.217962e-06	-1.108852e-09	-8.600919e+00	-7.433837e+01
2.590000e-06	-1.343873e-06	-1.413394e-09	-9.490063e+00	-9.427610e+01
2.600000e-06	-1.469331e-06	-1.704378e-09	-1.037601e+01	-1.135766e+02
2.610000e-06	-1.594260e-06	-1.982545e-09	-1.125823e+01	-1.320340e+02
2.620000e-06	-1.718549e-06	-2.251373e-09	-1.213593e+01	-1.494765e+02
2.630000e-06	-1.842088e-06	-2.506050e-09	-1.300832e+01	-1.657738e+02
2.640000e-06	-1.964910e-06	-2.738537e-09	-1.387566e+01	-1.808410e+02
2.650000e-06	-2.087104e-06	-2.948676e-09	-1.473856e+01	-1.946395e+02
2.660000e-06	-2.208633e-06	-3.141612e-09	-1.559676e+01	-2.071746e+02
2.670000e-06	-2.329391e-06	-3.318332e-09	-1.644953e+01	-2.184907e+02
2.680000e-06	-2.449372e-06	-3.475839e-09	-1.729680e+01	-2.286643e+02
2.690000e-06	-2.568409e-06	-3.613998e-09	-1.813741e+01	-2.377949e+02
2.700000e-06	-2.686336e-06	-3.737509e-09	-1.897017e+01	-2.459962e+02
2.710000e-06	-2.803133e-06	-3.851860e-09	-1.979496e+01	-2.533870e+02
2.720000e-06	-2.918769e-06	-3.958654e-09	-2.061155e+01	-2.600834e+02
2.730000e-06	-3.033207e-06	-4.052273e-09	-2.141969e+01	-2.661923e+02
2.740000e-06	-3.146377e-06	-4.132481e-09	-2.221886e+01	-2.718067e+02
2.750000e-06	-3.258265e-06	-4.208175e-09	-2.300898e+01	-2.770035e+02
2.760000e-06	-3.368880e-06	-4.283698e-09	-2.379012e+01	-2.818428e+02
2.770000e-06	-3.478314e-06	-4.356527e-09	-2.456291e+01	-2.863692e+02
2.780000e-06	-3.586654e-06	-4.420134e-09	-2.532798e+01	-2.906138e+02
2.790000e-06	-3.693863e-06	-4.477334e-09	-2.608506e+01	-2.945979e+02
2.800000e-06	-3.799864e-06	-4.535574e-09	-2.683361e+01	-2.983358e+02
2.810000e-06	-3.904482e-06	-4.594150e-09	-2.757239e+01	-3.018385e+02
2.820000e-06	-4.007564e-06	-4.647759e-09	-2.830033e+01	-3.051159e+02
2.830000e-06	-4.109105e-06	-4.694100e-09	-2.901738e+01	-3.081791e+02
2.840000e-06	-4.209197e-06	-4.737970e-09	-2.972420e+01	-3.110410e+02
2.850000e-06	-4.307910e-06	-4.781637e-09	-3.042129e+01	-3.137169e+02
2.860000e-06	-4.405222e-06	-4.823621e-09	-3.110848e+01	-3.162236e+02
2.870000e-06	-4.500973e-06	-4.861564e-09	-3.178465e+01	-3.185786e+02
2.880000e-06	-4.595039e-06	-4.895953e-09	-3.244892e+01	-3.207990e+02
2.890000e-06	-4.687506e-06	-4.929559e-09	-3.310189e+01	-3.229004e+02
2.900000e-06	-4.778421e-06	-4.963510e-09	-3.374391e+01	-3.248959e+02
2.910000e-06	-4.867651e-06	-4.995315e-09	-3.437403e+01	-3.267957e+02
2.920000e-06	-4.955098e-06	-5.023855e-09	-3.499155e+01	-3.286072e+02
2.930000e-06	-5.040676e-06	-5.050932e-09	-3.559588e+01	-3.303347e+02
2.940000e-06	-5.124447e-06	-5.076955e-09	-3.618745e+01	-3.319809e+02
