# Temperatura_=_20.0
# Concentracion g/m^3_=_9000.0
# C_Vs_to_Am_M_A/Vsm_=_65563218390.804596
# pendiente_HvsI_1/m_=_3716.3
# ordenada_HvsI_A/m_=_1297.0
# frecuencia_Hz_=_301076.38594261766

Tiempo_(s)	Campo_(V.s)	Magnetizacion_(V.s)	Campo_(kA/m)	Magnetizacion_(A/m)
0.000000e+00	-6.715689e-06	-5.459965e-09	-4.746570e+01	-3.578483e+02
1.000000e-08	-6.712505e-06	-5.459729e-09	-4.744320e+01	-3.577189e+02
2.000000e-08	-6.707127e-06	-5.457863e-09	-4.740519e+01	-3.575550e+02
3.000000e-08	-6.699665e-06	-5.455060e-09	-4.735245e+01	-3.573620e+02
4.000000e-08	-6.689955e-06	-5.451456e-09	-4.728382e+01	-3.571451e+02
5.000000e-08	-6.677757e-06	-5.448110e-09	-4.719760e+01	-3.569085e+02
6.000000e-08	-6.663049e-06	-5.437915e-09	-4.709365e+01	-3.566558e+02
7.000000e-08	-6.646033e-06	-5.425190e-09	-4.697338e+01	-3.563892e+02
8.000000e-08	-6.626963e-06	-5.459662e-09	-4.683860e+01	-3.561099e+02
9.000000e-08	-6.605616e-06	-5.492116e-09	-4.668772e+01	-3.558181e+02
1.000000e-07	-6.581551e-06	-5.459539e-09	-4.651763e+01	-3.555123e+02
1.100000e-07	-6.554793e-06	-5.420585e-09	-4.632851e+01	-3.551904e+02
1.200000e-07	-6.525737e-06	-5.404502e-09	-4.612314e+01	-3.548488e+02
1.300000e-07	-6.494772e-06	-5.367585e-09	-4.590429e+01	-3.544830e+02
1.400000e-07	-6.461958e-06	-5.367508e-09	-4.567236e+01	-3.540876e+02
1.500000e-07	-6.427158e-06	-5.446386e-09	-4.542640e+01	-3.536562e+02
1.600000e-07	-6.390352e-06	-5.358837e-09	-4.516626e+01	-3.531823e+02
1.700000e-07	-6.351534e-06	-5.342240e-09	-4.489190e+01	-3.526588e+02
1.800000e-07	-6.310414e-06	-5.392074e-09	-4.460127e+01	-3.520792e+02
1.900000e-07	-6.266708e-06	-5.323053e-09	-4.429236e+01	-3.514378e+02
2.000000e-07	-6.220688e-06	-5.356246e-09	-4.396709e+01	-3.507299e+02
2.100000e-07	-6.172319e-06	-5.327538e-09	-4.362523e+01	-3.499526e+02
2.200000e-07	-6.121313e-06	-5.297583e-09	-4.326472e+01	-3.491052e+02
2.300000e-07	-6.067818e-06	-5.316283e-09	-4.288663e+01	-3.481887e+02
2.400000e-07	-6.012109e-06	-5.278380e-09	-4.249288e+01	-3.472065e+02
2.500000e-07	-5.954206e-06	-5.286440e-09	-4.208363e+01	-3.461637e+02
2.600000e-07	-5.894105e-06	-5.265884e-09	-4.165885e+01	-3.450665e+02
2.700000e-07	-5.831946e-06	-5.225931e-09	-4.121951e+01	-3.439215e+02
2.800000e-07	-5.767755e-06	-5.217489e-09	-4.076582e+01	-3.427355e+02
2.900000e-07	-5.701431e-06	-5.218574e-09	-4.029705e+01	-3.415137e+02
3.000000e-07	-5.632945e-06	-5.205531e-09	-3.981299e+01	-3.402601e+02
3.100000e-07	-5.562408e-06	-5.145030e-09	-3.931445e+01	-3.389761e+02
3.200000e-07	-5.489880e-06	-5.155489e-09	-3.880183e+01	-3.376612e+02
3.300000e-07	-5.415151e-06	-5.133303e-09	-3.827365e+01	-3.363122e+02
3.400000e-07	-5.338200e-06	-5.086765e-09	-3.772977e+01	-3.349243e+02
3.500000e-07	-5.259173e-06	-5.087869e-09	-3.717122e+01	-3.334911e+02
3.600000e-07	-5.178074e-06	-5.061894e-09	-3.659802e+01	-3.320059e+02
3.700000e-07	-5.095176e-06	-5.029613e-09	-3.601211e+01	-3.304621e+02
3.800000e-07	-5.010672e-06	-4.994870e-09	-3.541484e+01	-3.288540e+02
3.900000e-07	-4.924569e-06	-4.993375e-09	-3.480627e+01	-3.271773e+02
4.000000e-07	-4.836930e-06	-4.968130e-09	-3.418685e+01	-3.254295e+02
4.100000e-07	-4.747516e-06	-4.925823e-09	-3.355488e+01	-3.236095e+02
4.200000e-07	-4.656211e-06	-4.902006e-09	-3.290956e+01	-3.217178e+02
4.300000e-07	-4.563225e-06	-4.879554e-09	-3.225234e+01	-3.197552e+02
4.400000e-07	-4.468695e-06	-4.851946e-09	-3.158422e+01	-3.177231e+02
4.500000e-07	-4.372583e-06	-4.810642e-09	-3.090490e+01	-3.156217e+02
4.600000e-07	-4.274722e-06	-4.783895e-09	-3.021324e+01	-3.134502e+02
4.700000e-07	-4.175277e-06	-4.746609e-09	-2.951037e+01	-3.112061e+02
4.800000e-07	-4.074430e-06	-4.702093e-09	-2.879759e+01	-3.088850e+02
4.900000e-07	-3.972148e-06	-4.669008e-09	-2.807468e+01	-3.064809e+02
5.000000e-07	-3.868434e-06	-4.639137e-09	-2.734164e+01	-3.039866e+02
5.100000e-07	-3.763251e-06	-4.591916e-09	-2.659821e+01	-3.013941e+02
5.200000e-07	-3.656662e-06	-4.542183e-09	-2.584486e+01	-2.986958e+02
5.300000e-07	-3.548730e-06	-4.511554e-09	-2.508201e+01	-2.958846e+02
5.400000e-07	-3.439546e-06	-4.474409e-09	-2.431031e+01	-2.929546e+02
5.500000e-07	-3.329242e-06	-4.422690e-09	-2.353070e+01	-2.899014e+02
5.600000e-07	-3.217851e-06	-4.372235e-09	-2.274339e+01	-2.867217e+02
5.700000e-07	-3.105218e-06	-4.327249e-09	-2.194732e+01	-2.834130e+02
5.800000e-07	-2.991183e-06	-4.272993e-09	-2.114133e+01	-2.799726e+02
5.900000e-07	-2.875880e-06	-4.217427e-09	-2.032638e+01	-2.763968e+02
6.000000e-07	-2.759463e-06	-4.164007e-09	-1.950356e+01	-2.726798e+02
6.100000e-07	-2.642079e-06	-4.104636e-09	-1.867391e+01	-2.688131e+02
6.200000e-07	-2.523793e-06	-4.037800e-09	-1.783787e+01	-2.647848e+02
6.300000e-07	-2.404678e-06	-3.973625e-09	-1.699598e+01	-2.605790e+02
6.400000e-07	-2.284710e-06	-3.909744e-09	-1.614806e+01	-2.561768e+02
6.500000e-07	-2.163794e-06	-3.836174e-09	-1.529344e+01	-2.515558e+02
6.600000e-07	-2.042077e-06	-3.757866e-09	-1.443316e+01	-2.466919e+02
6.700000e-07	-1.919605e-06	-3.682431e-09	-1.356755e+01	-2.415593e+02
6.800000e-07	-1.796379e-06	-3.604583e-09	-1.269660e+01	-2.361316e+02
6.900000e-07	-1.672482e-06	-3.515071e-09	-1.182091e+01	-2.303819e+02
7.000000e-07	-1.547992e-06	-3.421022e-09	-1.094103e+01	-2.242830e+02
7.100000e-07	-1.423019e-06	-3.323787e-09	-1.005773e+01	-2.178062e+02
7.200000e-07	-1.297621e-06	-3.220358e-09	-9.171432e+00	-2.109206e+02
7.300000e-07	-1.171761e-06	-3.108036e-09	-8.281870e+00	-2.035910e+02
7.400000e-07	-1.045467e-06	-2.989525e-09	-7.389240e+00	-1.957764e+02
7.500000e-07	-9.188803e-07	-2.861077e-09	-6.494538e+00	-1.874282e+02
7.600000e-07	-7.919856e-07	-2.718237e-09	-5.597661e+00	-1.784897e+02
7.700000e-07	-6.647780e-07	-2.568857e-09	-4.698573e+00	-1.688956e+02
7.800000e-07	-5.374124e-07	-2.413062e-09	-3.798368e+00	-1.585739e+02
7.900000e-07	-4.098988e-07	-2.242079e-09	-2.897117e+00	-1.474483e+02
8.000000e-07	-2.821981e-07	-2.054405e-09	-1.994543e+00	-1.354430e+02
8.100000e-07	-1.543316e-07	-1.856316e-09	-1.090798e+00	-1.224882e+02
8.200000e-07	-2.637976e-08	-1.645408e-09	-1.864491e-01	-1.085273e+02
8.300000e-07	1.015333e-07	-1.418139e-09	7.176252e-01	-9.352437e+01
8.400000e-07	2.293901e-07	-1.173528e-09	1.621303e+00	-7.747079e+01
8.500000e-07	3.571718e-07	-9.139881e-10	2.524449e+00	-6.039208e+01
8.600000e-07	4.848279e-07	-6.402838e-10	3.426707e+00	-4.235230e+01
8.700000e-07	6.122975e-07	-3.531261e-10	4.327647e+00	-2.345639e+01
8.800000e-07	7.394944e-07	-5.353047e-11	5.226660e+00	-3.849762e+00
8.900000e-07	8.664284e-07	2.559293e-10	6.123815e+00	1.628512e+01
9.000000e-07	9.931045e-07	5.709462e-10	7.019146e+00	3.673508e+01
9.100000e-07	1.119463e-06	8.871892e-10	7.912233e+00	5.726510e+01
9.200000e-07	1.245486e-06	1.198127e-09	8.802948e+00	7.762925e+01
9.300000e-07	1.371100e-06	1.502341e-09	9.690776e+00	9.758267e+01
9.400000e-07	1.496291e-06	1.798036e-09	1.057561e+01	1.168938e+02
9.500000e-07	1.621064e-06	2.078498e-09	1.145749e+01	1.353558e+02
9.600000e-07	1.745278e-06	2.340529e-09	1.233542e+01	1.527964e+02
9.700000e-07	1.868861e-06	2.587132e-09	1.320889e+01	1.690846e+02
9.800000e-07	1.991765e-06	2.814987e-09	1.407756e+01	1.841358e+02
9.900000e-07	2.113986e-06	3.019901e-09	1.494140e+01	1.979119e+02
1.000000e-06	2.235574e-06	3.206999e-09	1.580077e+01	2.104194e+02
1.010000e-06	2.356319e-06	3.377249e-09	1.665419e+01	2.217044e+02
1.020000e-06	2.476006e-06	3.530789e-09	1.750012e+01	2.318452e+02
1.030000e-06	2.594727e-06	3.668425e-09	1.833923e+01	2.409437e+02
1.040000e-06	2.712585e-06	3.794874e-09	1.917223e+01	2.491157e+02
1.050000e-06	2.829514e-06	3.908768e-09	1.999867e+01	2.564820e+02
1.060000e-06	2.945366e-06	4.010076e-09	2.081750e+01	2.631601e+02
1.070000e-06	3.060018e-06	4.103631e-09	2.162785e+01	2.692580e+02
1.080000e-06	3.173402e-06	4.190463e-09	2.242923e+01	2.748693e+02
1.090000e-06	3.285474e-06	4.270620e-09	2.322134e+01	2.800709e+02
1.100000e-06	3.396302e-06	4.342620e-09	2.400466e+01	2.849224e+02
1.110000e-06	3.506004e-06	4.410245e-09	2.478002e+01	2.894675e+02
1.120000e-06	3.614580e-06	4.473202e-09	2.554743e+01	2.937366e+02
1.130000e-06	3.722012e-06	4.531997e-09	2.630674e+01	2.977497e+02
1.140000e-06	3.828220e-06	4.587778e-09	2.705741e+01	3.015202e+02
1.150000e-06	3.932952e-06	4.641578e-09	2.779764e+01	3.050582e+02
1.160000e-06	4.036133e-06	4.690951e-09	2.852692e+01	3.083730e+02
1.170000e-06	4.137917e-06	4.734424e-09	2.924631e+01	3.114749e+02
1.180000e-06	4.238288e-06	4.775252e-09	2.995573e+01	3.143766e+02
1.190000e-06	4.337149e-06	4.816953e-09	3.065446e+01	3.170925e+02
1.200000e-06	4.434413e-06	4.856424e-09	3.134191e+01	3.196389e+02
1.210000e-06	4.529939e-06	4.890243e-09	3.201708e+01	3.220325e+02
1.220000e-06	4.623814e-06	4.921557e-09	3.268058e+01	3.242894e+02
1.230000e-06	4.716204e-06	4.953649e-09	3.333358e+01	3.264240e+02
1.240000e-06	4.807036e-06	4.982814e-09	3.397557e+01	3.284482e+02
1.250000e-06	4.896130e-06	5.008271e-09	3.460527e+01	3.303711e+02
1.260000e-06	4.983358e-06	5.035071e-09	3.522179e+01	3.321990e+02
1.270000e-06	5.068813e-06	5.061468e-09	3.582578e+01	3.339358e+02
1.280000e-06	5.152634e-06	5.085498e-09	3.641821e+01	3.355838e+02
1.290000e-06	5.234729e-06	5.106733e-09	3.699845e+01	3.371449e+02
1.300000e-06	5.314890e-06	5.127183e-09	3.756502e+01	3.386207e+02
1.310000e-06	5.393122e-06	5.147537e-09	3.811795e+01	3.400141e+02
1.320000e-06	5.469475e-06	5.165516e-09	3.865761e+01	3.413289e+02
1.330000e-06	5.543742e-06	5.183067e-09	3.918252e+01	3.425702e+02
1.340000e-06	5.615836e-06	5.201012e-09	3.969207e+01	3.437442e+02
1.350000e-06	5.685885e-06	5.218846e-09	4.018717e+01	3.448575e+02
1.360000e-06	5.753991e-06	5.237065e-09	4.066853e+01	3.459166e+02
1.370000e-06	5.820089e-06	5.254159e-09	4.113571e+01	3.469271e+02
1.380000e-06	5.884032e-06	5.270770e-09	4.158765e+01	3.478933e+02
1.390000e-06	5.945922e-06	5.285307e-09	4.202508e+01	3.488179e+02
1.400000e-06	6.005893e-06	5.298099e-09	4.244895e+01	3.497018e+02
1.410000e-06	6.063763e-06	5.310788e-09	4.285797e+01	3.505445e+02
1.420000e-06	6.119387e-06	5.322314e-09	4.325111e+01	3.513445e+02
1.430000e-06	6.172768e-06	5.333301e-09	4.362840e+01	3.520999e+02
1.440000e-06	6.223705e-06	5.344817e-09	4.398842e+01	3.528089e+02
1.450000e-06	6.272055e-06	5.357250e-09	4.433015e+01	3.534710e+02
1.460000e-06	6.318063e-06	5.369991e-09	4.465533e+01	3.540867e+02
1.470000e-06	6.361940e-06	5.381043e-09	4.496545e+01	3.546582e+02
1.480000e-06	6.403530e-06	5.390935e-09	4.525940e+01	3.551890e+02
1.490000e-06	6.442724e-06	5.400074e-09	4.553642e+01	3.556838e+02
1.500000e-06	6.479760e-06	5.407720e-09	4.579818e+01	3.561479e+02
1.510000e-06	6.514710e-06	5.415201e-09	4.604521e+01	3.565864e+02
1.520000e-06	6.547273e-06	5.423077e-09	4.627536e+01	3.570036e+02
1.530000e-06	6.577462e-06	5.430767e-09	4.648873e+01	3.574024e+02
1.540000e-06	6.605510e-06	5.436807e-09	4.668697e+01	3.577839e+02
1.550000e-06	6.631214e-06	5.443400e-09	4.686865e+01	3.581472e+02
1.560000e-06	6.654385e-06	5.451898e-09	4.703241e+01	3.584893e+02
1.570000e-06	6.675280e-06	5.459434e-09	4.718010e+01	3.588059e+02
1.580000e-06	6.694070e-06	5.465215e-09	4.731290e+01	3.590915e+02
1.590000e-06	6.710456e-06	5.471228e-09	4.742872e+01	3.593401e+02
1.600000e-06	6.724303e-06	5.476211e-09	4.752659e+01	3.595463e+02
1.610000e-06	6.735613e-06	5.478360e-09	4.760653e+01	3.597055e+02
1.620000e-06	6.744260e-06	5.480056e-09	4.766764e+01	3.598146e+02
1.630000e-06	6.750434e-06	5.482649e-09	4.771127e+01	3.598722e+02
1.640000e-06	6.754408e-06	5.485136e-09	4.773937e+01	3.598788e+02
1.650000e-06	6.756019e-06	5.488734e-09	4.775075e+01	3.598367e+02
1.660000e-06	6.755185e-06	5.486296e-09	4.774486e+01	3.597496e+02
1.670000e-06	6.752178e-06	5.484470e-09	4.772361e+01	3.596223e+02
1.680000e-06	6.747030e-06	5.483487e-09	4.768722e+01	3.594602e+02
1.690000e-06	6.739597e-06	5.481816e-09	4.763468e+01	3.592685e+02
1.700000e-06	6.729950e-06	5.480081e-09	4.756650e+01	3.590526e+02
1.710000e-06	6.718159e-06	5.476339e-09	4.748316e+01	3.588167e+02
1.720000e-06	6.703950e-06	5.481528e-09	4.738273e+01	3.585645e+02
1.730000e-06	6.687468e-06	5.466765e-09	4.726624e+01	3.582983e+02
1.740000e-06	6.668918e-06	5.392129e-09	4.713513e+01	3.580194e+02
1.750000e-06	6.647658e-06	5.393135e-09	4.698487e+01	3.577279e+02
1.760000e-06	6.623160e-06	5.421618e-09	4.681172e+01	3.574226e+02
1.770000e-06	6.595974e-06	5.429909e-09	4.661957e+01	3.571014e+02
1.780000e-06	6.566773e-06	5.495436e-09	4.641318e+01	3.567608e+02
1.790000e-06	6.535670e-06	5.489500e-09	4.619335e+01	3.563964e+02
1.800000e-06	6.502975e-06	5.369274e-09	4.596226e+01	3.560027e+02
1.810000e-06	6.468395e-06	5.457143e-09	4.571786e+01	3.555735e+02
1.820000e-06	6.431325e-06	5.451682e-09	4.545585e+01	3.551023e+02
1.830000e-06	6.392007e-06	5.405179e-09	4.517796e+01	3.545820e+02
1.840000e-06	6.350516e-06	5.499799e-09	4.488470e+01	3.540061e+02
1.850000e-06	6.306886e-06	5.364230e-09	4.457633e+01	3.533687e+02
1.860000e-06	6.261104e-06	5.401255e-09	4.425275e+01	3.526651e+02
1.870000e-06	6.212876e-06	5.426453e-09	4.391188e+01	3.518923e+02
1.880000e-06	6.162422e-06	5.342907e-09	4.355528e+01	3.510493e+02
1.890000e-06	6.109554e-06	5.400416e-09	4.318161e+01	3.501371e+02
1.900000e-06	6.054072e-06	5.306717e-09	4.278947e+01	3.491589e+02
1.910000e-06	5.996374e-06	5.324744e-09	4.238167e+01	3.481197e+02
1.920000e-06	5.936653e-06	5.347278e-09	4.195957e+01	3.470255e+02
1.930000e-06	5.874847e-06	5.271400e-09	4.152273e+01	3.458832e+02
1.940000e-06	5.810823e-06	5.300253e-09	4.107022e+01	3.446994e+02
1.950000e-06	5.744727e-06	5.230124e-09	4.060306e+01	3.434794e+02
1.960000e-06	5.676555e-06	5.263243e-09	4.012122e+01	3.422274e+02
1.970000e-06	5.606072e-06	5.212233e-09	3.962306e+01	3.409451e+02
1.980000e-06	5.533504e-06	5.194101e-09	3.911016e+01	3.396319e+02
1.990000e-06	5.458997e-06	5.212326e-09	3.858355e+01	3.382849e+02
2.000000e-06	5.382381e-06	5.125537e-09	3.804204e+01	3.368994e+02
2.010000e-06	5.303538e-06	5.155085e-09	3.748478e+01	3.354691e+02
2.020000e-06	5.222679e-06	5.106793e-09	3.691328e+01	3.339873e+02
2.030000e-06	5.140105e-06	5.100497e-09	3.632966e+01	3.324473e+02
2.040000e-06	5.055815e-06	5.057510e-09	3.573391e+01	3.308434e+02
2.050000e-06	4.969647e-06	5.026136e-09	3.512488e+01	3.291712e+02
2.060000e-06	4.881545e-06	5.026916e-09	3.450219e+01	3.274280e+02
2.070000e-06	4.791786e-06	4.973864e-09	3.386778e+01	3.256126e+02
2.080000e-06	4.700469e-06	4.968099e-09	3.322236e+01	3.237254e+02
2.090000e-06	4.607548e-06	4.918469e-09	3.256561e+01	3.217673e+02
2.100000e-06	4.512869e-06	4.897744e-09	3.189643e+01	3.197395e+02
2.110000e-06	4.416486e-06	4.854045e-09	3.121521e+01	3.176425e+02
2.120000e-06	4.318691e-06	4.833299e-09	3.052400e+01	3.154756e+02
2.130000e-06	4.219498e-06	4.805619e-09	2.982292e+01	3.132362e+02
2.140000e-06	4.118785e-06	4.752193e-09	2.911109e+01	3.109202e+02
2.150000e-06	4.016431e-06	4.719976e-09	2.838767e+01	3.085218e+02
2.160000e-06	3.912551e-06	4.683409e-09	2.765345e+01	3.060336e+02
2.170000e-06	3.807273e-06	4.653954e-09	2.690936e+01	3.034478e+02
2.180000e-06	3.700673e-06	4.596325e-09	2.615592e+01	3.007567e+02
2.190000e-06	3.592939e-06	4.556412e-09	2.539447e+01	2.979532e+02
2.200000e-06	3.484094e-06	4.512136e-09	2.462517e+01	2.950313e+02
2.210000e-06	3.373929e-06	4.470308e-09	2.384654e+01	2.919865e+02
2.220000e-06	3.262415e-06	4.422511e-09	2.305837e+01	2.888154e+02
2.230000e-06	3.149730e-06	4.372500e-09	2.226192e+01	2.855154e+02
2.240000e-06	3.035815e-06	4.315931e-09	2.145679e+01	2.820840e+02
2.250000e-06	2.920768e-06	4.258955e-09	2.064364e+01	2.785174e+02
2.260000e-06	2.804671e-06	4.210787e-09	1.982309e+01	2.748102e+02
2.270000e-06	2.687413e-06	4.152976e-09	1.899432e+01	2.709541e+02
2.280000e-06	2.568927e-06	4.087060e-09	1.815688e+01	2.669372e+02
2.290000e-06	2.449394e-06	4.015299e-09	1.731203e+01	2.627441e+02
2.300000e-06	2.329027e-06	3.954741e-09	1.646129e+01	2.583560e+02
2.310000e-06	2.207860e-06	3.888753e-09	1.560490e+01	2.537509e+02
2.320000e-06	2.086000e-06	3.813718e-09	1.474360e+01	2.489047e+02
2.330000e-06	1.963475e-06	3.731489e-09	1.387761e+01	2.437916e+02
2.340000e-06	1.840328e-06	3.650046e-09	1.300722e+01	2.383853e+02
2.350000e-06	1.716597e-06	3.564660e-09	1.213271e+01	2.326589e+02
2.360000e-06	1.592280e-06	3.475000e-09	1.125405e+01	2.265853e+02
2.370000e-06	1.467364e-06	3.377975e-09	1.037115e+01	2.201360e+02
2.380000e-06	1.341838e-06	3.269649e-09	9.483953e+00	2.132801e+02
2.390000e-06	1.215787e-06	3.155625e-09	8.593042e+00	2.059830e+02
2.400000e-06	1.089261e-06	3.037923e-09	7.698768e+00	1.982039e+02
2.410000e-06	9.622771e-07	2.917302e-09	6.801262e+00	1.898951e+02
2.420000e-06	8.349911e-07	2.783468e-09	5.901619e+00	1.810002e+02
2.430000e-06	7.075057e-07	2.635900e-09	5.000567e+00	1.714548e+02
2.440000e-06	5.797950e-07	2.479717e-09	4.097923e+00	1.611870e+02
2.450000e-06	4.518399e-07	2.314435e-09	3.193551e+00	1.501208e+02
2.460000e-06	3.236589e-07	2.135215e-09	2.287583e+00	1.381801e+02
2.470000e-06	1.953087e-07	1.938143e-09	1.380419e+00	1.252947e+02
2.480000e-06	6.688207e-08	1.722127e-09	4.727147e-01	1.114066e+02
2.490000e-06	-6.155821e-08	1.490454e-09	-4.350863e-01	9.647819e+01
2.500000e-06	-1.899514e-07	1.247566e-09	-1.342554e+00	8.049868e+01
2.510000e-06	-3.182033e-07	9.915967e-10	-2.249023e+00	6.349099e+01
2.520000e-06	-4.462750e-07	7.181104e-10	-3.154220e+00	4.551631e+01
2.530000e-06	-5.741895e-07	4.294366e-10	-4.058304e+00	2.667664e+01
2.540000e-06	-7.018529e-07	1.328839e-10	-4.960614e+00	7.114582e+00
2.550000e-06	-8.292087e-07	-1.693903e-10	-5.860750e+00	-1.298988e+01
2.560000e-06	-9.562661e-07	-4.791407e-10	-6.758777e+00	-3.342548e+01
2.570000e-06	-1.083013e-06	-7.955395e-10	-7.654607e+00	-5.395843e+01
2.580000e-06	-1.209407e-06	-1.111648e-09	-8.547946e+00	-7.434319e+01
2.590000e-06	-1.335366e-06	-1.418426e-09	-9.438212e+00	-9.433441e+01
2.600000e-06	-1.460771e-06	-1.712855e-09	-1.032456e+01	-1.136992e+02
2.610000e-06	-1.585566e-06	-1.992829e-09	-1.120660e+01	-1.322286e+02
2.620000e-06	-1.709711e-06	-2.260025e-09	-1.208404e+01	-1.497475e+02
2.630000e-06	-1.833126e-06	-2.512809e-09	-1.295632e+01	-1.661220e+02
2.640000e-06	-1.955885e-06	-2.745114e-09	-1.382396e+01	-1.812639e+02
2.650000e-06	-2.078040e-06	-2.957156e-09	-1.468734e+01	-1.951319e+02
2.660000e-06	-2.199499e-06	-3.151691e-09	-1.554580e+01	-2.077295e+02
2.670000e-06	-2.320158e-06	-3.329068e-09	-1.639861e+01	-2.191001e+02
2.680000e-06	-2.439966e-06	-3.487941e-09	-1.724539e+01	-2.293201e+02
2.690000e-06	-2.558895e-06	-3.628839e-09	-1.808597e+01	-2.384899e+02
2.700000e-06	-2.676820e-06	-3.754983e-09	-1.891945e+01	-2.467246e+02
2.710000e-06	-2.793577e-06	-3.870194e-09	-1.974468e+01	-2.541450e+02
2.720000e-06	-2.909138e-06	-3.975359e-09	-2.056145e+01	-2.608691e+02
2.730000e-06	-3.023506e-06	-4.068191e-09	-2.136978e+01	-2.670057e+02
2.740000e-06	-3.136696e-06	-4.151067e-09	-2.216980e+01	-2.726495e+02
2.750000e-06	-3.248666e-06	-4.230165e-09	-2.296119e+01	-2.778788e+02
2.760000e-06	-3.359291e-06	-4.306423e-09	-2.374307e+01	-2.827542e+02
2.770000e-06	-3.468710e-06	-4.378954e-09	-2.451643e+01	-2.873207e+02
2.780000e-06	-3.577028e-06	-4.446156e-09	-2.528201e+01	-2.916093e+02
2.790000e-06	-3.684196e-06	-4.507934e-09	-2.603947e+01	-2.956407e+02
2.800000e-06	-3.790196e-06	-4.566381e-09	-2.678866e+01	-2.994287e+02
2.810000e-06	-3.894753e-06	-4.622719e-09	-2.752766e+01	-3.029836e+02
2.820000e-06	-3.997768e-06	-4.675261e-09	-2.825575e+01	-3.063145e+02
2.830000e-06	-4.099332e-06	-4.722167e-09	-2.897360e+01	-3.094319e+02
2.840000e-06	-4.199406e-06	-4.766987e-09	-2.968091e+01	-3.123479e+02
2.850000e-06	-4.298093e-06	-4.810701e-09	-3.037842e+01	-3.150771e+02
2.860000e-06	-4.395356e-06	-4.852588e-09	-3.106586e+01	-3.176357e+02
2.870000e-06	-4.491048e-06	-4.893493e-09	-3.174220e+01	-3.200402e+02
2.880000e-06	-4.585195e-06	-4.932276e-09	-3.240762e+01	-3.223069e+02
2.890000e-06	-4.677738e-06	-4.968044e-09	-3.306170e+01	-3.244503e+02
2.900000e-06	-4.768633e-06	-5.000220e-09	-3.370414e+01	-3.264827e+02
2.910000e-06	-4.857858e-06	-5.029448e-09	-3.433477e+01	-3.284131e+02
2.920000e-06	-4.945326e-06	-5.058238e-09	-3.495298e+01	-3.302482e+02
2.930000e-06	-5.030939e-06	-5.085723e-09	-3.555809e+01	-3.319919e+02
2.940000e-06	-5.114763e-06	-5.111260e-09	-3.615054e+01	-3.336468e+02
