# Temperatura_=_20.0
# Concentracion g/m^3_=_9000.0
# C_Vs_to_Am_M_A/Vsm_=_65563218390.804596
# pendiente_HvsI_1/m_=_3716.3
# ordenada_HvsI_A/m_=_1297.0
# frecuencia_Hz_=_301071.3862908433

Tiempo_(s)	Campo_(V.s)	Magnetizacion_(V.s)	Campo_(kA/m)	Magnetizacion_(A/m)
0.000000e+00	-6.709250e-06	-5.386925e-09	-4.746702e+01	-3.523863e+02
1.000000e-08	-6.705781e-06	-5.388273e-09	-4.744247e+01	-3.522623e+02
2.000000e-08	-6.700211e-06	-5.386533e-09	-4.740307e+01	-3.521057e+02
3.000000e-08	-6.692580e-06	-5.384298e-09	-4.734908e+01	-3.519212e+02
4.000000e-08	-6.682610e-06	-5.377826e-09	-4.727855e+01	-3.517133e+02
5.000000e-08	-6.670095e-06	-5.371487e-09	-4.719000e+01	-3.514857e+02
6.000000e-08	-6.655089e-06	-5.359171e-09	-4.708384e+01	-3.512411e+02
7.000000e-08	-6.637777e-06	-5.344170e-09	-4.696136e+01	-3.509811e+02
8.000000e-08	-6.618444e-06	-5.389195e-09	-4.682458e+01	-3.507060e+02
9.000000e-08	-6.596804e-06	-5.433533e-09	-4.667148e+01	-3.504152e+02
1.000000e-07	-6.572397e-06	-5.393952e-09	-4.649880e+01	-3.501069e+02
1.100000e-07	-6.545330e-06	-5.351160e-09	-4.630731e+01	-3.497783e+02
1.200000e-07	-6.515995e-06	-5.338314e-09	-4.609977e+01	-3.494264e+02
1.300000e-07	-6.484818e-06	-5.284119e-09	-4.587919e+01	-3.490471e+02
1.400000e-07	-6.451892e-06	-5.280598e-09	-4.564625e+01	-3.486362e+02
1.500000e-07	-6.416920e-06	-5.405967e-09	-4.539883e+01	-3.481895e+02
1.600000e-07	-6.379792e-06	-5.279456e-09	-4.513615e+01	-3.477024e+02
1.700000e-07	-6.340614e-06	-5.247399e-09	-4.485897e+01	-3.471708e+02
1.800000e-07	-6.299112e-06	-5.335807e-09	-4.456535e+01	-3.465910e+02
1.900000e-07	-6.255136e-06	-5.236334e-09	-4.425423e+01	-3.459597e+02
2.000000e-07	-6.208961e-06	-5.285810e-09	-4.392754e+01	-3.452747e+02
2.100000e-07	-6.160357e-06	-5.270098e-09	-4.358368e+01	-3.445347e+02
2.200000e-07	-6.109079e-06	-5.219591e-09	-4.322089e+01	-3.437393e+02
2.300000e-07	-6.055389e-06	-5.242516e-09	-4.284104e+01	-3.428893e+02
2.400000e-07	-5.999531e-06	-5.211723e-09	-4.244585e+01	-3.419864e+02
2.500000e-07	-5.941453e-06	-5.228452e-09	-4.203496e+01	-3.410330e+02
2.600000e-07	-5.881127e-06	-5.202579e-09	-4.160817e+01	-3.400318e+02
2.700000e-07	-5.818722e-06	-5.149892e-09	-4.116666e+01	-3.389857e+02
2.800000e-07	-5.754308e-06	-5.145052e-09	-4.071094e+01	-3.378971e+02
2.900000e-07	-5.687753e-06	-5.155098e-09	-4.024007e+01	-3.367675e+02
3.000000e-07	-5.619011e-06	-5.145312e-09	-3.975373e+01	-3.355978e+02
3.100000e-07	-5.548231e-06	-5.072400e-09	-3.925297e+01	-3.343873e+02
3.200000e-07	-5.475577e-06	-5.095907e-09	-3.873896e+01	-3.331345e+02
3.300000e-07	-5.400783e-06	-5.078229e-09	-3.820980e+01	-3.318367e+02
3.400000e-07	-5.323683e-06	-5.024927e-09	-3.766433e+01	-3.304908e+02
3.500000e-07	-5.244398e-06	-5.037855e-09	-3.710340e+01	-3.290931e+02
3.600000e-07	-5.163087e-06	-5.007965e-09	-3.652813e+01	-3.276406e+02
3.700000e-07	-5.080066e-06	-4.964770e-09	-3.594076e+01	-3.261303e+02
3.800000e-07	-4.995421e-06	-4.930986e-09	-3.534192e+01	-3.245604e+02
3.900000e-07	-4.909193e-06	-4.942987e-09	-3.473187e+01	-3.229299e+02
4.000000e-07	-4.821448e-06	-4.913307e-09	-3.411108e+01	-3.212386e+02
4.100000e-07	-4.731933e-06	-4.864075e-09	-3.347778e+01	-3.194870e+02
4.200000e-07	-4.640524e-06	-4.849356e-09	-3.283107e+01	-3.176755e+02
4.300000e-07	-4.547460e-06	-4.832586e-09	-3.217265e+01	-3.158043e+02
4.400000e-07	-4.452845e-06	-4.801616e-09	-3.150326e+01	-3.138725e+02
4.500000e-07	-4.356589e-06	-4.760202e-09	-3.082226e+01	-3.118778e+02
4.600000e-07	-4.258649e-06	-4.737986e-09	-3.012936e+01	-3.098163e+02
4.700000e-07	-4.159134e-06	-4.697541e-09	-2.942530e+01	-3.076824e+02
4.800000e-07	-4.058155e-06	-4.652736e-09	-2.871089e+01	-3.054689e+02
4.900000e-07	-3.955786e-06	-4.625622e-09	-2.798664e+01	-3.031675e+02
5.000000e-07	-3.851988e-06	-4.599165e-09	-2.725228e+01	-3.007695e+02
5.100000e-07	-3.746740e-06	-4.550013e-09	-2.650767e+01	-2.982662e+02
5.200000e-07	-3.640092e-06	-4.501243e-09	-2.575315e+01	-2.956500e+02
5.300000e-07	-3.532102e-06	-4.473799e-09	-2.498913e+01	-2.929145e+02
5.400000e-07	-3.422916e-06	-4.435336e-09	-2.421666e+01	-2.900551e+02
5.500000e-07	-3.312646e-06	-4.382200e-09	-2.343652e+01	-2.870687e+02
5.600000e-07	-3.201183e-06	-4.333398e-09	-2.264793e+01	-2.839535e+02
5.700000e-07	-3.088361e-06	-4.290072e-09	-2.184973e+01	-2.807084e+02
5.800000e-07	-2.974255e-06	-4.235159e-09	-2.104244e+01	-2.773317e+02
5.900000e-07	-2.858998e-06	-4.180880e-09	-2.022702e+01	-2.738205e+02
6.000000e-07	-2.742623e-06	-4.129035e-09	-1.940368e+01	-2.701697e+02
6.100000e-07	-2.625225e-06	-4.070444e-09	-1.857311e+01	-2.663711e+02
6.200000e-07	-2.506990e-06	-4.005090e-09	-1.773661e+01	-2.624129e+02
6.300000e-07	-2.387920e-06	-3.942779e-09	-1.689421e+01	-2.582799e+02
6.400000e-07	-2.267851e-06	-3.879706e-09	-1.604474e+01	-2.539533e+02
6.500000e-07	-2.146854e-06	-3.807234e-09	-1.518870e+01	-2.494117e+02
6.600000e-07	-2.025115e-06	-3.729253e-09	-1.432741e+01	-2.446314e+02
6.700000e-07	-1.902684e-06	-3.652585e-09	-1.346123e+01	-2.395876e+02
6.800000e-07	-1.779541e-06	-3.574281e-09	-1.259001e+01	-2.342547e+02
6.900000e-07	-1.655681e-06	-3.484805e-09	-1.171372e+01	-2.286063e+02
7.000000e-07	-1.531188e-06	-3.392812e-09	-1.083295e+01	-2.226154e+02
7.100000e-07	-1.406209e-06	-3.297904e-09	-9.948732e+00	-2.162532e+02
7.200000e-07	-1.280826e-06	-3.196480e-09	-9.061670e+00	-2.094878e+02
7.300000e-07	-1.155037e-06	-3.085324e-09	-8.171728e+00	-2.022829e+02
7.400000e-07	-1.028861e-06	-2.968441e-09	-7.279047e+00	-1.945960e+02
7.500000e-07	-9.023393e-07	-2.841658e-09	-6.383926e+00	-1.863768e+02
7.600000e-07	-7.754636e-07	-2.698545e-09	-5.486298e+00	-1.775669e+02
7.700000e-07	-6.483354e-07	-2.548740e-09	-4.586884e+00	-1.681001e+02
7.800000e-07	-5.210182e-07	-2.392808e-09	-3.686132e+00	-1.579038e+02
7.900000e-07	-3.935237e-07	-2.223079e-09	-2.784126e+00	-1.469022e+02
8.000000e-07	-2.659059e-07	-2.037552e-09	-1.881247e+00	-1.350212e+02
8.100000e-07	-1.381497e-07	-1.843252e-09	-9.773901e-01	-1.221936e+02
8.200000e-07	-1.034978e-08	-1.635896e-09	-7.322326e-02	-1.083665e+02
8.300000e-07	1.174269e-07	-1.409802e-09	8.307793e-01	-9.350771e+01
8.400000e-07	2.451822e-07	-1.166303e-09	1.734631e+00	-7.761318e+01
8.500000e-07	3.728380e-07	-9.088402e-10	2.637778e+00	-6.071232e+01
8.600000e-07	5.003452e-07	-6.368764e-10	3.539873e+00	-4.287229e+01
8.700000e-07	6.277011e-07	-3.510924e-10	4.440899e+00	-2.419981e+01
8.800000e-07	7.547968e-07	-5.494803e-11	5.340084e+00	-4.840348e+00
8.900000e-07	8.815713e-07	2.489522e-10	6.236996e+00	1.502555e+01
9.000000e-07	1.008080e-06	5.574680e-10	7.132028e+00	3.518863e+01
9.100000e-07	1.134286e-06	8.685393e-10	8.024917e+00	5.541974e+01
9.200000e-07	1.260116e-06	1.174124e-09	8.915149e+00	7.548033e+01
9.300000e-07	1.385592e-06	1.472120e-09	9.802874e+00	9.513402e+01
9.400000e-07	1.510712e-06	1.761981e-09	1.068808e+01	1.141581e+02
9.500000e-07	1.635354e-06	2.038053e-09	1.156991e+01	1.323546e+02
9.600000e-07	1.759426e-06	2.297648e-09	1.244770e+01	1.495586e+02
9.700000e-07	1.882842e-06	2.541178e-09	1.332085e+01	1.656458e+02
9.800000e-07	2.005503e-06	2.766200e-09	1.418866e+01	1.805356e+02
9.900000e-07	2.127417e-06	2.969050e-09	1.505118e+01	1.941917e+02
1.000000e-06	2.248641e-06	3.154935e-09	1.590883e+01	2.066205e+02
1.010000e-06	2.369088e-06	3.323979e-09	1.676097e+01	2.178652e+02
1.020000e-06	2.488574e-06	3.475671e-09	1.760632e+01	2.279993e+02
1.030000e-06	2.607082e-06	3.611136e-09	1.844475e+01	2.371182e+02
1.040000e-06	2.724732e-06	3.736516e-09	1.927710e+01	2.453304e+02
1.050000e-06	2.841423e-06	3.851378e-09	2.010268e+01	2.527487e+02
1.060000e-06	2.956966e-06	3.955489e-09	2.092013e+01	2.594830e+02
1.070000e-06	3.071310e-06	4.053187e-09	2.172910e+01	2.656339e+02
1.080000e-06	3.184409e-06	4.142746e-09	2.252925e+01	2.712890e+02
1.090000e-06	3.296203e-06	4.222641e-09	2.332018e+01	2.765203e+02
1.100000e-06	3.406827e-06	4.293102e-09	2.410283e+01	2.813845e+02
1.110000e-06	3.516392e-06	4.360003e-09	2.487799e+01	2.859235e+02
1.120000e-06	3.624856e-06	4.421447e-09	2.564536e+01	2.901676e+02
1.130000e-06	3.732094e-06	4.478200e-09	2.640405e+01	2.941380e+02
1.140000e-06	3.837932e-06	4.532320e-09	2.715284e+01	2.978505e+02
1.150000e-06	3.942244e-06	4.584324e-09	2.789084e+01	3.013184e+02
1.160000e-06	4.045070e-06	4.633866e-09	2.861831e+01	3.045545e+02
1.170000e-06	4.146548e-06	4.679393e-09	2.933626e+01	3.075731e+02
1.180000e-06	4.246647e-06	4.721368e-09	3.004444e+01	3.103904e+02
1.190000e-06	4.345208e-06	4.761505e-09	3.074175e+01	3.130245e+02
1.200000e-06	4.442109e-06	4.798788e-09	3.142731e+01	3.154947e+02
1.210000e-06	4.537339e-06	4.831850e-09	3.210105e+01	3.178199e+02
1.220000e-06	4.630963e-06	4.861213e-09	3.276343e+01	3.200182e+02
1.230000e-06	4.723113e-06	4.889520e-09	3.341538e+01	3.221049e+02
1.240000e-06	4.813645e-06	4.916440e-09	3.405587e+01	3.240920e+02
1.250000e-06	4.902345e-06	4.942523e-09	3.468342e+01	3.259884e+02
1.260000e-06	4.989273e-06	4.970819e-09	3.529842e+01	3.277990e+02
1.270000e-06	5.074518e-06	4.999713e-09	3.590152e+01	3.295263e+02
1.280000e-06	5.158123e-06	5.025312e-09	3.649301e+01	3.311707e+02
1.290000e-06	5.239956e-06	5.046310e-09	3.707197e+01	3.327317e+02
1.300000e-06	5.319831e-06	5.067420e-09	3.763707e+01	3.342088e+02
1.310000e-06	5.397749e-06	5.088354e-09	3.818833e+01	3.356024e+02
1.320000e-06	5.473716e-06	5.106458e-09	3.872579e+01	3.369147e+02
1.330000e-06	5.547554e-06	5.122087e-09	3.924818e+01	3.381490e+02
1.340000e-06	5.619234e-06	5.137761e-09	3.975531e+01	3.393106e+02
1.350000e-06	5.688956e-06	5.154885e-09	4.024858e+01	3.404054e+02
1.360000e-06	5.756739e-06	5.173000e-09	4.072814e+01	3.414399e+02
1.370000e-06	5.822401e-06	5.189377e-09	4.119269e+01	3.424202e+02
1.380000e-06	5.885970e-06	5.203398e-09	4.164243e+01	3.433514e+02
1.390000e-06	5.947573e-06	5.217239e-09	4.207826e+01	3.442373e+02
1.400000e-06	6.007267e-06	5.232029e-09	4.250059e+01	3.450798e+02
1.410000e-06	6.064852e-06	5.246078e-09	4.290799e+01	3.458797e+02
1.420000e-06	6.120170e-06	5.256617e-09	4.329936e+01	3.466363e+02
1.430000e-06	6.173236e-06	5.265026e-09	4.367480e+01	3.473485e+02
1.440000e-06	6.223745e-06	5.275003e-09	4.403214e+01	3.480149e+02
1.450000e-06	6.271657e-06	5.286275e-09	4.437111e+01	3.486348e+02
1.460000e-06	6.317306e-06	5.297178e-09	4.469407e+01	3.492088e+02
1.470000e-06	6.360850e-06	5.307301e-09	4.500214e+01	3.497384e+02
1.480000e-06	6.402099e-06	5.315694e-09	4.529397e+01	3.502269e+02
1.490000e-06	6.440996e-06	5.324039e-09	4.556916e+01	3.506785e+02
1.500000e-06	6.477798e-06	5.332460e-09	4.582953e+01	3.510983e+02
1.510000e-06	6.512387e-06	5.339587e-09	4.607424e+01	3.514912e+02
1.520000e-06	6.544540e-06	5.345712e-09	4.630172e+01	3.518619e+02
1.530000e-06	6.574457e-06	5.350125e-09	4.651338e+01	3.522139e+02
1.540000e-06	6.602298e-06	5.354183e-09	4.671035e+01	3.525490e+02
1.550000e-06	6.627710e-06	5.360189e-09	4.689014e+01	3.528673e+02
1.560000e-06	6.650578e-06	5.367754e-09	4.705192e+01	3.531670e+02
1.570000e-06	6.671230e-06	5.372910e-09	4.719804e+01	3.534446e+02
1.580000e-06	6.689671e-06	5.375722e-09	4.732850e+01	3.536955e+02
1.590000e-06	6.705691e-06	5.381562e-09	4.744184e+01	3.539145e+02
1.600000e-06	6.719243e-06	5.387578e-09	4.753772e+01	3.540965e+02
1.610000e-06	6.730229e-06	5.389535e-09	4.761545e+01	3.542369e+02
1.620000e-06	6.738573e-06	5.390213e-09	4.767448e+01	3.543324e+02
1.630000e-06	6.744511e-06	5.391547e-09	4.771649e+01	3.543815e+02
1.640000e-06	6.748152e-06	5.394374e-09	4.774225e+01	3.543840e+02
1.650000e-06	6.749354e-06	5.398759e-09	4.775075e+01	3.543415e+02
1.660000e-06	6.748212e-06	5.393845e-09	4.774267e+01	3.542573e+02
1.670000e-06	6.744982e-06	5.390227e-09	4.771982e+01	3.541353e+02
1.680000e-06	6.739570e-06	5.388892e-09	4.768153e+01	3.539803e+02
1.690000e-06	6.731861e-06	5.387471e-09	4.762699e+01	3.537971e+02
1.700000e-06	6.722011e-06	5.387153e-09	4.755730e+01	3.535902e+02
1.710000e-06	6.710011e-06	5.386124e-09	4.747241e+01	3.533634e+02
1.720000e-06	6.695583e-06	5.396206e-09	4.737033e+01	3.531194e+02
1.730000e-06	6.678912e-06	5.380808e-09	4.725238e+01	3.528599e+02
1.740000e-06	6.660187e-06	5.284330e-09	4.711991e+01	3.525854e+02
1.750000e-06	6.638626e-06	5.286485e-09	4.696737e+01	3.522952e+02
1.760000e-06	6.613754e-06	5.324495e-09	4.679140e+01	3.519877e+02
1.770000e-06	6.586278e-06	5.328683e-09	4.659701e+01	3.516602e+02
1.780000e-06	6.556766e-06	5.418715e-09	4.638822e+01	3.513095e+02
1.790000e-06	6.525410e-06	5.424754e-09	4.616638e+01	3.509317e+02
1.800000e-06	6.492549e-06	5.249019e-09	4.593389e+01	3.505227e+02
1.810000e-06	6.457721e-06	5.361434e-09	4.568749e+01	3.500782e+02
1.820000e-06	6.420482e-06	5.362869e-09	4.542402e+01	3.495936e+02
1.830000e-06	6.381032e-06	5.290184e-09	4.514492e+01	3.490648e+02
1.840000e-06	6.339274e-06	5.436500e-09	4.484949e+01	3.484879e+02
1.850000e-06	6.295392e-06	5.256401e-09	4.453903e+01	3.478599e+02
1.860000e-06	6.249391e-06	5.286227e-09	4.421358e+01	3.471783e+02
1.870000e-06	6.201021e-06	5.349962e-09	4.387137e+01	3.464417e+02
1.880000e-06	6.150456e-06	5.249154e-09	4.351363e+01	3.456497e+02
1.890000e-06	6.097368e-06	5.320603e-09	4.313804e+01	3.448030e+02
1.900000e-06	6.041656e-06	5.205496e-09	4.274389e+01	3.439033e+02
1.910000e-06	5.983749e-06	5.230671e-09	4.233420e+01	3.429528e+02
1.920000e-06	5.923812e-06	5.283993e-09	4.191015e+01	3.419545e+02
1.930000e-06	5.861746e-06	5.184873e-09	4.147104e+01	3.409109e+02
1.940000e-06	5.797437e-06	5.215836e-09	4.101607e+01	3.398247e+02
1.950000e-06	5.731115e-06	5.137945e-09	4.054685e+01	3.386975e+02
1.960000e-06	5.662710e-06	5.188618e-09	4.006289e+01	3.375301e+02
1.970000e-06	5.591989e-06	5.135928e-09	3.956255e+01	3.363220e+02
1.980000e-06	5.519191e-06	5.116507e-09	3.904751e+01	3.350718e+02
1.990000e-06	5.444444e-06	5.143461e-09	3.851869e+01	3.337768e+02
2.000000e-06	5.367639e-06	5.034240e-09	3.797531e+01	3.324339e+02
2.010000e-06	5.288673e-06	5.084414e-09	3.741663e+01	3.310395e+02
2.020000e-06	5.207724e-06	5.040579e-09	3.684393e+01	3.295904e+02
2.030000e-06	5.125038e-06	5.025457e-09	3.625894e+01	3.280838e+02
2.040000e-06	5.040559e-06	4.975534e-09	3.566126e+01	3.265177e+02
2.050000e-06	4.954226e-06	4.950468e-09	3.505047e+01	3.248910e+02
2.060000e-06	4.866073e-06	4.964346e-09	3.442680e+01	3.232035e+02
2.070000e-06	4.776263e-06	4.902386e-09	3.379140e+01	3.214557e+02
2.080000e-06	4.684837e-06	4.896182e-09	3.314458e+01	3.196479e+02
2.090000e-06	4.591767e-06	4.849581e-09	3.248612e+01	3.177804e+02
2.100000e-06	4.496968e-06	4.835645e-09	3.181543e+01	3.158525e+02
2.110000e-06	4.400492e-06	4.793401e-09	3.113288e+01	3.138618e+02
2.120000e-06	4.302556e-06	4.774510e-09	3.043999e+01	3.118048e+02
2.130000e-06	4.203151e-06	4.744851e-09	2.973672e+01	3.096757e+02
2.140000e-06	4.102234e-06	4.688198e-09	2.902274e+01	3.074677e+02
2.150000e-06	3.999733e-06	4.662636e-09	2.829756e+01	3.051723e+02
2.160000e-06	3.895728e-06	4.632163e-09	2.756174e+01	3.027809e+02
2.170000e-06	3.790373e-06	4.602073e-09	2.681637e+01	3.002848e+02
2.180000e-06	3.683786e-06	4.540351e-09	2.606228e+01	2.976764e+02
2.190000e-06	3.576019e-06	4.505918e-09	2.529984e+01	2.949491e+02
2.200000e-06	3.467057e-06	4.468376e-09	2.452895e+01	2.920981e+02
2.210000e-06	3.356840e-06	4.428250e-09	2.374918e+01	2.891203e+02
2.220000e-06	3.245332e-06	4.378970e-09	2.296028e+01	2.860139e+02
2.230000e-06	3.132622e-06	4.328056e-09	2.216287e+01	2.827775e+02
2.240000e-06	3.018697e-06	4.270256e-09	2.135687e+01	2.794097e+02
2.250000e-06	2.903627e-06	4.215188e-09	2.054276e+01	2.759077e+02
2.260000e-06	2.787423e-06	4.170743e-09	1.972064e+01	2.722666e+02
2.270000e-06	2.670102e-06	4.112869e-09	1.889060e+01	2.684784e+02
2.280000e-06	2.551680e-06	4.045226e-09	1.805279e+01	2.645315e+02
2.290000e-06	2.432251e-06	3.974984e-09	1.720784e+01	2.604111e+02
2.300000e-06	2.311907e-06	3.919910e-09	1.635643e+01	2.560985e+02
2.310000e-06	2.190724e-06	3.857320e-09	1.549907e+01	2.515724e+02
2.320000e-06	2.068886e-06	3.781394e-09	1.463709e+01	2.468095e+02
2.330000e-06	1.946452e-06	3.697218e-09	1.377088e+01	2.417848e+02
2.340000e-06	1.823383e-06	3.617315e-09	1.290019e+01	2.364728e+02
2.350000e-06	1.699620e-06	3.534843e-09	1.202458e+01	2.308473e+02
2.360000e-06	1.575262e-06	3.447384e-09	1.114476e+01	2.248813e+02
2.370000e-06	1.450291e-06	3.351610e-09	1.026061e+01	2.185461e+02
2.380000e-06	1.324684e-06	3.244843e-09	9.371956e+00	2.118101e+02
2.390000e-06	1.198627e-06	3.136412e-09	8.480119e+00	2.046374e+02
2.400000e-06	1.072195e-06	3.025711e-09	7.585634e+00	1.969860e+02
2.410000e-06	9.454264e-07	2.908832e-09	6.688762e+00	1.888061e+02
2.420000e-06	8.183407e-07	2.773829e-09	5.789648e+00	1.800400e+02
2.430000e-06	6.909045e-07	2.625929e-09	4.888054e+00	1.706219e+02
2.440000e-06	5.632278e-07	2.473237e-09	3.984759e+00	1.604796e+02
2.450000e-06	4.354083e-07	2.310805e-09	3.080454e+00	1.495375e+02
2.460000e-06	3.073819e-07	2.131908e-09	2.174685e+00	1.377211e+02
2.470000e-06	1.791792e-07	1.936002e-09	1.267668e+00	1.249626e+02
2.480000e-06	5.093812e-08	1.725686e-09	3.603802e-01	1.112077e+02
2.490000e-06	-7.729777e-08	1.500782e-09	-5.468710e-01	9.642258e+01
2.500000e-06	-2.055040e-07	1.263077e-09	-1.453913e+00	8.060096e+01
2.510000e-06	-3.335765e-07	1.010033e-09	-2.360008e+00	6.376968e+01
2.520000e-06	-4.615238e-07	7.369021e-10	-3.265217e+00	4.599312e+01
2.530000e-06	-5.893190e-07	4.503437e-10	-4.169350e+00	2.737519e+01
2.540000e-06	-7.168579e-07	1.588464e-10	-5.071671e+00	8.058661e+00
2.550000e-06	-8.440677e-07	-1.397010e-10	-5.971663e+00	-1.177824e+01
2.560000e-06	-9.709308e-07	-4.464103e-10	-6.869201e+00	-3.192805e+01
2.570000e-06	-1.097454e-06	-7.579435e-10	-7.764334e+00	-5.216270e+01
2.580000e-06	-1.223628e-06	-1.068101e-09	-8.657002e+00	-7.224394e+01
2.590000e-06	-1.349352e-06	-1.369756e-09	-9.546477e+00	-9.193484e+01
2.600000e-06	-1.474565e-06	-1.661339e-09	-1.043234e+01	-1.110114e+02
2.610000e-06	-1.599212e-06	-1.940140e-09	-1.131421e+01	-1.292734e+02
2.620000e-06	-1.723115e-06	-2.204448e-09	-1.219080e+01	-1.465535e+02
2.630000e-06	-1.846300e-06	-2.452752e-09	-1.306232e+01	-1.627242e+02
2.640000e-06	-1.968857e-06	-2.681773e-09	-1.392939e+01	-1.777017e+02
2.650000e-06	-2.090811e-06	-2.892147e-09	-1.479220e+01	-1.914468e+02
2.660000e-06	-2.212084e-06	-3.086211e-09	-1.565019e+01	-2.039628e+02
2.670000e-06	-2.332562e-06	-3.263623e-09	-1.650256e+01	-2.152904e+02
2.680000e-06	-2.452181e-06	-3.421164e-09	-1.734884e+01	-2.255014e+02
2.690000e-06	-2.570907e-06	-3.561543e-09	-1.818881e+01	-2.346899e+02
2.700000e-06	-2.688600e-06	-3.689504e-09	-1.902147e+01	-2.429637e+02
2.710000e-06	-2.805125e-06	-3.806556e-09	-1.984587e+01	-2.504355e+02
2.720000e-06	-2.920469e-06	-3.911503e-09	-2.066192e+01	-2.572157e+02
2.730000e-06	-3.034626e-06	-4.003889e-09	-2.146956e+01	-2.634057e+02
2.740000e-06	-3.147501e-06	-4.088371e-09	-2.226814e+01	-2.690942e+02
2.750000e-06	-3.259029e-06	-4.168604e-09	-2.305718e+01	-2.743543e+02
2.760000e-06	-3.369288e-06	-4.244893e-09	-2.383725e+01	-2.792436e+02
2.770000e-06	-3.478433e-06	-4.315697e-09	-2.460943e+01	-2.838053e+02
2.780000e-06	-3.586535e-06	-4.381150e-09	-2.537424e+01	-2.880702e+02
2.790000e-06	-3.693516e-06	-4.441546e-09	-2.613112e+01	-2.920601e+02
2.800000e-06	-3.799230e-06	-4.499157e-09	-2.687903e+01	-2.957912e+02
2.810000e-06	-3.903539e-06	-4.555259e-09	-2.761700e+01	-2.992766e+02
2.820000e-06	-4.006333e-06	-4.606928e-09	-2.834425e+01	-3.025294e+02
2.830000e-06	-4.107584e-06	-4.653353e-09	-2.906059e+01	-3.055635e+02
2.840000e-06	-4.207389e-06	-4.698122e-09	-2.976670e+01	-3.083951e+02
2.850000e-06	-4.305816e-06	-4.742463e-09	-3.046305e+01	-3.110422e+02
2.860000e-06	-4.402826e-06	-4.783700e-09	-3.114939e+01	-3.135240e+02
2.870000e-06	-4.498273e-06	-4.820766e-09	-3.182467e+01	-3.158596e+02
2.880000e-06	-4.592087e-06	-4.854955e-09	-3.248838e+01	-3.180669e+02
2.890000e-06	-4.684301e-06	-4.888187e-09	-3.314078e+01	-3.201616e+02
2.900000e-06	-4.774928e-06	-4.920688e-09	-3.378196e+01	-3.221561e+02
2.910000e-06	-4.863891e-06	-4.951936e-09	-3.441136e+01	-3.240592e+02
2.920000e-06	-4.951074e-06	-4.981061e-09	-3.502817e+01	-3.258764e+02
2.930000e-06	-5.036362e-06	-5.007914e-09	-3.563157e+01	-3.276102e+02
2.940000e-06	-5.119891e-06	-5.034342e-09	-3.622253e+01	-3.292611e+02
