# Temperatura_=_20.0
# Concentracion g/m^3_=_9000.0
# C_Vs_to_Am_M_A/Vsm_=_65563218390.804596
# pendiente_HvsI_1/m_=_3716.3
# ordenada_HvsI_A/m_=_1297.0
# frecuencia_Hz_=_301071.4837540113

Tiempo_(s)	Campo_(V.s)	Magnetizacion_(V.s)	Campo_(kA/m)	Magnetizacion_(A/m)
0.000000e+00	-6.710326e-06	-5.408551e-09	-4.746721e+01	-3.539819e+02
1.000000e-08	-6.706938e-06	-5.410809e-09	-4.744324e+01	-3.539153e+02
2.000000e-08	-6.701414e-06	-5.409077e-09	-4.740417e+01	-3.538101e+02
3.000000e-08	-6.693827e-06	-5.407128e-09	-4.735050e+01	-3.536688e+02
4.000000e-08	-6.683960e-06	-5.403462e-09	-4.728070e+01	-3.534944e+02
5.000000e-08	-6.671591e-06	-5.399722e-09	-4.719320e+01	-3.532903e+02
6.000000e-08	-6.656711e-06	-5.390207e-09	-4.708795e+01	-3.530601e+02
7.000000e-08	-6.639537e-06	-5.377572e-09	-4.696646e+01	-3.528076e+02
8.000000e-08	-6.620308e-06	-5.416123e-09	-4.683044e+01	-3.525364e+02
9.000000e-08	-6.598743e-06	-5.461993e-09	-4.667790e+01	-3.522492e+02
1.000000e-07	-6.574451e-06	-5.422820e-09	-4.650606e+01	-3.519481e+02
1.100000e-07	-6.547515e-06	-5.378032e-09	-4.631552e+01	-3.516336e+02
1.200000e-07	-6.518301e-06	-5.370521e-09	-4.610887e+01	-3.513045e+02
1.300000e-07	-6.487206e-06	-5.321696e-09	-4.588891e+01	-3.509579e+02
1.400000e-07	-6.454369e-06	-5.299071e-09	-4.565663e+01	-3.505889e+02
1.500000e-07	-6.419519e-06	-5.416917e-09	-4.541011e+01	-3.501912e+02
1.600000e-07	-6.382501e-06	-5.330330e-09	-4.514825e+01	-3.497567e+02
1.700000e-07	-6.343450e-06	-5.278467e-09	-4.487202e+01	-3.492771e+02
1.800000e-07	-6.302096e-06	-5.364168e-09	-4.457949e+01	-3.487435e+02
1.900000e-07	-6.258237e-06	-5.280087e-09	-4.426924e+01	-3.481483e+02
2.000000e-07	-6.212188e-06	-5.306748e-09	-4.394350e+01	-3.474849e+02
2.100000e-07	-6.163781e-06	-5.307426e-09	-4.360108e+01	-3.467493e+02
2.200000e-07	-6.112676e-06	-5.258528e-09	-4.323957e+01	-3.459396e+02
2.300000e-07	-6.059133e-06	-5.267204e-09	-4.286083e+01	-3.450568e+02
2.400000e-07	-6.003325e-06	-5.229548e-09	-4.246606e+01	-3.441044e+02
2.500000e-07	-5.945202e-06	-5.241366e-09	-4.205490e+01	-3.430880e+02
2.600000e-07	-5.884912e-06	-5.231469e-09	-4.162843e+01	-3.420144e+02
2.700000e-07	-5.822541e-06	-5.183070e-09	-4.118723e+01	-3.408909e+02
2.800000e-07	-5.758137e-06	-5.168489e-09	-4.073166e+01	-3.397245e+02
2.900000e-07	-5.691675e-06	-5.172802e-09	-4.026151e+01	-3.385209e+02
3.000000e-07	-5.623072e-06	-5.171788e-09	-3.977624e+01	-3.372837e+02
3.100000e-07	-5.552428e-06	-5.107575e-09	-3.927652e+01	-3.360144e+02
3.200000e-07	-5.479899e-06	-5.113950e-09	-3.876347e+01	-3.347121e+02
3.300000e-07	-5.405276e-06	-5.095762e-09	-3.823560e+01	-3.333738e+02
3.400000e-07	-5.328370e-06	-5.042499e-09	-3.769159e+01	-3.319948e+02
3.500000e-07	-5.249261e-06	-5.052042e-09	-3.713199e+01	-3.305698e+02
3.600000e-07	-5.168066e-06	-5.029130e-09	-3.655764e+01	-3.290933e+02
3.700000e-07	-5.085120e-06	-4.986335e-09	-3.597090e+01	-3.275607e+02
3.800000e-07	-5.000576e-06	-4.947606e-09	-3.537285e+01	-3.259684e+02
3.900000e-07	-4.914446e-06	-4.952326e-09	-3.476359e+01	-3.243145e+02
4.000000e-07	-4.826727e-06	-4.932790e-09	-3.414309e+01	-3.225988e+02
4.100000e-07	-4.737267e-06	-4.887589e-09	-3.351027e+01	-3.208220e+02
4.200000e-07	-4.645960e-06	-4.863216e-09	-3.286439e+01	-3.189857e+02
4.300000e-07	-4.552974e-06	-4.841553e-09	-3.220662e+01	-3.170911e+02
4.400000e-07	-4.458430e-06	-4.814304e-09	-3.153784e+01	-3.151387e+02
4.500000e-07	-4.362268e-06	-4.776572e-09	-3.085762e+01	-3.131273e+02
4.600000e-07	-4.264486e-06	-4.750971e-09	-3.016593e+01	-3.110537e+02
4.700000e-07	-4.165020e-06	-4.713028e-09	-2.946234e+01	-3.089126e+02
4.800000e-07	-4.064089e-06	-4.668132e-09	-2.874837e+01	-3.066966e+02
4.900000e-07	-3.961829e-06	-4.639643e-09	-2.802501e+01	-3.043970e+02
5.000000e-07	-3.858034e-06	-4.613873e-09	-2.729079e+01	-3.020043e+02
5.100000e-07	-3.752835e-06	-4.567041e-09	-2.654664e+01	-2.995093e+02
5.200000e-07	-3.646315e-06	-4.514671e-09	-2.579314e+01	-2.969037e+02
5.300000e-07	-3.538385e-06	-4.481449e-09	-2.502967e+01	-2.941812e+02
5.400000e-07	-3.429249e-06	-4.446121e-09	-2.425767e+01	-2.913372e+02
5.500000e-07	-3.319081e-06	-4.396364e-09	-2.347837e+01	-2.883693e+02
5.600000e-07	-3.207736e-06	-4.347848e-09	-2.269074e+01	-2.852763e+02
5.700000e-07	-3.095070e-06	-4.302725e-09	-2.189377e+01	-2.820577e+02
5.800000e-07	-2.981138e-06	-4.248778e-09	-2.108784e+01	-2.787126e+02
5.900000e-07	-2.865983e-06	-4.194875e-09	-2.027326e+01	-2.752380e+02
6.000000e-07	-2.749642e-06	-4.144010e-09	-1.945030e+01	-2.716284e+02
6.100000e-07	-2.632274e-06	-4.087477e-09	-1.862007e+01	-2.678741e+02
6.200000e-07	-2.514060e-06	-4.021565e-09	-1.778385e+01	-2.639615e+02
6.300000e-07	-2.394925e-06	-3.958136e-09	-1.694111e+01	-2.598725e+02
6.400000e-07	-2.274770e-06	-3.897059e-09	-1.609117e+01	-2.555856e+02
6.500000e-07	-2.153789e-06	-3.828690e-09	-1.523537e+01	-2.510762e+02
6.600000e-07	-2.032235e-06	-3.751602e-09	-1.437553e+01	-2.463183e+02
6.700000e-07	-1.909998e-06	-3.672958e-09	-1.351086e+01	-2.412849e+02
6.800000e-07	-1.786913e-06	-3.594436e-09	-1.264019e+01	-2.359497e+02
6.900000e-07	-1.663058e-06	-3.507632e-09	-1.176406e+01	-2.302865e+02
7.000000e-07	-1.538596e-06	-3.416296e-09	-1.088365e+01	-2.242696e+02
7.100000e-07	-1.413706e-06	-3.319699e-09	-1.000021e+01	-2.178728e+02
7.200000e-07	-1.288402e-06	-3.216095e-09	-9.113839e+00	-2.110676e+02
7.300000e-07	-1.162679e-06	-3.104626e-09	-8.224507e+00	-2.038211e+02
7.400000e-07	-1.036596e-06	-2.987441e-09	-7.332627e+00	-1.960943e+02
7.500000e-07	-9.101408e-07	-2.861071e-09	-6.438114e+00	-1.878400e+02
7.600000e-07	-7.833094e-07	-2.720458e-09	-5.540939e+00	-1.790016e+02
7.700000e-07	-6.562091e-07	-2.571226e-09	-4.641862e+00	-1.695135e+02
7.800000e-07	-5.288991e-07	-2.415547e-09	-3.741303e+00	-1.593021e+02
7.900000e-07	-4.013268e-07	-2.248036e-09	-2.838887e+00	-1.482894e+02
8.000000e-07	-2.735571e-07	-2.064486e-09	-1.935076e+00	-1.363975e+02
8.100000e-07	-1.457180e-07	-1.867397e-09	-1.030773e+00	-1.235549e+02
8.200000e-07	-1.778292e-08	-1.656005e-09	-1.257921e-01	-1.097035e+02
8.300000e-07	1.102221e-07	-1.428364e-09	7.796843e-01	-9.480656e+01
8.400000e-07	2.381725e-07	-1.184872e-09	1.684774e+00	-7.885569e+01
8.500000e-07	3.659662e-07	-9.276006e-10	2.588756e+00	-6.187732e+01
8.600000e-07	4.935529e-07	-6.547444e-10	3.491272e+00	-4.393700e+01
8.700000e-07	6.209478e-07	-3.676656e-10	4.392433e+00	-2.514151e+01
8.800000e-07	7.481127e-07	-7.051776e-11	5.291966e+00	-5.637978e+00
8.900000e-07	8.750029e-07	2.344627e-10	6.189556e+00	1.438986e+01
9.000000e-07	1.001609e-06	5.453897e-10	7.085137e+00	3.472842e+01
9.100000e-07	1.127884e-06	8.597685e-10	7.978377e+00	5.514336e+01
9.200000e-07	1.253772e-06	1.169772e-09	8.868877e+00	7.539063e+01
9.300000e-07	1.379280e-06	1.472948e-09	9.756686e+00	9.522837e+01
9.400000e-07	1.504390e-06	1.766130e-09	1.064168e+01	1.144289e+02
9.500000e-07	1.629062e-06	2.043945e-09	1.152359e+01	1.327899e+02
9.600000e-07	1.753221e-06	2.305117e-09	1.240186e+01	1.501433e+02
9.700000e-07	1.876678e-06	2.550067e-09	1.327516e+01	1.663622e+02
9.800000e-07	1.999318e-06	2.775891e-09	1.414269e+01	1.813648e+02
9.900000e-07	2.121240e-06	2.979743e-09	1.500513e+01	1.951145e+02
1.000000e-06	2.242519e-06	3.167369e-09	1.586303e+01	2.076176e+02
1.010000e-06	2.363036e-06	3.338424e-09	1.671554e+01	2.189184e+02
1.020000e-06	2.482616e-06	3.492169e-09	1.756142e+01	2.290919e+02
1.030000e-06	2.601226e-06	3.630504e-09	1.840044e+01	2.382349e+02
1.040000e-06	2.718931e-06	3.756822e-09	1.923305e+01	2.464580e+02
1.050000e-06	2.835673e-06	3.871522e-09	2.005886e+01	2.538761e+02
1.060000e-06	2.951319e-06	3.975622e-09	2.087691e+01	2.606015e+02
1.070000e-06	3.065758e-06	4.071833e-09	2.168643e+01	2.667373e+02
1.080000e-06	3.178951e-06	4.159064e-09	2.248712e+01	2.723738e+02
1.090000e-06	3.290888e-06	4.238432e-09	2.327894e+01	2.775859e+02
1.100000e-06	3.401597e-06	4.310710e-09	2.406207e+01	2.824326e+02
1.110000e-06	3.511153e-06	4.377570e-09	2.483704e+01	2.869584e+02
1.120000e-06	3.619605e-06	4.440050e-09	2.560420e+01	2.911956e+02
1.130000e-06	3.726874e-06	4.499379e-09	2.636299e+01	2.951667e+02
1.140000e-06	3.832770e-06	4.555932e-09	2.711208e+01	2.988882e+02
1.150000e-06	3.937174e-06	4.608862e-09	2.785060e+01	3.023729e+02
1.160000e-06	4.040120e-06	4.657238e-09	2.857882e+01	3.056326e+02
1.170000e-06	4.141665e-06	4.699961e-09	2.929712e+01	3.086795e+02
1.180000e-06	4.241745e-06	4.740104e-09	3.000507e+01	3.115270e+02
1.190000e-06	4.340343e-06	4.781935e-09	3.070253e+01	3.141902e+02
1.200000e-06	4.437351e-06	4.819604e-09	3.138874e+01	3.166848e+02
1.210000e-06	4.532662e-06	4.852667e-09	3.206295e+01	3.190271e+02
1.220000e-06	4.626380e-06	4.883325e-09	3.272588e+01	3.212324e+02
1.230000e-06	4.718619e-06	4.912841e-09	3.337836e+01	3.233144e+02
1.240000e-06	4.809291e-06	4.941021e-09	3.401975e+01	3.252846e+02
1.250000e-06	4.898171e-06	4.967937e-09	3.464846e+01	3.271521e+02
1.260000e-06	4.985227e-06	4.995046e-09	3.526428e+01	3.289235e+02
1.270000e-06	5.070577e-06	5.019804e-09	3.586802e+01	3.306035e+02
1.280000e-06	5.154312e-06	5.043416e-09	3.646034e+01	3.321953e+02
1.290000e-06	5.236269e-06	5.066111e-09	3.704009e+01	3.337015e+02
1.300000e-06	5.316277e-06	5.087297e-09	3.760604e+01	3.351248e+02
1.310000e-06	5.394340e-06	5.106134e-09	3.815824e+01	3.364682e+02
1.320000e-06	5.470466e-06	5.123158e-09	3.869674e+01	3.377358e+02
1.330000e-06	5.544442e-06	5.139105e-09	3.922003e+01	3.389324e+02
1.340000e-06	5.616226e-06	5.154355e-09	3.972781e+01	3.400635e+02
1.350000e-06	5.686063e-06	5.171077e-09	4.022182e+01	3.411351e+02
1.360000e-06	5.754036e-06	5.189239e-09	4.070265e+01	3.421529e+02
1.370000e-06	5.819926e-06	5.205209e-09	4.116873e+01	3.431220e+02
1.380000e-06	5.883623e-06	5.218744e-09	4.161931e+01	3.440467e+02
1.390000e-06	5.945355e-06	5.233377e-09	4.205599e+01	3.449298e+02
1.400000e-06	6.005169e-06	5.248646e-09	4.247910e+01	3.457729e+02
1.410000e-06	6.062801e-06	5.262255e-09	4.288677e+01	3.465766e+02
1.420000e-06	6.118202e-06	5.271856e-09	4.327866e+01	3.473407e+02
1.430000e-06	6.171391e-06	5.280474e-09	4.365491e+01	3.480644e+02
1.440000e-06	6.222057e-06	5.292137e-09	4.401331e+01	3.487472e+02
1.450000e-06	6.270145e-06	5.305442e-09	4.435347e+01	3.493889e+02
1.460000e-06	6.315936e-06	5.317345e-09	4.467739e+01	3.499902e+02
1.470000e-06	6.359679e-06	5.326169e-09	4.498682e+01	3.505526e+02
1.480000e-06	6.401146e-06	5.334865e-09	4.528014e+01	3.510784e+02
1.490000e-06	6.440192e-06	5.343924e-09	4.555635e+01	3.515707e+02
1.500000e-06	6.477067e-06	5.352730e-09	4.581719e+01	3.520329e+02
1.510000e-06	6.511715e-06	5.360467e-09	4.606228e+01	3.524683e+02
1.520000e-06	6.544000e-06	5.366831e-09	4.629066e+01	3.528799e+02
1.530000e-06	6.574032e-06	5.373624e-09	4.650310e+01	3.532696e+02
1.540000e-06	6.601913e-06	5.380119e-09	4.670032e+01	3.536388e+02
1.550000e-06	6.627436e-06	5.387194e-09	4.688087e+01	3.539873e+02
1.560000e-06	6.650488e-06	5.394198e-09	4.704393e+01	3.543142e+02
1.570000e-06	6.671282e-06	5.398010e-09	4.719102e+01	3.546174e+02
1.580000e-06	6.689841e-06	5.401686e-09	4.732230e+01	3.548943e+02
1.590000e-06	6.705985e-06	5.407023e-09	4.743650e+01	3.551416e+02
1.600000e-06	6.719659e-06	5.411668e-09	4.753323e+01	3.553563e+02
1.610000e-06	6.730715e-06	5.413254e-09	4.761143e+01	3.555355e+02
1.620000e-06	6.739128e-06	5.413902e-09	4.767094e+01	3.556764e+02
1.630000e-06	6.745157e-06	5.417191e-09	4.771359e+01	3.557773e+02
1.640000e-06	6.748972e-06	5.421918e-09	4.774058e+01	3.558369e+02
1.650000e-06	6.750410e-06	5.428588e-09	4.775075e+01	3.558548e+02
1.660000e-06	6.749437e-06	5.426689e-09	4.774387e+01	3.558311e+02
1.670000e-06	6.746327e-06	5.423193e-09	4.772187e+01	3.557671e+02
1.680000e-06	6.740986e-06	5.423515e-09	4.768408e+01	3.556644e+02
1.690000e-06	6.733317e-06	5.421420e-09	4.762984e+01	3.555253e+02
1.700000e-06	6.723522e-06	5.417690e-09	4.756055e+01	3.553529e+02
1.710000e-06	6.711602e-06	5.414752e-09	4.747623e+01	3.551506e+02
1.720000e-06	6.697292e-06	5.424128e-09	4.737501e+01	3.549219e+02
1.730000e-06	6.680701e-06	5.413396e-09	4.725765e+01	3.546707e+02
1.740000e-06	6.662016e-06	5.324515e-09	4.712548e+01	3.544005e+02
1.750000e-06	6.640587e-06	5.323636e-09	4.697389e+01	3.541142e+02
1.760000e-06	6.615843e-06	5.366170e-09	4.679886e+01	3.538138e+02
1.770000e-06	6.588414e-06	5.365044e-09	4.660483e+01	3.534999e+02
1.780000e-06	6.558994e-06	5.432279e-09	4.639672e+01	3.531717e+02
1.790000e-06	6.527752e-06	5.461794e-09	4.617572e+01	3.528263e+02
1.800000e-06	6.494961e-06	5.307095e-09	4.594377e+01	3.524589e+02
1.810000e-06	6.460222e-06	5.384552e-09	4.569803e+01	3.520633e+02
1.820000e-06	6.423052e-06	5.401205e-09	4.543510e+01	3.516315e+02
1.830000e-06	6.383694e-06	5.313564e-09	4.515669e+01	3.511551e+02
1.840000e-06	6.342137e-06	5.454242e-09	4.486273e+01	3.506255e+02
1.850000e-06	6.298387e-06	5.323024e-09	4.455325e+01	3.500346e+02
1.860000e-06	6.252478e-06	5.310910e-09	4.422850e+01	3.493761e+02
1.870000e-06	6.204168e-06	5.370409e-09	4.388677e+01	3.486455e+02
1.880000e-06	6.153653e-06	5.282694e-09	4.352944e+01	3.478408e+02
1.890000e-06	6.100727e-06	5.357751e-09	4.315505e+01	3.469630e+02
1.900000e-06	6.045158e-06	5.263348e-09	4.276197e+01	3.460152e+02
1.910000e-06	5.987409e-06	5.247821e-09	4.235347e+01	3.450029e+02
1.920000e-06	5.927608e-06	5.298596e-09	4.193045e+01	3.439329e+02
1.930000e-06	5.865689e-06	5.210906e-09	4.149245e+01	3.428125e+02
1.940000e-06	5.801532e-06	5.246908e-09	4.103862e+01	3.416488e+02
1.950000e-06	5.735274e-06	5.177847e-09	4.056992e+01	3.404474e+02
1.960000e-06	5.667000e-06	5.197929e-09	4.008697e+01	3.392123e+02
1.970000e-06	5.596456e-06	5.157616e-09	3.958796e+01	3.379451e+02
1.980000e-06	5.523817e-06	5.133583e-09	3.907413e+01	3.366450e+02
1.990000e-06	5.449185e-06	5.169424e-09	3.854620e+01	3.353091e+02
2.000000e-06	5.372457e-06	5.062990e-09	3.800345e+01	3.339330e+02
2.010000e-06	5.293574e-06	5.086248e-09	3.744545e+01	3.325112e+02
2.020000e-06	5.212752e-06	5.057531e-09	3.687374e+01	3.310384e+02
2.030000e-06	5.130210e-06	5.047237e-09	3.628985e+01	3.295097e+02
2.040000e-06	5.045827e-06	5.008671e-09	3.569294e+01	3.279215e+02
2.050000e-06	4.959595e-06	4.966840e-09	3.508296e+01	3.262718e+02
2.060000e-06	4.871527e-06	4.973195e-09	3.445999e+01	3.245603e+02
2.070000e-06	4.781776e-06	4.919949e-09	3.382511e+01	3.227876e+02
2.080000e-06	4.690367e-06	4.912995e-09	3.317851e+01	3.209552e+02
2.090000e-06	4.597343e-06	4.869895e-09	3.252048e+01	3.190645e+02
2.100000e-06	4.502612e-06	4.845397e-09	3.185038e+01	3.171160e+02
2.110000e-06	4.406160e-06	4.804381e-09	3.116810e+01	3.151087e+02
2.120000e-06	4.308320e-06	4.783853e-09	3.047600e+01	3.130395e+02
2.130000e-06	4.209039e-06	4.762931e-09	2.977371e+01	3.109032e+02
2.140000e-06	4.108178e-06	4.709726e-09	2.906024e+01	3.086926e+02
2.150000e-06	4.005750e-06	4.677806e-09	2.833569e+01	3.063991e+02
2.160000e-06	3.901821e-06	4.641683e-09	2.760053e+01	3.040131e+02
2.170000e-06	3.796510e-06	4.612094e-09	2.685559e+01	3.015254e+02
2.180000e-06	3.689984e-06	4.557125e-09	2.610205e+01	2.989278e+02
2.190000e-06	3.582260e-06	4.520266e-09	2.534003e+01	2.962136e+02
2.200000e-06	3.473345e-06	4.481608e-09	2.456959e+01	2.933782e+02
2.210000e-06	3.363198e-06	4.439503e-09	2.379044e+01	2.904189e+02
2.220000e-06	3.251717e-06	4.392752e-09	2.300185e+01	2.873346e+02
2.230000e-06	3.139041e-06	4.344789e-09	2.220481e+01	2.841248e+02
2.240000e-06	3.025157e-06	4.289585e-09	2.139922e+01	2.807886e+02
2.250000e-06	2.910129e-06	4.231005e-09	2.058554e+01	2.773232e+02
2.260000e-06	2.793981e-06	4.183071e-09	1.976394e+01	2.737232e+02
2.270000e-06	2.676731e-06	4.128644e-09	1.893454e+01	2.699795e+02
2.280000e-06	2.558447e-06	4.065417e-09	1.809783e+01	2.660784e+02
2.290000e-06	2.439056e-06	3.995451e-09	1.725328e+01	2.620025e+02
2.300000e-06	2.318676e-06	3.935778e-09	1.640175e+01	2.577303e+02
2.310000e-06	2.197500e-06	3.872522e-09	1.554458e+01	2.532375e+02
2.320000e-06	2.075683e-06	3.800203e-09	1.468287e+01	2.484979e+02
2.330000e-06	1.953241e-06	3.719952e-09	1.381675e+01	2.434849e+02
2.340000e-06	1.830143e-06	3.639260e-09	1.294598e+01	2.381719e+02
2.350000e-06	1.706340e-06	3.552538e-09	1.207023e+01	2.325327e+02
2.360000e-06	1.581895e-06	3.463214e-09	1.118994e+01	2.265417e+02
2.370000e-06	1.456898e-06	3.370889e-09	1.030574e+01	2.201728e+02
2.380000e-06	1.331421e-06	3.267119e-09	9.418147e+00	2.133975e+02
2.390000e-06	1.205559e-06	3.155510e-09	8.527830e+00	2.061836e+02
2.400000e-06	1.079321e-06	3.037845e-09	7.634855e+00	1.984923e+02
2.410000e-06	9.526757e-07	2.918280e-09	6.738995e+00	1.902772e+02
2.420000e-06	8.256283e-07	2.787434e-09	5.840293e+00	1.814824e+02
2.430000e-06	6.982515e-07	2.642477e-09	4.939261e+00	1.720428e+02
2.440000e-06	5.705545e-07	2.488053e-09	4.035963e+00	1.618854e+02
2.450000e-06	4.426050e-07	2.322718e-09	3.130880e+00	1.509323e+02
2.460000e-06	3.144791e-07	2.144086e-09	2.224548e+00	1.391055e+02
2.470000e-06	1.862184e-07	1.951380e-09	1.317263e+00	1.263327e+02
2.480000e-06	5.790733e-08	1.741079e-09	4.096223e-01	1.125546e+02
2.490000e-06	-7.039262e-08	1.512466e-09	-4.979402e-01	9.773279e+01
2.500000e-06	-1.986709e-07	1.268710e-09	-1.405350e+00	8.185655e+01
2.510000e-06	-3.269026e-07	1.012903e-09	-2.312429e+00	6.494965e+01
2.520000e-06	-4.549664e-07	7.441214e-10	-3.218321e+00	4.707476e+01
2.530000e-06	-5.828300e-07	4.591964e-10	-4.122797e+00	2.833571e+01
2.540000e-06	-7.104704e-07	1.624362e-10	-5.025694e+00	8.876835e+00
2.550000e-06	-8.377387e-07	-1.426825e-10	-5.925959e+00	-1.112056e+01
2.560000e-06	-9.645447e-07	-4.509278e-10	-6.822954e+00	-3.144473e+01
2.570000e-06	-1.090943e-06	-7.625766e-10	-7.717066e+00	-5.186249e+01
2.580000e-06	-1.217002e-06	-1.076348e-09	-8.608773e+00	-7.213008e+01
2.590000e-06	-1.342698e-06	-1.382988e-09	-9.497920e+00	-9.200508e+01
2.600000e-06	-1.467943e-06	-1.677205e-09	-1.038387e+01	-1.112584e+02
2.610000e-06	-1.592645e-06	-1.956510e-09	-1.126598e+01	-1.296856e+02
2.620000e-06	-1.716719e-06	-2.222590e-09	-1.214365e+01	-1.471159e+02
2.630000e-06	-1.840047e-06	-2.474310e-09	-1.301604e+01	-1.634194e+02
2.640000e-06	-1.962602e-06	-2.706918e-09	-1.388297e+01	-1.785108e+02
2.650000e-06	-2.084503e-06	-2.918791e-09	-1.474526e+01	-1.923505e+02
2.660000e-06	-2.205794e-06	-3.111702e-09	-1.560325e+01	-2.049418e+02
2.670000e-06	-2.326344e-06	-3.287652e-09	-1.645599e+01	-2.163266e+02
2.680000e-06	-2.446023e-06	-3.447160e-09	-1.730257e+01	-2.265778e+02
2.690000e-06	-2.564734e-06	-3.589249e-09	-1.814230e+01	-2.357911e+02
2.700000e-06	-2.682437e-06	-3.716824e-09	-1.897490e+01	-2.440763e+02
2.710000e-06	-2.799033e-06	-3.831320e-09	-1.979968e+01	-2.515484e+02
2.720000e-06	-2.914482e-06	-3.934492e-09	-2.061633e+01	-2.583199e+02
2.730000e-06	-3.028742e-06	-4.027158e-09	-2.142458e+01	-2.644949e+02
2.740000e-06	-3.141691e-06	-4.110643e-09	-2.222356e+01	-2.701646e+02
2.750000e-06	-3.253334e-06	-4.190604e-09	-2.301329e+01	-2.754051e+02
2.760000e-06	-3.363692e-06	-4.266861e-09	-2.379393e+01	-2.802765e+02
2.770000e-06	-3.472913e-06	-4.339030e-09	-2.456654e+01	-2.848243e+02
2.780000e-06	-3.581084e-06	-4.405206e-09	-2.533171e+01	-2.890814e+02
2.790000e-06	-3.688102e-06	-4.465829e-09	-2.608874e+01	-2.930712e+02
2.800000e-06	-3.793859e-06	-4.524139e-09	-2.683683e+01	-2.968103e+02
2.810000e-06	-3.898282e-06	-4.579246e-09	-2.757550e+01	-3.003118e+02
2.820000e-06	-4.001227e-06	-4.630883e-09	-2.830370e+01	-3.035874e+02
2.830000e-06	-4.102645e-06	-4.677908e-09	-2.902111e+01	-3.066492e+02
2.840000e-06	-4.202580e-06	-4.722316e-09	-2.972802e+01	-3.095107e+02
2.850000e-06	-4.301090e-06	-4.764882e-09	-3.042486e+01	-3.121868e+02
2.860000e-06	-4.398236e-06	-4.803941e-09	-3.111205e+01	-3.146932e+02
2.870000e-06	-4.493913e-06	-4.841164e-09	-3.178885e+01	-3.170460e+02
2.880000e-06	-4.587938e-06	-4.877057e-09	-3.245395e+01	-3.192609e+02
2.890000e-06	-4.680248e-06	-4.912136e-09	-3.310693e+01	-3.213515e+02
2.900000e-06	-4.770892e-06	-4.944948e-09	-3.374812e+01	-3.233295e+02
2.910000e-06	-4.859944e-06	-4.975693e-09	-3.437806e+01	-3.252043e+02
2.920000e-06	-4.947296e-06	-5.005436e-09	-3.499596e+01	-3.269827e+02
2.930000e-06	-5.032729e-06	-5.032478e-09	-3.560029e+01	-3.286693e+02
2.940000e-06	-5.116361e-06	-5.056029e-09	-3.619189e+01	-3.302675e+02
