# Temperatura_=_20.0
# Concentracion g/m^3_=_9000.0
# C_Vs_to_Am_M_A/Vsm_=_65563218390.804596
# pendiente_HvsI_1/m_=_3716.3
# ordenada_HvsI_A/m_=_1297.0
# frecuencia_Hz_=_301067.3585963064

Tiempo_(s)	Campo_(V.s)	Magnetizacion_(V.s)	Campo_(kA/m)	Magnetizacion_(A/m)
0.000000e+00	-6.678785e-06	-5.408370e-09	-4.745943e+01	-3.539511e+02
1.000000e-08	-6.675096e-06	-5.409091e-09	-4.743322e+01	-3.538190e+02
2.000000e-08	-6.669374e-06	-5.406542e-09	-4.739255e+01	-3.536517e+02
3.000000e-08	-6.661568e-06	-5.403343e-09	-4.733708e+01	-3.534524e+02
4.000000e-08	-6.651470e-06	-5.396208e-09	-4.726533e+01	-3.532243e+02
5.000000e-08	-6.638893e-06	-5.389991e-09	-4.717596e+01	-3.529699e+02
6.000000e-08	-6.623820e-06	-5.374212e-09	-4.706885e+01	-3.526913e+02
7.000000e-08	-6.606434e-06	-5.353263e-09	-4.694530e+01	-3.523905e+02
8.000000e-08	-6.586987e-06	-5.409566e-09	-4.680711e+01	-3.520687e+02
9.000000e-08	-6.565246e-06	-5.459673e-09	-4.665262e+01	-3.517273e+02
1.000000e-07	-6.540817e-06	-5.412007e-09	-4.647902e+01	-3.513670e+02
1.100000e-07	-6.513772e-06	-5.361943e-09	-4.628685e+01	-3.509883e+02
1.200000e-07	-6.484480e-06	-5.347206e-09	-4.607870e+01	-3.505910e+02
1.300000e-07	-6.453328e-06	-5.282551e-09	-4.585733e+01	-3.501741e+02
1.400000e-07	-6.420361e-06	-5.294581e-09	-4.562307e+01	-3.497355e+02
1.500000e-07	-6.385377e-06	-5.442778e-09	-4.537447e+01	-3.492723e+02
1.600000e-07	-6.348327e-06	-5.274057e-09	-4.511119e+01	-3.487801e+02
1.700000e-07	-6.309296e-06	-5.265870e-09	-4.483384e+01	-3.482540e+02
1.800000e-07	-6.267915e-06	-5.366224e-09	-4.453979e+01	-3.476881e+02
1.900000e-07	-6.224017e-06	-5.250993e-09	-4.422784e+01	-3.470766e+02
2.000000e-07	-6.177966e-06	-5.323730e-09	-4.390061e+01	-3.464141e+02
2.100000e-07	-6.129476e-06	-5.283795e-09	-4.355604e+01	-3.456960e+02
2.200000e-07	-6.078324e-06	-5.234553e-09	-4.319256e+01	-3.449193e+02
2.300000e-07	-6.024717e-06	-5.268338e-09	-4.281162e+01	-3.440827e+02
2.400000e-07	-5.968852e-06	-5.228405e-09	-4.241465e+01	-3.431867e+02
2.500000e-07	-5.910783e-06	-5.252411e-09	-4.200201e+01	-3.422338e+02
2.600000e-07	-5.850547e-06	-5.214711e-09	-4.157397e+01	-3.412275e+02
2.700000e-07	-5.788273e-06	-5.153344e-09	-4.113145e+01	-3.401725e+02
2.800000e-07	-5.723990e-06	-5.166656e-09	-4.067466e+01	-3.390734e+02
2.900000e-07	-5.657606e-06	-5.188876e-09	-4.020293e+01	-3.379340e+02
3.000000e-07	-5.589070e-06	-5.161897e-09	-3.971592e+01	-3.367572e+02
3.100000e-07	-5.518488e-06	-5.080375e-09	-3.921436e+01	-3.355439e+02
3.200000e-07	-5.446022e-06	-5.125401e-09	-3.869942e+01	-3.342929e+02
3.300000e-07	-5.371475e-06	-5.094346e-09	-3.816968e+01	-3.330015e+02
3.400000e-07	-5.294664e-06	-5.033956e-09	-3.762387e+01	-3.316651e+02
3.500000e-07	-5.215686e-06	-5.057807e-09	-3.706265e+01	-3.302784e+02
3.600000e-07	-5.134628e-06	-5.021671e-09	-3.648665e+01	-3.288357e+02
3.700000e-07	-5.051775e-06	-4.977965e-09	-3.589790e+01	-3.273320e+02
3.800000e-07	-4.967290e-06	-4.952480e-09	-3.529755e+01	-3.257630e+02
3.900000e-07	-4.881256e-06	-4.969334e-09	-3.468619e+01	-3.241264e+02
4.000000e-07	-4.793686e-06	-4.926642e-09	-3.406392e+01	-3.224211e+02
4.100000e-07	-4.704391e-06	-4.876756e-09	-3.342939e+01	-3.206477e+02
4.200000e-07	-4.613254e-06	-4.873081e-09	-3.278177e+01	-3.188075e+02
4.300000e-07	-4.520447e-06	-4.852963e-09	-3.212229e+01	-3.169021e+02
4.400000e-07	-4.426090e-06	-4.811044e-09	-3.145178e+01	-3.149326e+02
4.500000e-07	-4.330160e-06	-4.769941e-09	-3.077011e+01	-3.128986e+02
4.600000e-07	-4.232639e-06	-4.757026e-09	-3.007712e+01	-3.107977e+02
4.700000e-07	-4.133470e-06	-4.710273e-09	-2.937243e+01	-3.086254e+02
4.800000e-07	-4.032859e-06	-4.662802e-09	-2.865748e+01	-3.063749e+02
4.900000e-07	-3.930884e-06	-4.641613e-09	-2.793285e+01	-3.040374e+02
5.000000e-07	-3.827416e-06	-4.614668e-09	-2.719761e+01	-3.016029e+02
5.100000e-07	-3.722631e-06	-4.561382e-09	-2.645301e+01	-2.990614e+02
5.200000e-07	-3.616506e-06	-4.516166e-09	-2.569888e+01	-2.964032e+02
5.300000e-07	-3.508953e-06	-4.489386e-09	-2.493461e+01	-2.936202e+02
5.400000e-07	-3.400171e-06	-4.443625e-09	-2.416160e+01	-2.907064e+02
5.500000e-07	-3.290258e-06	-4.391177e-09	-2.338057e+01	-2.876581e+02
5.600000e-07	-3.179182e-06	-4.344677e-09	-2.259125e+01	-2.844736e+02
5.700000e-07	-3.066864e-06	-4.296295e-09	-2.179313e+01	-2.811525e+02
5.800000e-07	-2.953355e-06	-4.234908e-09	-2.098653e+01	-2.776950e+02
5.900000e-07	-2.838629e-06	-4.184542e-09	-2.017129e+01	-2.741002e+02
6.000000e-07	-2.722693e-06	-4.136184e-09	-1.934745e+01	-2.703650e+02
6.100000e-07	-2.605769e-06	-4.073870e-09	-1.851658e+01	-2.664834e+02
6.200000e-07	-2.487944e-06	-4.005487e-09	-1.767932e+01	-2.624452e+02
6.300000e-07	-2.369225e-06	-3.945468e-09	-1.683571e+01	-2.582356e+02
6.400000e-07	-2.249586e-06	-3.883702e-09	-1.598555e+01	-2.538357e+02
6.500000e-07	-2.129130e-06	-3.806852e-09	-1.512959e+01	-2.492230e+02
6.600000e-07	-2.008010e-06	-3.727762e-09	-1.426892e+01	-2.443719e+02
6.700000e-07	-1.886142e-06	-3.651969e-09	-1.340292e+01	-2.392552e+02
6.800000e-07	-1.763447e-06	-3.571890e-09	-1.253105e+01	-2.338446e+02
6.900000e-07	-1.639977e-06	-3.479435e-09	-1.165367e+01	-2.281116e+02
7.000000e-07	-1.515926e-06	-3.385837e-09	-1.077216e+01	-2.220272e+02
7.100000e-07	-1.391442e-06	-3.288472e-09	-9.887584e+00	-2.155621e+02
7.200000e-07	-1.266579e-06	-3.184648e-09	-9.000309e+00	-2.086846e+02
7.300000e-07	-1.141332e-06	-3.073228e-09	-8.110303e+00	-2.013602e+02
7.400000e-07	-1.015713e-06	-2.955462e-09	-7.217654e+00	-1.935489e+02
7.500000e-07	-8.897484e-07	-2.824916e-09	-6.322550e+00	-1.852042e+02
7.600000e-07	-7.634497e-07	-2.679328e-09	-5.425071e+00	-1.762719e+02
7.700000e-07	-6.368704e-07	-2.531882e-09	-4.525599e+00	-1.666904e+02
7.800000e-07	-5.100253e-07	-2.375997e-09	-3.624239e+00	-1.563914e+02
7.900000e-07	-3.830258e-07	-2.204405e-09	-2.721780e+00	-1.453030e+02
8.000000e-07	-2.559225e-07	-2.018748e-09	-1.818585e+00	-1.333541e+02
8.100000e-07	-1.287026e-07	-1.825253e-09	-9.145601e-01	-1.204799e+02
8.200000e-07	-1.380315e-09	-1.615064e-09	-9.808512e-03	-1.066285e+02
8.300000e-07	1.260007e-07	-1.384370e-09	8.953606e-01	-9.176817e+01
8.400000e-07	2.532525e-07	-1.139975e-09	1.799612e+00	-7.589431e+01
8.500000e-07	3.803635e-07	-8.841707e-10	2.702862e+00	-5.903527e+01
8.600000e-07	5.073558e-07	-6.146027e-10	3.605269e+00	-4.125673e+01
8.700000e-07	6.341356e-07	-3.318019e-10	4.506166e+00	-2.266367e+01
8.800000e-07	7.606410e-07	-4.010479e-11	5.405113e+00	-3.399692e+00
8.900000e-07	8.869087e-07	2.614563e-10	6.302371e+00	1.635660e+01
9.000000e-07	1.012904e-06	5.702040e-10	7.197695e+00	3.639803e+01
9.100000e-07	1.138522e-06	8.793870e-10	8.090335e+00	5.649766e+01
9.200000e-07	1.263792e-06	1.182805e-09	8.980502e+00	7.641945e+01
9.300000e-07	1.388758e-06	1.481576e-09	9.868510e+00	9.592984e+01
9.400000e-07	1.513348e-06	1.771435e-09	1.075384e+01	1.148094e+02
9.500000e-07	1.637460e-06	2.044009e-09	1.163579e+01	1.328635e+02
9.600000e-07	1.760997e-06	2.299838e-09	1.251364e+01	1.499313e+02
9.700000e-07	1.883774e-06	2.540422e-09	1.338609e+01	1.658922e+02
9.800000e-07	2.005747e-06	2.762270e-09	1.425283e+01	1.806692e+02
9.900000e-07	2.127037e-06	2.963235e-09	1.511472e+01	1.942293e+02
1.000000e-06	2.247656e-06	3.149113e-09	1.597184e+01	2.065812e+02
1.010000e-06	2.367425e-06	3.319009e-09	1.682292e+01	2.177694e+02
1.020000e-06	2.486307e-06	3.471624e-09	1.766769e+01	2.278681e+02
1.030000e-06	2.604294e-06	3.608522e-09	1.850611e+01	2.369718e+02
1.040000e-06	2.721351e-06	3.736694e-09	1.933792e+01	2.451872e+02
1.050000e-06	2.837447e-06	3.853340e-09	2.016289e+01	2.526247e+02
1.060000e-06	2.952355e-06	3.955394e-09	2.097943e+01	2.593912e+02
1.070000e-06	3.065996e-06	4.049054e-09	2.178696e+01	2.655846e+02
1.080000e-06	3.178463e-06	4.134684e-09	2.258615e+01	2.712897e+02
1.090000e-06	3.289717e-06	4.214905e-09	2.337672e+01	2.765767e+02
1.100000e-06	3.399790e-06	4.289170e-09	2.415890e+01	2.815006e+02
1.110000e-06	3.508816e-06	4.358472e-09	2.493364e+01	2.861033e+02
1.120000e-06	3.616785e-06	4.421733e-09	2.570087e+01	2.904153e+02
1.130000e-06	3.723469e-06	4.481800e-09	2.645896e+01	2.944589e+02
1.140000e-06	3.828728e-06	4.540241e-09	2.720693e+01	2.982509e+02
1.150000e-06	3.932484e-06	4.594878e-09	2.794422e+01	3.018054e+02
1.160000e-06	4.034730e-06	4.642131e-09	2.867078e+01	3.051358e+02
1.170000e-06	4.135675e-06	4.684330e-09	2.938809e+01	3.082556e+02
1.180000e-06	4.235297e-06	4.726426e-09	3.009601e+01	3.111795e+02
1.190000e-06	4.333338e-06	4.769421e-09	3.079268e+01	3.139228e+02
1.200000e-06	4.429642e-06	4.808574e-09	3.147703e+01	3.165011e+02
1.210000e-06	4.524251e-06	4.841352e-09	3.214931e+01	3.189291e+02
1.220000e-06	4.617331e-06	4.872458e-09	3.281074e+01	3.212202e+02
1.230000e-06	4.709028e-06	4.903528e-09	3.346234e+01	3.233855e+02
1.240000e-06	4.799067e-06	4.933980e-09	3.410216e+01	3.254339e+02
1.250000e-06	4.887204e-06	4.961797e-09	3.472846e+01	3.273721e+02
1.260000e-06	4.973601e-06	4.987675e-09	3.534240e+01	3.292051e+02
1.270000e-06	5.058386e-06	5.013522e-09	3.594488e+01	3.309365e+02
1.280000e-06	5.141535e-06	5.039700e-09	3.653573e+01	3.325702e+02
1.290000e-06	5.222849e-06	5.062029e-09	3.711355e+01	3.341102e+02
1.300000e-06	5.302118e-06	5.080090e-09	3.767684e+01	3.355617e+02
1.310000e-06	5.379514e-06	5.098001e-09	3.822681e+01	3.369311e+02
1.320000e-06	5.454996e-06	5.117174e-09	3.876319e+01	3.382261e+02
1.330000e-06	5.528284e-06	5.136233e-09	3.928397e+01	3.394550e+02
1.340000e-06	5.599487e-06	5.154051e-09	3.978994e+01	3.406261e+02
1.350000e-06	5.668772e-06	5.171327e-09	4.028228e+01	3.417470e+02
1.360000e-06	5.736117e-06	5.189489e-09	4.076083e+01	3.428238e+02
1.370000e-06	5.801362e-06	5.207781e-09	4.122447e+01	3.438601e+02
1.380000e-06	5.864496e-06	5.224361e-09	4.167309e+01	3.448576e+02
1.390000e-06	5.925686e-06	5.238390e-09	4.210791e+01	3.458150e+02
1.400000e-06	5.984953e-06	5.251719e-09	4.252906e+01	3.467293e+02
1.410000e-06	6.042052e-06	5.264807e-09	4.293481e+01	3.475959e+02
1.420000e-06	6.096920e-06	5.276777e-09	4.332470e+01	3.484097e+02
1.430000e-06	6.149512e-06	5.288101e-09	4.369841e+01	3.491664e+02
1.440000e-06	6.199530e-06	5.299933e-09	4.405384e+01	3.498628e+02
1.450000e-06	6.247020e-06	5.312641e-09	4.439131e+01	3.504977e+02
1.460000e-06	6.292343e-06	5.324117e-09	4.471337e+01	3.510727e+02
1.470000e-06	6.335572e-06	5.333755e-09	4.502056e+01	3.515915e+02
1.480000e-06	6.376466e-06	5.341399e-09	4.531115e+01	3.520603e+02
1.490000e-06	6.415040e-06	5.348901e-09	4.558526e+01	3.524864e+02
1.500000e-06	6.451559e-06	5.356621e-09	4.584476e+01	3.528781e+02
1.510000e-06	6.485838e-06	5.362937e-09	4.608834e+01	3.532432e+02
1.520000e-06	6.517706e-06	5.368648e-09	4.631480e+01	3.535882e+02
1.530000e-06	6.547339e-06	5.374854e-09	4.652537e+01	3.539177e+02
1.540000e-06	6.574809e-06	5.382011e-09	4.672058e+01	3.542342e+02
1.550000e-06	6.599942e-06	5.389283e-09	4.689917e+01	3.545374e+02
1.560000e-06	6.622632e-06	5.395188e-09	4.706041e+01	3.548248e+02
1.570000e-06	6.643086e-06	5.399362e-09	4.720575e+01	3.550921e+02
1.580000e-06	6.661333e-06	5.403712e-09	4.733541e+01	3.553339e+02
1.590000e-06	6.677189e-06	5.408387e-09	4.744808e+01	3.555443e+02
1.600000e-06	6.690545e-06	5.411179e-09	4.754300e+01	3.557178e+02
1.610000e-06	6.701279e-06	5.412354e-09	4.761927e+01	3.558499e+02
1.620000e-06	6.709425e-06	5.414540e-09	4.767716e+01	3.559374e+02
1.630000e-06	6.715191e-06	5.418301e-09	4.771813e+01	3.559788e+02
1.640000e-06	6.718679e-06	5.420587e-09	4.774292e+01	3.559742e+02
1.650000e-06	6.719782e-06	5.425129e-09	4.775075e+01	3.559250e+02
1.660000e-06	6.718492e-06	5.420351e-09	4.774159e+01	3.558338e+02
1.670000e-06	6.715099e-06	5.417063e-09	4.771747e+01	3.557038e+02
1.680000e-06	6.709489e-06	5.415902e-09	4.767761e+01	3.555382e+02
1.690000e-06	6.701576e-06	5.412683e-09	4.762138e+01	3.553406e+02
1.700000e-06	6.691572e-06	5.410256e-09	4.755029e+01	3.551139e+02
1.710000e-06	6.679391e-06	5.408770e-09	4.746374e+01	3.548607e+02
1.720000e-06	6.664825e-06	5.423910e-09	4.736023e+01	3.545832e+02
1.730000e-06	6.648061e-06	5.407550e-09	4.724110e+01	3.542833e+02
1.740000e-06	6.629179e-06	5.298759e-09	4.710692e+01	3.539625e+02
1.750000e-06	6.607415e-06	5.308327e-09	4.695227e+01	3.536218e+02
1.760000e-06	6.582389e-06	5.350686e-09	4.677444e+01	3.532623e+02
1.770000e-06	6.554862e-06	5.352837e-09	4.657883e+01	3.528844e+02
1.780000e-06	6.525354e-06	5.464932e-09	4.636915e+01	3.524878e+02
1.790000e-06	6.494021e-06	5.446453e-09	4.614650e+01	3.520718e+02
1.800000e-06	6.461151e-06	5.239022e-09	4.591292e+01	3.516343e+02
1.810000e-06	6.426260e-06	5.399386e-09	4.566498e+01	3.511724e+02
1.820000e-06	6.388951e-06	5.375840e-09	4.539987e+01	3.506819e+02
1.830000e-06	6.349459e-06	5.304452e-09	4.511924e+01	3.501578e+02
1.840000e-06	6.307691e-06	5.470661e-09	4.482243e+01	3.495943e+02
1.850000e-06	6.263821e-06	5.244026e-09	4.451069e+01	3.489857e+02
1.860000e-06	6.217866e-06	5.322138e-09	4.418414e+01	3.483265e+02
1.870000e-06	6.169508e-06	5.383435e-09	4.384051e+01	3.476119e+02
1.880000e-06	6.118949e-06	5.265252e-09	4.348124e+01	3.468389e+02
1.890000e-06	6.065872e-06	5.347957e-09	4.310407e+01	3.460060e+02
1.900000e-06	6.010205e-06	5.200728e-09	4.270850e+01	3.451136e+02
1.910000e-06	5.952389e-06	5.266815e-09	4.229766e+01	3.441640e+02
1.920000e-06	5.892559e-06	5.322536e-09	4.187251e+01	3.431609e+02
1.930000e-06	5.830679e-06	5.190712e-09	4.143279e+01	3.421086e+02
1.940000e-06	5.766574e-06	5.235282e-09	4.097726e+01	3.410119e+02
1.950000e-06	5.700389e-06	5.159370e-09	4.050695e+01	3.398748e+02
1.960000e-06	5.632103e-06	5.219702e-09	4.002171e+01	3.387000e+02
1.970000e-06	5.561554e-06	5.141902e-09	3.952038e+01	3.374887e+02
1.980000e-06	5.488939e-06	5.134732e-09	3.900438e+01	3.362399e+02
1.990000e-06	5.414411e-06	5.165786e-09	3.847479e+01	3.349509e+02
2.000000e-06	5.337857e-06	5.044462e-09	3.793080e+01	3.336174e+02
2.010000e-06	5.259070e-06	5.114689e-09	3.737094e+01	3.322339e+02
2.020000e-06	5.178311e-06	5.053124e-09	3.679706e+01	3.307948e+02
2.030000e-06	5.095830e-06	5.038563e-09	3.621096e+01	3.292950e+02
2.040000e-06	5.011552e-06	4.993486e-09	3.561208e+01	3.277302e+02
2.050000e-06	4.925489e-06	4.982629e-09	3.500051e+01	3.260979e+02
2.060000e-06	4.837567e-06	4.991267e-09	3.437574e+01	3.243970e+02
2.070000e-06	4.747915e-06	4.908089e-09	3.373867e+01	3.226278e+02
2.080000e-06	4.656667e-06	4.913392e-09	3.309026e+01	3.207917e+02
2.090000e-06	4.563905e-06	4.873502e-09	3.243109e+01	3.188904e+02
2.100000e-06	4.469478e-06	4.857613e-09	3.176010e+01	3.169249e+02
2.110000e-06	4.373304e-06	4.803612e-09	3.107669e+01	3.148949e+02
2.120000e-06	4.275674e-06	4.790565e-09	3.038292e+01	3.127984e+02
2.130000e-06	4.176623e-06	4.762181e-09	2.967907e+01	3.106309e+02
2.140000e-06	4.076077e-06	4.703117e-09	2.896459e+01	3.083856e+02
2.150000e-06	3.973945e-06	4.682563e-09	2.823884e+01	3.060541e+02
2.160000e-06	3.870279e-06	4.650454e-09	2.750219e+01	3.036263e+02
2.170000e-06	3.765280e-06	4.617020e-09	2.675607e+01	3.010922e+02
2.180000e-06	3.659062e-06	4.554827e-09	2.600128e+01	2.984420e+02
2.190000e-06	3.551639e-06	4.526726e-09	2.523794e+01	2.956676e+02
2.200000e-06	3.443060e-06	4.482874e-09	2.446638e+01	2.927627e+02
2.210000e-06	3.333294e-06	4.435587e-09	2.368638e+01	2.897235e+02
2.220000e-06	3.222233e-06	4.387696e-09	2.289718e+01	2.865482e+02
2.230000e-06	3.109930e-06	4.343095e-09	2.209916e+01	2.832363e+02
2.240000e-06	2.996445e-06	4.282996e-09	2.129273e+01	2.797880e+02
2.250000e-06	2.881884e-06	4.221989e-09	2.047866e+01	2.762024e+02
2.260000e-06	2.766245e-06	4.177789e-09	1.965693e+01	2.724769e+02
2.270000e-06	2.649462e-06	4.120414e-09	1.882707e+01	2.686055e+02
2.280000e-06	2.531551e-06	4.051535e-09	1.798919e+01	2.645783e+02
2.290000e-06	2.412594e-06	3.978996e-09	1.714389e+01	2.603809e+02
2.300000e-06	2.292635e-06	3.921784e-09	1.629146e+01	2.559948e+02
2.310000e-06	2.171845e-06	3.853174e-09	1.543312e+01	2.513975e+02
2.320000e-06	2.050455e-06	3.776403e-09	1.457053e+01	2.465638e+02
2.330000e-06	1.928445e-06	3.696114e-09	1.370353e+01	2.414664e+02
2.340000e-06	1.805754e-06	3.616526e-09	1.283168e+01	2.360772e+02
2.350000e-06	1.682462e-06	3.529975e-09	1.195557e+01	2.303675e+02
2.360000e-06	1.558651e-06	3.441015e-09	1.107577e+01	2.243087e+02
2.370000e-06	1.434249e-06	3.347060e-09	1.019177e+01	2.178712e+02
2.380000e-06	1.309291e-06	3.237892e-09	9.303819e+00	2.110237e+02
2.390000e-06	1.183939e-06	3.123076e-09	8.413068e+00	2.037319e+02
2.400000e-06	1.058198e-06	3.007065e-09	7.519552e+00	1.959562e+02
2.410000e-06	9.320539e-07	2.888940e-09	6.623172e+00	1.876508e+02
2.420000e-06	8.055994e-07	2.754242e-09	5.724587e+00	1.787619e+02
2.430000e-06	6.788708e-07	2.607338e-09	4.824054e+00	1.692284e+02
2.440000e-06	5.518542e-07	2.453605e-09	3.921475e+00	1.589823e+02
2.450000e-06	4.245408e-07	2.286893e-09	3.016786e+00	1.479522e+02
2.460000e-06	2.970195e-07	2.105805e-09	2.110620e+00	1.360665e+02
2.470000e-06	1.694193e-07	1.911538e-09	1.203893e+00	1.232597e+02
2.480000e-06	4.176851e-08	1.700869e-09	2.968069e-01	1.094788e+02
2.490000e-06	-8.597410e-08	1.471508e-09	-6.109317e-01	9.469051e+01
2.500000e-06	-2.137289e-07	1.231003e-09	-1.518757e+00	7.888795e+01
2.510000e-06	-3.413160e-07	9.797240e-10	-2.425391e+00	6.209699e+01
2.520000e-06	-4.687064e-07	7.117428e-10	-3.330626e+00	4.438054e+01
2.530000e-06	-5.958980e-07	4.272059e-10	-4.234449e+00	2.584077e+01
2.540000e-06	-7.227977e-07	1.337813e-10	-5.136198e+00	6.618605e+00
2.550000e-06	-8.493298e-07	-1.648823e-10	-6.035335e+00	-1.310967e+01
2.560000e-06	-9.755319e-07	-4.685884e-10	-6.932127e+00	-3.313866e+01
2.570000e-06	-1.101448e-06	-7.764837e-10	-7.826884e+00	-5.324249e+01
2.580000e-06	-1.227026e-06	-1.084364e-09	-8.719245e+00	-7.318539e+01
2.590000e-06	-1.352179e-06	-1.385151e-09	-9.608581e+00	-9.273325e+01
2.600000e-06	-1.476804e-06	-1.675400e-09	-1.049416e+01	-1.116652e+02
2.610000e-06	-1.600813e-06	-1.950765e-09	-1.137538e+01	-1.297847e+02
2.620000e-06	-1.724181e-06	-2.212351e-09	-1.225203e+01	-1.469280e+02
2.630000e-06	-1.846912e-06	-2.460619e-09	-1.312415e+01	-1.629716e+02
2.640000e-06	-1.968964e-06	-2.690386e-09	-1.399145e+01	-1.778354e+02
2.650000e-06	-2.090342e-06	-2.898428e-09	-1.485396e+01	-1.914832e+02
2.660000e-06	-2.211056e-06	-3.087815e-09	-1.571176e+01	-2.039208e+02
2.670000e-06	-2.330968e-06	-3.261575e-09	-1.656385e+01	-2.151906e+02
2.680000e-06	-2.449922e-06	-3.418670e-09	-1.740914e+01	-2.253647e+02
2.690000e-06	-2.567905e-06	-3.558788e-09	-1.824753e+01	-2.345366e+02
2.700000e-06	-2.684887e-06	-3.685756e-09	-1.907880e+01	-2.428123e+02
2.710000e-06	-2.800724e-06	-3.802926e-09	-1.990194e+01	-2.503023e+02
2.720000e-06	-2.915387e-06	-3.909831e-09	-2.071673e+01	-2.571140e+02
2.730000e-06	-3.028833e-06	-4.005365e-09	-2.152288e+01	-2.633460e+02
2.740000e-06	-3.141074e-06	-4.090997e-09	-2.232046e+01	-2.690840e+02
2.750000e-06	-3.252066e-06	-4.171042e-09	-2.310917e+01	-2.743994e+02
2.760000e-06	-3.361783e-06	-4.245884e-09	-2.388882e+01	-2.793483e+02
2.770000e-06	-3.470417e-06	-4.317138e-09	-2.466077e+01	-2.839734e+02
2.780000e-06	-3.577994e-06	-4.384093e-09	-2.542521e+01	-2.883059e+02
2.790000e-06	-3.684384e-06	-4.445431e-09	-2.618123e+01	-2.923686e+02
2.800000e-06	-3.789524e-06	-4.503557e-09	-2.692835e+01	-2.961787e+02
2.810000e-06	-3.893245e-06	-4.560747e-09	-2.766539e+01	-2.997503e+02
2.820000e-06	-3.995445e-06	-4.616226e-09	-2.839162e+01	-3.030968e+02
2.830000e-06	-4.096209e-06	-4.665301e-09	-2.910765e+01	-3.062317e+02
2.840000e-06	-4.195548e-06	-4.709465e-09	-2.981355e+01	-3.091697e+02
2.850000e-06	-4.293483e-06	-4.751850e-09	-3.050948e+01	-3.119260e+02
2.860000e-06	-4.389984e-06	-4.793900e-09	-3.119521e+01	-3.145161e+02
2.870000e-06	-4.484950e-06	-4.833537e-09	-3.187004e+01	-3.169550e+02
2.880000e-06	-4.578296e-06	-4.871050e-09	-3.253336e+01	-3.192560e+02
2.890000e-06	-4.670045e-06	-4.908184e-09	-3.318533e+01	-3.214305e+02
2.900000e-06	-4.760204e-06	-4.942530e-09	-3.382599e+01	-3.234876e+02
2.910000e-06	-4.848690e-06	-4.973462e-09	-3.445478e+01	-3.254341e+02
2.920000e-06	-4.935325e-06	-5.003180e-09	-3.507040e+01	-3.272750e+02
2.930000e-06	-5.020067e-06	-5.031779e-09	-3.567258e+01	-3.290142e+02
2.940000e-06	-5.103122e-06	-5.057544e-09	-3.626277e+01	-3.306553e+02
