# Temperatura_=_20.0
# Concentracion g/m^3_=_9000.0
# C_Vs_to_Am_M_A/Vsm_=_65563218390.804596
# pendiente_HvsI_1/m_=_3716.3
# ordenada_HvsI_A/m_=_1297.0
# frecuencia_Hz_=_301073.1384953974

Tiempo_(s)	Campo_(V.s)	Magnetizacion_(V.s)	Campo_(kA/m)	Magnetizacion_(A/m)
0.000000e+00	-6.693074e-06	-5.541553e-09	-4.746699e+01	-3.606765e+02
1.000000e-08	-6.689937e-06	-5.540430e-09	-4.744474e+01	-3.605673e+02
2.000000e-08	-6.684641e-06	-5.536487e-09	-4.740718e+01	-3.604184e+02
3.000000e-08	-6.677344e-06	-5.532250e-09	-4.735543e+01	-3.602333e+02
4.000000e-08	-6.667759e-06	-5.528163e-09	-4.728745e+01	-3.600160e+02
5.000000e-08	-6.655649e-06	-5.522950e-09	-4.720157e+01	-3.597700e+02
6.000000e-08	-6.641059e-06	-5.508848e-09	-4.709809e+01	-3.594983e+02
7.000000e-08	-6.624148e-06	-5.484022e-09	-4.697816e+01	-3.592029e+02
8.000000e-08	-6.605209e-06	-5.493943e-09	-4.684385e+01	-3.588851e+02
9.000000e-08	-6.584040e-06	-5.526772e-09	-4.669372e+01	-3.585448e+02
1.000000e-07	-6.560162e-06	-5.499309e-09	-4.652438e+01	-3.581813e+02
1.100000e-07	-6.533561e-06	-5.467477e-09	-4.633573e+01	-3.577926e+02
1.200000e-07	-6.504598e-06	-5.480607e-09	-4.613032e+01	-3.573763e+02
1.300000e-07	-6.473719e-06	-5.468472e-09	-4.591133e+01	-3.569291e+02
1.400000e-07	-6.441118e-06	-5.421050e-09	-4.568012e+01	-3.564475e+02
1.500000e-07	-6.406518e-06	-5.494882e-09	-4.543475e+01	-3.559279e+02
1.600000e-07	-6.369780e-06	-5.439155e-09	-4.517420e+01	-3.553667e+02
1.700000e-07	-6.331055e-06	-5.379727e-09	-4.489956e+01	-3.547607e+02
1.800000e-07	-6.290025e-06	-5.434758e-09	-4.460858e+01	-3.541072e+02
1.900000e-07	-6.246462e-06	-5.384522e-09	-4.429963e+01	-3.534043e+02
2.000000e-07	-6.200757e-06	-5.410796e-09	-4.397550e+01	-3.526509e+02
2.100000e-07	-6.152730e-06	-5.360661e-09	-4.363489e+01	-3.518466e+02
2.200000e-07	-6.101995e-06	-5.341378e-09	-4.327508e+01	-3.509922e+02
2.300000e-07	-6.048728e-06	-5.399635e-09	-4.289731e+01	-3.500889e+02
2.400000e-07	-5.993182e-06	-5.315205e-09	-4.250338e+01	-3.491386e+02
2.500000e-07	-5.935450e-06	-5.309605e-09	-4.209395e+01	-3.481435e+02
2.600000e-07	-5.875590e-06	-5.333376e-09	-4.166942e+01	-3.471057e+02
2.700000e-07	-5.813636e-06	-5.261810e-09	-4.123005e+01	-3.460270e+02
2.800000e-07	-5.749627e-06	-5.230079e-09	-4.077610e+01	-3.449085e+02
2.900000e-07	-5.683546e-06	-5.262216e-09	-4.030746e+01	-3.437504e+02
3.000000e-07	-5.615335e-06	-5.266976e-09	-3.982371e+01	-3.425520e+02
3.100000e-07	-5.545068e-06	-5.171173e-09	-3.932538e+01	-3.413115e+02
3.200000e-07	-5.472941e-06	-5.188348e-09	-3.881386e+01	-3.400262e+02
3.300000e-07	-5.398712e-06	-5.199162e-09	-3.828743e+01	-3.386930e+02
3.400000e-07	-5.322181e-06	-5.117717e-09	-3.774467e+01	-3.373080e+02
3.500000e-07	-5.243481e-06	-5.103446e-09	-3.718653e+01	-3.358678e+02
3.600000e-07	-5.162708e-06	-5.100557e-09	-3.661370e+01	-3.343690e+02
3.700000e-07	-5.080145e-06	-5.067351e-09	-3.602816e+01	-3.328089e+02
3.800000e-07	-4.995923e-06	-5.007943e-09	-3.543087e+01	-3.311858e+02
3.900000e-07	-4.910058e-06	-5.014434e-09	-3.482192e+01	-3.294983e+02
4.000000e-07	-4.822649e-06	-5.012267e-09	-3.420201e+01	-3.277461e+02
4.100000e-07	-4.733605e-06	-4.954721e-09	-3.357051e+01	-3.259288e+02
4.200000e-07	-4.642703e-06	-4.920817e-09	-3.292585e+01	-3.240461e+02
4.300000e-07	-4.550061e-06	-4.914107e-09	-3.226883e+01	-3.220971e+02
4.400000e-07	-4.455873e-06	-4.886891e-09	-3.160085e+01	-3.200800e+02
4.500000e-07	-4.360054e-06	-4.828835e-09	-3.092131e+01	-3.179920e+02
4.600000e-07	-4.262538e-06	-4.804147e-09	-3.022973e+01	-3.158288e+02
4.700000e-07	-4.163452e-06	-4.779107e-09	-2.952702e+01	-3.135849e+02
4.800000e-07	-4.062959e-06	-4.722562e-09	-2.881432e+01	-3.112538e+02
4.900000e-07	-3.961041e-06	-4.682228e-09	-2.809153e+01	-3.088287e+02
5.000000e-07	-3.857654e-06	-4.663390e-09	-2.735831e+01	-3.063026e+02
5.100000e-07	-3.752947e-06	-4.618947e-09	-2.661573e+01	-3.036690e+02
5.200000e-07	-3.646889e-06	-4.561663e-09	-2.586358e+01	-3.009225e+02
5.300000e-07	-3.539389e-06	-4.528460e-09	-2.510119e+01	-2.980590e+02
5.400000e-07	-3.430634e-06	-4.494748e-09	-2.432991e+01	-2.950755e+02
5.500000e-07	-3.320781e-06	-4.439115e-09	-2.355083e+01	-2.919701e+02
5.600000e-07	-3.209811e-06	-4.384469e-09	-2.276384e+01	-2.887413e+02
5.700000e-07	-3.097630e-06	-4.340222e-09	-2.196826e+01	-2.853873e+02
5.800000e-07	-2.984133e-06	-4.285283e-09	-2.116334e+01	-2.819054e+02
5.900000e-07	-2.869284e-06	-4.225155e-09	-2.034883e+01	-2.782905e+02
6.000000e-07	-2.753206e-06	-4.171295e-09	-1.952561e+01	-2.745351e+02
6.100000e-07	-2.636127e-06	-4.117229e-09	-1.869530e+01	-2.706284e+02
6.200000e-07	-2.518190e-06	-4.051451e-09	-1.785889e+01	-2.665558e+02
6.300000e-07	-2.399391e-06	-3.984029e-09	-1.701637e+01	-2.623001e+02
6.400000e-07	-2.279679e-06	-3.918106e-09	-1.616738e+01	-2.578409e+02
6.500000e-07	-2.159236e-06	-3.845478e-09	-1.531321e+01	-2.531560e+02
6.600000e-07	-2.038201e-06	-3.763269e-09	-1.445483e+01	-2.482221e+02
6.700000e-07	-1.916299e-06	-3.681213e-09	-1.359031e+01	-2.430153e+02
6.800000e-07	-1.793415e-06	-3.602364e-09	-1.271882e+01	-2.375119e+02
6.900000e-07	-1.669786e-06	-3.514243e-09	-1.184205e+01	-2.316878e+02
7.000000e-07	-1.545654e-06	-3.418004e-09	-1.096171e+01	-2.255188e+02
7.100000e-07	-1.421132e-06	-3.318554e-09	-1.007861e+01	-2.189787e+02
7.200000e-07	-1.296156e-06	-3.217206e-09	-9.192284e+00	-2.120380e+02
7.300000e-07	-1.170717e-06	-3.104606e-09	-8.302671e+00	-2.046622e+02
7.400000e-07	-1.044877e-06	-2.983299e-09	-7.410220e+00	-1.968099e+02
7.500000e-07	-9.187060e-07	-2.855588e-09	-6.515422e+00	-1.884314e+02
7.600000e-07	-7.922848e-07	-2.714236e-09	-5.618848e+00	-1.794676e+02
7.700000e-07	-6.655372e-07	-2.559929e-09	-4.719961e+00	-1.698511e+02
7.800000e-07	-5.384640e-07	-2.399266e-09	-3.818763e+00	-1.595074e+02
7.900000e-07	-4.111342e-07	-2.229414e-09	-2.915745e+00	-1.483583e+02
8.000000e-07	-2.835961e-07	-2.043334e-09	-2.011251e+00	-1.363271e+02
8.100000e-07	-1.559610e-07	-1.843658e-09	-1.106069e+00	-1.233439e+02
8.200000e-07	-2.830471e-08	-1.631382e-09	-2.007358e-01	-1.093530e+02
8.300000e-07	9.934418e-08	-1.405225e-09	7.045446e-01	-9.432001e+01
8.400000e-07	2.269591e-07	-1.159329e-09	1.609584e+00	-7.823893e+01
8.500000e-07	3.544842e-07	-8.978392e-10	2.513986e+00	-6.113779e+01
8.600000e-07	4.818642e-07	-6.246100e-10	3.417359e+00	-4.308304e+01
8.700000e-07	6.090709e-07	-3.374241e-10	4.319504e+00	-2.418139e+01
8.800000e-07	7.360148e-07	-3.637857e-11	5.219784e+00	-4.579063e+00
8.900000e-07	8.626250e-07	2.717894e-10	6.117699e+00	1.554186e+01
9.000000e-07	9.889009e-07	5.835659e-10	7.013242e+00	3.596981e+01
9.100000e-07	1.114867e-06	9.004511e-10	7.906586e+00	5.647250e+01
9.200000e-07	1.240511e-06	1.213293e-09	8.797647e+00	7.680756e+01
9.300000e-07	1.365740e-06	1.517329e-09	9.685764e+00	9.673418e+01
9.400000e-07	1.490482e-06	1.811828e-09	1.057043e+01	1.160248e+02
9.500000e-07	1.614763e-06	2.091195e-09	1.145183e+01	1.344763e+02
9.600000e-07	1.738632e-06	2.351488e-09	1.233030e+01	1.519189e+02
9.700000e-07	1.861980e-06	2.596213e-09	1.320508e+01	1.682235e+02
9.800000e-07	1.984590e-06	2.823892e-09	1.407463e+01	1.833056e+02
9.900000e-07	2.106297e-06	3.029638e-09	1.493776e+01	1.971262e+02
1.000000e-06	2.227139e-06	3.217069e-09	1.579477e+01	2.096899e+02
1.010000e-06	2.347270e-06	3.387065e-09	1.664673e+01	2.210399e+02
1.020000e-06	2.466593e-06	3.542792e-09	1.749297e+01	2.312515e+02
1.030000e-06	2.584960e-06	3.682178e-09	1.833242e+01	2.404231e+02
1.040000e-06	2.702448e-06	3.807844e-09	1.916564e+01	2.486677e+02
1.050000e-06	2.819044e-06	3.921012e-09	1.999253e+01	2.561038e+02
1.060000e-06	2.934545e-06	4.023634e-09	2.081166e+01	2.628477e+02
1.070000e-06	3.048715e-06	4.118522e-09	2.162135e+01	2.690068e+02
1.080000e-06	3.161559e-06	4.205525e-09	2.242164e+01	2.746747e+02
1.090000e-06	3.273278e-06	4.285490e-09	2.321395e+01	2.799294e+02
1.100000e-06	3.383876e-06	4.357024e-09	2.399830e+01	2.848315e+02
1.110000e-06	3.493254e-06	4.424310e-09	2.477400e+01	2.894263e+02
1.120000e-06	3.601532e-06	4.488244e-09	2.554191e+01	2.937451e+02
1.130000e-06	3.708758e-06	4.548323e-09	2.630235e+01	2.978091e+02
1.140000e-06	3.814553e-06	4.603608e-09	2.705264e+01	3.016323e+02
1.150000e-06	3.918773e-06	4.655605e-09	2.779176e+01	3.052251e+02
1.160000e-06	4.021569e-06	4.705033e-09	2.852079e+01	3.085967e+02
1.170000e-06	4.122943e-06	4.749835e-09	2.923973e+01	3.117575e+02
1.180000e-06	4.222983e-06	4.790328e-09	2.994921e+01	3.147199e+02
1.190000e-06	4.321526e-06	4.830211e-09	3.064807e+01	3.174987e+02
1.200000e-06	4.418360e-06	4.868848e-09	3.133482e+01	3.201104e+02
1.210000e-06	4.513535e-06	4.904253e-09	3.200979e+01	3.225726e+02
1.220000e-06	4.607131e-06	4.936341e-09	3.267357e+01	3.249024e+02
1.230000e-06	4.699256e-06	4.966389e-09	3.332692e+01	3.271153e+02
1.240000e-06	4.789795e-06	4.993327e-09	3.396902e+01	3.292243e+02
1.250000e-06	4.878519e-06	5.019275e-09	3.459824e+01	3.312392e+02
1.260000e-06	4.965416e-06	5.045518e-09	3.521451e+01	3.331666e+02
1.270000e-06	5.050628e-06	5.071370e-09	3.581883e+01	3.350101e+02
1.280000e-06	5.134258e-06	5.096657e-09	3.641193e+01	3.367708e+02
1.290000e-06	5.216172e-06	5.120168e-09	3.699286e+01	3.384485e+02
1.300000e-06	5.296139e-06	5.143332e-09	3.755998e+01	3.400427e+02
1.310000e-06	5.374171e-06	5.164289e-09	3.811338e+01	3.415534e+02
1.320000e-06	5.450273e-06	5.182021e-09	3.865309e+01	3.429814e+02
1.330000e-06	5.524207e-06	5.198938e-09	3.917743e+01	3.443295e+02
1.340000e-06	5.596001e-06	5.216152e-09	3.968659e+01	3.456018e+02
1.350000e-06	5.665852e-06	5.232736e-09	4.018197e+01	3.468038e+02
1.360000e-06	5.733829e-06	5.249100e-09	4.066406e+01	3.479416e+02
1.370000e-06	5.799769e-06	5.266072e-09	4.113171e+01	3.490216e+02
1.380000e-06	5.863506e-06	5.282500e-09	4.158372e+01	3.500497e+02
1.390000e-06	5.925206e-06	5.297885e-09	4.202130e+01	3.510305e+02
1.400000e-06	5.985027e-06	5.312415e-09	4.244555e+01	3.519673e+02
1.410000e-06	6.042748e-06	5.326140e-09	4.285490e+01	3.528619e+02
1.420000e-06	6.098213e-06	5.338173e-09	4.324826e+01	3.537144e+02
1.430000e-06	6.151457e-06	5.348986e-09	4.362586e+01	3.545239e+02
1.440000e-06	6.202158e-06	5.359406e-09	4.398543e+01	3.552891e+02
1.450000e-06	6.250271e-06	5.370329e-09	4.432664e+01	3.560083e+02
1.460000e-06	6.296125e-06	5.381953e-09	4.465184e+01	3.566806e+02
1.470000e-06	6.339938e-06	5.393145e-09	4.496256e+01	3.573060e+02
1.480000e-06	6.381474e-06	5.403004e-09	4.525713e+01	3.578856e+02
1.490000e-06	6.420589e-06	5.411330e-09	4.553453e+01	3.584217e+02
1.500000e-06	6.457540e-06	5.418632e-09	4.579659e+01	3.589176e+02
1.510000e-06	6.492342e-06	5.426205e-09	4.604340e+01	3.593773e+02
1.520000e-06	6.524783e-06	5.434213e-09	4.627347e+01	3.598048e+02
1.530000e-06	6.554933e-06	5.440238e-09	4.648729e+01	3.602039e+02
1.540000e-06	6.582973e-06	5.444136e-09	4.668615e+01	3.605773e+02
1.550000e-06	6.608603e-06	5.449223e-09	4.686792e+01	3.609266e+02
1.560000e-06	6.631709e-06	5.456146e-09	4.703179e+01	3.612519e+02
1.570000e-06	6.652576e-06	5.461208e-09	4.717977e+01	3.615518e+02
1.580000e-06	6.671303e-06	5.464724e-09	4.731258e+01	3.618237e+02
1.590000e-06	6.687636e-06	5.468672e-09	4.742842e+01	3.620641e+02
1.600000e-06	6.701427e-06	5.472777e-09	4.752623e+01	3.622688e+02
1.610000e-06	6.712694e-06	5.476007e-09	4.760613e+01	3.624339e+02
1.620000e-06	6.721335e-06	5.477601e-09	4.766741e+01	3.625560e+02
1.630000e-06	6.727519e-06	5.478307e-09	4.771127e+01	3.626324e+02
1.640000e-06	6.731498e-06	5.480039e-09	4.773949e+01	3.626618e+02
1.650000e-06	6.733086e-06	5.485824e-09	4.775075e+01	3.626443e+02
1.660000e-06	6.732258e-06	5.486438e-09	4.774487e+01	3.625810e+02
1.670000e-06	6.729334e-06	5.483996e-09	4.772414e+01	3.624744e+02
1.680000e-06	6.724293e-06	5.482919e-09	4.768839e+01	3.623277e+02
1.690000e-06	6.716914e-06	5.481853e-09	4.763606e+01	3.621446e+02
1.700000e-06	6.707309e-06	5.479017e-09	4.756794e+01	3.619291e+02
1.710000e-06	6.695580e-06	5.475286e-09	4.748476e+01	3.616846e+02
1.720000e-06	6.681424e-06	5.486853e-09	4.738437e+01	3.614142e+02
1.730000e-06	6.664989e-06	5.503198e-09	4.726780e+01	3.611200e+02
1.740000e-06	6.646562e-06	5.442600e-09	4.713713e+01	3.608033e+02
1.750000e-06	6.625484e-06	5.437308e-09	4.698764e+01	3.604642e+02
1.760000e-06	6.601103e-06	5.463980e-09	4.681473e+01	3.601020e+02
1.770000e-06	6.573981e-06	5.439914e-09	4.662238e+01	3.597147e+02
1.780000e-06	6.544822e-06	5.444342e-09	4.641559e+01	3.593000e+02
1.790000e-06	6.513768e-06	5.483658e-09	4.619536e+01	3.588547e+02
1.800000e-06	6.481185e-06	5.368937e-09	4.596428e+01	3.583753e+02
1.810000e-06	6.446753e-06	5.455219e-09	4.572009e+01	3.578581e+02
1.820000e-06	6.409924e-06	5.521181e-09	4.545890e+01	3.572995e+02
1.830000e-06	6.370901e-06	5.416219e-09	4.518215e+01	3.566963e+02
1.840000e-06	6.329581e-06	5.479943e-09	4.488911e+01	3.560459e+02
1.850000e-06	6.286082e-06	5.378390e-09	4.458061e+01	3.553461e+02
1.860000e-06	6.240565e-06	5.421821e-09	4.425781e+01	3.545959e+02
1.870000e-06	6.192654e-06	5.442348e-09	4.391803e+01	3.537948e+02
1.880000e-06	6.142508e-06	5.317584e-09	4.356239e+01	3.529435e+02
1.890000e-06	6.089970e-06	5.419058e-09	4.318980e+01	3.520432e+02
1.900000e-06	6.034732e-06	5.345474e-09	4.279805e+01	3.510958e+02
1.910000e-06	5.977222e-06	5.319547e-09	4.239019e+01	3.501034e+02
1.920000e-06	5.917668e-06	5.397186e-09	4.196784e+01	3.490681e+02
1.930000e-06	5.856059e-06	5.304368e-09	4.153091e+01	3.479918e+02
1.940000e-06	5.792202e-06	5.309381e-09	4.107804e+01	3.468757e+02
1.950000e-06	5.726264e-06	5.256033e-09	4.061041e+01	3.457200e+02
1.960000e-06	5.658367e-06	5.302870e-09	4.012889e+01	3.445241e+02
1.970000e-06	5.588117e-06	5.244980e-09	3.963068e+01	3.432862e+02
1.980000e-06	5.515736e-06	5.193585e-09	3.911736e+01	3.420038e+02
1.990000e-06	5.441475e-06	5.253690e-09	3.859070e+01	3.406737e+02
2.000000e-06	5.365193e-06	5.168842e-09	3.804971e+01	3.392921e+02
2.010000e-06	5.286710e-06	5.185500e-09	3.749311e+01	3.378555e+02
2.020000e-06	5.206185e-06	5.152322e-09	3.692203e+01	3.363605e+02
2.030000e-06	5.123932e-06	5.144762e-09	3.633870e+01	3.348045e+02
2.040000e-06	5.039932e-06	5.102277e-09	3.574297e+01	3.331854e+02
2.050000e-06	4.954098e-06	5.059948e-09	3.513424e+01	3.315022e+02
2.060000e-06	4.866312e-06	5.081245e-09	3.451167e+01	3.297541e+02
2.070000e-06	4.776803e-06	5.016382e-09	3.387687e+01	3.279410e+02
2.080000e-06	4.685755e-06	4.991892e-09	3.323117e+01	3.260626e+02
2.090000e-06	4.593106e-06	4.960186e-09	3.257410e+01	3.241179e+02
2.100000e-06	4.498771e-06	4.954846e-09	3.190508e+01	3.221054e+02
2.110000e-06	4.402718e-06	4.903125e-09	3.122388e+01	3.200221e+02
2.120000e-06	4.305166e-06	4.869720e-09	3.053204e+01	3.178640e+02
2.130000e-06	4.206274e-06	4.860191e-09	2.983071e+01	3.156256e+02
2.140000e-06	4.105947e-06	4.809380e-09	2.911919e+01	3.133005e+02
2.150000e-06	4.004032e-06	4.770596e-09	2.839642e+01	3.108819e+02
2.160000e-06	3.900522e-06	4.733741e-09	2.766233e+01	3.083628e+02
2.170000e-06	3.795579e-06	4.705100e-09	2.691808e+01	3.057367e+02
2.180000e-06	3.689374e-06	4.640809e-09	2.616488e+01	3.029980e+02
2.190000e-06	3.581985e-06	4.598144e-09	2.540328e+01	3.001425e+02
2.200000e-06	3.473486e-06	4.562163e-09	2.463381e+01	2.971672e+02
2.210000e-06	3.363774e-06	4.522001e-09	2.385573e+01	2.940701e+02
2.220000e-06	3.252683e-06	4.469784e-09	2.306788e+01	2.908497e+02
2.230000e-06	3.140409e-06	4.420263e-09	2.227164e+01	2.875043e+02
2.240000e-06	3.026963e-06	4.369503e-09	2.146709e+01	2.840312e+02
2.250000e-06	2.912368e-06	4.308440e-09	2.065438e+01	2.804256e+02
2.260000e-06	2.796664e-06	4.253055e-09	1.983382e+01	2.766802e+02
2.270000e-06	2.679817e-06	4.194992e-09	1.900515e+01	2.727842e+02
2.280000e-06	2.561890e-06	4.131328e-09	1.816881e+01	2.687236e+02
2.290000e-06	2.442919e-06	4.058000e-09	1.732508e+01	2.644812e+02
2.300000e-06	2.322978e-06	3.996636e-09	1.647445e+01	2.600368e+02
2.310000e-06	2.202196e-06	3.933817e-09	1.561787e+01	2.553684e+02
2.320000e-06	2.080713e-06	3.859273e-09	1.475632e+01	2.504526e+02
2.330000e-06	1.958558e-06	3.773977e-09	1.389001e+01	2.452657e+02
2.340000e-06	1.835783e-06	3.691787e-09	1.301929e+01	2.397837e+02
2.350000e-06	1.712357e-06	3.606928e-09	1.214396e+01	2.339829e+02
2.360000e-06	1.588346e-06	3.515630e-09	1.126448e+01	2.278390e+02
2.370000e-06	1.463804e-06	3.416748e-09	1.038123e+01	2.213258e+02
2.380000e-06	1.338737e-06	3.307739e-09	9.494263e+00	2.144143e+02
2.390000e-06	1.213254e-06	3.193468e-09	8.604341e+00	2.070705e+02
2.400000e-06	1.087403e-06	3.073388e-09	7.711816e+00	1.992534e+02
2.410000e-06	9.611518e-07	2.951538e-09	6.816446e+00	1.909138e+02
2.420000e-06	8.345367e-07	2.818653e-09	5.918497e+00	1.819935e+02
2.430000e-06	7.075277e-07	2.670982e-09	5.017755e+00	1.724256e+02
2.440000e-06	5.801416e-07	2.514264e-09	4.114339e+00	1.621360e+02
2.450000e-06	4.525191e-07	2.349958e-09	3.209245e+00	1.510466e+02
2.460000e-06	3.246796e-07	2.170865e-09	2.302613e+00	1.390804e+02
2.470000e-06	1.967042e-07	1.973670e-09	1.395018e+00	1.261668e+02
2.480000e-06	6.868792e-08	1.759447e-09	4.871317e-01	1.122489e+02
2.490000e-06	-5.941118e-08	1.529923e-09	-4.213415e-01	9.729046e+01
2.500000e-06	-1.874850e-07	1.285981e-09	-1.329635e+00	8.128330e+01
2.510000e-06	-3.154247e-07	1.026609e-09	-2.236978e+00	6.425285e+01
2.520000e-06	-4.432082e-07	7.535904e-10	-3.143213e+00	4.626272e+01
2.530000e-06	-5.707848e-07	4.666907e-10	-4.047980e+00	2.741673e+01
2.540000e-06	-6.981149e-07	1.691807e-10	-4.951000e+00	7.858366e+00
2.550000e-06	-8.250834e-07	-1.333807e-10	-5.851455e+00	-1.223267e+01
2.560000e-06	-9.515857e-07	-4.403951e-10	-6.748603e+00	-3.264664e+01
2.570000e-06	-1.077629e-06	-7.527108e-10	-7.642501e+00	-5.315242e+01
2.580000e-06	-1.203269e-06	-1.067799e-09	-8.533529e+00	-7.350797e+01
2.590000e-06	-1.328560e-06	-1.376212e-09	-9.422087e+00	-9.347197e+01
2.600000e-06	-1.453513e-06	-1.670975e-09	-1.030825e+01	-1.128156e+02
2.610000e-06	-1.577992e-06	-1.952971e-09	-1.119105e+01	-1.313335e+02
2.620000e-06	-1.701778e-06	-2.221149e-09	-1.206893e+01	-1.488534e+02
2.630000e-06	-1.824818e-06	-2.473364e-09	-1.294153e+01	-1.652431e+02
2.640000e-06	-1.947194e-06	-2.706376e-09	-1.380942e+01	-1.804147e+02
2.650000e-06	-2.068930e-06	-2.920238e-09	-1.467276e+01	-1.943262e+02
2.660000e-06	-2.189989e-06	-3.115278e-09	-1.553130e+01	-2.069791e+02
2.670000e-06	-2.310369e-06	-3.291551e-09	-1.638503e+01	-2.184141e+02
2.680000e-06	-2.429867e-06	-3.451281e-09	-1.723251e+01	-2.287044e+02
2.690000e-06	-2.548257e-06	-3.594710e-09	-1.807212e+01	-2.379471e+02
2.700000e-06	-2.665605e-06	-3.722244e-09	-1.890435e+01	-2.462544e+02
2.710000e-06	-2.781917e-06	-3.837510e-09	-1.972923e+01	-2.537449e+02
2.720000e-06	-2.897151e-06	-3.944379e-09	-2.054647e+01	-2.605350e+02
2.730000e-06	-3.011204e-06	-4.039828e-09	-2.135532e+01	-2.667329e+02
2.740000e-06	-3.123907e-06	-4.124129e-09	-2.215461e+01	-2.724336e+02
2.750000e-06	-3.235302e-06	-4.203380e-09	-2.294462e+01	-2.777160e+02
2.760000e-06	-3.345502e-06	-4.280094e-09	-2.372615e+01	-2.826421e+02
2.770000e-06	-3.454623e-06	-4.353247e-09	-2.450004e+01	-2.872581e+02
2.780000e-06	-3.562697e-06	-4.421383e-09	-2.526649e+01	-2.915962e+02
2.790000e-06	-3.669591e-06	-4.484063e-09	-2.602458e+01	-2.956784e+02
2.800000e-06	-3.775242e-06	-4.544703e-09	-2.677385e+01	-2.995189e+02
2.810000e-06	-3.879496e-06	-4.603760e-09	-2.751321e+01	-3.031282e+02
2.820000e-06	-3.982127e-06	-4.659073e-09	-2.824107e+01	-3.065157e+02
2.830000e-06	-4.083270e-06	-4.708700e-09	-2.895837e+01	-3.096917e+02
2.840000e-06	-4.183095e-06	-4.755091e-09	-2.966632e+01	-3.126682e+02
2.850000e-06	-4.281480e-06	-4.801551e-09	-3.036407e+01	-3.154600e+02
2.860000e-06	-4.378434e-06	-4.846374e-09	-3.105166e+01	-3.180835e+02
2.870000e-06	-4.473870e-06	-4.887750e-09	-3.172849e+01	-3.205562e+02
2.880000e-06	-4.567632e-06	-4.927343e-09	-3.239344e+01	-3.228954e+02
2.890000e-06	-4.659819e-06	-4.965629e-09	-3.304723e+01	-3.251166e+02
2.900000e-06	-4.750445e-06	-5.001638e-09	-3.368994e+01	-3.272331e+02
2.910000e-06	-4.839432e-06	-5.034605e-09	-3.432104e+01	-3.292549e+02
2.920000e-06	-4.926667e-06	-5.066894e-09	-3.493971e+01	-3.311889e+02
2.930000e-06	-5.012072e-06	-5.098466e-09	-3.554539e+01	-3.330387e+02
2.940000e-06	-5.095741e-06	-5.127707e-09	-3.613877e+01	-3.348057e+02
