# Temperatura_=_20.0
# Concentracion g/m^3_=_9000.0
# C_Vs_to_Am_M_A/Vsm_=_65563218390.804596
# pendiente_HvsI_1/m_=_3716.3
# ordenada_HvsI_A/m_=_1297.0
# frecuencia_Hz_=_301078.5407281904

Tiempo_(s)	Campo_(V.s)	Magnetizacion_(V.s)	Campo_(kA/m)	Magnetizacion_(A/m)
0.000000e+00	-6.698227e-06	-7.538611e-11	-4.746491e+01	-5.543409e+00
1.000000e-08	-6.695416e-06	-7.217051e-11	-4.744499e+01	-5.528378e+00
2.000000e-08	-6.690386e-06	-7.050093e-11	-4.740934e+01	-5.528429e+00
3.000000e-08	-6.683355e-06	-7.093746e-11	-4.735952e+01	-5.539933e+00
4.000000e-08	-6.674065e-06	-7.184072e-11	-4.729369e+01	-5.557452e+00
5.000000e-08	-6.662262e-06	-7.295018e-11	-4.721005e+01	-5.574329e+00
6.000000e-08	-6.647997e-06	-7.545247e-11	-4.710897e+01	-5.583453e+00
7.000000e-08	-6.631411e-06	-7.432375e-11	-4.699143e+01	-5.578098e+00
8.000000e-08	-6.612707e-06	-6.788984e-11	-4.685890e+01	-5.552743e+00
9.000000e-08	-6.591782e-06	-7.609431e-11	-4.671062e+01	-5.503739e+00
1.000000e-07	-6.568209e-06	-7.707826e-11	-4.654357e+01	-5.429768e+00
1.100000e-07	-6.541893e-06	-6.815893e-11	-4.635710e+01	-5.332004e+00
1.200000e-07	-6.513172e-06	-6.407423e-11	-4.615357e+01	-5.213985e+00
1.300000e-07	-6.482512e-06	-6.491633e-11	-4.593631e+01	-5.081191e+00
1.400000e-07	-6.450155e-06	-5.696094e-11	-4.570703e+01	-4.940407e+00
1.500000e-07	-6.415869e-06	-7.897876e-11	-4.546406e+01	-4.798936e+00
1.600000e-07	-6.379442e-06	-7.700733e-11	-4.520594e+01	-4.663788e+00
1.700000e-07	-6.340950e-06	-3.990454e-11	-4.493318e+01	-4.540930e+00
1.800000e-07	-6.300250e-06	-6.838415e-11	-4.464477e+01	-4.434699e+00
1.900000e-07	-6.257097e-06	-6.488438e-11	-4.433897e+01	-4.347449e+00
2.000000e-07	-6.211647e-06	-5.863611e-11	-4.401691e+01	-4.279452e+00
2.100000e-07	-6.163877e-06	-7.085025e-11	-4.367841e+01	-4.229067e+00
2.200000e-07	-6.113455e-06	-4.916389e-11	-4.332111e+01	-4.193123e+00
2.300000e-07	-6.060467e-06	-5.970840e-11	-4.294562e+01	-4.167459e+00
2.400000e-07	-6.005228e-06	-6.815296e-11	-4.255418e+01	-4.147535e+00
2.500000e-07	-5.947811e-06	-6.437473e-11	-4.214731e+01	-4.129013e+00
2.600000e-07	-5.888236e-06	-6.426441e-11	-4.172516e+01	-4.108249e+00
2.700000e-07	-5.826569e-06	-4.511164e-11	-4.128818e+01	-4.082618e+00
2.800000e-07	-5.762873e-06	-4.963255e-11	-4.083681e+01	-4.050643e+00
2.900000e-07	-5.697087e-06	-6.288191e-11	-4.037064e+01	-4.011944e+00
3.000000e-07	-5.629126e-06	-5.824522e-11	-3.988905e+01	-3.967002e+00
3.100000e-07	-5.559054e-06	-3.972316e-11	-3.939251e+01	-3.916836e+00
3.200000e-07	-5.487073e-06	-4.811631e-11	-3.888244e+01	-3.862617e+00
3.300000e-07	-5.413069e-06	-6.757449e-11	-3.835804e+01	-3.805322e+00
3.400000e-07	-5.336797e-06	-5.202285e-11	-3.781755e+01	-3.745470e+00
3.500000e-07	-5.258326e-06	-5.298946e-11	-3.726149e+01	-3.682987e+00
3.600000e-07	-5.177819e-06	-5.663461e-11	-3.669101e+01	-3.617221e+00
3.700000e-07	-5.095507e-06	-4.693633e-11	-3.610773e+01	-3.547096e+00
3.800000e-07	-5.011541e-06	-4.980671e-11	-3.551273e+01	-3.471363e+00
3.900000e-07	-4.925944e-06	-5.425972e-11	-3.490617e+01	-3.388909e+00
4.000000e-07	-4.838751e-06	-4.617928e-11	-3.428831e+01	-3.299054e+00
4.100000e-07	-4.749800e-06	-3.569128e-11	-3.365798e+01	-3.201777e+00
4.200000e-07	-4.658995e-06	-4.609126e-11	-3.301452e+01	-3.097829e+00
4.300000e-07	-4.566519e-06	-5.118016e-11	-3.235922e+01	-2.988706e+00
4.400000e-07	-4.472467e-06	-3.645396e-11	-3.169275e+01	-2.876474e+00
4.500000e-07	-4.376843e-06	-3.152946e-11	-3.101514e+01	-2.763487e+00
4.600000e-07	-4.279573e-06	-3.866578e-11	-3.032586e+01	-2.652023e+00
4.700000e-07	-4.180671e-06	-4.056121e-11	-2.962503e+01	-2.543919e+00
4.800000e-07	-4.080253e-06	-3.429903e-11	-2.891345e+01	-2.440249e+00
4.900000e-07	-3.978463e-06	-3.558826e-11	-2.819214e+01	-2.341122e+00
5.000000e-07	-3.875302e-06	-3.508609e-11	-2.746112e+01	-2.245625e+00
5.100000e-07	-3.770698e-06	-3.141355e-11	-2.671988e+01	-2.151934e+00
5.200000e-07	-3.664645e-06	-3.474851e-11	-2.596837e+01	-2.057581e+00
5.300000e-07	-3.557183e-06	-3.524066e-11	-2.520687e+01	-1.959841e+00
5.400000e-07	-3.448532e-06	-2.780605e-11	-2.443695e+01	-1.856177e+00
5.500000e-07	-3.338775e-06	-2.339672e-11	-2.365920e+01	-1.744678e+00
5.600000e-07	-3.227868e-06	-2.615595e-11	-2.287329e+01	-1.624412e+00
5.700000e-07	-3.115751e-06	-2.378562e-11	-2.207880e+01	-1.495647e+00
5.800000e-07	-3.002341e-06	-1.954861e-11	-2.127516e+01	-1.359878e+00
5.900000e-07	-2.887722e-06	-1.851252e-11	-2.046295e+01	-1.219677e+00
6.000000e-07	-2.771895e-06	-1.786993e-11	-1.964217e+01	-1.078353e+00
6.100000e-07	-2.654922e-06	-1.466457e-11	-1.881328e+01	-9.394985e-01
6.200000e-07	-2.537059e-06	-1.125468e-11	-1.797808e+01	-8.064616e-01
6.300000e-07	-2.418338e-06	-1.001848e-11	-1.713680e+01	-6.818477e-01
6.400000e-07	-2.298693e-06	-8.003574e-12	-1.628898e+01	-5.671126e-01
6.500000e-07	-2.178211e-06	-5.766806e-12	-1.543522e+01	-4.623198e-01
6.600000e-07	-2.056997e-06	-3.623705e-12	-1.457627e+01	-3.661028e-01
6.700000e-07	-1.934970e-06	-2.476811e-12	-1.371157e+01	-2.758442e-01
6.800000e-07	-1.812080e-06	-1.180482e-12	-1.284074e+01	-1.880493e-01
6.900000e-07	-1.688511e-06	6.526935e-14	-1.196511e+01	-9.886322e-02
7.000000e-07	-1.564379e-06	1.359291e-12	-1.108548e+01	-4.657088e-03
7.100000e-07	-1.439728e-06	3.263262e-12	-1.020219e+01	9.740462e-02
7.200000e-07	-1.314660e-06	4.882351e-12	-9.315933e+00	2.089004e-01
7.300000e-07	-1.189231e-06	6.846277e-12	-8.427120e+00	3.298642e-01
7.400000e-07	-1.063402e-06	8.681789e-12	-7.535469e+00	4.587204e-01
7.500000e-07	-9.371266e-07	1.039080e-11	-6.640657e+00	5.924549e-01
7.600000e-07	-8.104851e-07	1.129029e-11	-5.743251e+00	7.270035e-01
7.700000e-07	-6.836156e-07	1.352125e-11	-4.844230e+00	8.577997e-01
7.800000e-07	-5.565097e-07	1.586030e-11	-3.943534e+00	9.804090e-01
7.900000e-07	-4.291027e-07	1.597389e-11	-3.040703e+00	1.091153e+00
8.000000e-07	-3.015712e-07	1.549042e-11	-2.136991e+00	1.187634e+00
8.100000e-07	-1.740443e-07	1.421033e-11	-1.233311e+00	1.269084e+00
8.200000e-07	-4.640969e-08	1.343184e-11	-3.288679e-01	1.336484e+00
8.300000e-07	8.132683e-08	1.495891e-11	5.762973e-01	1.392433e+00
8.400000e-07	2.090184e-07	1.777587e-11	1.481144e+00	1.440790e+00
8.500000e-07	3.365837e-07	1.828914e-11	2.385096e+00	1.486135e+00
8.600000e-07	4.640344e-07	1.818787e-11	3.288236e+00	1.533131e+00
8.700000e-07	5.913347e-07	1.973160e-11	4.190310e+00	1.585881e+00
8.800000e-07	7.184335e-07	2.198790e-11	5.090956e+00	1.647365e+00
8.900000e-07	8.452971e-07	2.385010e-11	5.989936e+00	1.719051e+00
9.000000e-07	9.717976e-07	2.331759e-11	6.886342e+00	1.800725e+00
9.100000e-07	1.097886e-06	2.313114e-11	7.779826e+00	1.890573e+00
9.200000e-07	1.223580e-06	2.514740e-11	8.670522e+00	1.985491e+00
9.300000e-07	1.348907e-06	2.866618e-11	9.558613e+00	2.081587e+00
9.400000e-07	1.473884e-06	3.042076e-11	1.044422e+01	2.174787e+00
9.500000e-07	1.598417e-06	3.044336e-11	1.132669e+01	2.261467e+00
9.600000e-07	1.722426e-06	3.221377e-11	1.220544e+01	2.339015e+00
9.700000e-07	1.845879e-06	3.454134e-11	1.308025e+01	2.406231e+00
9.800000e-07	1.968653e-06	3.595462e-11	1.395025e+01	2.463521e+00
9.900000e-07	2.090643e-06	3.720287e-11	1.481470e+01	2.512850e+00
1.000000e-06	2.211825e-06	3.779913e-11	1.567341e+01	2.557471e+00
1.010000e-06	2.332155e-06	3.815670e-11	1.652609e+01	2.601457e+00
1.020000e-06	2.451640e-06	4.061119e-11	1.737278e+01	2.649129e+00
1.030000e-06	2.570236e-06	4.287333e-11	1.821318e+01	2.704441e+00
1.040000e-06	2.687924e-06	4.271039e-11	1.904714e+01	2.770429e+00
1.050000e-06	2.804721e-06	4.216963e-11	1.987478e+01	2.848801e+00
1.060000e-06	2.920440e-06	4.438666e-11	2.069480e+01	2.939712e+00
1.070000e-06	3.034917e-06	4.721254e-11	2.150600e+01	3.041771e+00
1.080000e-06	3.148105e-06	4.800690e-11	2.230807e+01	3.152261e+00
1.090000e-06	3.260063e-06	4.936298e-11	2.310143e+01	3.267541e+00
1.100000e-06	3.370833e-06	5.126390e-11	2.388636e+01	3.383565e+00
1.110000e-06	3.480489e-06	5.324421e-11	2.466340e+01	3.496441e+00
1.120000e-06	3.589070e-06	5.571994e-11	2.543283e+01	3.602945e+00
1.130000e-06	3.696461e-06	5.853885e-11	2.619382e+01	3.700922e+00
1.140000e-06	3.802536e-06	5.951759e-11	2.694549e+01	3.789517e+00
1.150000e-06	3.907221e-06	6.016591e-11	2.768731e+01	3.869203e+00
1.160000e-06	4.010431e-06	6.233613e-11	2.841867e+01	3.941629e+00
1.170000e-06	4.112185e-06	6.533320e-11	2.913972e+01	4.009292e+00
1.180000e-06	4.212564e-06	6.746123e-11	2.985103e+01	4.075119e+00
1.190000e-06	4.311421e-06	6.643689e-11	3.055155e+01	4.142005e+00
1.200000e-06	4.408604e-06	6.567303e-11	3.124020e+01	4.212384e+00
1.210000e-06	4.504098e-06	6.600106e-11	3.191689e+01	4.287908e+00
1.220000e-06	4.598013e-06	6.878267e-11	3.258239e+01	4.369258e+00
1.230000e-06	4.690451e-06	7.114430e-11	3.323743e+01	4.456128e+00
1.240000e-06	4.781350e-06	7.272736e-11	3.388156e+01	4.547358e+00
1.250000e-06	4.870520e-06	7.521179e-11	3.451343e+01	4.641199e+00
1.260000e-06	4.957852e-06	7.722233e-11	3.513228e+01	4.735642e+00
1.270000e-06	5.043454e-06	7.893154e-11	3.573887e+01	4.828777e+00
1.280000e-06	5.127359e-06	7.882845e-11	3.633344e+01	4.919091e+00
1.290000e-06	5.209483e-06	7.945235e-11	3.691538e+01	5.005678e+00
1.300000e-06	5.289716e-06	8.179841e-11	3.748393e+01	5.088322e+00
1.310000e-06	5.367975e-06	8.442513e-11	3.803849e+01	5.167442e+00
1.320000e-06	5.444315e-06	8.697884e-11	3.857945e+01	5.243915e+00
1.330000e-06	5.518663e-06	8.896866e-11	3.910629e+01	5.318818e+00
1.340000e-06	5.590841e-06	9.080215e-11	3.961776e+01	5.393135e+00
1.350000e-06	5.660951e-06	9.322867e-11	4.011457e+01	5.467486e+00
1.360000e-06	5.729150e-06	9.422842e-11	4.059784e+01	5.541925e+00
1.370000e-06	5.795373e-06	9.336308e-11	4.106711e+01	5.615861e+00
1.380000e-06	5.859455e-06	9.295942e-11	4.152121e+01	5.688093e+00
1.390000e-06	5.921503e-06	9.341747e-11	4.196089e+01	5.756982e+00
1.400000e-06	5.981664e-06	9.347481e-11	4.238720e+01	5.820708e+00
1.410000e-06	6.039770e-06	9.346521e-11	4.279896e+01	5.877583e+00
1.420000e-06	6.095655e-06	9.535659e-11	4.319497e+01	5.926354e+00
1.430000e-06	6.149264e-06	9.823351e-11	4.357485e+01	5.966441e+00
1.440000e-06	6.200393e-06	9.969679e-11	4.393716e+01	5.998073e+00
1.450000e-06	6.248904e-06	9.918957e-11	4.428092e+01	6.022268e+00
1.460000e-06	6.295089e-06	9.912856e-11	4.460820e+01	6.040686e+00
1.470000e-06	6.339154e-06	1.001227e-10	4.492045e+01	6.055346e+00
1.480000e-06	6.380981e-06	1.009742e-10	4.521684e+01	6.068260e+00
1.490000e-06	6.420478e-06	1.016895e-10	4.549673e+01	6.081051e+00
1.500000e-06	6.457783e-06	1.020072e-10	4.576107e+01	6.094608e+00
1.510000e-06	6.492973e-06	1.007421e-10	4.601044e+01	6.108853e+00
1.520000e-06	6.525811e-06	1.001024e-10	4.624314e+01	6.122660e+00
1.530000e-06	6.556264e-06	1.012213e-10	4.645893e+01	6.133951e+00
1.540000e-06	6.584559e-06	1.028294e-10	4.665943e+01	6.139977e+00
1.550000e-06	6.610561e-06	1.039206e-10	4.684369e+01	6.137731e+00
1.560000e-06	6.634050e-06	1.033434e-10	4.701013e+01	6.124457e+00
1.570000e-06	6.655205e-06	1.043837e-10	4.716005e+01	6.098167e+00
1.580000e-06	6.674226e-06	1.066965e-10	4.729483e+01	6.058076e+00
1.590000e-06	6.690834e-06	1.057040e-10	4.741252e+01	6.004905e+00
1.600000e-06	6.704947e-06	1.025706e-10	4.751253e+01	5.940970e+00
1.610000e-06	6.716657e-06	1.010043e-10	4.759550e+01	5.870038e+00
1.620000e-06	6.725718e-06	1.008412e-10	4.765972e+01	5.796962e+00
1.630000e-06	6.732240e-06	1.012306e-10	4.770593e+01	5.727116e+00
1.640000e-06	6.736579e-06	1.012920e-10	4.773668e+01	5.665725e+00
1.650000e-06	6.738565e-06	1.000116e-10	4.775075e+01	5.617150e+00
1.660000e-06	6.738041e-06	9.935631e-11	4.774704e+01	5.584257e+00
1.670000e-06	6.735328e-06	9.853458e-11	4.772781e+01	5.567939e+00
1.680000e-06	6.730561e-06	9.981920e-11	4.769403e+01	5.566882e+00
1.690000e-06	6.723510e-06	9.963684e-11	4.764407e+01	5.577604e+00
1.700000e-06	6.714192e-06	9.775556e-11	4.757804e+01	5.594778e+00
1.710000e-06	6.702708e-06	9.731431e-11	4.749666e+01	5.611810e+00
1.720000e-06	6.688859e-06	9.911024e-11	4.739852e+01	5.621594e+00
1.730000e-06	6.672739e-06	1.086066e-10	4.728430e+01	5.617349e+00
1.740000e-06	6.654579e-06	1.060734e-10	4.715561e+01	5.593442e+00
1.750000e-06	6.633861e-06	9.317084e-11	4.700880e+01	5.546075e+00
1.760000e-06	6.609920e-06	9.666711e-11	4.683915e+01	5.473752e+00
1.770000e-06	6.583130e-06	9.659201e-11	4.664931e+01	5.377470e+00
1.780000e-06	6.554232e-06	8.944682e-11	4.644453e+01	5.260610e+00
1.790000e-06	6.523469e-06	1.116774e-10	4.622654e+01	5.128531e+00
1.800000e-06	6.491088e-06	7.809013e-11	4.599708e+01	4.987951e+00
1.810000e-06	6.456873e-06	4.993783e-11	4.575463e+01	4.846162e+00
1.820000e-06	6.420297e-06	9.412745e-11	4.549544e+01	4.710222e+00
1.830000e-06	6.381517e-06	5.669199e-11	4.522064e+01	4.586194e+00
1.840000e-06	6.340549e-06	5.266085e-11	4.493033e+01	4.478547e+00
1.850000e-06	6.297321e-06	6.137321e-11	4.462401e+01	4.389782e+00
1.860000e-06	6.251989e-06	1.718243e-11	4.430278e+01	4.320318e+00
1.870000e-06	6.204344e-06	7.089489e-11	4.396516e+01	4.268638e+00
1.880000e-06	6.154422e-06	7.100421e-11	4.361140e+01	4.231666e+00
1.890000e-06	6.102072e-06	4.353271e-11	4.324044e+01	4.205292e+00
1.900000e-06	6.047060e-06	5.225244e-11	4.285062e+01	4.184981e+00
1.910000e-06	5.989808e-06	3.601183e-11	4.244492e+01	4.166364e+00
1.920000e-06	5.930559e-06	7.639039e-11	4.202507e+01	4.145734e+00
1.930000e-06	5.869248e-06	6.187504e-11	4.159060e+01	4.120387e+00
1.940000e-06	5.805674e-06	3.732476e-11	4.114011e+01	4.088764e+00
1.950000e-06	5.739941e-06	5.069251e-11	4.067431e+01	4.050411e+00
1.960000e-06	5.672239e-06	5.007888e-11	4.019456e+01	4.005760e+00
1.970000e-06	5.602232e-06	6.855411e-11	3.969848e+01	3.955801e+00
1.980000e-06	5.530072e-06	4.439732e-11	3.918714e+01	3.901709e+00
1.990000e-06	5.456009e-06	5.132487e-11	3.866232e+01	3.844485e+00
2.000000e-06	5.379884e-06	5.338218e-11	3.812288e+01	3.784684e+00
2.010000e-06	5.301572e-06	5.024066e-11	3.756794e+01	3.722279e+00
2.020000e-06	5.221200e-06	6.740305e-11	3.699842e+01	3.656653e+00
2.030000e-06	5.139101e-06	3.966807e-11	3.641665e+01	3.586754e+00
2.040000e-06	5.055328e-06	4.442157e-11	3.582301e+01	3.511336e+00
2.050000e-06	4.969699e-06	4.737897e-11	3.521623e+01	3.429265e+00
2.060000e-06	4.882141e-06	5.396991e-11	3.459578e+01	3.339822e+00
2.070000e-06	4.792850e-06	4.332893e-11	3.396305e+01	3.242933e+00
2.080000e-06	4.701964e-06	2.947614e-11	3.331901e+01	3.139295e+00
2.090000e-06	4.609507e-06	4.510333e-11	3.266384e+01	3.030352e+00
2.100000e-06	4.515318e-06	4.620772e-11	3.199640e+01	2.918139e+00
2.110000e-06	4.419404e-06	4.449727e-11	3.131673e+01	2.805001e+00
2.120000e-06	4.322013e-06	2.994204e-11	3.062660e+01	2.693235e+00
2.130000e-06	4.223219e-06	3.333810e-11	2.992653e+01	2.584718e+00
2.140000e-06	4.122999e-06	3.328207e-11	2.921636e+01	2.480589e+00
2.150000e-06	4.021179e-06	3.185949e-11	2.849484e+01	2.381030e+00
2.160000e-06	3.917770e-06	3.188797e-11	2.776206e+01	2.285199e+00
2.170000e-06	3.812976e-06	2.551335e-11	2.701947e+01	2.191329e+00
2.180000e-06	3.706913e-06	2.434597e-11	2.626789e+01	2.096987e+00
2.190000e-06	3.599653e-06	2.457636e-11	2.550783e+01	1.999452e+00
2.200000e-06	3.491192e-06	2.864601e-11	2.473925e+01	1.896158e+00
2.210000e-06	3.381518e-06	1.948107e-11	2.396208e+01	1.785137e+00
2.220000e-06	3.270565e-06	1.083698e-11	2.317585e+01	1.665377e+00
2.230000e-06	3.158429e-06	8.904604e-12	2.238123e+01	1.537057e+00
2.240000e-06	3.045110e-06	1.459549e-11	2.157823e+01	1.401589e+00
2.250000e-06	2.930611e-06	1.456733e-11	2.076687e+01	1.261474e+00
2.260000e-06	2.815007e-06	9.362047e-12	1.994767e+01	1.119986e+00
2.270000e-06	2.698286e-06	5.950658e-12	1.912056e+01	9.807120e-01
2.280000e-06	2.580456e-06	5.566510e-12	1.828560e+01	8.470355e-01
2.290000e-06	2.461470e-06	7.756428e-12	1.744244e+01	7.216302e-01
2.300000e-06	2.341470e-06	6.459966e-12	1.659210e+01	6.060441e-01
2.310000e-06	2.220669e-06	1.560051e-12	1.573608e+01	5.004439e-01
2.320000e-06	2.099153e-06	-6.048265e-12	1.487500e+01	4.035620e-01
2.330000e-06	1.976998e-06	-7.018287e-12	1.400938e+01	3.128599e-01
2.340000e-06	1.854254e-06	-3.356027e-12	1.313959e+01	2.248897e-01
2.350000e-06	1.730863e-06	-2.049359e-12	1.226522e+01	1.358033e-01
2.360000e-06	1.606737e-06	-6.881581e-12	1.138564e+01	4.193609e-02
2.370000e-06	1.482050e-06	-1.063387e-11	1.050208e+01	-5.962124e-02
2.380000e-06	1.357031e-06	-9.182788e-12	9.616180e+00	-1.705489e-01
2.390000e-06	1.231558e-06	-6.840058e-12	8.727055e+00	-2.909962e-01
2.400000e-06	1.105544e-06	-7.601745e-12	7.834097e+00	-4.194993e-01
2.410000e-06	9.791128e-07	-1.293418e-11	6.938179e+00	-5.531367e-01
2.420000e-06	8.523110e-07	-1.967391e-11	6.039637e+00	-6.879022e-01
2.430000e-06	7.251916e-07	-2.324567e-11	5.138845e+00	-8.192449e-01
2.440000e-06	5.978457e-07	-2.243554e-11	4.236448e+00	-9.426994e-01
2.450000e-06	4.702745e-07	-2.285040e-11	3.332454e+00	-1.054514e+00
2.460000e-06	3.424464e-07	-2.838276e-11	2.426640e+00	-1.152186e+00
2.470000e-06	2.144365e-07	-3.360117e-11	1.519538e+00	-1.234824e+00
2.480000e-06	8.638007e-08	-3.310618e-11	6.121055e-01	-1.303285e+00
2.490000e-06	-4.167497e-08	-2.908251e-11	-2.953167e-01	-1.360062e+00
2.500000e-06	-1.697328e-07	-2.869670e-11	-1.202759e+00	-1.408941e+00
2.510000e-06	-2.976878e-07	-3.336967e-11	-2.109473e+00	-1.454469e+00
2.520000e-06	-4.254440e-07	-3.719437e-11	-3.014777e+00	-1.501328e+00
2.530000e-06	-5.530731e-07	-3.626285e-11	-3.919181e+00	-1.553678e+00
2.540000e-06	-6.805795e-07	-3.505521e-11	-4.822715e+00	-1.614596e+00
2.550000e-06	-8.077729e-07	-3.634798e-11	-5.724032e+00	-1.685666e+00
2.560000e-06	-9.345712e-07	-3.934009e-11	-6.622549e+00	-1.766795e+00
2.570000e-06	-1.061013e-06	-4.098793e-11	-7.518540e+00	-1.856276e+00
2.580000e-06	-1.187056e-06	-3.847825e-11	-8.411702e+00	-1.951081e+00
2.590000e-06	-1.312631e-06	-3.702435e-11	-9.301553e+00	-2.047356e+00
2.600000e-06	-1.437702e-06	-3.896770e-11	-1.018783e+01	-2.141017e+00
2.610000e-06	-1.562244e-06	-4.365949e-11	-1.107036e+01	-2.228391e+00
2.620000e-06	-1.686192e-06	-4.713113e-11	-1.194868e+01	-2.306775e+00
2.630000e-06	-1.809424e-06	-4.634555e-11	-1.282192e+01	-2.374861e+00
2.640000e-06	-1.931962e-06	-4.565450e-11	-1.369025e+01	-2.432938e+00
2.650000e-06	-2.053891e-06	-4.774384e-11	-1.455426e+01	-2.482867e+00
2.660000e-06	-2.175172e-06	-4.998619e-11	-1.541368e+01	-2.527822e+00
2.670000e-06	-2.295753e-06	-4.844196e-11	-1.626814e+01	-2.571836e+00
2.680000e-06	-2.415513e-06	-4.529228e-11	-1.711678e+01	-2.619232e+00
2.690000e-06	-2.534202e-06	-4.393555e-11	-1.795783e+01	-2.674009e+00
2.700000e-06	-2.651826e-06	-4.475703e-11	-1.879134e+01	-2.739287e+00
2.710000e-06	-2.768464e-06	-4.734115e-11	-1.961786e+01	-2.816877e+00
2.720000e-06	-2.883936e-06	-4.841177e-11	-2.043612e+01	-2.907047e+00
2.730000e-06	-2.998189e-06	-5.125941e-11	-2.124573e+01	-3.008512e+00
2.740000e-06	-3.111251e-06	-5.629224e-11	-2.204691e+01	-3.118638e+00
2.750000e-06	-3.223044e-06	-5.991336e-11	-2.283910e+01	-3.233835e+00
2.760000e-06	-3.333549e-06	-6.134872e-11	-2.362216e+01	-3.350066e+00
2.770000e-06	-3.442873e-06	-5.995586e-11	-2.439685e+01	-3.463410e+00
2.780000e-06	-3.551136e-06	-5.795323e-11	-2.516402e+01	-3.570581e+00
2.790000e-06	-3.658273e-06	-5.795715e-11	-2.592321e+01	-3.669338e+00
2.800000e-06	-3.764143e-06	-5.918867e-11	-2.667343e+01	-3.758729e+00
2.810000e-06	-3.868679e-06	-5.944152e-11	-2.741419e+01	-3.839135e+00
2.820000e-06	-3.971759e-06	-5.999109e-11	-2.814464e+01	-3.912130e+00
2.830000e-06	-4.073318e-06	-6.333948e-11	-2.886431e+01	-3.980165e+00
2.840000e-06	-4.173354e-06	-6.720401e-11	-2.957318e+01	-4.046151e+00
2.850000e-06	-4.271935e-06	-7.000390e-11	-3.027174e+01	-4.112998e+00
2.860000e-06	-4.369163e-06	-7.160344e-11	-3.096072e+01	-4.183189e+00
2.870000e-06	-4.464942e-06	-7.171413e-11	-3.163943e+01	-4.258436e+00
2.880000e-06	-4.559062e-06	-7.251254e-11	-3.230638e+01	-4.339495e+00
2.890000e-06	-4.651512e-06	-7.286535e-11	-3.296149e+01	-4.426127e+00
2.900000e-06	-4.742360e-06	-7.242851e-11	-3.360526e+01	-4.517225e+00
2.910000e-06	-4.831523e-06	-7.185197e-11	-3.423709e+01	-4.611070e+00
2.920000e-06	-4.918915e-06	-7.164305e-11	-3.485637e+01	-4.705663e+00
2.930000e-06	-5.004487e-06	-7.312359e-11	-3.546275e+01	-4.799074e+00
2.940000e-06	-5.088289e-06	-7.626333e-11	-3.605658e+01	-4.889754e+00
