# Temperatura_=_20.0
# Concentracion g/m^3_=_9000.0
# C_Vs_to_Am_M_A/Vsm_=_65563218390.804596
# pendiente_HvsI_1/m_=_3716.3
# ordenada_HvsI_A/m_=_1297.0
# frecuencia_Hz_=_300867.3539863734

Tiempo_(s)	Campo_(V.s)	Magnetizacion_(V.s)	Campo_(kA/m)	Magnetizacion_(A/m)
0.000000e+00	-5.332872e-06	-4.325076e-09	-5.678754e+01	-2.819878e+02
1.000000e-08	-5.329932e-06	-4.325483e-09	-5.675624e+01	-2.819234e+02
2.000000e-08	-5.325280e-06	-4.325211e-09	-5.670670e+01	-2.818169e+02
3.000000e-08	-5.319038e-06	-4.325479e-09	-5.664023e+01	-2.816713e+02
4.000000e-08	-5.311154e-06	-4.323648e-09	-5.655628e+01	-2.814918e+02
5.000000e-08	-5.301333e-06	-4.319919e-09	-5.645170e+01	-2.812850e+02
6.000000e-08	-5.289519e-06	-4.315771e-09	-5.632589e+01	-2.810584e+02
7.000000e-08	-5.275813e-06	-4.303560e-09	-5.617995e+01	-2.808189e+02
8.000000e-08	-5.259969e-06	-4.290440e-09	-5.601123e+01	-2.805726e+02
9.000000e-08	-5.241976e-06	-4.312727e-09	-5.581962e+01	-2.803231e+02
1.000000e-07	-5.222094e-06	-4.325390e-09	-5.560792e+01	-2.800715e+02
1.100000e-07	-5.200340e-06	-4.306404e-09	-5.537626e+01	-2.798159e+02
1.200000e-07	-5.176813e-06	-4.290748e-09	-5.512574e+01	-2.795512e+02
1.300000e-07	-5.151680e-06	-4.254906e-09	-5.485811e+01	-2.792693e+02
1.400000e-07	-5.124988e-06	-4.245725e-09	-5.457387e+01	-2.789605e+02
1.500000e-07	-5.096766e-06	-4.307970e-09	-5.427335e+01	-2.786138e+02
1.600000e-07	-5.067024e-06	-4.247241e-09	-5.395663e+01	-2.782182e+02
1.700000e-07	-5.035584e-06	-4.180403e-09	-5.362184e+01	-2.777641e+02
1.800000e-07	-5.002074e-06	-4.225486e-09	-5.326501e+01	-2.772438e+02
1.900000e-07	-4.966903e-06	-4.222036e-09	-5.289049e+01	-2.766527e+02
2.000000e-07	-4.930331e-06	-4.228972e-09	-5.250105e+01	-2.759897e+02
2.100000e-07	-4.891935e-06	-4.209778e-09	-5.209218e+01	-2.752568e+02
2.200000e-07	-4.851711e-06	-4.146998e-09	-5.166386e+01	-2.744592e+02
2.300000e-07	-4.809634e-06	-4.160688e-09	-5.121579e+01	-2.736046e+02
2.400000e-07	-4.765711e-06	-4.191848e-09	-5.074808e+01	-2.727019e+02
2.500000e-07	-4.720076e-06	-4.172715e-09	-5.026213e+01	-2.717604e+02
2.600000e-07	-4.672564e-06	-4.115132e-09	-4.975619e+01	-2.707886e+02
2.700000e-07	-4.622996e-06	-4.066885e-09	-4.922836e+01	-2.697931e+02
2.800000e-07	-4.571461e-06	-4.125182e-09	-4.867959e+01	-2.687781e+02
2.900000e-07	-4.518172e-06	-4.128995e-09	-4.811213e+01	-2.677449e+02
3.000000e-07	-4.463281e-06	-4.049892e-09	-4.752763e+01	-2.666917e+02
3.100000e-07	-4.406739e-06	-4.031396e-09	-4.692553e+01	-2.656140e+02
3.200000e-07	-4.348464e-06	-4.050145e-09	-4.630499e+01	-2.645054e+02
3.300000e-07	-4.288687e-06	-4.041469e-09	-4.566845e+01	-2.633581e+02
3.400000e-07	-4.227553e-06	-4.004599e-09	-4.501746e+01	-2.621640e+02
3.500000e-07	-4.165002e-06	-3.981808e-09	-4.435138e+01	-2.609155e+02
3.600000e-07	-4.100943e-06	-3.943252e-09	-4.366924e+01	-2.596064e+02
3.700000e-07	-4.035228e-06	-3.930539e-09	-4.296947e+01	-2.582324e+02
3.800000e-07	-3.967920e-06	-3.944239e-09	-4.225274e+01	-2.567914e+02
3.900000e-07	-3.899150e-06	-3.894769e-09	-4.152043e+01	-2.552830e+02
4.000000e-07	-3.829049e-06	-3.838822e-09	-4.077395e+01	-2.537091e+02
4.100000e-07	-3.757843e-06	-3.839499e-09	-4.001571e+01	-2.520722e+02
4.200000e-07	-3.685392e-06	-3.843853e-09	-3.924421e+01	-2.503755e+02
4.300000e-07	-3.611247e-06	-3.796913e-09	-3.845467e+01	-2.486220e+02
4.400000e-07	-3.535455e-06	-3.736319e-09	-3.764759e+01	-2.468136e+02
4.500000e-07	-3.458357e-06	-3.725218e-09	-3.682661e+01	-2.449505e+02
4.600000e-07	-3.379931e-06	-3.719889e-09	-3.599148e+01	-2.430313e+02
4.700000e-07	-3.300058e-06	-3.677219e-09	-3.514095e+01	-2.410527e+02
4.800000e-07	-3.218851e-06	-3.628946e-09	-3.427620e+01	-2.390095e+02
4.900000e-07	-3.136542e-06	-3.598855e-09	-3.339974e+01	-2.368953e+02
5.000000e-07	-3.053330e-06	-3.579526e-09	-3.251364e+01	-2.347031e+02
5.100000e-07	-2.969282e-06	-3.547242e-09	-3.161865e+01	-2.324252e+02
5.200000e-07	-2.884232e-06	-3.504953e-09	-3.071299e+01	-2.300547e+02
5.300000e-07	-2.798111e-06	-3.455654e-09	-2.979592e+01	-2.275853e+02
5.400000e-07	-2.711110e-06	-3.416273e-09	-2.886949e+01	-2.250116e+02
5.500000e-07	-2.623354e-06	-3.388743e-09	-2.793501e+01	-2.223296e+02
5.600000e-07	-2.534573e-06	-3.344225e-09	-2.698962e+01	-2.195360e+02
5.700000e-07	-2.444482e-06	-3.284377e-09	-2.603027e+01	-2.166282e+02
5.800000e-07	-2.353393e-06	-3.230156e-09	-2.506031e+01	-2.136038e+02
5.900000e-07	-2.261663e-06	-3.194298e-09	-2.408351e+01	-2.104602e+02
6.000000e-07	-2.169321e-06	-3.150693e-09	-2.310020e+01	-2.071935e+02
6.100000e-07	-2.076235e-06	-3.087943e-09	-2.210896e+01	-2.037988e+02
6.200000e-07	-1.982327e-06	-3.026305e-09	-2.110898e+01	-2.002697e+02
6.300000e-07	-1.887746e-06	-2.979026e-09	-2.010182e+01	-1.965976e+02
6.400000e-07	-1.792668e-06	-2.928778e-09	-1.908938e+01	-1.927725e+02
6.500000e-07	-1.697093e-06	-2.860876e-09	-1.807164e+01	-1.887823e+02
6.600000e-07	-1.600725e-06	-2.790510e-09	-1.704546e+01	-1.846137e+02
6.700000e-07	-1.503462e-06	-2.723785e-09	-1.600974e+01	-1.802519e+02
6.800000e-07	-1.405465e-06	-2.656284e-09	-1.496622e+01	-1.756807e+02
6.900000e-07	-1.306927e-06	-2.581485e-09	-1.391692e+01	-1.708828e+02
7.000000e-07	-1.207969e-06	-2.502537e-09	-1.286316e+01	-1.658395e+02
7.100000e-07	-1.108671e-06	-2.419317e-09	-1.180578e+01	-1.605307e+02
7.200000e-07	-1.009156e-06	-2.333348e-09	-1.074609e+01	-1.549343e+02
7.300000e-07	-9.094299e-07	-2.246394e-09	-9.684142e+00	-1.490260e+02
7.400000e-07	-8.094027e-07	-2.150149e-09	-8.618993e+00	-1.427792e+02
7.500000e-07	-7.090157e-07	-2.043930e-09	-7.550013e+00	-1.361649e+02
7.600000e-07	-6.083089e-07	-1.935095e-09	-6.477629e+00	-1.291520e+02
7.700000e-07	-5.073511e-07	-1.827251e-09	-5.402571e+00	-1.217080e+02
7.800000e-07	-4.062012e-07	-1.708207e-09	-4.325468e+00	-1.137999e+02
7.900000e-07	-3.049272e-07	-1.576404e-09	-3.247043e+00	-1.053965e+02
8.000000e-07	-2.036044e-07	-1.440288e-09	-2.168099e+00	-9.646946e+01
8.100000e-07	-1.021966e-07	-1.297091e-09	-1.088249e+00	-8.699669e+01
8.200000e-07	-7.011478e-10	-1.141155e-09	-7.466232e-03	-7.696425e+01
8.300000e-07	1.007727e-07	-9.756206e-10	1.073087e+00	-6.636916e+01
8.400000e-07	2.021887e-07	-8.071435e-10	2.153023e+00	-5.522171e+01
8.500000e-07	3.035323e-07	-6.306698e-10	3.232189e+00	-4.354732e+01
8.600000e-07	4.047887e-07	-4.435603e-10	4.310426e+00	-3.138773e+01
8.700000e-07	5.058741e-07	-2.494621e-10	5.386843e+00	-1.880138e+01
8.800000e-07	6.067447e-07	-5.252972e-11	6.460972e+00	-5.862821e+00
8.900000e-07	7.074165e-07	1.484977e-10	7.532985e+00	7.338883e+00
9.000000e-07	8.078284e-07	3.540750e-10	8.602229e+00	2.070271e+01
9.100000e-07	9.079036e-07	5.593788e-10	9.667889e+00	3.411908e+01
9.200000e-07	1.007643e-06	7.601028e-10	1.072998e+01	4.747388e+01
9.300000e-07	1.107112e-06	9.569940e-10	1.178918e+01	6.065294e+01
9.400000e-07	1.206373e-06	1.152407e-09	1.284617e+01	7.354658e+01
9.500000e-07	1.305374e-06	1.343447e-09	1.390038e+01	8.605399e+01
9.600000e-07	1.403901e-06	1.528513e-09	1.494956e+01	9.808709e+01
9.700000e-07	1.501755e-06	1.702761e-09	1.599157e+01	1.095737e+02
9.800000e-07	1.598753e-06	1.866379e-09	1.702446e+01	1.204595e+02
9.900000e-07	1.694936e-06	2.023989e-09	1.804867e+01	1.307095e+02
1.000000e-06	1.790503e-06	2.175861e-09	1.906632e+01	1.403079e+02
1.010000e-06	1.885527e-06	2.313544e-09	2.007819e+01	1.492566e+02
1.020000e-06	1.979909e-06	2.434572e-09	2.108322e+01	1.575738e+02
1.030000e-06	2.073591e-06	2.546982e-09	2.208080e+01	1.652906e+02
1.040000e-06	2.166616e-06	2.655012e-09	2.307139e+01	1.724482e+02
1.050000e-06	2.258934e-06	2.758509e-09	2.405445e+01	1.790940e+02
1.060000e-06	2.350561e-06	2.852657e-09	2.503015e+01	1.852782e+02
1.070000e-06	2.441584e-06	2.937614e-09	2.599941e+01	1.910505e+02
1.080000e-06	2.531725e-06	3.018271e-09	2.695929e+01	1.964577e+02
1.090000e-06	2.620588e-06	3.097344e-09	2.790556e+01	2.015411e+02
1.100000e-06	2.708304e-06	3.171756e-09	2.883960e+01	2.063357e+02
1.110000e-06	2.795197e-06	3.238009e-09	2.976489e+01	2.108693e+02
1.120000e-06	2.881211e-06	3.299983e-09	3.068082e+01	2.151629e+02
1.130000e-06	2.966238e-06	3.360311e-09	3.158623e+01	2.192313e+02
1.140000e-06	3.050312e-06	3.420600e-09	3.248151e+01	2.230844e+02
1.150000e-06	3.133516e-06	3.477525e-09	3.336751e+01	2.267287e+02
1.160000e-06	3.215738e-06	3.527369e-09	3.424306e+01	2.301686e+02
1.170000e-06	3.296653e-06	3.572444e-09	3.510469e+01	2.334082e+02
1.180000e-06	3.376315e-06	3.617683e-09	3.595298e+01	2.364523e+02
1.190000e-06	3.454788e-06	3.661834e-09	3.678861e+01	2.393072e+02
1.200000e-06	3.531976e-06	3.700038e-09	3.761055e+01	2.419812e+02
1.210000e-06	3.607920e-06	3.734649e-09	3.841924e+01	2.444849e+02
1.220000e-06	3.682548e-06	3.769017e-09	3.921393e+01	2.468304e+02
1.230000e-06	3.755575e-06	3.801513e-09	3.999156e+01	2.490312e+02
1.240000e-06	3.827079e-06	3.832303e-09	4.075297e+01	2.511012e+02
1.250000e-06	3.897290e-06	3.860964e-09	4.150062e+01	2.530538e+02
1.260000e-06	3.966158e-06	3.887771e-09	4.223397e+01	2.549015e+02
1.270000e-06	4.033704e-06	3.914313e-09	4.295324e+01	2.566551e+02
1.280000e-06	4.099872e-06	3.939352e-09	4.365784e+01	2.583234e+02
1.290000e-06	4.164386e-06	3.964462e-09	4.434482e+01	2.599129e+02
1.300000e-06	4.227356e-06	3.988233e-09	4.501535e+01	2.614285e+02
1.310000e-06	4.288997e-06	4.009429e-09	4.567175e+01	2.628731e+02
1.320000e-06	4.349251e-06	4.029183e-09	4.631336e+01	2.642487e+02
1.330000e-06	4.408176e-06	4.048638e-09	4.694084e+01	2.655568e+02
1.340000e-06	4.465460e-06	4.067826e-09	4.755083e+01	2.667987e+02
1.350000e-06	4.520919e-06	4.084970e-09	4.814139e+01	2.679763e+02
1.360000e-06	4.574799e-06	4.100473e-09	4.871514e+01	2.690920e+02
1.370000e-06	4.627025e-06	4.116865e-09	4.927127e+01	2.701489e+02
1.380000e-06	4.677305e-06	4.133428e-09	4.980668e+01	2.711509e+02
1.390000e-06	4.725531e-06	4.149399e-09	5.032022e+01	2.721022e+02
1.400000e-06	4.771955e-06	4.163414e-09	5.081457e+01	2.730069e+02
1.410000e-06	4.816825e-06	4.175767e-09	5.129237e+01	2.738687e+02
1.420000e-06	4.860164e-06	4.188501e-09	5.175387e+01	2.746904e+02
1.430000e-06	4.901680e-06	4.201068e-09	5.219596e+01	2.754738e+02
1.440000e-06	4.941288e-06	4.212356e-09	5.261772e+01	2.762192e+02
1.450000e-06	4.979242e-06	4.222518e-09	5.302188e+01	2.769261e+02
1.460000e-06	5.015613e-06	4.231856e-09	5.340918e+01	2.775927e+02
1.470000e-06	5.050314e-06	4.241175e-09	5.377870e+01	2.782168e+02
1.480000e-06	5.083073e-06	4.249727e-09	5.412753e+01	2.787961e+02
1.490000e-06	5.113935e-06	4.257005e-09	5.445617e+01	2.793289e+02
1.500000e-06	5.143130e-06	4.263922e-09	5.476706e+01	2.798142e+02
1.510000e-06	5.170703e-06	4.270319e-09	5.506067e+01	2.802524e+02
1.520000e-06	5.196371e-06	4.276419e-09	5.533399e+01	2.806453e+02
1.530000e-06	5.219956e-06	4.281159e-09	5.558514e+01	2.809962e+02
1.540000e-06	5.241705e-06	4.285017e-09	5.581674e+01	2.813092e+02
1.550000e-06	5.261758e-06	4.290505e-09	5.603028e+01	2.815893e+02
1.560000e-06	5.280075e-06	4.295309e-09	5.622532e+01	2.818415e+02
1.570000e-06	5.296464e-06	4.299179e-09	5.639985e+01	2.820702e+02
1.580000e-06	5.310894e-06	4.302871e-09	5.655350e+01	2.822787e+02
1.590000e-06	5.323419e-06	4.304456e-09	5.668688e+01	2.824689e+02
1.600000e-06	5.333867e-06	4.305274e-09	5.679814e+01	2.826405e+02
1.610000e-06	5.342140e-06	4.306864e-09	5.688623e+01	2.827916e+02
1.620000e-06	5.348466e-06	4.308218e-09	5.695359e+01	2.829189e+02
1.630000e-06	5.353061e-06	4.308346e-09	5.700252e+01	2.830177e+02
1.640000e-06	5.355883e-06	4.308585e-09	5.703257e+01	2.830831e+02
1.650000e-06	5.356721e-06	4.310697e-09	5.704150e+01	2.831107e+02
1.660000e-06	5.355637e-06	4.310941e-09	5.702995e+01	2.830969e+02
1.670000e-06	5.352875e-06	4.307557e-09	5.700055e+01	2.830401e+02
1.680000e-06	5.348560e-06	4.306739e-09	5.695459e+01	2.829408e+02
1.690000e-06	5.342515e-06	4.306646e-09	5.689023e+01	2.828017e+02
1.700000e-06	5.334546e-06	4.305981e-09	5.680537e+01	2.826277e+02
1.710000e-06	5.324902e-06	4.303959e-09	5.670267e+01	2.824251e+02
1.720000e-06	5.313690e-06	4.302818e-09	5.658328e+01	2.822014e+02
1.730000e-06	5.300716e-06	4.313367e-09	5.644513e+01	2.819636e+02
1.740000e-06	5.285660e-06	4.300536e-09	5.628480e+01	2.817179e+02
1.750000e-06	5.268223e-06	4.259923e-09	5.609912e+01	2.814687e+02
1.760000e-06	5.248296e-06	4.260373e-09	5.588693e+01	2.812175e+02
1.770000e-06	5.225952e-06	4.267416e-09	5.564899e+01	2.809628e+02
1.780000e-06	5.201949e-06	4.293234e-09	5.539339e+01	2.807000e+02
1.790000e-06	5.177173e-06	4.316207e-09	5.512956e+01	2.804217e+02
1.800000e-06	5.151180e-06	4.232597e-09	5.485278e+01	2.801184e+02
1.810000e-06	5.123194e-06	4.281761e-09	5.455476e+01	2.797791e+02
1.820000e-06	5.093530e-06	4.370351e-09	5.423889e+01	2.793929e+02
1.830000e-06	5.062232e-06	4.300549e-09	5.390561e+01	2.789497e+02
1.840000e-06	5.028764e-06	4.298800e-09	5.354922e+01	2.784415e+02
1.850000e-06	4.993404e-06	4.254218e-09	5.317269e+01	2.778632e+02
1.860000e-06	4.956485e-06	4.204608e-09	5.277955e+01	2.772128e+02
1.870000e-06	4.917729e-06	4.307801e-09	5.236686e+01	2.764919e+02
1.880000e-06	4.877173e-06	4.242083e-09	5.193500e+01	2.757053e+02
1.890000e-06	4.834825e-06	4.107200e-09	5.148404e+01	2.748601e+02
1.900000e-06	4.790843e-06	4.112493e-09	5.101569e+01	2.739652e+02
1.910000e-06	4.745443e-06	4.144049e-09	5.053225e+01	2.730298e+02
1.920000e-06	4.698188e-06	4.189157e-09	5.002905e+01	2.720627e+02
1.930000e-06	4.649084e-06	4.084107e-09	4.950617e+01	2.710709e+02
1.940000e-06	4.598350e-06	4.027042e-09	4.896592e+01	2.700591e+02
1.950000e-06	4.545870e-06	4.113883e-09	4.840709e+01	2.690290e+02
1.960000e-06	4.491471e-06	4.069063e-09	4.782781e+01	2.679795e+02
1.970000e-06	4.435256e-06	4.040665e-09	4.722920e+01	2.669065e+02
1.980000e-06	4.377528e-06	4.026598e-09	4.661448e+01	2.658038e+02
1.990000e-06	4.318272e-06	3.988994e-09	4.598349e+01	2.646639e+02
2.000000e-06	4.257659e-06	3.997418e-09	4.533804e+01	2.634786e+02
2.010000e-06	4.195624e-06	3.994915e-09	4.467746e+01	2.622401e+02
2.020000e-06	4.131758e-06	3.988312e-09	4.399738e+01	2.609421e+02
2.030000e-06	4.066249e-06	3.902209e-09	4.329980e+01	2.595798e+02
2.040000e-06	3.999375e-06	3.894433e-09	4.258768e+01	2.581507e+02
2.050000e-06	3.931193e-06	3.935904e-09	4.186164e+01	2.566542e+02
2.060000e-06	3.861506e-06	3.874232e-09	4.111957e+01	2.550916e+02
2.070000e-06	3.790097e-06	3.821611e-09	4.035917e+01	2.534656e+02
2.080000e-06	3.717327e-06	3.795416e-09	3.958427e+01	2.517792e+02
2.090000e-06	3.643411e-06	3.823047e-09	3.879717e+01	2.500356e+02
2.100000e-06	3.568142e-06	3.789150e-09	3.799566e+01	2.482367e+02
2.110000e-06	3.491384e-06	3.719867e-09	3.717829e+01	2.463833e+02
2.120000e-06	3.413155e-06	3.711720e-09	3.634527e+01	2.444742e+02
2.130000e-06	3.333540e-06	3.693228e-09	3.549749e+01	2.425064e+02
2.140000e-06	3.252707e-06	3.665013e-09	3.463673e+01	2.404750e+02
2.150000e-06	3.170799e-06	3.616408e-09	3.376452e+01	2.383739e+02
2.160000e-06	3.087837e-06	3.584489e-09	3.288109e+01	2.361960e+02
2.170000e-06	3.003919e-06	3.547160e-09	3.198749e+01	2.339339e+02
2.180000e-06	2.919039e-06	3.513556e-09	3.108364e+01	2.315803e+02
2.190000e-06	2.833024e-06	3.490704e-09	3.016770e+01	2.291288e+02
2.200000e-06	2.745740e-06	3.439584e-09	2.923824e+01	2.265739e+02
2.210000e-06	2.657402e-06	3.393283e-09	2.829757e+01	2.239114e+02
2.220000e-06	2.568221e-06	3.363689e-09	2.734792e+01	2.211377e+02
2.230000e-06	2.478145e-06	3.343282e-09	2.638874e+01	2.182504e+02
2.240000e-06	2.387269e-06	3.287141e-09	2.542104e+01	2.152469e+02
2.250000e-06	2.295689e-06	3.221075e-09	2.444584e+01	2.121246e+02
2.260000e-06	2.203495e-06	3.181737e-09	2.346411e+01	2.088801e+02
2.270000e-06	2.110614e-06	3.142221e-09	2.247505e+01	2.055086e+02
2.280000e-06	2.016872e-06	3.082722e-09	2.147683e+01	2.020039e+02
2.290000e-06	1.922211e-06	3.017251e-09	2.046883e+01	1.983579e+02
2.300000e-06	1.826666e-06	2.963727e-09	1.945141e+01	1.945608e+02
2.310000e-06	1.730459e-06	2.907777e-09	1.842694e+01	1.906009e+02
2.320000e-06	1.633747e-06	2.848796e-09	1.739709e+01	1.864651e+02
2.330000e-06	1.536540e-06	2.786749e-09	1.636197e+01	1.821388e+02
2.340000e-06	1.438809e-06	2.715402e-09	1.532127e+01	1.776060e+02
2.350000e-06	1.340581e-06	2.637919e-09	1.427529e+01	1.728498e+02
2.360000e-06	1.241918e-06	2.565940e-09	1.322467e+01	1.678517e+02
2.370000e-06	1.142852e-06	2.494170e-09	1.216975e+01	1.625917e+02
2.380000e-06	1.043391e-06	2.406887e-09	1.111064e+01	1.570482e+02
2.390000e-06	9.436084e-07	2.310516e-09	1.004809e+01	1.511973e+02
2.400000e-06	8.436111e-07	2.217345e-09	8.983264e+00	1.450129e+02
2.410000e-06	7.434093e-07	2.124529e-09	7.916257e+00	1.384664e+02
2.420000e-06	6.430557e-07	2.020879e-09	6.847633e+00	1.315269e+02
2.430000e-06	5.425628e-07	1.907176e-09	5.777526e+00	1.241621e+02
2.440000e-06	4.419143e-07	1.787741e-09	4.705762e+00	1.163392e+02
2.450000e-06	3.411456e-07	1.659191e-09	3.632718e+00	1.080262e+02
2.460000e-06	2.402177e-07	1.521776e-09	2.557978e+00	9.919440e+01
2.470000e-06	1.391518e-07	1.382072e-09	1.481770e+00	8.982025e+01
2.480000e-06	3.804638e-08	1.234894e-09	4.051401e-01	7.988818e+01
2.490000e-06	-6.301479e-08	1.071213e-09	-6.710183e-01	6.939309e+01
2.500000e-06	-1.640013e-07	8.986775e-10	-1.746382e+00	5.834273e+01
2.510000e-06	-2.649088e-07	7.278281e-10	-2.820904e+00	4.675972e+01
2.520000e-06	-3.657045e-07	5.512105e-10	-3.894236e+00	3.468283e+01
2.530000e-06	-4.664010e-07	3.585371e-10	-4.966510e+00	2.216753e+01
2.540000e-06	-5.669885e-07	1.581644e-10	-6.037625e+00	9.285590e+00
2.550000e-06	-6.674134e-07	-4.207859e-11	-7.107008e+00	-3.876364e+00
2.560000e-06	-7.676417e-07	-2.431199e-10	-8.174298e+00	-1.721922e+01
2.570000e-06	-8.676464e-07	-4.459310e-10	-9.239206e+00	-3.063463e+01
2.580000e-06	-9.673283e-07	-6.534362e-10	-1.030068e+01	-4.400899e+01
2.590000e-06	-1.066638e-06	-8.632278e-10	-1.135819e+01	-5.722780e+01
2.600000e-06	-1.165606e-06	-1.064675e-09	-1.241206e+01	-7.018025e+01
2.610000e-06	-1.264221e-06	-1.251019e-09	-1.346216e+01	-8.276364e+01
2.620000e-06	-1.362423e-06	-1.431405e-09	-1.450788e+01	-9.488736e+01
2.630000e-06	-1.460131e-06	-1.613845e-09	-1.554833e+01	-1.064762e+02
2.640000e-06	-1.557337e-06	-1.787023e-09	-1.658344e+01	-1.174725e+02
2.650000e-06	-1.654072e-06	-1.940916e-09	-1.761352e+01	-1.278380e+02
2.660000e-06	-1.750407e-06	-2.083366e-09	-1.863936e+01	-1.375532e+02
2.670000e-06	-1.846316e-06	-2.225762e-09	-1.966066e+01	-1.466171e+02
2.680000e-06	-1.941504e-06	-2.363034e-09	-2.067427e+01	-1.550453e+02
2.690000e-06	-2.035671e-06	-2.484021e-09	-2.167701e+01	-1.628667e+02
2.700000e-06	-2.128819e-06	-2.589439e-09	-2.266891e+01	-1.701209e+02
2.710000e-06	-2.221173e-06	-2.688933e-09	-2.365235e+01	-1.768546e+02
2.720000e-06	-2.312862e-06	-2.786453e-09	-2.462871e+01	-1.831176e+02
2.730000e-06	-2.403784e-06	-2.878596e-09	-2.559690e+01	-1.889601e+02
2.740000e-06	-2.493795e-06	-2.962466e-09	-2.655539e+01	-1.944294e+02
2.750000e-06	-2.582912e-06	-3.039739e-09	-2.750436e+01	-1.995680e+02
2.760000e-06	-2.671267e-06	-3.115077e-09	-2.844521e+01	-2.044120e+02
2.770000e-06	-2.758848e-06	-3.190073e-09	-2.937782e+01	-2.089907e+02
2.780000e-06	-2.845346e-06	-3.260101e-09	-3.029891e+01	-2.133260e+02
2.790000e-06	-2.930593e-06	-3.321382e-09	-3.120667e+01	-2.174339e+02
2.800000e-06	-3.014772e-06	-3.378856e-09	-3.210306e+01	-2.213251e+02
2.810000e-06	-3.097950e-06	-3.436505e-09	-3.298878e+01	-2.250064e+02
2.820000e-06	-3.180120e-06	-3.492695e-09	-3.386378e+01	-2.284827e+02
2.830000e-06	-3.261274e-06	-3.543689e-09	-3.472796e+01	-2.317579e+02
2.840000e-06	-3.341402e-06	-3.590316e-09	-3.558121e+01	-2.348366e+02
2.850000e-06	-3.420255e-06	-3.635469e-09	-3.642088e+01	-2.377248e+02
2.860000e-06	-3.497579e-06	-3.679001e-09	-3.724427e+01	-2.404306e+02
2.870000e-06	-3.573462e-06	-3.720795e-09	-3.805231e+01	-2.429639e+02
2.880000e-06	-3.647953e-06	-3.759248e-09	-3.884554e+01	-2.453369e+02
2.890000e-06	-3.721131e-06	-3.794461e-09	-3.962478e+01	-2.475627e+02
2.900000e-06	-3.793148e-06	-3.827769e-09	-4.039166e+01	-2.496551e+02
2.910000e-06	-3.863751e-06	-3.860464e-09	-4.114348e+01	-2.516279e+02
2.920000e-06	-3.932708e-06	-3.891079e-09	-4.187777e+01	-2.534936e+02
2.930000e-06	-4.000301e-06	-3.917648e-09	-4.259755e+01	-2.552635e+02
2.940000e-06	-4.066561e-06	-3.942260e-09	-4.330312e+01	-2.569465e+02
