# Temperatura_=_20.0
# Concentracion g/m^3_=_9000.0
# C_Vs_to_Am_M_A/Vsm_=_65563218390.804596
# pendiente_HvsI_1/m_=_3716.3
# ordenada_HvsI_A/m_=_1297.0
# frecuencia_Hz_=_300875.68127287185

Tiempo_(s)	Campo_(V.s)	Magnetizacion_(V.s)	Campo_(kA/m)	Magnetizacion_(A/m)
0.000000e+00	-5.358162e-06	-3.975475e-11	-5.680029e+01	-2.856044e+00
1.000000e-08	-5.356604e-06	-4.094843e-11	-5.678376e+01	-2.871012e+00
2.000000e-08	-5.353176e-06	-4.262243e-11	-5.674742e+01	-2.889038e+00
3.000000e-08	-5.348113e-06	-4.143429e-11	-5.669375e+01	-2.909488e+00
4.000000e-08	-5.341432e-06	-4.122717e-11	-5.662293e+01	-2.931378e+00
5.000000e-08	-5.333034e-06	-4.177889e-11	-5.653391e+01	-2.953431e+00
6.000000e-08	-5.322595e-06	-3.929429e-11	-5.642325e+01	-2.974173e+00
7.000000e-08	-5.310186e-06	-4.266923e-11	-5.629170e+01	-2.992069e+00
8.000000e-08	-5.295917e-06	-4.245339e-11	-5.614044e+01	-3.005658e+00
9.000000e-08	-5.279491e-06	-2.364679e-11	-5.596631e+01	-3.013703e+00
1.000000e-07	-5.260925e-06	-2.897769e-11	-5.576950e+01	-3.015318e+00
1.100000e-07	-5.240419e-06	-4.332989e-11	-5.555212e+01	-3.010060e+00
1.200000e-07	-5.218080e-06	-4.404002e-11	-5.531531e+01	-2.997990e+00
1.300000e-07	-5.194088e-06	-6.950960e-11	-5.506099e+01	-2.979668e+00
1.400000e-07	-5.168521e-06	-4.592336e-11	-5.478996e+01	-2.956108e+00
1.500000e-07	-5.141346e-06	5.970209e-12	-5.450188e+01	-2.928672e+00
1.600000e-07	-5.112576e-06	-6.229747e-11	-5.419689e+01	-2.898939e+00
1.700000e-07	-5.082294e-06	-5.567614e-11	-5.387589e+01	-2.868532e+00
1.800000e-07	-5.050233e-06	-2.251895e-11	-5.353602e+01	-2.838951e+00
1.900000e-07	-5.016091e-06	-6.631756e-11	-5.317409e+01	-2.811407e+00
2.000000e-07	-4.980405e-06	-1.213704e-11	-5.279580e+01	-2.786696e+00
2.100000e-07	-4.943195e-06	-3.169833e-11	-5.240134e+01	-2.765104e+00
2.200000e-07	-4.904093e-06	-8.866502e-11	-5.198683e+01	-2.746375e+00
2.300000e-07	-4.863170e-06	-2.473093e-11	-5.155302e+01	-2.729743e+00
2.400000e-07	-4.820363e-06	-1.694140e-11	-5.109923e+01	-2.714006e+00
2.500000e-07	-4.775745e-06	-5.386849e-11	-5.062625e+01	-2.697667e+00
2.600000e-07	-4.729359e-06	-4.185743e-11	-5.013453e+01	-2.679099e+00
2.700000e-07	-4.681001e-06	-4.993197e-11	-4.962190e+01	-2.656731e+00
2.800000e-07	-4.630597e-06	-3.090693e-11	-4.908758e+01	-2.629225e+00
2.900000e-07	-4.578376e-06	-1.872390e-11	-4.853400e+01	-2.595639e+00
3.000000e-07	-4.524523e-06	-4.295747e-11	-4.796312e+01	-2.555534e+00
3.100000e-07	-4.469055e-06	-5.568708e-11	-4.737512e+01	-2.509036e+00
3.200000e-07	-4.411872e-06	-2.507619e-11	-4.676894e+01	-2.456828e+00
3.300000e-07	-4.352952e-06	-1.112845e-11	-4.614435e+01	-2.400079e+00
3.400000e-07	-4.292555e-06	-4.637381e-11	-4.550410e+01	-2.340317e+00
3.500000e-07	-4.230761e-06	-3.291016e-11	-4.484904e+01	-2.279259e+00
3.600000e-07	-4.167440e-06	-2.696122e-11	-4.417779e+01	-2.218622e+00
3.700000e-07	-4.102508e-06	-3.088833e-11	-4.348946e+01	-2.159918e+00
3.800000e-07	-4.035967e-06	-1.730555e-11	-4.278408e+01	-2.104288e+00
3.900000e-07	-3.967888e-06	-3.593780e-11	-4.206240e+01	-2.052363e+00
4.000000e-07	-3.898407e-06	-4.591768e-11	-4.132585e+01	-2.004191e+00
4.100000e-07	-3.827746e-06	-2.521614e-11	-4.057679e+01	-1.959223e+00
4.200000e-07	-3.755954e-06	-1.342670e-11	-3.981575e+01	-1.916374e+00
4.300000e-07	-3.682708e-06	-3.409704e-11	-3.903929e+01	-1.874143e+00
4.400000e-07	-3.607777e-06	-4.487536e-11	-3.824497e+01	-1.830780e+00
4.500000e-07	-3.531358e-06	-2.567333e-11	-3.743487e+01	-1.784487e+00
4.600000e-07	-3.453580e-06	-1.441871e-11	-3.661037e+01	-1.733621e+00
4.700000e-07	-3.374350e-06	-2.172295e-11	-3.577049e+01	-1.676882e+00
4.800000e-07	-3.293756e-06	-3.107431e-11	-3.491613e+01	-1.613460e+00
4.900000e-07	-3.211987e-06	-2.714371e-11	-3.404932e+01	-1.543126e+00
5.000000e-07	-3.129175e-06	-1.153926e-11	-3.317145e+01	-1.466259e+00
5.100000e-07	-3.045459e-06	-1.029214e-11	-3.228401e+01	-1.383800e+00
5.200000e-07	-2.960830e-06	-1.708698e-11	-3.138688e+01	-1.297144e+00
5.300000e-07	-2.875185e-06	-1.924880e-11	-3.047898e+01	-1.207979e+00
5.400000e-07	-2.788629e-06	-1.350305e-11	-2.956143e+01	-1.118101e+00
5.500000e-07	-2.701245e-06	-3.348474e-12	-2.863510e+01	-1.029214e+00
5.600000e-07	-2.612875e-06	-4.320026e-12	-2.769831e+01	-9.427512e-01
5.700000e-07	-2.523278e-06	-1.241531e-11	-2.674852e+01	-8.597302e-01
5.800000e-07	-2.432527e-06	-1.420402e-11	-2.578650e+01	-7.806694e-01
5.900000e-07	-2.341002e-06	-1.614122e-12	-2.481627e+01	-7.055648e-01
6.000000e-07	-2.248855e-06	2.455895e-12	-2.383944e+01	-6.339363e-01
6.100000e-07	-2.155987e-06	-4.333627e-12	-2.285498e+01	-5.649353e-01
6.200000e-07	-2.062298e-06	-6.172387e-12	-2.186181e+01	-4.974982e-01
6.300000e-07	-1.967838e-06	-4.910663e-13	-2.086046e+01	-4.305278e-01
6.400000e-07	-1.872798e-06	6.411195e-12	-1.985298e+01	-3.630778e-01
6.500000e-07	-1.777246e-06	5.992456e-12	-1.884006e+01	-2.945172e-01
6.600000e-07	-1.681022e-06	3.703901e-12	-1.782001e+01	-2.246531e-01
6.700000e-07	-1.583912e-06	3.604018e-12	-1.679058e+01	-1.537956e-01
6.800000e-07	-1.486047e-06	7.211497e-12	-1.575314e+01	-8.275580e-02
6.900000e-07	-1.387635e-06	9.738309e-12	-1.470991e+01	-1.277640e-02
7.000000e-07	-1.288723e-06	8.514075e-12	-1.366137e+01	5.459777e-02
7.100000e-07	-1.189328e-06	6.367907e-12	-1.260771e+01	1.176940e-01
7.200000e-07	-1.089563e-06	6.303932e-12	-1.155013e+01	1.749100e-01
7.300000e-07	-9.895672e-07	7.438724e-12	-1.049011e+01	2.249123e-01
7.400000e-07	-8.892815e-07	8.054692e-12	-9.427009e+00	2.668121e-01
7.500000e-07	-7.886468e-07	1.067094e-11	-8.360211e+00	3.002947e-01
7.600000e-07	-6.876765e-07	1.150015e-11	-7.289854e+00	3.256908e-01
7.700000e-07	-5.864305e-07	1.126185e-11	-6.216575e+00	3.439769e-01
7.800000e-07	-4.850039e-07	1.301337e-11	-5.141382e+00	3.567073e-01
7.900000e-07	-3.834734e-07	1.514027e-11	-4.065087e+00	3.658841e-01
8.000000e-07	-2.817918e-07	1.594462e-11	-2.987191e+00	3.737797e-01
8.100000e-07	-1.799580e-07	1.551390e-11	-1.907681e+00	3.827322e-01
8.200000e-07	-7.806640e-08	1.213011e-11	-8.275587e-01	3.949361e-01
8.300000e-07	2.383502e-08	1.032785e-11	2.526679e-01	4.122509e-01
8.400000e-07	1.257284e-07	1.400565e-11	1.332810e+00	4.360468e-01
8.500000e-07	2.275984e-07	1.570002e-11	2.412702e+00	4.671046e-01
8.600000e-07	3.293435e-07	1.307288e-11	3.491273e+00	5.055761e-01
8.700000e-07	4.308853e-07	1.287224e-11	4.567686e+00	5.510075e-01
8.800000e-07	5.322693e-07	1.839163e-11	5.642428e+00	6.024210e-01
8.900000e-07	6.335372e-07	2.192141e-11	6.715939e+00	6.584407e-01
9.000000e-07	7.345820e-07	2.105226e-11	7.787086e+00	7.174487e-01
9.100000e-07	8.353201e-07	1.813591e-11	8.854980e+00	7.777527e-01
9.200000e-07	9.357748e-07	1.655117e-11	9.919870e+00	8.377456e-01
9.300000e-07	1.035894e-06	1.886654e-11	1.098121e+01	8.960426e-01
9.400000e-07	1.135732e-06	2.007892e-11	1.203956e+01	9.515831e-01
9.500000e-07	1.235289e-06	1.719633e-11	1.309493e+01	1.003689e+00
9.600000e-07	1.334461e-06	1.543179e-11	1.414623e+01	1.052083e+00
9.700000e-07	1.433196e-06	1.819857e-11	1.519288e+01	1.096858e+00
9.800000e-07	1.531403e-06	2.167592e-11	1.623395e+01	1.138426e+00
9.900000e-07	1.628877e-06	2.223012e-11	1.726724e+01	1.177435e+00
1.000000e-06	1.725529e-06	1.913122e-11	1.829182e+01	1.214679e+00
1.010000e-06	1.821488e-06	1.599916e-11	1.930906e+01	1.251015e+00
1.020000e-06	1.916813e-06	1.695856e-11	2.031957e+01	1.287280e+00
1.030000e-06	2.011521e-06	1.867806e-11	2.132353e+01	1.324235e+00
1.040000e-06	2.105535e-06	1.703499e-11	2.232015e+01	1.362525e+00
1.050000e-06	2.198771e-06	1.235732e-11	2.330852e+01	1.402659e+00
1.060000e-06	2.291330e-06	1.179182e-11	2.428971e+01	1.445009e+00
1.070000e-06	2.383259e-06	1.528762e-11	2.526423e+01	1.489818e+00
1.080000e-06	2.474436e-06	1.848104e-11	2.623076e+01	1.537212e+00
1.090000e-06	2.564689e-06	1.931657e-11	2.718750e+01	1.587222e+00
1.100000e-06	2.653845e-06	1.881959e-11	2.813262e+01	1.639787e+00
1.110000e-06	2.741918e-06	1.803096e-11	2.906626e+01	1.694766e+00
1.120000e-06	2.829045e-06	1.934890e-11	2.998986e+01	1.751932e+00
1.130000e-06	2.915302e-06	2.034282e-11	3.090425e+01	1.810972e+00
1.140000e-06	3.000604e-06	1.768854e-11	3.180851e+01	1.871479e+00
1.150000e-06	3.084909e-06	1.631431e-11	3.270220e+01	1.932956e+00
1.160000e-06	3.168361e-06	1.691358e-11	3.358685e+01	1.994828e+00
1.170000e-06	3.250761e-06	1.929550e-11	3.446035e+01	2.056461e+00
1.180000e-06	3.331739e-06	2.048802e-11	3.531878e+01	2.117196e+00
1.190000e-06	3.411438e-06	2.159413e-11	3.616364e+01	2.176401e+00
1.200000e-06	3.490028e-06	2.297711e-11	3.699675e+01	2.233519e+00
1.210000e-06	3.567377e-06	2.427238e-11	3.781670e+01	2.288121e+00
1.220000e-06	3.643490e-06	2.481031e-11	3.862356e+01	2.339957e+00
1.230000e-06	3.718266e-06	2.429348e-11	3.941623e+01	2.388984e+00
1.240000e-06	3.791426e-06	2.495759e-11	4.019178e+01	2.435378e+00
1.250000e-06	3.863024e-06	2.530924e-11	4.095077e+01	2.479521e+00
1.260000e-06	3.933221e-06	2.553548e-11	4.169491e+01	2.521961e+00
1.270000e-06	4.002048e-06	2.574726e-11	4.242452e+01	2.563346e+00
1.280000e-06	4.069633e-06	2.612194e-11	4.314097e+01	2.604339e+00
1.290000e-06	4.135800e-06	2.719931e-11	4.384239e+01	2.645532e+00
1.300000e-06	4.200252e-06	2.898991e-11	4.452562e+01	2.687344e+00
1.310000e-06	4.263151e-06	3.061781e-11	4.519240e+01	2.729953e+00
1.320000e-06	4.324654e-06	3.058362e-11	4.584437e+01	2.773230e+00
1.330000e-06	4.384816e-06	3.153469e-11	4.648213e+01	2.816721e+00
1.340000e-06	4.443638e-06	3.261773e-11	4.710569e+01	2.859656e+00
1.350000e-06	4.500760e-06	3.292343e-11	4.771121e+01	2.900998e+00
1.360000e-06	4.556074e-06	3.379295e-11	4.829758e+01	2.939532e+00
1.370000e-06	4.609756e-06	3.452912e-11	4.886665e+01	2.973969e+00
1.380000e-06	4.661745e-06	3.465130e-11	4.941778e+01	3.003072e+00
1.390000e-06	4.711798e-06	3.502070e-11	4.994837e+01	3.025784e+00
1.400000e-06	4.759812e-06	3.541525e-11	5.045736e+01	3.041339e+00
1.410000e-06	4.806025e-06	3.563342e-11	5.094725e+01	3.049347e+00
1.420000e-06	4.850636e-06	3.596151e-11	5.142015e+01	3.049851e+00
1.430000e-06	4.893680e-06	3.533579e-11	5.187644e+01	3.043331e+00
1.440000e-06	4.934883e-06	3.433862e-11	5.231323e+01	3.030673e+00
1.450000e-06	4.974193e-06	3.415134e-11	5.272994e+01	3.013092e+00
1.460000e-06	5.011810e-06	3.478095e-11	5.312871e+01	2.992029e+00
1.470000e-06	5.047849e-06	3.504894e-11	5.351075e+01	2.969020e+00
1.480000e-06	5.082161e-06	3.478824e-11	5.387448e+01	2.945568e+00
1.490000e-06	5.114461e-06	3.478682e-11	5.421688e+01	2.923015e+00
1.500000e-06	5.144960e-06	3.520340e-11	5.454020e+01	2.902445e+00
1.510000e-06	5.173843e-06	3.554158e-11	5.484637e+01	2.884612e+00
1.520000e-06	5.201033e-06	3.516892e-11	5.513461e+01	2.869910e+00
1.530000e-06	5.226249e-06	3.407423e-11	5.540191e+01	2.858391e+00
1.540000e-06	5.249417e-06	3.384317e-11	5.564750e+01	2.849810e+00
1.550000e-06	5.270796e-06	3.447408e-11	5.587414e+01	2.843714e+00
1.560000e-06	5.290528e-06	3.357753e-11	5.608332e+01	2.839539e+00
1.570000e-06	5.308485e-06	3.255319e-11	5.627367e+01	2.836720e+00
1.580000e-06	5.324440e-06	3.336047e-11	5.644280e+01	2.834796e+00
1.590000e-06	5.338448e-06	3.382402e-11	5.659130e+01	2.833481e+00
1.600000e-06	5.350542e-06	3.378048e-11	5.671950e+01	2.832720e+00
1.610000e-06	5.360423e-06	3.400069e-11	5.682425e+01	2.832699e+00
1.620000e-06	5.368113e-06	3.434146e-11	5.690576e+01	2.833812e+00
1.630000e-06	5.373981e-06	3.462422e-11	5.696798e+01	2.836602e+00
1.640000e-06	5.378188e-06	3.596163e-11	5.701257e+01	2.841668e+00
1.650000e-06	5.380582e-06	3.611007e-11	5.703795e+01	2.849557e+00
1.660000e-06	5.380917e-06	3.543625e-11	5.704150e+01	2.860653e+00
1.670000e-06	5.379398e-06	3.749700e-11	5.702539e+01	2.875086e+00
1.680000e-06	5.376245e-06	3.744609e-11	5.699197e+01	2.892650e+00
1.690000e-06	5.371452e-06	3.651505e-11	5.694117e+01	2.912780e+00
1.700000e-06	5.364801e-06	3.608794e-11	5.687066e+01	2.934549e+00
1.710000e-06	5.356298e-06	3.823243e-11	5.678052e+01	2.956725e+00
1.720000e-06	5.346183e-06	4.131965e-11	5.667330e+01	2.977863e+00
1.730000e-06	5.334426e-06	3.583296e-11	5.654866e+01	2.996428e+00
1.740000e-06	5.320872e-06	5.126007e-11	5.640498e+01	3.010934e+00
1.750000e-06	5.305178e-06	6.699161e-11	5.623861e+01	3.020095e+00
1.760000e-06	5.287021e-06	4.514983e-11	5.604613e+01	3.022954e+00
1.770000e-06	5.266278e-06	4.175523e-11	5.582625e+01	3.018983e+00
1.780000e-06	5.243206e-06	1.063591e-11	5.558167e+01	3.008151e+00
1.790000e-06	5.218810e-06	1.212937e-11	5.532306e+01	2.990933e+00
1.800000e-06	5.193719e-06	1.042463e-10	5.505707e+01	2.968265e+00
1.810000e-06	5.167117e-06	3.160845e-11	5.477507e+01	2.941460e+00
1.820000e-06	5.138421e-06	1.502661e-11	5.447087e+01	2.912066e+00
1.830000e-06	5.108127e-06	7.873265e-11	5.414974e+01	2.881713e+00
1.840000e-06	5.076116e-06	-8.889371e-12	5.381040e+01	2.851934e+00
1.850000e-06	5.041947e-06	5.654159e-11	5.344818e+01	2.824004e+00
1.860000e-06	5.006133e-06	8.854313e-11	5.306853e+01	2.798800e+00
1.870000e-06	4.968675e-06	-4.111691e-11	5.267145e+01	2.776703e+00
1.880000e-06	4.929235e-06	4.401203e-11	5.225336e+01	2.757554e+00
1.890000e-06	4.888043e-06	8.487897e-11	5.181669e+01	2.740674e+00
1.900000e-06	4.845112e-06	1.365210e-11	5.136159e+01	2.724930e+00
1.910000e-06	4.800694e-06	5.024291e-11	5.089073e+01	2.708866e+00
1.920000e-06	4.754658e-06	2.548761e-11	5.040272e+01	2.690865e+00
1.930000e-06	4.706632e-06	6.213667e-11	4.989360e+01	2.669331e+00
1.940000e-06	4.656943e-06	7.240258e-11	4.936687e+01	2.642874e+00
1.950000e-06	4.605654e-06	1.859583e-11	4.882317e+01	2.610470e+00
1.960000e-06	4.552469e-06	4.712387e-11	4.825937e+01	2.571586e+00
1.970000e-06	4.497257e-06	4.595964e-11	4.767409e+01	2.526245e+00
1.980000e-06	4.440363e-06	6.786691e-11	4.707097e+01	2.475033e+00
1.990000e-06	4.382062e-06	4.003329e-11	4.645293e+01	2.419040e+00
2.000000e-06	4.322285e-06	1.672690e-11	4.581926e+01	2.359741e+00
2.010000e-06	4.261084e-06	4.833834e-11	4.517049e+01	2.298836e+00
2.020000e-06	4.198257e-06	2.840581e-11	4.450447e+01	2.238054e+00
2.030000e-06	4.133655e-06	6.353661e-11	4.381965e+01	2.178957e+00
2.040000e-06	4.067483e-06	3.100824e-11	4.311818e+01	2.122765e+00
2.050000e-06	3.999982e-06	7.667088e-12	4.240262e+01	2.070207e+00
2.060000e-06	3.931171e-06	5.213906e-11	4.167318e+01	2.021438e+00
2.070000e-06	3.860696e-06	4.480610e-11	4.092609e+01	1.976012e+00
2.080000e-06	3.788641e-06	4.438959e-11	4.016226e+01	1.932934e+00
2.090000e-06	3.715366e-06	6.875641e-12	3.938549e+01	1.890765e+00
2.100000e-06	3.640823e-06	2.234976e-11	3.859529e+01	1.847787e+00
2.110000e-06	3.564907e-06	5.049637e-11	3.779052e+01	1.802194e+00
2.120000e-06	3.487455e-06	3.598556e-11	3.696948e+01	1.752302e+00
2.130000e-06	3.408497e-06	2.364869e-11	3.613246e+01	1.696736e+00
2.140000e-06	3.328221e-06	1.306460e-11	3.528148e+01	1.634590e+00
2.150000e-06	3.246807e-06	3.943430e-11	3.441844e+01	1.565529e+00
2.160000e-06	3.164335e-06	3.338900e-11	3.354417e+01	1.489824e+00
2.170000e-06	3.080823e-06	2.878108e-11	3.265889e+01	1.408322e+00
2.180000e-06	2.996381e-06	2.802888e-11	3.176374e+01	1.322347e+00
2.190000e-06	2.910834e-06	1.793001e-11	3.085689e+01	1.233548e+00
2.200000e-06	2.824021e-06	2.531636e-11	2.993660e+01	1.143717e+00
2.210000e-06	2.736017e-06	3.077700e-11	2.900370e+01	1.054587e+00
2.220000e-06	2.647072e-06	2.611905e-11	2.806083e+01	9.676520e-01
2.230000e-06	2.557330e-06	6.398382e-12	2.710950e+01	8.840124e-01
2.240000e-06	2.466692e-06	1.367659e-11	2.614867e+01	8.042791e-01
2.250000e-06	2.375286e-06	2.292518e-11	2.517970e+01	7.285398e-01
2.260000e-06	2.283267e-06	1.703627e-11	2.420423e+01	6.563933e-01
2.270000e-06	2.190568e-06	1.250011e-11	2.322156e+01	5.870464e-01
2.280000e-06	2.096981e-06	1.352022e-11	2.222947e+01	5.194612e-01
2.290000e-06	2.002440e-06	1.597319e-11	2.122727e+01	4.525327e-01
2.300000e-06	1.907068e-06	1.205325e-11	2.021626e+01	3.852748e-01
2.310000e-06	1.810971e-06	1.255674e-11	1.919756e+01	3.169898e-01
2.320000e-06	1.714219e-06	1.061572e-11	1.817193e+01	2.473998e-01
2.330000e-06	1.616987e-06	4.720037e-12	1.714120e+01	1.767233e-01
2.340000e-06	1.519350e-06	1.421723e-12	1.610618e+01	1.056852e-01
2.350000e-06	1.421124e-06	6.465102e-12	1.506492e+01	3.545894e-02
2.360000e-06	1.322342e-06	8.871102e-12	1.401775e+01	-3.245276e-02
2.370000e-06	1.223159e-06	4.181990e-12	1.296635e+01	-9.638591e-02
2.380000e-06	1.123641e-06	1.455198e-12	1.191138e+01	-1.547107e-01
2.390000e-06	1.023803e-06	1.864336e-12	1.085303e+01	-2.060321e-01
2.400000e-06	9.237385e-07	3.561176e-12	9.792277e+00	-2.493704e-01
2.410000e-06	8.234389e-07	2.642316e-12	8.729030e+00	-2.843017e-01
2.420000e-06	7.228162e-07	-2.162013e-12	7.662360e+00	-3.110391e-01
2.430000e-06	6.220172e-07	-6.686272e-12	6.593819e+00	-3.304468e-01
2.440000e-06	5.210765e-07	-5.355943e-12	5.523777e+00	-3.439841e-01
2.450000e-06	4.197908e-07	6.305492e-13	4.450077e+00	-3.535848e-01
2.460000e-06	3.181823e-07	4.015210e-12	3.372955e+00	-3.614875e-01
2.470000e-06	2.164885e-07	-7.432948e-13	2.294930e+00	-3.700343e-01
2.480000e-06	1.147817e-07	-4.113035e-12	1.216767e+00	-3.814601e-01
2.490000e-06	1.297655e-08	1.558386e-12	1.375606e-01	-3.976968e-01
2.500000e-06	-8.892896e-08	5.906052e-12	-9.427094e-01	-4.202110e-01
2.510000e-06	-1.907482e-07	5.780006e-13	-2.022065e+00	-4.498935e-01
2.520000e-06	-2.923081e-07	-6.945989e-12	-3.098672e+00	-4.870085e-01
2.530000e-06	-3.937505e-07	-7.197178e-12	-4.174032e+00	-5.312060e-01
2.540000e-06	-4.950849e-07	-3.387317e-12	-5.248248e+00	-5.815934e-01
2.550000e-06	-5.960678e-07	-2.453257e-12	-6.318737e+00	-6.368552e-01
2.560000e-06	-6.967207e-07	-7.442349e-12	-7.385729e+00	-6.954045e-01
2.570000e-06	-7.971512e-07	-1.181526e-11	-8.450363e+00	-7.555502e-01
2.580000e-06	-8.973296e-07	-1.017836e-11	-9.512324e+00	-8.156589e-01
2.590000e-06	-9.972681e-07	-5.436125e-12	-1.057174e+01	-8.742977e-01
2.600000e-06	-1.096943e-06	-5.775712e-12	-1.162836e+01	-9.303424e-01
2.610000e-06	-1.196228e-06	-1.204956e-11	-1.268086e+01	-9.830446e-01
2.620000e-06	-1.295109e-06	-1.664987e-11	-1.372907e+01	-1.032055e+00
2.630000e-06	-1.393596e-06	-1.516026e-11	-1.477310e+01	-1.077405e+00
2.640000e-06	-1.491628e-06	-1.242343e-11	-1.581230e+01	-1.119455e+00
2.650000e-06	-1.589117e-06	-1.565569e-11	-1.684575e+01	-1.158816e+00
2.660000e-06	-1.686061e-06	-2.078179e-11	-1.787343e+01	-1.196264e+00
2.670000e-06	-1.782609e-06	-2.173313e-11	-1.889691e+01	-1.232650e+00
2.680000e-06	-1.878740e-06	-1.879117e-11	-1.991597e+01	-1.268820e+00
2.690000e-06	-1.974182e-06	-1.802018e-11	-2.092771e+01	-1.305551e+00
2.700000e-06	-2.068679e-06	-2.140354e-11	-2.192945e+01	-1.343512e+00
2.710000e-06	-2.162109e-06	-2.528711e-11	-2.291987e+01	-1.383237e+00
2.720000e-06	-2.254645e-06	-2.583204e-11	-2.390082e+01	-1.425121e+00
2.730000e-06	-2.346487e-06	-2.390858e-11	-2.487441e+01	-1.469429e+00
2.740000e-06	-2.437588e-06	-2.437937e-11	-2.584014e+01	-1.516307e+00
2.750000e-06	-2.527783e-06	-2.706588e-11	-2.679627e+01	-1.565803e+00
2.760000e-06	-2.616985e-06	-2.854291e-11	-2.774188e+01	-1.617870e+00
2.770000e-06	-2.705423e-06	-2.810269e-11	-2.867939e+01	-1.672383e+00
2.780000e-06	-2.793161e-06	-2.792037e-11	-2.960946e+01	-1.729130e+00
2.790000e-06	-2.879830e-06	-3.005192e-11	-3.052822e+01	-1.787813e+00
2.800000e-06	-2.965183e-06	-3.170075e-11	-3.143302e+01	-1.848043e+00
2.810000e-06	-3.049404e-06	-3.197038e-11	-3.232583e+01	-1.909338e+00
2.820000e-06	-3.132649e-06	-3.119200e-11	-3.320828e+01	-1.971136e+00
2.830000e-06	-3.214835e-06	-3.117953e-11	-3.407950e+01	-2.032809e+00
2.840000e-06	-3.295998e-06	-3.328650e-11	-3.493989e+01	-2.093704e+00
2.850000e-06	-3.376202e-06	-3.523487e-11	-3.579011e+01	-2.153177e+00
2.860000e-06	-3.455112e-06	-3.727732e-11	-3.662662e+01	-2.210653e+00
2.870000e-06	-3.532436e-06	-3.890232e-11	-3.744630e+01	-2.265680e+00
2.880000e-06	-3.608263e-06	-3.996289e-11	-3.825013e+01	-2.317970e+00
2.890000e-06	-3.682670e-06	-4.014603e-11	-3.903889e+01	-2.367443e+00
2.900000e-06	-3.755768e-06	-4.077374e-11	-3.981379e+01	-2.414235e+00
2.910000e-06	-3.827677e-06	-4.214276e-11	-4.057607e+01	-2.458695e+00
2.920000e-06	-3.898128e-06	-4.209222e-11	-4.132289e+01	-2.501344e+00
2.930000e-06	-3.966985e-06	-4.198793e-11	-4.205283e+01	-2.542819e+00
2.940000e-06	-4.034450e-06	-4.170974e-11	-4.276800e+01	-2.583786e+00
