# Temperatura_=_20.0
# Concentracion g/m^3_=_9000.0
# C_Vs_to_Am_M_A/Vsm_=_65563218390.804596
# pendiente_HvsI_1/m_=_3716.3
# ordenada_HvsI_A/m_=_1297.0
# frecuencia_Hz_=_300870.5559926873

Tiempo_(s)	Campo_(V.s)	Magnetizacion_(V.s)	Campo_(kA/m)	Magnetizacion_(A/m)
0.000000e+00	-5.348995e-06	-4.288289e-09	-5.680430e+01	-2.819623e+02
1.000000e-08	-5.347335e-06	-4.288280e-09	-5.678667e+01	-2.818417e+02
2.000000e-08	-5.343796e-06	-4.288872e-09	-5.674910e+01	-2.816895e+02
3.000000e-08	-5.338609e-06	-4.288843e-09	-5.669401e+01	-2.815088e+02
4.000000e-08	-5.331797e-06	-4.283840e-09	-5.662167e+01	-2.813027e+02
5.000000e-08	-5.323233e-06	-4.277220e-09	-5.653073e+01	-2.810742e+02
6.000000e-08	-5.312637e-06	-4.274146e-09	-5.641819e+01	-2.808260e+02
7.000000e-08	-5.300121e-06	-4.264594e-09	-5.628528e+01	-2.805601e+02
8.000000e-08	-5.285729e-06	-4.260415e-09	-5.613244e+01	-2.802774e+02
9.000000e-08	-5.269195e-06	-4.290293e-09	-5.595686e+01	-2.799781e+02
1.000000e-07	-5.250578e-06	-4.302977e-09	-5.575916e+01	-2.796610e+02
1.100000e-07	-5.230052e-06	-4.287029e-09	-5.554118e+01	-2.793242e+02
1.200000e-07	-5.207684e-06	-4.259970e-09	-5.530364e+01	-2.789651e+02
1.300000e-07	-5.183571e-06	-4.191360e-09	-5.504756e+01	-2.785808e+02
1.400000e-07	-5.157858e-06	-4.199694e-09	-5.477450e+01	-2.781683e+02
1.500000e-07	-5.130620e-06	-4.277893e-09	-5.448524e+01	-2.777249e+02
1.600000e-07	-5.101856e-06	-4.221043e-09	-5.417979e+01	-2.772482e+02
1.700000e-07	-5.071616e-06	-4.195031e-09	-5.385865e+01	-2.767367e+02
1.800000e-07	-5.039523e-06	-4.201047e-09	-5.351784e+01	-2.761897e+02
1.900000e-07	-5.005347e-06	-4.163839e-09	-5.315490e+01	-2.756071e+02
2.000000e-07	-4.969690e-06	-4.236670e-09	-5.277623e+01	-2.749894e+02
2.100000e-07	-4.932492e-06	-4.218080e-09	-5.238120e+01	-2.743377e+02
2.200000e-07	-4.893334e-06	-4.122354e-09	-5.196535e+01	-2.736532e+02
2.300000e-07	-4.852269e-06	-4.150586e-09	-5.152926e+01	-2.729367e+02
2.400000e-07	-4.809344e-06	-4.180415e-09	-5.107341e+01	-2.721889e+02
2.500000e-07	-4.764717e-06	-4.162457e-09	-5.059949e+01	-2.714099e+02
2.600000e-07	-4.718345e-06	-4.124419e-09	-5.010704e+01	-2.705990e+02
2.700000e-07	-4.669976e-06	-4.076856e-09	-4.959339e+01	-2.697549e+02
2.800000e-07	-4.619577e-06	-4.103430e-09	-4.905816e+01	-2.688753e+02
2.900000e-07	-4.567337e-06	-4.115715e-09	-4.850340e+01	-2.679577e+02
3.000000e-07	-4.513401e-06	-4.069820e-09	-4.793062e+01	-2.669988e+02
3.100000e-07	-4.457874e-06	-4.034249e-09	-4.734094e+01	-2.659955e+02
3.200000e-07	-4.400684e-06	-4.033884e-09	-4.673360e+01	-2.649444e+02
3.300000e-07	-4.341795e-06	-4.038148e-09	-4.610822e+01	-2.638428e+02
3.400000e-07	-4.281432e-06	-4.011359e-09	-4.546719e+01	-2.626882e+02
3.500000e-07	-4.219679e-06	-3.993055e-09	-4.481140e+01	-2.614786e+02
3.600000e-07	-4.156431e-06	-3.951737e-09	-4.413973e+01	-2.602129e+02
3.700000e-07	-4.091551e-06	-3.937688e-09	-4.345073e+01	-2.588903e+02
3.800000e-07	-4.025085e-06	-3.952797e-09	-4.274488e+01	-2.575108e+02
3.900000e-07	-3.957179e-06	-3.910276e-09	-4.202375e+01	-2.560742e+02
4.000000e-07	-3.887866e-06	-3.864926e-09	-4.128767e+01	-2.545809e+02
4.100000e-07	-3.817293e-06	-3.858858e-09	-4.053821e+01	-2.530309e+02
4.200000e-07	-3.745506e-06	-3.858570e-09	-3.977586e+01	-2.514238e+02
4.300000e-07	-3.672215e-06	-3.817638e-09	-3.899754e+01	-2.497587e+02
4.400000e-07	-3.597246e-06	-3.772283e-09	-3.820140e+01	-2.480341e+02
4.500000e-07	-3.520802e-06	-3.758422e-09	-3.738959e+01	-2.462478e+02
4.600000e-07	-3.443027e-06	-3.743188e-09	-3.656364e+01	-2.443968e+02
4.700000e-07	-3.363890e-06	-3.708455e-09	-3.572324e+01	-2.424774e+02
4.800000e-07	-3.283443e-06	-3.667800e-09	-3.486892e+01	-2.404857e+02
4.900000e-07	-3.201749e-06	-3.635977e-09	-3.400137e+01	-2.384173e+02
5.000000e-07	-3.119019e-06	-3.614822e-09	-3.312281e+01	-2.362676e+02
5.100000e-07	-3.035396e-06	-3.589566e-09	-3.223476e+01	-2.340323e+02
5.200000e-07	-2.950859e-06	-3.549788e-09	-3.133700e+01	-2.317074e+02
5.300000e-07	-2.865306e-06	-3.501677e-09	-3.042847e+01	-2.292892e+02
5.400000e-07	-2.778789e-06	-3.464494e-09	-2.950969e+01	-2.267743e+02
5.500000e-07	-2.691469e-06	-3.438614e-09	-2.858238e+01	-2.241597e+02
5.600000e-07	-2.603194e-06	-3.396335e-09	-2.764493e+01	-2.214426e+02
5.700000e-07	-2.513731e-06	-3.339787e-09	-2.669487e+01	-2.186201e+02
5.800000e-07	-2.423170e-06	-3.290002e-09	-2.573315e+01	-2.156891e+02
5.900000e-07	-2.331739e-06	-3.254831e-09	-2.476219e+01	-2.126458e+02
6.000000e-07	-2.239603e-06	-3.209745e-09	-2.378374e+01	-2.094855e+02
6.100000e-07	-2.146803e-06	-3.149039e-09	-2.279824e+01	-2.062024e+02
6.200000e-07	-2.053182e-06	-3.092236e-09	-2.180401e+01	-2.027894e+02
6.300000e-07	-1.958767e-06	-3.043844e-09	-2.080136e+01	-1.992377e+02
6.400000e-07	-1.863803e-06	-2.993932e-09	-1.979289e+01	-1.955374e+02
6.500000e-07	-1.768335e-06	-2.932072e-09	-1.877905e+01	-1.916770e+02
6.600000e-07	-1.672185e-06	-2.866744e-09	-1.775797e+01	-1.876434e+02
6.700000e-07	-1.575194e-06	-2.801705e-09	-1.672796e+01	-1.834226e+02
6.800000e-07	-1.477443e-06	-2.735974e-09	-1.568989e+01	-1.789991e+02
6.900000e-07	-1.379161e-06	-2.664788e-09	-1.464617e+01	-1.743565e+02
7.000000e-07	-1.280443e-06	-2.586727e-09	-1.359782e+01	-1.694770e+02
7.100000e-07	-1.181280e-06	-2.505124e-09	-1.254474e+01	-1.643415e+02
7.200000e-07	-1.081712e-06	-2.422601e-09	-1.148737e+01	-1.589293e+02
7.300000e-07	-9.817797e-07	-2.338957e-09	-1.042613e+01	-1.532181e+02
7.400000e-07	-8.815587e-07	-2.246355e-09	-9.361820e+00	-1.471832e+02
7.500000e-07	-7.811094e-07	-2.146288e-09	-8.295087e+00	-1.407981e+02
7.600000e-07	-6.803672e-07	-2.041859e-09	-7.225243e+00	-1.340340e+02
7.700000e-07	-5.793384e-07	-1.934631e-09	-6.152355e+00	-1.268605e+02
7.800000e-07	-4.781286e-07	-1.819259e-09	-5.077545e+00	-1.192462e+02
7.900000e-07	-3.767501e-07	-1.693515e-09	-4.000943e+00	-1.111600e+02
8.000000e-07	-2.752265e-07	-1.561975e-09	-2.922801e+00	-1.025724e+02
8.100000e-07	-1.736441e-07	-1.424924e-09	-1.844034e+00	-9.345801e+01
8.200000e-07	-7.197852e-08	-1.276169e-09	-7.643847e-01	-8.379722e+01
8.300000e-07	2.975429e-08	-1.115370e-09	3.159793e-01	-7.357927e+01
8.400000e-07	1.314478e-07	-9.507282e-10	1.395926e+00	-6.280445e+01
8.500000e-07	2.331004e-07	-7.796754e-10	2.475438e+00	-5.148646e+01
8.600000e-07	3.346898e-07	-5.994315e-10	3.554279e+00	-3.965421e+01
8.700000e-07	4.361499e-07	-4.115447e-10	4.631747e+00	-2.735302e+01
8.800000e-07	5.374094e-07	-2.182237e-10	5.707085e+00	-1.464491e+01
8.900000e-07	6.384693e-07	-1.851090e-11	6.780303e+00	-1.607926e+00
9.000000e-07	7.393736e-07	1.848918e-10	7.851869e+00	1.166555e+01
9.100000e-07	8.400098e-07	3.898427e-10	8.920587e+00	2.507152e+01
9.200000e-07	9.403177e-07	5.953141e-10	9.985818e+00	3.849796e+01
9.300000e-07	1.040351e-06	7.971463e-10	1.104813e+01	5.182912e+01
9.400000e-07	1.140072e-06	9.969985e-10	1.210714e+01	6.495019e+01
9.500000e-07	1.239435e-06	1.194109e-09	1.316233e+01	7.775207e+01
9.600000e-07	1.338380e-06	1.385244e-09	1.421309e+01	9.013595e+01
9.700000e-07	1.436889e-06	1.564735e-09	1.525921e+01	1.020172e+02
9.800000e-07	1.534908e-06	1.733776e-09	1.630014e+01	1.133283e+02
9.900000e-07	1.632203e-06	1.896832e-09	1.733338e+01	1.240212e+02
1.000000e-06	1.728635e-06	2.053307e-09	1.835746e+01	1.340676e+02
1.010000e-06	1.824261e-06	2.199092e-09	1.937296e+01	1.434590e+02
1.020000e-06	1.919240e-06	2.331045e-09	2.038161e+01	1.522047e+02
1.030000e-06	2.013654e-06	2.454182e-09	2.138425e+01	1.603291e+02
1.040000e-06	2.107430e-06	2.568494e-09	2.238011e+01	1.678690e+02
1.050000e-06	2.200492e-06	2.674386e-09	2.336840e+01	1.748693e+02
1.060000e-06	2.292850e-06	2.772892e-09	2.434920e+01	1.813793e+02
1.070000e-06	2.384564e-06	2.865324e-09	2.532317e+01	1.874493e+02
1.080000e-06	2.475614e-06	2.949675e-09	2.629009e+01	1.931272e+02
1.090000e-06	2.565727e-06	3.028609e-09	2.724705e+01	1.984565e+02
1.100000e-06	2.654594e-06	3.106986e-09	2.819078e+01	2.034742e+02
1.110000e-06	2.742290e-06	3.181012e-09	2.912209e+01	2.082106e+02
1.120000e-06	2.829080e-06	3.247033e-09	3.004376e+01	2.126886e+02
1.130000e-06	2.914985e-06	3.307888e-09	3.095604e+01	2.169255e+02
1.140000e-06	2.999946e-06	3.369452e-09	3.185830e+01	2.209330e+02
1.150000e-06	3.083963e-06	3.429085e-09	3.275052e+01	2.247198e+02
1.160000e-06	3.167076e-06	3.483292e-09	3.363315e+01	2.282924e+02
1.170000e-06	3.249134e-06	3.531293e-09	3.450457e+01	2.316567e+02
1.180000e-06	3.329927e-06	3.578672e-09	3.536256e+01	2.348195e+02
1.190000e-06	3.409434e-06	3.625360e-09	3.620690e+01	2.377888e+02
1.200000e-06	3.487665e-06	3.667521e-09	3.703769e+01	2.405743e+02
1.210000e-06	3.564698e-06	3.703972e-09	3.785574e+01	2.431876e+02
1.220000e-06	3.640522e-06	3.738817e-09	3.866097e+01	2.456414e+02
1.230000e-06	3.714980e-06	3.774059e-09	3.945169e+01	2.479491e+02
1.240000e-06	3.787868e-06	3.805908e-09	4.022573e+01	2.501241e+02
1.250000e-06	3.859214e-06	3.836953e-09	4.098340e+01	2.521790e+02
1.260000e-06	3.929169e-06	3.866310e-09	4.172629e+01	2.541251e+02
1.270000e-06	3.997790e-06	3.894120e-09	4.245502e+01	2.559718e+02
1.280000e-06	4.065135e-06	3.921574e-09	4.317020e+01	2.577269e+02
1.290000e-06	4.130980e-06	3.947390e-09	4.386945e+01	2.593961e+02
1.300000e-06	4.195140e-06	3.970429e-09	4.455080e+01	2.609839e+02
1.310000e-06	4.257792e-06	3.992184e-09	4.521614e+01	2.624935e+02
1.320000e-06	4.319054e-06	4.014334e-09	4.586672e+01	2.639274e+02
1.330000e-06	4.379018e-06	4.034765e-09	4.650352e+01	2.652884e+02
1.340000e-06	4.437617e-06	4.054705e-09	4.712582e+01	2.665791e+02
1.350000e-06	4.494470e-06	4.075013e-09	4.772957e+01	2.678027e+02
1.360000e-06	4.549589e-06	4.094043e-09	4.831491e+01	2.689630e+02
1.370000e-06	4.603163e-06	4.111676e-09	4.888385e+01	2.700641e+02
1.380000e-06	4.654963e-06	4.127990e-09	4.943395e+01	2.711103e+02
1.390000e-06	4.704692e-06	4.144677e-09	4.996205e+01	2.721059e+02
1.400000e-06	4.752447e-06	4.161729e-09	5.046919e+01	2.730545e+02
1.410000e-06	4.798523e-06	4.176662e-09	5.095850e+01	2.739591e+02
1.420000e-06	4.843033e-06	4.189178e-09	5.143118e+01	2.748217e+02
1.430000e-06	4.885980e-06	4.202295e-09	5.188727e+01	2.756433e+02
1.440000e-06	4.927057e-06	4.215726e-09	5.232348e+01	2.764237e+02
1.450000e-06	4.966264e-06	4.226515e-09	5.273985e+01	2.771620e+02
1.460000e-06	5.003862e-06	4.236327e-09	5.313912e+01	2.778571e+02
1.470000e-06	5.039843e-06	4.246555e-09	5.352123e+01	2.785072e+02
1.480000e-06	5.074022e-06	4.256590e-09	5.388419e+01	2.791111e+02
1.490000e-06	5.106226e-06	4.265457e-09	5.422619e+01	2.796680e+02
1.500000e-06	5.136641e-06	4.273711e-09	5.454919e+01	2.801777e+02
1.510000e-06	5.165438e-06	4.281661e-09	5.485500e+01	2.806411e+02
1.520000e-06	5.192538e-06	4.288723e-09	5.514279e+01	2.810596e+02
1.530000e-06	5.217644e-06	4.295927e-09	5.540941e+01	2.814354e+02
1.540000e-06	5.240705e-06	4.302068e-09	5.565430e+01	2.817709e+02
1.550000e-06	5.261995e-06	4.307359e-09	5.588040e+01	2.820686e+02
1.560000e-06	5.281656e-06	4.312440e-09	5.608919e+01	2.823309e+02
1.570000e-06	5.299485e-06	4.315670e-09	5.627853e+01	2.825594e+02
1.580000e-06	5.315281e-06	4.318592e-09	5.644628e+01	2.827553e+02
1.590000e-06	5.329156e-06	4.322658e-09	5.659362e+01	2.829190e+02
1.600000e-06	5.341114e-06	4.325785e-09	5.672062e+01	2.830500e+02
1.610000e-06	5.350947e-06	4.328003e-09	5.682504e+01	2.831475e+02
1.620000e-06	5.358678e-06	4.330108e-09	5.690714e+01	2.832105e+02
1.630000e-06	5.364524e-06	4.332060e-09	5.696921e+01	2.832380e+02
1.640000e-06	5.368637e-06	4.333239e-09	5.701290e+01	2.832291e+02
1.650000e-06	5.370969e-06	4.334867e-09	5.703766e+01	2.831838e+02
1.660000e-06	5.371330e-06	4.334485e-09	5.704150e+01	2.831029e+02
1.670000e-06	5.369830e-06	4.329459e-09	5.702556e+01	2.829877e+02
1.680000e-06	5.366658e-06	4.326055e-09	5.699188e+01	2.828406e+02
1.690000e-06	5.361817e-06	4.324359e-09	5.694047e+01	2.826644e+02
1.700000e-06	5.355105e-06	4.323501e-09	5.686919e+01	2.824622e+02
1.710000e-06	5.346526e-06	4.320572e-09	5.677808e+01	2.822371e+02
1.720000e-06	5.336333e-06	4.316466e-09	5.666984e+01	2.819919e+02
1.730000e-06	5.324556e-06	4.322006e-09	5.654477e+01	2.817287e+02
1.740000e-06	5.310978e-06	4.294684e-09	5.640058e+01	2.814486e+02
1.750000e-06	5.295229e-06	4.253740e-09	5.623333e+01	2.811519e+02
1.760000e-06	5.276988e-06	4.248284e-09	5.603962e+01	2.808377e+02
1.770000e-06	5.256156e-06	4.252765e-09	5.581840e+01	2.805042e+02
1.780000e-06	5.233081e-06	4.323863e-09	5.557335e+01	2.801490e+02
1.790000e-06	5.208699e-06	4.348501e-09	5.531442e+01	2.797690e+02
1.800000e-06	5.183604e-06	4.226538e-09	5.504791e+01	2.793614e+02
1.810000e-06	5.157026e-06	4.255007e-09	5.476567e+01	2.789233e+02
1.820000e-06	5.128340e-06	4.274324e-09	5.446104e+01	2.784523e+02
1.830000e-06	5.098096e-06	4.245708e-09	5.413985e+01	2.779467e+02
1.840000e-06	5.066110e-06	4.326031e-09	5.380018e+01	2.774057e+02
1.850000e-06	5.031883e-06	4.219652e-09	5.343670e+01	2.768290e+02
1.860000e-06	4.995965e-06	4.165549e-09	5.305526e+01	2.762172e+02
1.870000e-06	4.958457e-06	4.285669e-09	5.265694e+01	2.755711e+02
1.880000e-06	4.919059e-06	4.207301e-09	5.223855e+01	2.748919e+02
1.890000e-06	4.877861e-06	4.144769e-09	5.180104e+01	2.741807e+02
1.900000e-06	4.834868e-06	4.162182e-09	5.134447e+01	2.734381e+02
1.910000e-06	4.790402e-06	4.144061e-09	5.087226e+01	2.726643e+02
1.920000e-06	4.744350e-06	4.200343e-09	5.038321e+01	2.718589e+02
1.930000e-06	4.696314e-06	4.120099e-09	4.987308e+01	2.710204e+02
1.940000e-06	4.646603e-06	4.086124e-09	4.934517e+01	2.701470e+02
1.950000e-06	4.595258e-06	4.131862e-09	4.879991e+01	2.692360e+02
1.960000e-06	4.542037e-06	4.078081e-09	4.823472e+01	2.682843e+02
1.970000e-06	4.486808e-06	4.085440e-09	4.764821e+01	2.672888e+02
1.980000e-06	4.429825e-06	4.054225e-09	4.704307e+01	2.662461e+02
1.990000e-06	4.371423e-06	4.021175e-09	4.642286e+01	2.651533e+02
2.000000e-06	4.311590e-06	4.022987e-09	4.578746e+01	2.640079e+02
2.010000e-06	4.250367e-06	4.014510e-09	4.513729e+01	2.628079e+02
2.020000e-06	4.187457e-06	4.008708e-09	4.446921e+01	2.615519e+02
2.030000e-06	4.122805e-06	3.923721e-09	4.378263e+01	2.602392e+02
2.040000e-06	4.056705e-06	3.938871e-09	4.308068e+01	2.588694e+02
2.050000e-06	3.989244e-06	3.958496e-09	4.236427e+01	2.574426e+02
2.060000e-06	3.920489e-06	3.891328e-09	4.163411e+01	2.559591e+02
2.070000e-06	3.850116e-06	3.858152e-09	4.088677e+01	2.544188e+02
2.080000e-06	3.778132e-06	3.831874e-09	4.012233e+01	2.528215e+02
2.090000e-06	3.704927e-06	3.845073e-09	3.934492e+01	2.511665e+02
2.100000e-06	3.630424e-06	3.800774e-09	3.855373e+01	2.494523e+02
2.110000e-06	3.554473e-06	3.755047e-09	3.774716e+01	2.476769e+02
2.120000e-06	3.477061e-06	3.741952e-09	3.692508e+01	2.458373e+02
2.130000e-06	3.398181e-06	3.708769e-09	3.608740e+01	2.439300e+02
2.140000e-06	3.317961e-06	3.691344e-09	3.523549e+01	2.419512e+02
2.150000e-06	3.236603e-06	3.651542e-09	3.437150e+01	2.398964e+02
2.160000e-06	3.154177e-06	3.614378e-09	3.349617e+01	2.377611e+02
2.170000e-06	3.070726e-06	3.568090e-09	3.260995e+01	2.355411e+02
2.180000e-06	2.986335e-06	3.543202e-09	3.171375e+01	2.332321e+02
2.190000e-06	2.900847e-06	3.523083e-09	3.080590e+01	2.308304e+02
2.200000e-06	2.814118e-06	3.466962e-09	2.988487e+01	2.283326e+02
2.210000e-06	2.726272e-06	3.416134e-09	2.895197e+01	2.257357e+02
2.220000e-06	2.637473e-06	3.384013e-09	2.800896e+01	2.230367e+02
2.230000e-06	2.547841e-06	3.362454e-09	2.705711e+01	2.202329e+02
2.240000e-06	2.457366e-06	3.309867e-09	2.609630e+01	2.173211e+02
2.250000e-06	2.366103e-06	3.255935e-09	2.512712e+01	2.142978e+02
2.260000e-06	2.274200e-06	3.213915e-09	2.415115e+01	2.111584e+02
2.270000e-06	2.181628e-06	3.167177e-09	2.316806e+01	2.078974e+02
2.280000e-06	2.088196e-06	3.114308e-09	2.217585e+01	2.045077e+02
2.290000e-06	1.993801e-06	3.059309e-09	2.117342e+01	2.009811e+02
2.300000e-06	1.898578e-06	3.004365e-09	2.016218e+01	1.973078e+02
2.310000e-06	1.802613e-06	2.941820e-09	1.914307e+01	1.934765e+02
2.320000e-06	1.705995e-06	2.884504e-09	1.811703e+01	1.894744e+02
2.330000e-06	1.608872e-06	2.826541e-09	1.708561e+01	1.852878e+02
2.340000e-06	1.511257e-06	2.758569e-09	1.604898e+01	1.809013e+02
2.350000e-06	1.413144e-06	2.684883e-09	1.500706e+01	1.762987e+02
2.360000e-06	1.314558e-06	2.615695e-09	1.396011e+01	1.714624e+02
2.370000e-06	1.215536e-06	2.541146e-09	1.290853e+01	1.663737e+02
2.380000e-06	1.116122e-06	2.455765e-09	1.185279e+01	1.610122e+02
2.390000e-06	1.016387e-06	2.369391e-09	1.079364e+01	1.553557e+02
2.400000e-06	9.164112e-07	2.279248e-09	9.731941e+00	1.493802e+02
2.410000e-06	8.162225e-07	2.181792e-09	8.667975e+00	1.430593e+02
2.420000e-06	7.158142e-07	2.079694e-09	7.601676e+00	1.363646e+02
2.430000e-06	6.151725e-07	1.976180e-09	6.532899e+00	1.292662e+02
2.440000e-06	5.142924e-07	1.863906e-09	5.461591e+00	1.217325e+02
2.450000e-06	4.132342e-07	1.738256e-09	4.388391e+00	1.137324e+02
2.460000e-06	3.120179e-07	1.603239e-09	3.313512e+00	1.052360e+02
2.470000e-06	2.105694e-07	1.466609e-09	2.236168e+00	9.621695e+01
2.480000e-06	1.089365e-07	1.325827e-09	1.156864e+00	8.665442e+01
2.490000e-06	7.277702e-09	1.170804e-09	7.728645e-02	7.653591e+01
2.500000e-06	-9.428243e-08	1.004731e-09	-1.001244e+00	6.585956e+01
2.510000e-06	-1.957315e-07	8.345411e-10	-2.078594e+00	5.463652e+01
2.520000e-06	-2.970390e-07	6.594309e-10	-3.154442e+00	4.289288e+01
2.530000e-06	-3.981668e-07	4.762260e-10	-4.228381e+00	3.067098e+01
2.540000e-06	-4.991582e-07	2.832902e-10	-5.300872e+00	1.802988e+01
2.550000e-06	-5.999155e-07	8.181045e-11	-6.370876e+00	5.044849e+00
2.560000e-06	-7.003882e-07	-1.211059e-10	-7.437858e+00	-8.194110e+00
2.570000e-06	-8.006423e-07	-3.206329e-10	-8.502519e+00	-2.158484e+01
2.580000e-06	-9.006786e-07	-5.224533e-10	-9.564866e+00	-3.501644e+01
2.590000e-06	-1.000446e-06	-7.321733e-10	-1.062436e+01	-4.837351e+01
2.600000e-06	-1.099928e-06	-9.389130e-10	-1.168082e+01	-6.154070e+01
2.610000e-06	-1.199058e-06	-1.131510e-09	-1.273354e+01	-7.440757e+01
2.620000e-06	-1.297783e-06	-1.315500e-09	-1.378197e+01	-8.687313e+01
2.630000e-06	-1.396117e-06	-1.500028e-09	-1.482623e+01	-9.884995e+01
2.640000e-06	-1.493949e-06	-1.678787e-09	-1.586518e+01	-1.102674e+02
2.650000e-06	-1.591249e-06	-1.841996e-09	-1.689847e+01	-1.210737e+02
2.660000e-06	-1.688072e-06	-1.993295e-09	-1.792668e+01	-1.312371e+02
2.670000e-06	-1.784432e-06	-2.138245e-09	-1.894999e+01	-1.407457e+02
2.680000e-06	-1.880286e-06	-2.277693e-09	-1.996792e+01	-1.496056e+02
2.690000e-06	-1.975403e-06	-2.406698e-09	-2.097803e+01	-1.578390e+02
2.700000e-06	-2.069558e-06	-2.522110e-09	-2.197792e+01	-1.654806e+02
2.710000e-06	-2.162737e-06	-2.626272e-09	-2.296745e+01	-1.725740e+02
2.720000e-06	-2.255120e-06	-2.725081e-09	-2.394852e+01	-1.791682e+02
2.730000e-06	-2.346856e-06	-2.821785e-09	-2.492273e+01	-1.853136e+02
2.740000e-06	-2.437797e-06	-2.910313e-09	-2.588848e+01	-1.910585e+02
2.750000e-06	-2.527793e-06	-2.990762e-09	-2.684421e+01	-1.964476e+02
2.760000e-06	-2.616917e-06	-3.068905e-09	-2.779067e+01	-2.015189e+02
2.770000e-06	-2.705253e-06	-3.143880e-09	-2.872877e+01	-2.063039e+02
2.780000e-06	-2.792739e-06	-3.214017e-09	-2.965783e+01	-2.108271e+02
2.790000e-06	-2.879109e-06	-3.278798e-09	-3.057505e+01	-2.151064e+02
2.800000e-06	-2.964239e-06	-3.340399e-09	-3.147910e+01	-2.191546e+02
2.810000e-06	-3.048300e-06	-3.400218e-09	-3.237179e+01	-2.229807e+02
2.820000e-06	-3.131394e-06	-3.457161e-09	-3.325422e+01	-2.265914e+02
2.830000e-06	-3.213490e-06	-3.510807e-09	-3.412605e+01	-2.299929e+02
2.840000e-06	-3.294565e-06	-3.559196e-09	-3.498704e+01	-2.331915e+02
2.850000e-06	-3.374585e-06	-3.603533e-09	-3.583682e+01	-2.361950e+02
2.860000e-06	-3.453301e-06	-3.645599e-09	-3.667276e+01	-2.390129e+02
2.870000e-06	-3.530456e-06	-3.686853e-09	-3.749211e+01	-2.416565e+02
2.880000e-06	-3.606127e-06	-3.726867e-09	-3.829571e+01	-2.441381e+02
2.890000e-06	-3.680460e-06	-3.764096e-09	-3.908510e+01	-2.464713e+02
2.900000e-06	-3.753526e-06	-3.798090e-09	-3.986103e+01	-2.486695e+02
2.910000e-06	-3.825304e-06	-3.830887e-09	-4.062328e+01	-2.507453e+02
2.920000e-06	-3.895540e-06	-3.864042e-09	-4.136916e+01	-2.527104e+02
2.930000e-06	-3.964217e-06	-3.893901e-09	-4.209849e+01	-2.545747e+02
2.940000e-06	-4.031530e-06	-3.919953e-09	-4.281333e+01	-2.563460e+02
