# Temperatura_=_20.0
# Concentracion g/m^3_=_9000.0
# C_Vs_to_Am_M_A/Vsm_=_65563218390.804596
# pendiente_HvsI_1/m_=_3716.3
# ordenada_HvsI_A/m_=_1297.0
# frecuencia_Hz_=_300868.54922785924

Tiempo_(s)	Campo_(V.s)	Magnetizacion_(V.s)	Campo_(kA/m)	Magnetizacion_(A/m)
0.000000e+00	-5.394769e-06	-4.270565e-09	-5.679876e+01	-2.808135e+02
1.000000e-08	-5.393065e-06	-4.270903e-09	-5.678082e+01	-2.807502e+02
2.000000e-08	-5.389500e-06	-4.271443e-09	-5.674329e+01	-2.806669e+02
3.000000e-08	-5.384239e-06	-4.271080e-09	-5.668790e+01	-2.805635e+02
4.000000e-08	-5.377346e-06	-4.267129e-09	-5.661533e+01	-2.804386e+02
5.000000e-08	-5.368739e-06	-4.263001e-09	-5.652470e+01	-2.802890e+02
6.000000e-08	-5.358104e-06	-4.261626e-09	-5.641274e+01	-2.801105e+02
7.000000e-08	-5.345505e-06	-4.256287e-09	-5.628009e+01	-2.798979e+02
8.000000e-08	-5.330923e-06	-4.264357e-09	-5.612656e+01	-2.796461e+02
9.000000e-08	-5.314170e-06	-4.284051e-09	-5.595017e+01	-2.793508e+02
1.000000e-07	-5.295364e-06	-4.270811e-09	-5.575218e+01	-2.790091e+02
1.100000e-07	-5.274623e-06	-4.264880e-09	-5.553381e+01	-2.786200e+02
1.200000e-07	-5.252003e-06	-4.255008e-09	-5.529565e+01	-2.781850e+02
1.300000e-07	-5.227617e-06	-4.209881e-09	-5.503890e+01	-2.777083e+02
1.400000e-07	-5.201660e-06	-4.245196e-09	-5.476562e+01	-2.771959e+02
1.500000e-07	-5.174206e-06	-4.237740e-09	-5.447657e+01	-2.766554e+02
1.600000e-07	-5.145199e-06	-4.160766e-09	-5.417117e+01	-2.760952e+02
1.700000e-07	-5.114643e-06	-4.226393e-09	-5.384946e+01	-2.755230e+02
1.800000e-07	-5.082189e-06	-4.202287e-09	-5.350777e+01	-2.749455e+02
1.900000e-07	-5.047784e-06	-4.166588e-09	-5.314554e+01	-2.743669e+02
2.000000e-07	-5.011858e-06	-4.240031e-09	-5.276728e+01	-2.737883e+02
2.100000e-07	-4.974259e-06	-4.153172e-09	-5.237142e+01	-2.732077e+02
2.200000e-07	-4.934741e-06	-4.139979e-09	-5.195536e+01	-2.726199e+02
2.300000e-07	-4.893326e-06	-4.203425e-09	-5.151932e+01	-2.720167e+02
2.400000e-07	-4.850077e-06	-4.153277e-09	-5.106398e+01	-2.713882e+02
2.500000e-07	-4.805053e-06	-4.127782e-09	-5.058994e+01	-2.707234e+02
2.600000e-07	-4.758197e-06	-4.109018e-09	-5.009662e+01	-2.700115e+02
2.700000e-07	-4.709291e-06	-4.111803e-09	-4.958172e+01	-2.692430e+02
2.800000e-07	-4.658335e-06	-4.123935e-09	-4.904523e+01	-2.684104e+02
2.900000e-07	-4.605626e-06	-4.075882e-09	-4.849028e+01	-2.675092e+02
3.000000e-07	-4.551283e-06	-4.059594e-09	-4.791813e+01	-2.665378e+02
3.100000e-07	-4.495257e-06	-4.053916e-09	-4.732826e+01	-2.654974e+02
3.200000e-07	-4.437497e-06	-4.042091e-09	-4.672014e+01	-2.643918e+02
3.300000e-07	-4.378095e-06	-4.034887e-09	-4.609473e+01	-2.632265e+02
3.400000e-07	-4.317246e-06	-4.004079e-09	-4.545407e+01	-2.620077e+02
3.500000e-07	-4.254995e-06	-3.985486e-09	-4.479867e+01	-2.607412e+02
3.600000e-07	-4.191200e-06	-3.951243e-09	-4.412700e+01	-2.594320e+02
3.700000e-07	-4.125702e-06	-3.963641e-09	-4.343741e+01	-2.580833e+02
3.800000e-07	-4.058610e-06	-3.947354e-09	-4.273103e+01	-2.566959e+02
3.900000e-07	-3.990067e-06	-3.880965e-09	-4.200937e+01	-2.552685e+02
4.000000e-07	-3.920145e-06	-3.875935e-09	-4.127321e+01	-2.537977e+02
4.100000e-07	-3.849032e-06	-3.874678e-09	-4.052448e+01	-2.522785e+02
4.200000e-07	-3.776630e-06	-3.849458e-09	-3.976220e+01	-2.507049e+02
4.300000e-07	-3.702637e-06	-3.794758e-09	-3.898317e+01	-2.490704e+02
4.400000e-07	-3.626973e-06	-3.776172e-09	-3.818654e+01	-2.473691e+02
4.500000e-07	-3.549823e-06	-3.761338e-09	-3.737427e+01	-2.455957e+02
4.600000e-07	-3.471270e-06	-3.723002e-09	-3.654723e+01	-2.437462e+02
4.700000e-07	-3.391350e-06	-3.697008e-09	-3.570578e+01	-2.418179e+02
4.800000e-07	-3.310141e-06	-3.666968e-09	-3.485078e+01	-2.398092e+02
4.900000e-07	-3.227808e-06	-3.632346e-09	-3.398394e+01	-2.377192e+02
5.000000e-07	-3.144519e-06	-3.603272e-09	-3.310703e+01	-2.355478e+02
5.100000e-07	-3.060242e-06	-3.580672e-09	-3.221973e+01	-2.332946e+02
5.200000e-07	-2.975019e-06	-3.540193e-09	-3.132245e+01	-2.309588e+02
5.300000e-07	-2.888859e-06	-3.492803e-09	-3.041532e+01	-2.285386e+02
5.400000e-07	-2.801822e-06	-3.456340e-09	-2.949895e+01	-2.260315e+02
5.500000e-07	-2.713853e-06	-3.424737e-09	-2.857277e+01	-2.234337e+02
5.600000e-07	-2.624682e-06	-3.378324e-09	-2.763393e+01	-2.207403e+02
5.700000e-07	-2.534355e-06	-3.326339e-09	-2.668293e+01	-2.179458e+02
5.800000e-07	-2.443064e-06	-3.282400e-09	-2.572177e+01	-2.150439e+02
5.900000e-07	-2.350916e-06	-3.241834e-09	-2.475159e+01	-2.120281e+02
6.000000e-07	-2.258014e-06	-3.189339e-09	-2.377348e+01	-2.088918e+02
6.100000e-07	-2.164374e-06	-3.134879e-09	-2.278759e+01	-2.056281e+02
6.200000e-07	-2.070019e-06	-3.088395e-09	-2.179417e+01	-2.022301e+02
6.300000e-07	-1.974997e-06	-3.033776e-09	-2.079374e+01	-1.986908e+02
6.400000e-07	-1.879293e-06	-2.975164e-09	-1.978612e+01	-1.950021e+02
6.500000e-07	-1.782859e-06	-2.917290e-09	-1.877081e+01	-1.911554e+02
6.600000e-07	-1.685609e-06	-2.858763e-09	-1.774692e+01	-1.871405e+02
6.700000e-07	-1.587518e-06	-2.790336e-09	-1.671416e+01	-1.829454e+02
6.800000e-07	-1.488784e-06	-2.719379e-09	-1.567464e+01	-1.785560e+02
6.900000e-07	-1.389690e-06	-2.650106e-09	-1.463134e+01	-1.739560e+02
7.000000e-07	-1.290205e-06	-2.576211e-09	-1.358391e+01	-1.691266e+02
7.100000e-07	-1.190233e-06	-2.497516e-09	-1.253136e+01	-1.640462e+02
7.200000e-07	-1.089852e-06	-2.415632e-09	-1.147449e+01	-1.586910e+02
7.300000e-07	-9.891450e-07	-2.329616e-09	-1.041420e+01	-1.530346e+02
7.400000e-07	-8.881321e-07	-2.233894e-09	-9.350688e+00	-1.470486e+02
7.500000e-07	-7.867940e-07	-2.137150e-09	-8.283751e+00	-1.407030e+02
7.600000e-07	-6.851530e-07	-2.035981e-09	-7.213625e+00	-1.339660e+02
7.700000e-07	-5.832469e-07	-1.926307e-09	-6.140708e+00	-1.268057e+02
7.800000e-07	-4.810708e-07	-1.807782e-09	-5.064948e+00	-1.191899e+02
7.900000e-07	-3.787167e-07	-1.684304e-09	-3.987314e+00	-1.110879e+02
8.000000e-07	-2.762829e-07	-1.556566e-09	-2.908841e+00	-1.024716e+02
8.100000e-07	-1.737357e-07	-1.415470e-09	-1.829175e+00	-9.331745e+01
8.200000e-07	-7.110655e-08	-1.262332e-09	-7.486444e-01	-8.360815e+01
8.300000e-07	3.152730e-08	-1.102520e-09	3.319348e-01	-7.333506e+01
8.400000e-07	1.341666e-07	-9.394340e-10	1.412571e+00	-6.250038e+01
8.500000e-07	2.368130e-07	-7.652874e-10	2.493283e+00	-5.111925e+01
8.600000e-07	3.393914e-07	-5.821627e-10	3.573278e+00	-3.922164e+01
8.700000e-07	4.417927e-07	-3.931413e-10	4.651410e+00	-2.685349e+01
8.800000e-07	5.439884e-07	-1.988176e-10	5.727375e+00	-1.407731e+01
8.900000e-07	6.459982e-07	1.164858e-13	6.801385e+00	-9.716847e-01
9.000000e-07	7.477743e-07	2.035926e-10	7.872933e+00	1.237020e+01
9.100000e-07	8.492362e-07	4.100800e-10	8.941173e+00	2.584310e+01
9.200000e-07	9.503704e-07	6.177191e-10	1.000596e+01	3.933323e+01
9.300000e-07	1.051217e-06	8.198324e-10	1.106772e+01	5.272260e+01
9.400000e-07	1.151696e-06	1.019947e-09	1.212562e+01	6.589387e+01
9.500000e-07	1.251725e-06	1.217626e-09	1.317877e+01	7.873540e+01
9.600000e-07	1.351329e-06	1.407865e-09	1.422745e+01	9.114607e+01
9.700000e-07	1.450564e-06	1.586986e-09	1.527225e+01	1.030396e+02
9.800000e-07	1.549453e-06	1.757309e-09	1.631340e+01	1.143478e+02
9.900000e-07	1.647791e-06	1.921044e-09	1.734875e+01	1.250229e+02
1.000000e-06	1.745305e-06	2.076013e-09	1.837542e+01	1.350382e+02
1.010000e-06	1.841830e-06	2.220386e-09	1.939169e+01	1.443873e+02
1.020000e-06	1.937477e-06	2.351707e-09	2.039870e+01	1.530829e+02
1.030000e-06	2.032553e-06	2.473966e-09	2.139971e+01	1.611529e+02
1.040000e-06	2.127044e-06	2.587098e-09	2.239456e+01	1.686375e+02
1.050000e-06	2.220818e-06	2.693133e-09	2.338185e+01	1.755843e+02
1.060000e-06	2.313875e-06	2.792193e-09	2.436161e+01	1.820446e+02
1.070000e-06	2.406200e-06	2.884380e-09	2.533365e+01	1.880695e+02
1.080000e-06	2.497782e-06	2.969328e-09	2.629787e+01	1.937065e+02
1.090000e-06	2.588668e-06	3.048293e-09	2.725476e+01	1.989973e+02
1.100000e-06	2.678585e-06	3.125530e-09	2.820145e+01	2.039767e+02
1.110000e-06	2.767156e-06	3.197596e-09	2.913397e+01	2.086719e+02
1.120000e-06	2.854594e-06	3.264304e-09	3.005456e+01	2.131031e+02
1.130000e-06	2.941164e-06	3.326841e-09	3.096601e+01	2.172850e+02
1.140000e-06	3.026763e-06	3.387477e-09	3.186723e+01	2.212284e+02
1.150000e-06	3.111361e-06	3.444433e-09	3.275793e+01	2.249414e+02
1.160000e-06	3.195039e-06	3.497690e-09	3.363893e+01	2.284319e+02
1.170000e-06	3.277843e-06	3.546095e-09	3.451073e+01	2.317083e+02
1.180000e-06	3.359436e-06	3.591716e-09	3.536978e+01	2.347807e+02
1.190000e-06	3.439573e-06	3.635522e-09	3.621350e+01	2.376612e+02
1.200000e-06	3.518411e-06	3.675395e-09	3.704355e+01	2.403635e+02
1.210000e-06	3.596004e-06	3.712741e-09	3.786049e+01	2.429028e+02
1.220000e-06	3.672378e-06	3.749162e-09	3.866458e+01	2.452945e+02
1.230000e-06	3.747492e-06	3.785136e-09	3.945542e+01	2.475534e+02
1.240000e-06	3.821081e-06	3.816778e-09	4.023021e+01	2.496928e+02
1.250000e-06	3.893018e-06	3.846721e-09	4.098760e+01	2.517240e+02
1.260000e-06	3.963537e-06	3.876521e-09	4.173005e+01	2.536557e+02
1.270000e-06	4.032707e-06	3.905893e-09	4.245830e+01	2.554940e+02
1.280000e-06	4.100558e-06	3.932836e-09	4.317267e+01	2.572426e+02
1.290000e-06	4.167077e-06	3.958059e-09	4.387302e+01	2.589038e+02
1.300000e-06	4.231913e-06	3.983146e-09	4.455564e+01	2.604788e+02
1.310000e-06	4.295124e-06	4.006950e-09	4.522116e+01	2.619686e+02
1.320000e-06	4.356928e-06	4.028768e-09	4.587187e+01	2.633747e+02
1.330000e-06	4.417321e-06	4.047843e-09	4.650771e+01	2.646995e+02
1.340000e-06	4.476399e-06	4.067482e-09	4.712972e+01	2.659466e+02
1.350000e-06	4.533829e-06	4.087050e-09	4.773436e+01	2.671210e+02
1.360000e-06	4.589396e-06	4.104662e-09	4.831940e+01	2.682283e+02
1.370000e-06	4.643327e-06	4.120738e-09	4.888721e+01	2.692748e+02
1.380000e-06	4.695601e-06	4.136666e-09	4.943758e+01	2.702666e+02
1.390000e-06	4.745888e-06	4.153226e-09	4.996703e+01	2.712091e+02
1.400000e-06	4.794068e-06	4.168625e-09	5.047429e+01	2.721067e+02
1.410000e-06	4.840448e-06	4.182258e-09	5.096260e+01	2.729625e+02
1.420000e-06	4.885232e-06	4.194321e-09	5.143411e+01	2.737783e+02
1.430000e-06	4.928463e-06	4.207355e-09	5.188927e+01	2.745543e+02
1.440000e-06	4.969904e-06	4.220390e-09	5.232557e+01	2.752901e+02
1.450000e-06	5.009419e-06	4.231131e-09	5.274161e+01	2.759845e+02
1.460000e-06	5.047230e-06	4.240792e-09	5.313970e+01	2.766366e+02
1.470000e-06	5.083476e-06	4.251187e-09	5.352132e+01	2.772455e+02
1.480000e-06	5.118034e-06	4.262410e-09	5.388516e+01	2.778111e+02
1.490000e-06	5.150642e-06	4.272316e-09	5.422848e+01	2.783341e+02
1.500000e-06	5.181338e-06	4.280706e-09	5.455166e+01	2.788159e+02
1.510000e-06	5.210324e-06	4.287629e-09	5.485683e+01	2.792586e+02
1.520000e-06	5.237641e-06	4.294324e-09	5.514444e+01	2.796645e+02
1.530000e-06	5.263035e-06	4.301112e-09	5.541181e+01	2.800358e+02
1.540000e-06	5.286362e-06	4.306827e-09	5.565740e+01	2.803741e+02
1.550000e-06	5.307831e-06	4.312171e-09	5.588343e+01	2.806808e+02
1.560000e-06	5.327633e-06	4.317578e-09	5.609192e+01	2.809562e+02
1.570000e-06	5.345628e-06	4.322205e-09	5.628139e+01	2.812000e+02
1.580000e-06	5.361610e-06	4.326086e-09	5.644965e+01	2.814114e+02
1.590000e-06	5.375613e-06	4.330615e-09	5.659708e+01	2.815894e+02
1.600000e-06	5.387634e-06	4.334589e-09	5.672365e+01	2.817334e+02
1.610000e-06	5.397515e-06	4.337092e-09	5.682767e+01	2.818431e+02
1.620000e-06	5.405294e-06	4.338911e-09	5.690957e+01	2.819190e+02
1.630000e-06	5.411179e-06	4.339565e-09	5.697154e+01	2.819627e+02
1.640000e-06	5.415306e-06	4.338801e-09	5.701499e+01	2.819763e+02
1.650000e-06	5.417573e-06	4.340521e-09	5.703885e+01	2.819627e+02
1.660000e-06	5.417824e-06	4.341846e-09	5.704150e+01	2.819248e+02
1.670000e-06	5.416257e-06	4.339849e-09	5.702500e+01	2.818651e+02
1.680000e-06	5.413043e-06	4.338630e-09	5.699116e+01	2.817851e+02
1.690000e-06	5.408194e-06	4.336491e-09	5.694011e+01	2.816852e+02
1.700000e-06	5.401478e-06	4.335395e-09	5.686940e+01	2.815641e+02
1.710000e-06	5.392844e-06	4.332497e-09	5.677849e+01	2.814190e+02
1.720000e-06	5.382555e-06	4.326849e-09	5.667017e+01	2.812458e+02
1.730000e-06	5.370650e-06	4.323709e-09	5.654482e+01	2.810395e+02
1.740000e-06	5.356843e-06	4.283542e-09	5.639946e+01	2.807949e+02
1.750000e-06	5.340811e-06	4.277630e-09	5.623067e+01	2.805074e+02
1.760000e-06	5.322336e-06	4.283799e-09	5.603616e+01	2.801739e+02
1.770000e-06	5.301249e-06	4.274722e-09	5.581414e+01	2.797930e+02
1.780000e-06	5.277984e-06	4.328606e-09	5.556919e+01	2.793659e+02
1.790000e-06	5.253515e-06	4.293096e-09	5.531157e+01	2.788960e+02
1.800000e-06	5.228165e-06	4.241409e-09	5.504467e+01	2.783893e+02
1.810000e-06	5.201237e-06	4.343288e-09	5.476116e+01	2.778530e+02
1.820000e-06	5.172276e-06	4.249409e-09	5.445625e+01	2.772955e+02
1.830000e-06	5.141611e-06	4.238069e-09	5.413339e+01	2.767248e+02
1.840000e-06	5.109174e-06	4.310875e-09	5.379188e+01	2.761477e+02
1.850000e-06	5.074686e-06	4.147752e-09	5.342877e+01	2.755688e+02
1.860000e-06	5.038528e-06	4.227732e-09	5.304808e+01	2.749901e+02
1.870000e-06	5.000666e-06	4.281134e-09	5.264946e+01	2.744100e+02
1.880000e-06	4.960911e-06	4.094239e-09	5.223089e+01	2.738237e+02
1.890000e-06	4.919357e-06	4.142142e-09	5.179340e+01	2.732238e+02
1.900000e-06	4.876085e-06	4.156313e-09	5.133780e+01	2.726004e+02
1.910000e-06	4.831371e-06	4.112547e-09	5.086703e+01	2.719428e+02
1.920000e-06	4.784919e-06	4.139809e-09	5.037797e+01	2.712398e+02
1.930000e-06	4.736458e-06	4.026822e-09	4.986775e+01	2.704819e+02
1.940000e-06	4.686299e-06	4.097132e-09	4.933964e+01	2.696610e+02
1.950000e-06	4.634479e-06	4.078073e-09	4.879406e+01	2.687720e+02
1.960000e-06	4.580744e-06	4.013368e-09	4.822831e+01	2.678129e+02
1.970000e-06	4.525053e-06	4.076353e-09	4.764197e+01	2.667844e+02
1.980000e-06	4.467693e-06	3.978215e-09	4.703805e+01	2.656899e+02
1.990000e-06	4.408849e-06	3.983835e-09	4.641851e+01	2.645347e+02
2.000000e-06	4.348532e-06	3.994793e-09	4.578347e+01	2.633247e+02
2.010000e-06	4.286652e-06	3.984095e-09	4.513197e+01	2.620662e+02
2.020000e-06	4.223066e-06	3.947057e-09	4.446251e+01	2.607642e+02
2.030000e-06	4.157852e-06	3.858808e-09	4.377590e+01	2.594222e+02
2.040000e-06	4.091180e-06	3.946946e-09	4.307395e+01	2.580415e+02
2.050000e-06	4.023200e-06	3.898328e-09	4.235821e+01	2.566213e+02
2.060000e-06	3.953729e-06	3.829741e-09	4.162678e+01	2.551584e+02
2.070000e-06	3.882595e-06	3.831296e-09	4.087786e+01	2.536481e+02
2.080000e-06	3.810045e-06	3.804360e-09	4.011402e+01	2.520844e+02
2.090000e-06	3.736266e-06	3.809222e-09	3.933724e+01	2.504611e+02
2.100000e-06	3.661155e-06	3.739279e-09	3.854643e+01	2.487719e+02
2.110000e-06	3.584471e-06	3.746207e-09	3.773906e+01	2.470115e+02
2.120000e-06	3.506127e-06	3.712421e-09	3.691422e+01	2.451757e+02
2.130000e-06	3.426420e-06	3.660183e-09	3.607502e+01	2.432614e+02
2.140000e-06	3.345571e-06	3.658812e-09	3.522380e+01	2.412669e+02
2.150000e-06	3.263587e-06	3.621595e-09	3.436064e+01	2.391913e+02
2.160000e-06	3.180566e-06	3.589736e-09	3.348655e+01	2.370343e+02
2.170000e-06	3.096622e-06	3.526833e-09	3.260275e+01	2.347955e+02
2.180000e-06	3.011556e-06	3.517502e-09	3.170713e+01	2.324743e+02
2.190000e-06	2.925103e-06	3.489005e-09	3.079692e+01	2.300692e+02
2.200000e-06	2.837506e-06	3.433120e-09	2.987465e+01	2.275777e+02
2.210000e-06	2.748969e-06	3.393473e-09	2.894249e+01	2.249962e+02
2.220000e-06	2.659529e-06	3.357726e-09	2.800082e+01	2.223201e+02
2.230000e-06	2.569197e-06	3.326420e-09	2.704976e+01	2.195439e+02
2.240000e-06	2.478004e-06	3.266939e-09	2.608964e+01	2.166614e+02
2.250000e-06	2.386099e-06	3.236671e-09	2.512201e+01	2.136663e+02
2.260000e-06	2.293549e-06	3.191288e-09	2.414760e+01	2.105518e+02
2.270000e-06	2.200115e-06	3.131727e-09	2.316388e+01	2.073111e+02
2.280000e-06	2.105598e-06	3.081556e-09	2.216876e+01	2.039375e+02
2.290000e-06	2.010205e-06	3.039522e-09	2.116442e+01	2.004238e+02
2.300000e-06	1.914148e-06	2.984072e-09	2.015309e+01	1.967622e+02
2.310000e-06	1.817438e-06	2.911863e-09	1.913487e+01	1.929442e+02
2.320000e-06	1.720133e-06	2.859833e-09	1.811040e+01	1.889600e+02
2.330000e-06	1.622307e-06	2.805371e-09	1.708044e+01	1.847978e+02
2.340000e-06	1.523868e-06	2.737575e-09	1.604403e+01	1.804441e+02
2.350000e-06	1.424871e-06	2.661768e-09	1.500174e+01	1.758828e+02
2.360000e-06	1.325474e-06	2.592894e-09	1.395523e+01	1.710957e+02
2.370000e-06	1.225772e-06	2.516338e-09	1.290553e+01	1.660616e+02
2.380000e-06	1.125801e-06	2.432548e-09	1.185299e+01	1.607571e+02
2.390000e-06	1.025515e-06	2.353402e-09	1.079713e+01	1.551563e+02
2.400000e-06	9.249983e-07	2.265079e-09	9.738834e+00	1.492312e+02
2.410000e-06	8.241903e-07	2.163440e-09	8.677477e+00	1.429518e+02
2.420000e-06	7.228926e-07	2.062044e-09	7.610967e+00	1.362870e+02
2.430000e-06	6.211018e-07	1.965284e-09	6.539263e+00	1.292044e+02
2.440000e-06	5.189057e-07	1.851065e-09	5.463293e+00	1.216720e+02
2.450000e-06	4.164397e-07	1.718013e-09	4.384481e+00	1.136588e+02
2.460000e-06	3.138646e-07	1.585503e-09	3.304519e+00	1.051361e+02
2.470000e-06	2.111940e-07	1.455636e-09	2.223554e+00	9.607926e+01
2.480000e-06	1.083319e-07	1.312329e-09	1.140571e+00	8.646981e+01
2.490000e-06	5.368418e-09	1.154046e-09	5.652133e-02	7.629739e+01
2.500000e-06	-9.750955e-08	9.905345e-10	-1.026628e+00	6.556208e+01
2.510000e-06	-2.001815e-07	8.219239e-10	-2.107609e+00	5.427660e+01
2.520000e-06	-3.027063e-07	6.437662e-10	-3.187040e+00	4.246812e+01
2.530000e-06	-4.051002e-07	4.574069e-10	-4.265093e+00	3.017970e+01
2.540000e-06	-5.072796e-07	2.628555e-10	-5.340887e+00	1.747088e+01
2.550000e-06	-6.091380e-07	5.893816e-11	-6.413302e+00	4.417455e+00
2.560000e-06	-7.105940e-07	-1.442683e-10	-7.481481e+00	-8.889845e+00
2.570000e-06	-8.116480e-07	-3.443437e-10	-8.545427e+00	-2.234769e+01
2.580000e-06	-9.122720e-07	-5.485353e-10	-9.604845e+00	-3.584353e+01
2.590000e-06	-1.012561e-06	-7.566793e-10	-1.066073e+01	-4.925977e+01
2.600000e-06	-1.112640e-06	-9.597117e-10	-1.171442e+01	-6.247860e+01
2.610000e-06	-1.212517e-06	-1.152634e-09	-1.276597e+01	-7.538698e+01
2.620000e-06	-1.312083e-06	-1.341277e-09	-1.381425e+01	-8.788159e+01
2.630000e-06	-1.411127e-06	-1.526374e-09	-1.485703e+01	-9.987321e+01
2.640000e-06	-1.509586e-06	-1.702181e-09	-1.589366e+01	-1.112903e+02
2.650000e-06	-1.607568e-06	-1.865716e-09	-1.692526e+01	-1.220812e+02
2.660000e-06	-1.705023e-06	-2.019778e-09	-1.795131e+01	-1.322155e+02
2.670000e-06	-1.801885e-06	-2.164519e-09	-1.897113e+01	-1.416834e+02
2.680000e-06	-1.898242e-06	-2.299348e-09	-1.998562e+01	-1.504942e+02
2.690000e-06	-1.994178e-06	-2.427144e-09	-2.099568e+01	-1.586735e+02
2.700000e-06	-2.089534e-06	-2.544140e-09	-2.199963e+01	-1.662594e+02
2.710000e-06	-2.183919e-06	-2.648684e-09	-2.299337e+01	-1.732987e+02
2.720000e-06	-2.277116e-06	-2.745535e-09	-2.397459e+01	-1.798423e+02
2.730000e-06	-2.369401e-06	-2.840267e-09	-2.494621e+01	-1.859415e+02
2.740000e-06	-2.460970e-06	-2.928888e-09	-2.591030e+01	-1.916447e+02
2.750000e-06	-2.551691e-06	-3.008496e-09	-2.686544e+01	-1.969948e+02
2.760000e-06	-2.641500e-06	-3.085340e-09	-2.781101e+01	-2.020278e+02
2.770000e-06	-2.730392e-06	-3.159920e-09	-2.874690e+01	-2.067722e+02
2.780000e-06	-2.818554e-06	-3.228658e-09	-2.967511e+01	-2.112495e+02
2.790000e-06	-2.905930e-06	-3.291706e-09	-3.059505e+01	-2.154753e+02
2.800000e-06	-2.991982e-06	-3.352690e-09	-3.150105e+01	-2.194608e+02
2.810000e-06	-3.076698e-06	-3.411078e-09	-3.239298e+01	-2.232146e+02
2.820000e-06	-3.160417e-06	-3.465915e-09	-3.327442e+01	-2.267444e+02
2.830000e-06	-3.243139e-06	-3.518075e-09	-3.414535e+01	-2.300586e+02
2.840000e-06	-3.324784e-06	-3.567033e-09	-3.500495e+01	-2.331668e+02
2.850000e-06	-3.405335e-06	-3.611335e-09	-3.585303e+01	-2.360807e+02
2.860000e-06	-3.484689e-06	-3.651902e-09	-3.668851e+01	-2.388140e+02
2.870000e-06	-3.562515e-06	-3.691504e-09	-3.750790e+01	-2.413814e+02
2.880000e-06	-3.638817e-06	-3.730035e-09	-3.831124e+01	-2.437985e+02
2.890000e-06	-3.713752e-06	-3.766187e-09	-3.910020e+01	-2.460803e+02
2.900000e-06	-3.787307e-06	-3.798762e-09	-3.987462e+01	-2.482404e+02
2.910000e-06	-3.859611e-06	-3.830476e-09	-4.063587e+01	-2.502904e+02
2.920000e-06	-3.930481e-06	-3.861385e-09	-4.138203e+01	-2.522395e+02
2.930000e-06	-3.999692e-06	-3.890148e-09	-4.211071e+01	-2.540943e+02
2.940000e-06	-4.067433e-06	-3.916645e-09	-4.282392e+01	-2.558589e+02
