# Temperatura_=_20.0
# Concentracion g/m^3_=_9000.0
# C_Vs_to_Am_M_A/Vsm_=_65563218390.804596
# pendiente_HvsI_1/m_=_3716.3
# ordenada_HvsI_A/m_=_1297.0
# frecuencia_Hz_=_300869.058350651

Tiempo_(s)	Campo_(V.s)	Magnetizacion_(V.s)	Campo_(kA/m)	Magnetizacion_(A/m)
0.000000e+00	-5.350165e-06	-4.277976e-09	-5.680832e+01	-2.809225e+02
1.000000e-08	-5.348963e-06	-4.276934e-09	-5.679555e+01	-2.808021e+02
2.000000e-08	-5.345833e-06	-4.278673e-09	-5.676232e+01	-2.806543e+02
3.000000e-08	-5.341075e-06	-4.279741e-09	-5.671180e+01	-2.804819e+02
4.000000e-08	-5.334709e-06	-4.277629e-09	-5.664421e+01	-2.802864e+02
5.000000e-08	-5.326652e-06	-4.271584e-09	-5.655866e+01	-2.800684e+02
6.000000e-08	-5.316535e-06	-4.267330e-09	-5.645124e+01	-2.798275e+02
7.000000e-08	-5.304384e-06	-4.264951e-09	-5.632222e+01	-2.795622e+02
8.000000e-08	-5.290409e-06	-4.257838e-09	-5.617382e+01	-2.792709e+02
9.000000e-08	-5.274298e-06	-4.260678e-09	-5.600276e+01	-2.789516e+02
1.000000e-07	-5.256050e-06	-4.287194e-09	-5.580901e+01	-2.786032e+02
1.100000e-07	-5.235915e-06	-4.292093e-09	-5.559521e+01	-2.782251e+02
1.200000e-07	-5.213909e-06	-4.264469e-09	-5.536155e+01	-2.778181e+02
1.300000e-07	-5.190157e-06	-4.224587e-09	-5.510935e+01	-2.773841e+02
1.400000e-07	-5.164768e-06	-4.181440e-09	-5.483976e+01	-2.769261e+02
1.500000e-07	-5.137832e-06	-4.208685e-09	-5.455376e+01	-2.764478e+02
1.600000e-07	-5.109400e-06	-4.260441e-09	-5.425186e+01	-2.759532e+02
1.700000e-07	-5.079470e-06	-4.205354e-09	-5.393407e+01	-2.754457e+02
1.800000e-07	-5.047775e-06	-4.168915e-09	-5.359753e+01	-2.749277e+02
1.900000e-07	-5.013954e-06	-4.175589e-09	-5.323841e+01	-2.744000e+02
2.000000e-07	-4.978540e-06	-4.180744e-09	-5.286238e+01	-2.738613e+02
2.100000e-07	-4.941644e-06	-4.216922e-09	-5.247062e+01	-2.733084e+02
2.200000e-07	-4.902826e-06	-4.165871e-09	-5.205846e+01	-2.727361e+02
2.300000e-07	-4.862200e-06	-4.109527e-09	-5.162709e+01	-2.721376e+02
2.400000e-07	-4.819765e-06	-4.149495e-09	-5.117650e+01	-2.715053e+02
2.500000e-07	-4.775532e-06	-4.158182e-09	-5.070684e+01	-2.708311e+02
2.600000e-07	-4.729553e-06	-4.132002e-09	-5.021863e+01	-2.701077e+02
2.700000e-07	-4.681589e-06	-4.097407e-09	-4.970935e+01	-2.693291e+02
2.800000e-07	-4.631527e-06	-4.061988e-09	-4.917778e+01	-2.684910e+02
2.900000e-07	-4.579646e-06	-4.089432e-09	-4.862691e+01	-2.675914e+02
3.000000e-07	-4.526155e-06	-4.091764e-09	-4.805894e+01	-2.666302e+02
3.100000e-07	-4.471091e-06	-4.035673e-09	-4.747427e+01	-2.656096e+02
3.200000e-07	-4.414316e-06	-4.004069e-09	-4.687143e+01	-2.645330e+02
3.300000e-07	-4.355757e-06	-4.013512e-09	-4.624965e+01	-2.634048e+02
3.400000e-07	-4.295696e-06	-4.009805e-09	-4.561191e+01	-2.622293e+02
3.500000e-07	-4.234234e-06	-3.977159e-09	-4.495931e+01	-2.610104e+02
3.600000e-07	-4.171320e-06	-3.953294e-09	-4.429129e+01	-2.597508e+02
3.700000e-07	-4.106806e-06	-3.925931e-09	-4.360627e+01	-2.584516e+02
3.800000e-07	-4.040669e-06	-3.915872e-09	-4.290403e+01	-2.571122e+02
3.900000e-07	-3.973026e-06	-3.909893e-09	-4.218579e+01	-2.557302e+02
4.000000e-07	-3.903965e-06	-3.869814e-09	-4.145250e+01	-2.543022e+02
4.100000e-07	-3.833651e-06	-3.837822e-09	-4.070590e+01	-2.528233e+02
4.200000e-07	-3.762183e-06	-3.828200e-09	-3.994705e+01	-2.512888e+02
4.300000e-07	-3.689313e-06	-3.816640e-09	-3.917331e+01	-2.496938e+02
4.400000e-07	-3.614715e-06	-3.780399e-09	-3.838122e+01	-2.480337e+02
4.500000e-07	-3.538523e-06	-3.741038e-09	-3.757221e+01	-2.463053e+02
4.600000e-07	-3.460991e-06	-3.724268e-09	-3.674897e+01	-2.445057e+02
4.700000e-07	-3.382119e-06	-3.705223e-09	-3.591151e+01	-2.426332e+02
4.800000e-07	-3.301929e-06	-3.669224e-09	-3.506005e+01	-2.406864e+02
4.900000e-07	-3.220492e-06	-3.629655e-09	-3.419535e+01	-2.386644e+02
5.000000e-07	-3.137941e-06	-3.602026e-09	-3.331881e+01	-2.365658e+02
5.100000e-07	-3.054477e-06	-3.580179e-09	-3.243259e+01	-2.343886e+02
5.200000e-07	-2.970139e-06	-3.546546e-09	-3.153709e+01	-2.321301e+02
5.300000e-07	-2.884793e-06	-3.504405e-09	-3.063088e+01	-2.297864e+02
5.400000e-07	-2.798438e-06	-3.463034e-09	-2.971396e+01	-2.273527e+02
5.500000e-07	-2.711249e-06	-3.429835e-09	-2.878818e+01	-2.248230e+02
5.600000e-07	-2.623125e-06	-3.396349e-09	-2.785247e+01	-2.221909e+02
5.700000e-07	-2.533810e-06	-3.348196e-09	-2.690412e+01	-2.194496e+02
5.800000e-07	-2.443353e-06	-3.295681e-09	-2.594365e+01	-2.165924e+02
5.900000e-07	-2.352047e-06	-3.251959e-09	-2.497415e+01	-2.136127e+02
6.000000e-07	-2.260056e-06	-3.212992e-09	-2.399739e+01	-2.105045e+02
6.100000e-07	-2.167365e-06	-3.161756e-09	-2.301319e+01	-2.072622e+02
6.200000e-07	-2.073936e-06	-3.101694e-09	-2.202116e+01	-2.038802e+02
6.300000e-07	-1.979779e-06	-3.046362e-09	-2.102140e+01	-2.003531e+02
6.400000e-07	-1.885014e-06	-2.997553e-09	-2.001517e+01	-1.966747e+02
6.500000e-07	-1.789675e-06	-2.943262e-09	-1.900286e+01	-1.928379e+02
6.600000e-07	-1.693718e-06	-2.875970e-09	-1.798398e+01	-1.888340e+02
6.700000e-07	-1.596920e-06	-2.808097e-09	-1.695617e+01	-1.846525e+02
6.800000e-07	-1.499243e-06	-2.743539e-09	-1.591903e+01	-1.802802e+02
6.900000e-07	-1.400958e-06	-2.676151e-09	-1.487544e+01	-1.757016e+02
7.000000e-07	-1.302232e-06	-2.599924e-09	-1.382716e+01	-1.708986e+02
7.100000e-07	-1.203106e-06	-2.518527e-09	-1.277464e+01	-1.658503e+02
7.200000e-07	-1.103555e-06	-2.436280e-09	-1.171760e+01	-1.605335e+02
7.300000e-07	-1.003677e-06	-2.352488e-09	-1.065709e+01	-1.549227e+02
7.400000e-07	-9.035799e-07	-2.264016e-09	-9.594257e+00	-1.489905e+02
7.500000e-07	-8.032308e-07	-2.165357e-09	-8.528745e+00	-1.427081e+02
7.600000e-07	-7.025391e-07	-2.059279e-09	-7.459596e+00	-1.360453e+02
7.700000e-07	-6.015166e-07	-1.951254e-09	-6.386934e+00	-1.289715e+02
7.800000e-07	-5.002624e-07	-1.841344e-09	-5.311811e+00	-1.214561e+02
7.900000e-07	-3.988531e-07	-1.720908e-09	-4.235042e+00	-1.134696e+02
8.000000e-07	-2.972957e-07	-1.588527e-09	-3.156701e+00	-1.049848e+02
8.100000e-07	-1.956348e-07	-1.451078e-09	-2.077260e+00	-9.597823e+01
8.200000e-07	-9.391473e-08	-1.306195e-09	-9.971913e-01	-8.643173e+01
8.300000e-07	7.877304e-09	-1.150086e-09	8.364160e-02	-7.633483e+01
8.400000e-07	1.096645e-07	-9.854366e-10	1.164423e+00	-6.568670e+01
8.500000e-07	2.113676e-07	-8.161269e-10	2.244312e+00	-5.449828e+01
8.600000e-07	3.130067e-07	-6.385625e-10	3.323521e+00	-4.279423e+01
8.700000e-07	4.145176e-07	-4.528289e-10	4.401369e+00	-3.061438e+01
8.800000e-07	5.158675e-07	-2.616838e-10	5.477507e+00	-1.801455e+01
8.900000e-07	6.170607e-07	-6.397443e-11	6.551981e+00	-5.066502e+00
9.000000e-07	7.180148e-07	1.384220e-10	7.623917e+00	8.143070e+00
9.100000e-07	8.186401e-07	3.431884e-10	8.692362e+00	2.151461e+01
9.200000e-07	9.189348e-07	5.476752e-10	9.757296e+00	3.493875e+01
9.300000e-07	1.018960e-06	7.489971e-10	1.081936e+01	4.830030e+01
9.400000e-07	1.118718e-06	9.491210e-10	1.187861e+01	6.148274e+01
9.500000e-07	1.218183e-06	1.147565e-09	1.293473e+01	7.437320e+01
9.600000e-07	1.317311e-06	1.340018e-09	1.398728e+01	8.686732e+01
9.700000e-07	1.415999e-06	1.522010e-09	1.503515e+01	9.887365e+01
9.800000e-07	1.514099e-06	1.693028e-09	1.607678e+01	1.103174e+02
9.900000e-07	1.611511e-06	1.857593e-09	1.711111e+01	1.211432e+02
1.000000e-06	1.708140e-06	2.015463e-09	1.813711e+01	1.313162e+02
1.010000e-06	1.804001e-06	2.163879e-09	1.915497e+01	1.408222e+02
1.020000e-06	1.899197e-06	2.297739e-09	2.016577e+01	1.496667e+02
1.030000e-06	1.993783e-06	2.420312e-09	2.117009e+01	1.578720e+02
1.040000e-06	2.087746e-06	2.535383e-09	2.216779e+01	1.654739e+02
1.050000e-06	2.181012e-06	2.641531e-09	2.315809e+01	1.725181e+02
1.060000e-06	2.273511e-06	2.740512e-09	2.414025e+01	1.790558e+02
1.070000e-06	2.365278e-06	2.831372e-09	2.511465e+01	1.851398e+02
1.080000e-06	2.456407e-06	2.914381e-09	2.608225e+01	1.908209e+02
1.090000e-06	2.546669e-06	2.994894e-09	2.704066e+01	1.961454e+02
1.100000e-06	2.635726e-06	3.072556e-09	2.798627e+01	2.011530e+02
1.110000e-06	2.723618e-06	3.144453e-09	2.891952e+01	2.058761e+02
1.120000e-06	2.810595e-06	3.210423e-09	2.984304e+01	2.103395e+02
1.130000e-06	2.896708e-06	3.273654e-09	3.075739e+01	2.145617e+02
1.140000e-06	2.981890e-06	3.334780e-09	3.166185e+01	2.185557e+02
1.150000e-06	3.066138e-06	3.392881e-09	3.255641e+01	2.223306e+02
1.160000e-06	3.149483e-06	3.446935e-09	3.344137e+01	2.258937e+02
1.170000e-06	3.231734e-06	3.495194e-09	3.431472e+01	2.292516e+02
1.180000e-06	3.312709e-06	3.541083e-09	3.517451e+01	2.324115e+02
1.190000e-06	3.392444e-06	3.586654e-09	3.602114e+01	2.353819e+02
1.200000e-06	3.470914e-06	3.628667e-09	3.685434e+01	2.381731e+02
1.210000e-06	3.548172e-06	3.664933e-09	3.767467e+01	2.407967e+02
1.220000e-06	3.624298e-06	3.699939e-09	3.848298e+01	2.432654e+02
1.230000e-06	3.699174e-06	3.735038e-09	3.927802e+01	2.455923e+02
1.240000e-06	3.772414e-06	3.767474e-09	4.005568e+01	2.477900e+02
1.250000e-06	3.843977e-06	3.798036e-09	4.081554e+01	2.498702e+02
1.260000e-06	3.914183e-06	3.826375e-09	4.156099e+01	2.518432e+02
1.270000e-06	3.983082e-06	3.853668e-09	4.229257e+01	2.537176e+02
1.280000e-06	4.050714e-06	3.881727e-09	4.301068e+01	2.555001e+02
1.290000e-06	4.116951e-06	3.907588e-09	4.371399e+01	2.571961e+02
1.300000e-06	4.181487e-06	3.930852e-09	4.439924e+01	2.588099e+02
1.310000e-06	4.244470e-06	3.953752e-09	4.506799e+01	2.603452e+02
1.320000e-06	4.306105e-06	3.976827e-09	4.572244e+01	2.618054e+02
1.330000e-06	4.366374e-06	3.997558e-09	4.636238e+01	2.631941e+02
1.340000e-06	4.425347e-06	4.016727e-09	4.698856e+01	2.645150e+02
1.350000e-06	4.482644e-06	4.035960e-09	4.759694e+01	2.657725e+02
1.360000e-06	4.538096e-06	4.055248e-09	4.818573e+01	2.669707e+02
1.370000e-06	4.592008e-06	4.074162e-09	4.875818e+01	2.681141e+02
1.380000e-06	4.644276e-06	4.091254e-09	4.931316e+01	2.692063e+02
1.390000e-06	4.694547e-06	4.107482e-09	4.984694e+01	2.702505e+02
1.400000e-06	4.742743e-06	4.123815e-09	5.035868e+01	2.712488e+02
1.410000e-06	4.789155e-06	4.138852e-09	5.085149e+01	2.722022e+02
1.420000e-06	4.833988e-06	4.152551e-09	5.132753e+01	2.731108e+02
1.430000e-06	4.877266e-06	4.166550e-09	5.178706e+01	2.739738e+02
1.440000e-06	4.918713e-06	4.179942e-09	5.222714e+01	2.747899e+02
1.450000e-06	4.958250e-06	4.191131e-09	5.264695e+01	2.755579e+02
1.460000e-06	4.996110e-06	4.201560e-09	5.304895e+01	2.762767e+02
1.470000e-06	5.032399e-06	4.212442e-09	5.343427e+01	2.769459e+02
1.480000e-06	5.067086e-06	4.222700e-09	5.380257e+01	2.775662e+02
1.490000e-06	5.099868e-06	4.231929e-09	5.415065e+01	2.781388e+02
1.500000e-06	5.130751e-06	4.240915e-09	5.447857e+01	2.786659e+02
1.510000e-06	5.159929e-06	4.249015e-09	5.478838e+01	2.791502e+02
1.520000e-06	5.187432e-06	4.256553e-09	5.508041e+01	2.795946e+02
1.530000e-06	5.213020e-06	4.264240e-09	5.535211e+01	2.800016e+02
1.540000e-06	5.236514e-06	4.270468e-09	5.560157e+01	2.803734e+02
1.550000e-06	5.258154e-06	4.275734e-09	5.583134e+01	2.807111e+02
1.560000e-06	5.278162e-06	4.280986e-09	5.604379e+01	2.810148e+02
1.570000e-06	5.296460e-06	4.286288e-09	5.623808e+01	2.812839e+02
1.580000e-06	5.312788e-06	4.291228e-09	5.641145e+01	2.815168e+02
1.590000e-06	5.327113e-06	4.294964e-09	5.656355e+01	2.817117e+02
1.600000e-06	5.339516e-06	4.297671e-09	5.669525e+01	2.818666e+02
1.610000e-06	5.349823e-06	4.299513e-09	5.680469e+01	2.819801e+02
1.620000e-06	5.357964e-06	4.301656e-09	5.689113e+01	2.820515e+02
1.630000e-06	5.364204e-06	4.303706e-09	5.695739e+01	2.820812e+02
1.640000e-06	5.368680e-06	4.303588e-09	5.700492e+01	2.820706e+02
1.650000e-06	5.371379e-06	4.303368e-09	5.703357e+01	2.820221e+02
1.660000e-06	5.372126e-06	4.305625e-09	5.704150e+01	2.819389e+02
1.670000e-06	5.370936e-06	4.304633e-09	5.702887e+01	2.818244e+02
1.680000e-06	5.368067e-06	4.299230e-09	5.699840e+01	2.816819e+02
1.690000e-06	5.363643e-06	4.295791e-09	5.695143e+01	2.815142e+02
1.700000e-06	5.357415e-06	4.293167e-09	5.688530e+01	2.813232e+02
1.710000e-06	5.349246e-06	4.290419e-09	5.679857e+01	2.811097e+02
1.720000e-06	5.339431e-06	4.285029e-09	5.669435e+01	2.808734e+02
1.730000e-06	5.328046e-06	4.279058e-09	5.657346e+01	2.806132e+02
1.740000e-06	5.314906e-06	4.275630e-09	5.643393e+01	2.803272e+02
1.750000e-06	5.299650e-06	4.243620e-09	5.627195e+01	2.800138e+02
1.760000e-06	5.281944e-06	4.208358e-09	5.608395e+01	2.796713e+02
1.770000e-06	5.261644e-06	4.212860e-09	5.586840e+01	2.792992e+02
1.780000e-06	5.238942e-06	4.243409e-09	5.562735e+01	2.788979e+02
1.790000e-06	5.214748e-06	4.299324e-09	5.537046e+01	2.784691e+02
1.800000e-06	5.189845e-06	4.279217e-09	5.510603e+01	2.780156e+02
1.810000e-06	5.163650e-06	4.179447e-09	5.482789e+01	2.775411e+02
1.820000e-06	5.135389e-06	4.198962e-09	5.452782e+01	2.770493e+02
1.830000e-06	5.105501e-06	4.228871e-09	5.421047e+01	2.765440e+02
1.840000e-06	5.074006e-06	4.217612e-09	5.387605e+01	2.760278e+02
1.850000e-06	5.040249e-06	4.225926e-09	5.351761e+01	2.755018e+02
1.860000e-06	5.004657e-06	4.147669e-09	5.313969e+01	2.749653e+02
1.870000e-06	4.967541e-06	4.141205e-09	5.274560e+01	2.744155e+02
1.880000e-06	4.928537e-06	4.214666e-09	5.233145e+01	2.738476e+02
1.890000e-06	4.887725e-06	4.161820e-09	5.189810e+01	2.732550e+02
1.900000e-06	4.845099e-06	4.133544e-09	5.144551e+01	2.726302e+02
1.910000e-06	4.800927e-06	4.144996e-09	5.097649e+01	2.719653e+02
1.920000e-06	4.755287e-06	4.137187e-09	5.049188e+01	2.712527e+02
1.930000e-06	4.707673e-06	4.169187e-09	4.998630e+01	2.704860e+02
1.940000e-06	4.658306e-06	4.105991e-09	4.946212e+01	2.696606e+02
1.950000e-06	4.607368e-06	4.067915e-09	4.892126e+01	2.687738e+02
1.960000e-06	4.554586e-06	4.096964e-09	4.836082e+01	2.678254e+02
1.970000e-06	4.499786e-06	4.081006e-09	4.777896e+01	2.668170e+02
1.980000e-06	4.443204e-06	4.064785e-09	4.717816e+01	2.657517e+02
1.990000e-06	4.385155e-06	4.024911e-09	4.656179e+01	2.646338e+02
2.000000e-06	4.325616e-06	4.014796e-09	4.592961e+01	2.634677e+02
2.010000e-06	4.264730e-06	4.012353e-09	4.528312e+01	2.622575e+02
2.020000e-06	4.202324e-06	3.994375e-09	4.462048e+01	2.610062e+02
2.030000e-06	4.138096e-06	3.980134e-09	4.393851e+01	2.597151e+02
2.040000e-06	4.072286e-06	3.928477e-09	4.323974e+01	2.583841e+02
2.050000e-06	4.005100e-06	3.927551e-09	4.252635e+01	2.570112e+02
2.060000e-06	3.936627e-06	3.919725e-09	4.179930e+01	2.555930e+02
2.070000e-06	3.866590e-06	3.879481e-09	4.105564e+01	2.541251e+02
2.080000e-06	3.794876e-06	3.849397e-09	4.029418e+01	2.526026e+02
2.090000e-06	3.721910e-06	3.820153e-09	3.951943e+01	2.510206e+02
2.100000e-06	3.647678e-06	3.820598e-09	3.873123e+01	2.493745e+02
2.110000e-06	3.572036e-06	3.782353e-09	3.792806e+01	2.476606e+02
2.120000e-06	3.494950e-06	3.741812e-09	3.710956e+01	2.458761e+02
2.130000e-06	3.416420e-06	3.725918e-09	3.627572e+01	2.440189e+02
2.140000e-06	3.336516e-06	3.702295e-09	3.542729e+01	2.420879e+02
2.150000e-06	3.255378e-06	3.669851e-09	3.456576e+01	2.400817e+02
2.160000e-06	3.173160e-06	3.624503e-09	3.369277e+01	2.379993e+02
2.170000e-06	3.089899e-06	3.596335e-09	3.280870e+01	2.358388e+02
2.180000e-06	3.005695e-06	3.561475e-09	3.191462e+01	2.335977e+02
2.190000e-06	2.920448e-06	3.528570e-09	3.100947e+01	2.312723e+02
2.200000e-06	2.833999e-06	3.493244e-09	3.009154e+01	2.288580e+02
2.210000e-06	2.746328e-06	3.444946e-09	2.916065e+01	2.263490e+02
2.220000e-06	2.657661e-06	3.406589e-09	2.821918e+01	2.237391e+02
2.230000e-06	2.568198e-06	3.374106e-09	2.726926e+01	2.210214e+02
2.240000e-06	2.477825e-06	3.336881e-09	2.630967e+01	2.181893e+02
2.250000e-06	2.386658e-06	3.281198e-09	2.534165e+01	2.152360e+02
2.260000e-06	2.294849e-06	3.232171e-09	2.436682e+01	2.121555e+02
2.270000e-06	2.202420e-06	3.191607e-09	2.338540e+01	2.089421e+02
2.280000e-06	2.109151e-06	3.142975e-09	2.239507e+01	2.055901e+02
2.290000e-06	2.014895e-06	3.084234e-09	2.139425e+01	2.020943e+02
2.300000e-06	1.919878e-06	3.023521e-09	2.038536e+01	1.984485e+02
2.310000e-06	1.824113e-06	2.969810e-09	1.936852e+01	1.946460e+02
2.320000e-06	1.727619e-06	2.914558e-09	1.834394e+01	1.906784e+02
2.330000e-06	1.630585e-06	2.854287e-09	1.731363e+01	1.865356e+02
2.340000e-06	1.533062e-06	2.786340e-09	1.627813e+01	1.822050e+02
2.350000e-06	1.435034e-06	2.714926e-09	1.523726e+01	1.776718e+02
2.360000e-06	1.336528e-06	2.644295e-09	1.419132e+01	1.729181e+02
2.370000e-06	1.237601e-06	2.572933e-09	1.314091e+01	1.679239e+02
2.380000e-06	1.138283e-06	2.493494e-09	1.208634e+01	1.626664e+02
2.390000e-06	1.038613e-06	2.403494e-09	1.102804e+01	1.571205e+02
2.400000e-06	9.386663e-07	2.311982e-09	9.966806e+00	1.512593e+02
2.410000e-06	8.384629e-07	2.220636e-09	8.902841e+00	1.450541e+02
2.420000e-06	7.380533e-07	2.125030e-09	7.836687e+00	1.384750e+02
2.430000e-06	6.374263e-07	2.020409e-09	6.768224e+00	1.314915e+02
2.440000e-06	5.365383e-07	1.906157e-09	5.696991e+00	1.240729e+02
2.450000e-06	4.353851e-07	1.785432e-09	4.622941e+00	1.161894e+02
2.460000e-06	3.340864e-07	1.658031e-09	3.547346e+00	1.078132e+02
2.470000e-06	2.327145e-07	1.523016e-09	2.470974e+00	9.891983e+01
2.480000e-06	1.312376e-07	1.379990e-09	1.393487e+00	8.948985e+01
2.490000e-06	2.968481e-08	1.224845e-09	3.151948e-01	7.951099e+01
2.500000e-06	-7.185135e-08	1.061654e-09	-7.629212e-01	6.898015e+01
2.510000e-06	-1.732696e-07	8.955262e-10	-1.839785e+00	5.790558e+01
2.520000e-06	-2.745684e-07	7.225833e-10	-2.915381e+00	4.630886e+01
2.530000e-06	-3.757731e-07	5.393826e-10	-3.989978e+00	3.422648e+01
2.540000e-06	-4.768830e-07	3.460005e-10	-5.063568e+00	2.171080e+01
2.550000e-06	-5.778192e-07	1.472867e-10	-6.135313e+00	8.830211e+00
2.560000e-06	-6.785183e-07	-5.353861e-11	-7.204542e+00	-4.331645e+00
2.570000e-06	-7.789630e-07	-2.561026e-10	-8.271068e+00	-1.767774e+01
2.580000e-06	-8.791449e-07	-4.608488e-10	-9.334804e+00	-3.110053e+01
2.590000e-06	-9.790382e-07	-6.676301e-10	-1.039548e+01	-4.448566e+01
2.600000e-06	-1.078625e-06	-8.719300e-10	-1.145290e+01	-5.771653e+01
2.610000e-06	-1.177897e-06	-1.069097e-09	-1.250697e+01	-7.067905e+01
2.620000e-06	-1.276776e-06	-1.256797e-09	-1.355688e+01	-8.326663e+01
2.630000e-06	-1.375189e-06	-1.439842e-09	-1.460183e+01	-9.538474e+01
2.640000e-06	-1.473129e-06	-1.619851e-09	-1.564176e+01	-1.069548e+02
2.650000e-06	-1.570539e-06	-1.787487e-09	-1.667606e+01	-1.179170e+02
2.660000e-06	-1.667440e-06	-1.941296e-09	-1.770496e+01	-1.282320e+02
2.670000e-06	-1.763915e-06	-2.088479e-09	-1.872933e+01	-1.378815e+02
2.680000e-06	-1.859926e-06	-2.230616e-09	-1.974879e+01	-1.468668e+02
2.690000e-06	-1.955287e-06	-2.361966e-09	-2.076133e+01	-1.552067e+02
2.700000e-06	-2.049705e-06	-2.479503e-09	-2.176387e+01	-1.629347e+02
2.710000e-06	-2.143116e-06	-2.587079e-09	-2.275571e+01	-1.700946e+02
2.720000e-06	-2.235714e-06	-2.687960e-09	-2.373892e+01	-1.767367e+02
2.730000e-06	-2.327580e-06	-2.783396e-09	-2.471436e+01	-1.829139e+02
2.740000e-06	-2.418665e-06	-2.872406e-09	-2.568151e+01	-1.886776e+02
2.750000e-06	-2.508831e-06	-2.953351e-09	-2.663890e+01	-1.940753e+02
2.760000e-06	-2.598068e-06	-3.030598e-09	-2.758642e+01	-1.991481e+02
2.770000e-06	-2.686550e-06	-3.106212e-09	-2.852593e+01	-2.039302e+02
2.780000e-06	-2.774264e-06	-3.178882e-09	-2.945728e+01	-2.084478e+02
2.790000e-06	-2.860955e-06	-3.245709e-09	-3.037777e+01	-2.127208e+02
2.800000e-06	-2.946398e-06	-3.306380e-09	-3.128500e+01	-2.167632e+02
2.810000e-06	-3.030694e-06	-3.364453e-09	-3.218006e+01	-2.205847e+02
2.820000e-06	-3.113994e-06	-3.421402e-09	-3.306454e+01	-2.241930e+02
2.830000e-06	-3.196288e-06	-3.475528e-09	-3.393835e+01	-2.275946e+02
2.840000e-06	-3.277572e-06	-3.524695e-09	-3.480143e+01	-2.307966e+02
2.850000e-06	-3.357819e-06	-3.570570e-09	-3.565349e+01	-2.338072e+02
2.860000e-06	-3.436760e-06	-3.613823e-09	-3.649169e+01	-2.366362e+02
2.870000e-06	-3.514207e-06	-3.655509e-09	-3.731402e+01	-2.392950e+02
2.880000e-06	-3.590218e-06	-3.697155e-09	-3.812112e+01	-2.417961e+02
2.890000e-06	-3.664831e-06	-3.736453e-09	-3.891336e+01	-2.441526e+02
2.900000e-06	-3.738126e-06	-3.770312e-09	-3.969160e+01	-2.463773e+02
2.910000e-06	-3.810195e-06	-3.801935e-09	-4.045684e+01	-2.484821e+02
2.920000e-06	-3.880760e-06	-3.835291e-09	-4.120611e+01	-2.504777e+02
2.930000e-06	-3.949687e-06	-3.867327e-09	-4.193797e+01	-2.523729e+02
2.940000e-06	-4.017259e-06	-3.894663e-09	-4.265546e+01	-2.541749e+02
