# Temperatura_=_20.0
# Concentracion g/m^3_=_9000.0
# C_Vs_to_Am_M_A/Vsm_=_65563218390.804596
# pendiente_HvsI_1/m_=_3716.3
# ordenada_HvsI_A/m_=_1297.0
# frecuencia_Hz_=_300866.90105017705

Tiempo_(s)	Campo_(V.s)	Magnetizacion_(V.s)	Campo_(kA/m)	Magnetizacion_(A/m)
0.000000e+00	-5.324912e-06	-4.283891e-09	-5.680842e+01	-2.811596e+02
1.000000e-08	-5.323258e-06	-4.285141e-09	-5.679078e+01	-2.810775e+02
2.000000e-08	-5.319760e-06	-4.283693e-09	-5.675345e+01	-2.809640e+02
3.000000e-08	-5.314625e-06	-4.281792e-09	-5.669868e+01	-2.808227e+02
4.000000e-08	-5.307907e-06	-4.278586e-09	-5.662701e+01	-2.806568e+02
5.000000e-08	-5.299522e-06	-4.274252e-09	-5.653755e+01	-2.804696e+02
6.000000e-08	-5.289079e-06	-4.273008e-09	-5.642614e+01	-2.802634e+02
7.000000e-08	-5.276619e-06	-4.265542e-09	-5.629321e+01	-2.800395e+02
8.000000e-08	-5.262210e-06	-4.253931e-09	-5.613949e+01	-2.797980e+02
9.000000e-08	-5.245681e-06	-4.287126e-09	-5.596315e+01	-2.795381e+02
1.000000e-07	-5.227117e-06	-4.312376e-09	-5.576510e+01	-2.792574e+02
1.100000e-07	-5.206625e-06	-4.293533e-09	-5.554649e+01	-2.789531e+02
1.200000e-07	-5.184282e-06	-4.264256e-09	-5.530813e+01	-2.786216e+02
1.300000e-07	-5.160283e-06	-4.192087e-09	-5.505209e+01	-2.782591e+02
1.400000e-07	-5.134663e-06	-4.176952e-09	-5.477877e+01	-2.778617e+02
1.500000e-07	-5.107484e-06	-4.294258e-09	-5.448881e+01	-2.774263e+02
1.600000e-07	-5.078851e-06	-4.239778e-09	-5.418334e+01	-2.769502e+02
1.700000e-07	-5.048742e-06	-4.167986e-09	-5.386213e+01	-2.764317e+02
1.800000e-07	-5.016788e-06	-4.203139e-09	-5.352123e+01	-2.758700e+02
1.900000e-07	-4.982693e-06	-4.154192e-09	-5.315749e+01	-2.752652e+02
2.000000e-07	-4.947061e-06	-4.218782e-09	-5.277734e+01	-2.746182e+02
2.100000e-07	-4.909934e-06	-4.237780e-09	-5.238126e+01	-2.739304e+02
2.200000e-07	-4.870922e-06	-4.100660e-09	-5.196506e+01	-2.732038e+02
2.300000e-07	-4.830114e-06	-4.120580e-09	-5.152971e+01	-2.724400e+02
2.400000e-07	-4.787438e-06	-4.189670e-09	-5.107442e+01	-2.716409e+02
2.500000e-07	-4.742987e-06	-4.153054e-09	-5.060020e+01	-2.708077e+02
2.600000e-07	-4.696863e-06	-4.118071e-09	-5.010813e+01	-2.699411e+02
2.700000e-07	-4.648787e-06	-4.057076e-09	-4.959524e+01	-2.690411e+02
2.800000e-07	-4.598625e-06	-4.080211e-09	-4.906009e+01	-2.681070e+02
2.900000e-07	-4.546614e-06	-4.118067e-09	-4.850520e+01	-2.671373e+02
3.000000e-07	-4.492917e-06	-4.072341e-09	-4.793235e+01	-2.661300e+02
3.100000e-07	-4.437682e-06	-4.013582e-09	-4.734308e+01	-2.650825e+02
3.200000e-07	-4.380828e-06	-4.010732e-09	-4.673653e+01	-2.639923e+02
3.300000e-07	-4.322181e-06	-4.037555e-09	-4.611086e+01	-2.628564e+02
3.400000e-07	-4.262014e-06	-4.002766e-09	-4.546897e+01	-2.616721e+02
3.500000e-07	-4.200467e-06	-3.975232e-09	-4.481236e+01	-2.604369e+02
3.600000e-07	-4.137480e-06	-3.941726e-09	-4.414039e+01	-2.591489e+02
3.700000e-07	-4.072946e-06	-3.917125e-09	-4.345192e+01	-2.578064e+02
3.800000e-07	-4.006763e-06	-3.940764e-09	-4.274585e+01	-2.564084e+02
3.900000e-07	-3.939045e-06	-3.908837e-09	-4.202340e+01	-2.549542e+02
4.000000e-07	-3.869941e-06	-3.840383e-09	-4.128618e+01	-2.534436e+02
4.100000e-07	-3.799626e-06	-3.829020e-09	-4.053602e+01	-2.518764e+02
4.200000e-07	-3.728236e-06	-3.840737e-09	-3.977441e+01	-2.502525e+02
4.300000e-07	-3.655478e-06	-3.810414e-09	-3.899819e+01	-2.485715e+02
4.400000e-07	-3.580933e-06	-3.748176e-09	-3.820292e+01	-2.468324e+02
4.500000e-07	-3.504780e-06	-3.724780e-09	-3.739048e+01	-2.450339e+02
4.600000e-07	-3.427336e-06	-3.721530e-09	-3.656427e+01	-2.431737e+02
4.700000e-07	-3.348557e-06	-3.694781e-09	-3.572383e+01	-2.412487e+02
4.800000e-07	-3.268396e-06	-3.651183e-09	-3.486864e+01	-2.392552e+02
4.900000e-07	-3.187022e-06	-3.607131e-09	-3.400050e+01	-2.371887e+02
5.000000e-07	-3.104566e-06	-3.590488e-09	-3.312083e+01	-2.350442e+02
5.100000e-07	-3.021212e-06	-3.568738e-09	-3.223158e+01	-2.328166e+02
5.200000e-07	-2.937101e-06	-3.529812e-09	-3.133424e+01	-2.305007e+02
5.300000e-07	-2.851961e-06	-3.480263e-09	-3.042594e+01	-2.280913e+02
5.400000e-07	-2.765737e-06	-3.438064e-09	-2.950606e+01	-2.255840e+02
5.500000e-07	-2.678682e-06	-3.411279e-09	-2.857732e+01	-2.229744e+02
5.600000e-07	-2.590845e-06	-3.376437e-09	-2.764023e+01	-2.202592e+02
5.700000e-07	-2.501898e-06	-3.324045e-09	-2.669131e+01	-2.174350e+02
5.800000e-07	-2.411650e-06	-3.263618e-09	-2.572850e+01	-2.144989e+02
5.900000e-07	-2.320482e-06	-3.225773e-09	-2.475589e+01	-2.114479e+02
6.000000e-07	-2.228694e-06	-3.190198e-09	-2.377665e+01	-2.082784e+02
6.100000e-07	-2.136274e-06	-3.135133e-09	-2.279068e+01	-2.049863e+02
6.200000e-07	-2.043105e-06	-3.070466e-09	-2.179671e+01	-2.015662e+02
6.300000e-07	-1.949131e-06	-3.015984e-09	-2.079415e+01	-1.980113e+02
6.400000e-07	-1.854512e-06	-2.969225e-09	-1.978472e+01	-1.943130e+02
6.500000e-07	-1.759420e-06	-2.912847e-09	-1.877024e+01	-1.904611e+02
6.600000e-07	-1.663840e-06	-2.846841e-09	-1.775055e+01	-1.864434e+02
6.700000e-07	-1.567563e-06	-2.777450e-09	-1.672343e+01	-1.822461e+02
6.800000e-07	-1.470445e-06	-2.711368e-09	-1.568733e+01	-1.778533e+02
6.900000e-07	-1.372592e-06	-2.642358e-09	-1.464339e+01	-1.732478e+02
7.000000e-07	-1.274184e-06	-2.568124e-09	-1.359354e+01	-1.684106e+02
7.100000e-07	-1.175271e-06	-2.486307e-09	-1.253830e+01	-1.633213e+02
7.200000e-07	-1.075967e-06	-2.401309e-09	-1.147888e+01	-1.579577e+02
7.300000e-07	-9.764326e-07	-2.317400e-09	-1.041700e+01	-1.522960e+02
7.400000e-07	-8.766727e-07	-2.229354e-09	-9.352716e+00	-1.463108e+02
7.500000e-07	-7.766447e-07	-2.132089e-09	-8.285575e+00	-1.399746e+02
7.600000e-07	-6.763755e-07	-2.026437e-09	-7.215861e+00	-1.332584e+02
7.700000e-07	-5.759390e-07	-1.919426e-09	-6.144362e+00	-1.261321e+02
7.800000e-07	-4.753169e-07	-1.806279e-09	-5.070882e+00	-1.185646e+02
7.900000e-07	-3.744741e-07	-1.682896e-09	-3.995049e+00	-1.105257e+02
8.000000e-07	-2.734286e-07	-1.550918e-09	-2.917052e+00	-1.019867e+02
8.100000e-07	-1.722326e-07	-1.412664e-09	-1.837450e+00	-9.292300e+01
8.200000e-07	-7.098867e-08	-1.263050e-09	-7.573373e-01	-8.331582e+01
8.300000e-07	3.027211e-08	-1.103662e-09	3.229558e-01	-7.315484e+01
8.400000e-07	1.315634e-07	-9.412827e-10	1.403575e+00	-6.244053e+01
8.500000e-07	2.327980e-07	-7.723774e-10	2.483588e+00	-5.118645e+01
8.600000e-07	3.339335e-07	-5.938413e-10	3.562544e+00	-3.942108e+01
8.700000e-07	4.349346e-07	-4.066127e-10	4.640067e+00	-2.718902e+01
8.800000e-07	5.357727e-07	-2.149399e-10	5.715851e+00	-1.455139e+01
8.900000e-07	6.364178e-07	-1.826555e-11	6.789575e+00	-1.585248e+00
9.000000e-07	7.368095e-07	1.828720e-10	7.860597e+00	1.161806e+01
9.100000e-07	8.369277e-07	3.893920e-10	8.928700e+00	2.495552e+01
9.200000e-07	9.367938e-07	5.960672e-10	9.994114e+00	3.831600e+01
9.300000e-07	1.036423e-06	7.968597e-10	1.105700e+01	5.158448e+01
9.400000e-07	1.135760e-06	9.942973e-10	1.211677e+01	6.464679e+01
9.500000e-07	1.234768e-06	1.189529e-09	1.317303e+01	7.739432e+01
9.600000e-07	1.333377e-06	1.379458e-09	1.422503e+01	8.972861e+01
9.700000e-07	1.431429e-06	1.559393e-09	1.527110e+01	1.015653e+02
9.800000e-07	1.528737e-06	1.728445e-09	1.630922e+01	1.128370e+02
9.900000e-07	1.625245e-06	1.887968e-09	1.733880e+01	1.234958e+02
1.000000e-06	1.721092e-06	2.043776e-09	1.836134e+01	1.335134e+02
1.010000e-06	1.816408e-06	2.192994e-09	1.937821e+01	1.428810e+02
1.020000e-06	1.911126e-06	2.327651e-09	2.038871e+01	1.516076e+02
1.030000e-06	2.005168e-06	2.448613e-09	2.139198e+01	1.597171e+02
1.040000e-06	2.098535e-06	2.560067e-09	2.238806e+01	1.672455e+02
1.050000e-06	2.191196e-06	2.666410e-09	2.337661e+01	1.742368e+02
1.060000e-06	2.283176e-06	2.765565e-09	2.435789e+01	1.807393e+02
1.070000e-06	2.374523e-06	2.855756e-09	2.533242e+01	1.868020e+02
1.080000e-06	2.465094e-06	2.936953e-09	2.629867e+01	1.924717e+02
1.090000e-06	2.554561e-06	3.016956e-09	2.725315e+01	1.977905e+02
1.100000e-06	2.642858e-06	3.096853e-09	2.819513e+01	2.027945e+02
1.110000e-06	2.730212e-06	3.171410e-09	2.912706e+01	2.075131e+02
1.120000e-06	2.816687e-06	3.237738e-09	3.004961e+01	2.119688e+02
1.130000e-06	2.902195e-06	3.300326e-09	3.096185e+01	2.161786e+02
1.140000e-06	2.986727e-06	3.361880e-09	3.186368e+01	2.201547e+02
1.150000e-06	3.070412e-06	3.420590e-09	3.275646e+01	2.239060e+02
1.160000e-06	3.153189e-06	3.474738e-09	3.363956e+01	2.274401e+02
1.170000e-06	3.234837e-06	3.521080e-09	3.451062e+01	2.307639e+02
1.180000e-06	3.315164e-06	3.565383e-09	3.536758e+01	2.338854e+02
1.190000e-06	3.394227e-06	3.610048e-09	3.621106e+01	2.368137e+02
1.200000e-06	3.472146e-06	3.652358e-09	3.704233e+01	2.395597e+02
1.210000e-06	3.548864e-06	3.688896e-09	3.786079e+01	2.421359e+02
1.220000e-06	3.624347e-06	3.724725e-09	3.866607e+01	2.445558e+02
1.230000e-06	3.698384e-06	3.759339e-09	3.945593e+01	2.468333e+02
1.240000e-06	3.770797e-06	3.789898e-09	4.022846e+01	2.489821e+02
1.250000e-06	3.841729e-06	3.819811e-09	4.098520e+01	2.510150e+02
1.260000e-06	3.911360e-06	3.848690e-09	4.172804e+01	2.529433e+02
1.270000e-06	3.979721e-06	3.876150e-09	4.245736e+01	2.547763e+02
1.280000e-06	4.046808e-06	3.901286e-09	4.317306e+01	2.565217e+02
1.290000e-06	4.112353e-06	3.925759e-09	4.387232e+01	2.581849e+02
1.300000e-06	4.176223e-06	3.950852e-09	4.455372e+01	2.597703e+02
1.310000e-06	4.238677e-06	3.974698e-09	4.522000e+01	2.612808e+02
1.320000e-06	4.299772e-06	3.995891e-09	4.587179e+01	2.627186e+02
1.330000e-06	4.359522e-06	4.015678e-09	4.650924e+01	2.640858e+02
1.340000e-06	4.417830e-06	4.036617e-09	4.713129e+01	2.653846e+02
1.350000e-06	4.474363e-06	4.056845e-09	4.773440e+01	2.666172e+02
1.360000e-06	4.529178e-06	4.074514e-09	4.831919e+01	2.677864e+02
1.370000e-06	4.582457e-06	4.090464e-09	4.888760e+01	2.688951e+02
1.380000e-06	4.633988e-06	4.106477e-09	4.943735e+01	2.699466e+02
1.390000e-06	4.683510e-06	4.123712e-09	4.996568e+01	2.709437e+02
1.400000e-06	4.731104e-06	4.140156e-09	5.047343e+01	2.718892e+02
1.410000e-06	4.776988e-06	4.153268e-09	5.096293e+01	2.727853e+02
1.420000e-06	4.821308e-06	4.166641e-09	5.143576e+01	2.736337e+02
1.430000e-06	4.864061e-06	4.181663e-09	5.189186e+01	2.744355e+02
1.440000e-06	4.904910e-06	4.195088e-09	5.232767e+01	2.751913e+02
1.450000e-06	4.943884e-06	4.205885e-09	5.274345e+01	2.759015e+02
1.460000e-06	4.981230e-06	4.214760e-09	5.314187e+01	2.765665e+02
1.470000e-06	5.016978e-06	4.223977e-09	5.352325e+01	2.771869e+02
1.480000e-06	5.050971e-06	4.234069e-09	5.388590e+01	2.777635e+02
1.490000e-06	5.083030e-06	4.242965e-09	5.422792e+01	2.782979e+02
1.500000e-06	5.113352e-06	4.249810e-09	5.455141e+01	2.787920e+02
1.510000e-06	5.142054e-06	4.257293e-09	5.485762e+01	2.792481e+02
1.520000e-06	5.169023e-06	4.266686e-09	5.514533e+01	2.796689e+02
1.530000e-06	5.193968e-06	4.274440e-09	5.541146e+01	2.800569e+02
1.540000e-06	5.216930e-06	4.279153e-09	5.565642e+01	2.804144e+02
1.550000e-06	5.238182e-06	4.283911e-09	5.588315e+01	2.807431e+02
1.560000e-06	5.257773e-06	4.290125e-09	5.609216e+01	2.810439e+02
1.570000e-06	5.275533e-06	4.294821e-09	5.628163e+01	2.813169e+02
1.580000e-06	5.291281e-06	4.297655e-09	5.644964e+01	2.815613e+02
1.590000e-06	5.305073e-06	4.301138e-09	5.659677e+01	2.817754e+02
1.600000e-06	5.316961e-06	4.304337e-09	5.672360e+01	2.819574e+02
1.610000e-06	5.326744e-06	4.307036e-09	5.682797e+01	2.821049e+02
1.620000e-06	5.334435e-06	4.309147e-09	5.691002e+01	2.822159e+02
1.630000e-06	5.340290e-06	4.309964e-09	5.697248e+01	2.822889e+02
1.640000e-06	5.344401e-06	4.310348e-09	5.701634e+01	2.823232e+02
1.650000e-06	5.346601e-06	4.312319e-09	5.703981e+01	2.823190e+02
1.660000e-06	5.346759e-06	4.313562e-09	5.704150e+01	2.822775e+02
1.670000e-06	5.345149e-06	4.309768e-09	5.702432e+01	2.822012e+02
1.680000e-06	5.341919e-06	4.307892e-09	5.698987e+01	2.820929e+02
1.690000e-06	5.337083e-06	4.307082e-09	5.693827e+01	2.819560e+02
1.700000e-06	5.330395e-06	4.306034e-09	5.686692e+01	2.817940e+02
1.710000e-06	5.321853e-06	4.304672e-09	5.677579e+01	2.816102e+02
1.720000e-06	5.311745e-06	4.302528e-09	5.666795e+01	2.814070e+02
1.730000e-06	5.300033e-06	4.309241e-09	5.654300e+01	2.811860e+02
1.740000e-06	5.286499e-06	4.295413e-09	5.639862e+01	2.809475e+02
1.750000e-06	5.270785e-06	4.236291e-09	5.623097e+01	2.806907e+02
1.760000e-06	5.252603e-06	4.228058e-09	5.603700e+01	2.804137e+02
1.770000e-06	5.231845e-06	4.238644e-09	5.581554e+01	2.801137e+02
1.780000e-06	5.208818e-06	4.294983e-09	5.556988e+01	2.797871e+02
1.790000e-06	5.184523e-06	4.359153e-09	5.531069e+01	2.794302e+02
1.800000e-06	5.159553e-06	4.214615e-09	5.504431e+01	2.790390e+02
1.810000e-06	5.133086e-06	4.205784e-09	5.476194e+01	2.786104e+02
1.820000e-06	5.104588e-06	4.288107e-09	5.445791e+01	2.781415e+02
1.830000e-06	5.074534e-06	4.223982e-09	5.413728e+01	2.776304e+02
1.840000e-06	5.042684e-06	4.300201e-09	5.379749e+01	2.770762e+02
1.850000e-06	5.008614e-06	4.252692e-09	5.343402e+01	2.764788e+02
1.860000e-06	4.972911e-06	4.115488e-09	5.305313e+01	2.758390e+02
1.870000e-06	4.935599e-06	4.256972e-09	5.265507e+01	2.751582e+02
1.880000e-06	4.896323e-06	4.239699e-09	5.223605e+01	2.744381e+02
1.890000e-06	4.855275e-06	4.113369e-09	5.179814e+01	2.736806e+02
1.900000e-06	4.812416e-06	4.149710e-09	5.134089e+01	2.728875e+02
1.910000e-06	4.768105e-06	4.133866e-09	5.086817e+01	2.720601e+02
1.920000e-06	4.722339e-06	4.185337e-09	5.037991e+01	2.711992e+02
1.930000e-06	4.674591e-06	4.141621e-09	4.987052e+01	2.703050e+02
1.940000e-06	4.625109e-06	4.044468e-09	4.934263e+01	2.693768e+02
1.950000e-06	4.574004e-06	4.109828e-09	4.879742e+01	2.684133e+02
1.960000e-06	4.521069e-06	4.078107e-09	4.823269e+01	2.674127e+02
1.970000e-06	4.466145e-06	4.066483e-09	4.764674e+01	2.663724e+02
1.980000e-06	4.409515e-06	4.048274e-09	4.704257e+01	2.652898e+02
1.990000e-06	4.351408e-06	3.994091e-09	4.642267e+01	2.641620e+02
2.000000e-06	4.291771e-06	4.015124e-09	4.578644e+01	2.629863e+02
2.010000e-06	4.230884e-06	3.992348e-09	4.513687e+01	2.617601e+02
2.020000e-06	4.168441e-06	4.002061e-09	4.447070e+01	2.604814e+02
2.030000e-06	4.104136e-06	3.921846e-09	4.378466e+01	2.591485e+02
2.040000e-06	4.038286e-06	3.889891e-09	4.308215e+01	2.577603e+02
2.050000e-06	3.971084e-06	3.954268e-09	4.236521e+01	2.563159e+02
2.060000e-06	3.902663e-06	3.892694e-09	4.163527e+01	2.548152e+02
2.070000e-06	3.832656e-06	3.845679e-09	4.088841e+01	2.532579e+02
2.080000e-06	3.760945e-06	3.804252e-09	4.012336e+01	2.516439e+02
2.090000e-06	3.687980e-06	3.821841e-09	3.934494e+01	2.499729e+02
2.100000e-06	3.613780e-06	3.814462e-09	3.855334e+01	2.482440e+02
2.110000e-06	3.538248e-06	3.740988e-09	3.774753e+01	2.464560e+02
2.120000e-06	3.461299e-06	3.719212e-09	3.692661e+01	2.446068e+02
2.130000e-06	3.382815e-06	3.692494e-09	3.608930e+01	2.426934e+02
2.140000e-06	3.302909e-06	3.685260e-09	3.523684e+01	2.407122e+02
2.150000e-06	3.221879e-06	3.643818e-09	3.437238e+01	2.386589e+02
2.160000e-06	3.139796e-06	3.599997e-09	3.349668e+01	2.365285e+02
2.170000e-06	3.056625e-06	3.561920e-09	3.260938e+01	2.343159e+02
2.180000e-06	2.972523e-06	3.521971e-09	3.171214e+01	2.320159e+02
2.190000e-06	2.887561e-06	3.508016e-09	3.080573e+01	2.296233e+02
2.200000e-06	2.801486e-06	3.461773e-09	2.988744e+01	2.271335e+02
2.210000e-06	2.714101e-06	3.406488e-09	2.895518e+01	2.245423e+02
2.220000e-06	2.625708e-06	3.364674e-09	2.801217e+01	2.218460e+02
2.230000e-06	2.536500e-06	3.347155e-09	2.706046e+01	2.190412e+02
2.240000e-06	2.446391e-06	3.306501e-09	2.609914e+01	2.161251e+02
2.250000e-06	2.355502e-06	3.241031e-09	2.512949e+01	2.130946e+02
2.260000e-06	2.263891e-06	3.194760e-09	2.415215e+01	2.099463e+02
2.270000e-06	2.171652e-06	3.153609e-09	2.316811e+01	2.066763e+02
2.280000e-06	2.078720e-06	3.104605e-09	2.217667e+01	2.032793e+02
2.290000e-06	1.984868e-06	3.044278e-09	2.117541e+01	1.997487e+02
2.300000e-06	1.890065e-06	2.987297e-09	2.016402e+01	1.960765e+02
2.310000e-06	1.794432e-06	2.928736e-09	1.914377e+01	1.922527e+02
2.320000e-06	1.698169e-06	2.869828e-09	1.811679e+01	1.882653e+02
2.330000e-06	1.601433e-06	2.814275e-09	1.708477e+01	1.841009e+02
2.340000e-06	1.504264e-06	2.750918e-09	1.604813e+01	1.797440e+02
2.350000e-06	1.406591e-06	2.676200e-09	1.500611e+01	1.751776e+02
2.360000e-06	1.308464e-06	2.600807e-09	1.395925e+01	1.703831e+02
2.370000e-06	1.209913e-06	2.529333e-09	1.290786e+01	1.653401e+02
2.380000e-06	1.110890e-06	2.448964e-09	1.185145e+01	1.600270e+02
2.390000e-06	1.011469e-06	2.359924e-09	1.079079e+01	1.544201e+02
2.400000e-06	9.117848e-07	2.268567e-09	9.727307e+00	1.484944e+02
2.410000e-06	8.118666e-07	2.174797e-09	8.661338e+00	1.422227e+02
2.420000e-06	7.117211e-07	2.076158e-09	7.592943e+00	1.355763e+02
2.430000e-06	6.114094e-07	1.971306e-09	6.522775e+00	1.285253e+02
2.440000e-06	5.109675e-07	1.859066e-09	5.451219e+00	1.210386e+02
2.450000e-06	4.103788e-07	1.733751e-09	4.378095e+00	1.130858e+02
2.460000e-06	3.096670e-07	1.599592e-09	3.303659e+00	1.046379e+02
2.470000e-06	2.088682e-07	1.466356e-09	2.228294e+00	9.566920e+01
2.480000e-06	1.079863e-07	1.328214e-09	1.152044e+00	8.615987e+01
2.490000e-06	7.071148e-09	1.172772e-09	7.543801e-02	7.609785e+01
2.500000e-06	-9.380182e-08	1.003840e-09	-1.000718e+00	6.548153e+01
2.510000e-06	-1.945758e-07	8.347714e-10	-2.075818e+00	5.432197e+01
2.520000e-06	-2.952869e-07	6.629043e-10	-3.150246e+00	4.264488e+01
2.530000e-06	-3.959519e-07	4.794318e-10	-4.224183e+00	3.049192e+01
2.540000e-06	-4.965271e-07	2.844221e-10	-5.297162e+00	1.792128e+01
2.550000e-06	-5.969431e-07	8.381934e-11	-6.368443e+00	5.007249e+00
2.560000e-06	-6.971651e-07	-1.166517e-10	-7.437653e+00	-8.161202e+00
2.570000e-06	-7.971538e-07	-3.154502e-10	-8.504376e+00	-2.148291e+01
2.580000e-06	-8.968273e-07	-5.175501e-10	-9.567734e+00	-3.484788e+01
2.590000e-06	-9.961964e-07	-7.275557e-10	-1.062785e+01	-4.814149e+01
2.600000e-06	-1.095281e-06	-9.339489e-10	-1.168492e+01	-6.124903e+01
2.610000e-06	-1.194048e-06	-1.125884e-09	-1.273861e+01	-7.406057e+01
2.620000e-06	-1.292428e-06	-1.307406e-09	-1.378818e+01	-8.647552e+01
2.630000e-06	-1.390315e-06	-1.488800e-09	-1.483247e+01	-9.840672e+01
2.640000e-06	-1.487652e-06	-1.668591e-09	-1.587091e+01	-1.097837e+02
2.650000e-06	-1.584494e-06	-1.833233e-09	-1.690405e+01	-1.205548e+02
2.660000e-06	-1.680961e-06	-1.982680e-09	-1.793320e+01	-1.306884e+02
2.670000e-06	-1.777039e-06	-2.125214e-09	-1.895821e+01	-1.401721e+02
2.680000e-06	-1.872506e-06	-2.265790e-09	-1.997669e+01	-1.490119e+02
2.690000e-06	-1.967084e-06	-2.397891e-09	-2.098569e+01	-1.572295e+02
2.700000e-06	-2.060653e-06	-2.514335e-09	-2.198393e+01	-1.648589e+02
2.710000e-06	-2.153405e-06	-2.617978e-09	-2.297343e+01	-1.719429e+02
2.720000e-06	-2.245427e-06	-2.716224e-09	-2.395517e+01	-1.785293e+02
2.730000e-06	-2.336679e-06	-2.813462e-09	-2.492869e+01	-1.846672e+02
2.740000e-06	-2.427102e-06	-2.903172e-09	-2.589336e+01	-1.904041e+02
2.750000e-06	-2.516618e-06	-2.982401e-09	-2.684835e+01	-1.957829e+02
2.760000e-06	-2.605372e-06	-3.057105e-09	-2.779521e+01	-2.008411e+02
2.770000e-06	-2.693451e-06	-3.131845e-09	-2.873488e+01	-2.056090e+02
2.780000e-06	-2.780618e-06	-3.204974e-09	-2.966481e+01	-2.101105e+02
2.790000e-06	-2.866577e-06	-3.271595e-09	-3.058186e+01	-2.143634e+02
2.800000e-06	-2.951331e-06	-3.330659e-09	-3.148605e+01	-2.183807e+02
2.810000e-06	-3.035095e-06	-3.387839e-09	-3.237969e+01	-2.221719e+02
2.820000e-06	-3.117919e-06	-3.446167e-09	-3.326328e+01	-2.257444e+02
2.830000e-06	-3.199681e-06	-3.500862e-09	-3.413555e+01	-2.291055e+02
2.840000e-06	-3.280428e-06	-3.548794e-09	-3.499700e+01	-2.322627e+02
2.850000e-06	-3.360088e-06	-3.592225e-09	-3.584684e+01	-2.352249e+02
2.860000e-06	-3.438261e-06	-3.633041e-09	-3.668082e+01	-2.380029e+02
2.870000e-06	-3.514919e-06	-3.673497e-09	-3.749865e+01	-2.406086e+02
2.880000e-06	-3.590202e-06	-3.712146e-09	-3.830180e+01	-2.430557e+02
2.890000e-06	-3.664130e-06	-3.747955e-09	-3.909050e+01	-2.453578e+02
2.900000e-06	-3.736836e-06	-3.782590e-09	-3.986616e+01	-2.475289e+02
2.910000e-06	-3.808265e-06	-3.817921e-09	-4.062818e+01	-2.495818e+02
2.920000e-06	-3.878110e-06	-3.851498e-09	-4.137332e+01	-2.515283e+02
2.930000e-06	-3.946455e-06	-3.879790e-09	-4.210246e+01	-2.533779e+02
2.940000e-06	-4.013520e-06	-3.904700e-09	-4.281794e+01	-2.551387e+02
