# Temperatura_=_20.0
# Concentracion g/m^3_=_9000.0
# C_Vs_to_Am_M_A/Vsm_=_65563218390.804596
# pendiente_HvsI_1/m_=_3716.3
# ordenada_HvsI_A/m_=_1297.0
# frecuencia_Hz_=_300867.4146947074

Tiempo_(s)	Campo_(V.s)	Magnetizacion_(V.s)	Campo_(kA/m)	Magnetizacion_(A/m)
0.000000e+00	-5.347453e-06	-4.273087e-09	-5.680296e+01	-2.810299e+02
1.000000e-08	-5.345896e-06	-4.271301e-09	-5.678642e+01	-2.809515e+02
2.000000e-08	-5.342480e-06	-4.271733e-09	-5.675013e+01	-2.808396e+02
3.000000e-08	-5.337438e-06	-4.271600e-09	-5.669657e+01	-2.806946e+02
4.000000e-08	-5.330799e-06	-4.267052e-09	-5.662604e+01	-2.805171e+02
5.000000e-08	-5.322450e-06	-4.261674e-09	-5.653736e+01	-2.803085e+02
6.000000e-08	-5.312084e-06	-4.260042e-09	-5.642725e+01	-2.800708e+02
7.000000e-08	-5.299731e-06	-4.257398e-09	-5.629603e+01	-2.798061e+02
8.000000e-08	-5.285440e-06	-4.262043e-09	-5.614423e+01	-2.795168e+02
9.000000e-08	-5.268993e-06	-4.265426e-09	-5.596952e+01	-2.792048e+02
1.000000e-07	-5.250447e-06	-4.256905e-09	-5.577252e+01	-2.788719e+02
1.100000e-07	-5.229982e-06	-4.262817e-09	-5.555513e+01	-2.785192e+02
1.200000e-07	-5.207709e-06	-4.250229e-09	-5.531854e+01	-2.781468e+02
1.300000e-07	-5.183789e-06	-4.216727e-09	-5.506444e+01	-2.777543e+02
1.400000e-07	-5.158260e-06	-4.239751e-09	-5.479327e+01	-2.773400e+02
1.500000e-07	-5.131135e-06	-4.209015e-09	-5.450513e+01	-2.769020e+02
1.600000e-07	-5.102450e-06	-4.180882e-09	-5.420043e+01	-2.764373e+02
1.700000e-07	-5.072253e-06	-4.240368e-09	-5.387966e+01	-2.759430e+02
1.800000e-07	-5.040234e-06	-4.183431e-09	-5.353954e+01	-2.754158e+02
1.900000e-07	-5.006189e-06	-4.160820e-09	-5.317790e+01	-2.748529e+02
2.000000e-07	-4.970626e-06	-4.221543e-09	-5.280014e+01	-2.742517e+02
2.100000e-07	-4.933464e-06	-4.163139e-09	-5.240539e+01	-2.736105e+02
2.200000e-07	-4.894423e-06	-4.157259e-09	-5.199068e+01	-2.729281e+02
2.300000e-07	-4.853539e-06	-4.185955e-09	-5.155638e+01	-2.722042e+02
2.400000e-07	-4.810785e-06	-4.137411e-09	-5.110224e+01	-2.714389e+02
2.500000e-07	-4.766293e-06	-4.122023e-09	-5.062962e+01	-2.706330e+02
2.600000e-07	-4.720058e-06	-4.123722e-09	-5.013850e+01	-2.697878e+02
2.700000e-07	-4.671820e-06	-4.121594e-09	-4.962609e+01	-2.689042e+02
2.800000e-07	-4.621539e-06	-4.090024e-09	-4.909199e+01	-2.679833e+02
2.900000e-07	-4.569434e-06	-4.062756e-09	-4.853850e+01	-2.670255e+02
3.000000e-07	-4.515635e-06	-4.064499e-09	-4.796702e+01	-2.660310e+02
3.100000e-07	-4.460214e-06	-4.044449e-09	-4.737832e+01	-2.649989e+02
3.200000e-07	-4.403080e-06	-4.029438e-09	-4.677142e+01	-2.639281e+02
3.300000e-07	-4.344287e-06	-4.015541e-09	-4.614689e+01	-2.628166e+02
3.400000e-07	-4.284002e-06	-3.992448e-09	-4.550652e+01	-2.616621e+02
3.500000e-07	-4.222305e-06	-3.982205e-09	-4.485114e+01	-2.604621e+02
3.600000e-07	-4.159195e-06	-3.954702e-09	-4.418077e+01	-2.592140e+02
3.700000e-07	-4.094469e-06	-3.943659e-09	-4.349322e+01	-2.579154e+02
3.800000e-07	-4.028137e-06	-3.920099e-09	-4.278861e+01	-2.565643e+02
3.900000e-07	-3.960314e-06	-3.882380e-09	-4.206817e+01	-2.551588e+02
4.000000e-07	-3.891040e-06	-3.878085e-09	-4.133230e+01	-2.536978e+02
4.100000e-07	-3.820512e-06	-3.860312e-09	-4.058313e+01	-2.521801e+02
4.200000e-07	-3.748841e-06	-3.829522e-09	-3.982181e+01	-2.506050e+02
4.300000e-07	-3.675709e-06	-3.793699e-09	-3.904496e+01	-2.489716e+02
4.400000e-07	-3.600869e-06	-3.779753e-09	-3.824999e+01	-2.472789e+02
4.500000e-07	-3.524533e-06	-3.754454e-09	-3.743911e+01	-2.455252e+02
4.600000e-07	-3.446825e-06	-3.717965e-09	-3.661366e+01	-2.437084e+02
4.700000e-07	-3.367730e-06	-3.692268e-09	-3.577348e+01	-2.418256e+02
4.800000e-07	-3.287332e-06	-3.659462e-09	-3.491946e+01	-2.398732e+02
4.900000e-07	-3.205733e-06	-3.631061e-09	-3.405268e+01	-2.378468e+02
5.000000e-07	-3.123077e-06	-3.603775e-09	-3.317467e+01	-2.357417e+02
5.100000e-07	-3.039514e-06	-3.574877e-09	-3.228704e+01	-2.335528e+02
5.200000e-07	-2.955025e-06	-3.538340e-09	-3.138955e+01	-2.312748e+02
5.300000e-07	-2.869572e-06	-3.501129e-09	-3.048184e+01	-2.289028e+02
5.400000e-07	-2.783179e-06	-3.462652e-09	-2.956413e+01	-2.264320e+02
5.500000e-07	-2.695924e-06	-3.425685e-09	-2.863727e+01	-2.238584e+02
5.600000e-07	-2.607697e-06	-3.384359e-09	-2.770008e+01	-2.211781e+02
5.700000e-07	-2.518308e-06	-3.335204e-09	-2.675055e+01	-2.183876e+02
5.800000e-07	-2.427821e-06	-3.288776e-09	-2.578936e+01	-2.154838e+02
5.900000e-07	-2.336425e-06	-3.245599e-09	-2.481852e+01	-2.124632e+02
6.000000e-07	-2.244312e-06	-3.198602e-09	-2.384006e+01	-2.093219e+02
6.100000e-07	-2.151550e-06	-3.147373e-09	-2.285469e+01	-2.060551e+02
6.200000e-07	-2.058035e-06	-3.096494e-09	-2.186133e+01	-2.026570e+02
6.300000e-07	-1.963765e-06	-3.040371e-09	-2.085996e+01	-1.991204e+02
6.400000e-07	-1.868874e-06	-2.986577e-09	-1.985199e+01	-1.954362e+02
6.500000e-07	-1.773436e-06	-2.932044e-09	-1.883820e+01	-1.915941e+02
6.600000e-07	-1.677334e-06	-2.869331e-09	-1.781737e+01	-1.875816e+02
6.700000e-07	-1.580406e-06	-2.798103e-09	-1.678775e+01	-1.833850e+02
6.800000e-07	-1.482725e-06	-2.727267e-09	-1.575014e+01	-1.789887e+02
6.900000e-07	-1.384483e-06	-2.660536e-09	-1.470658e+01	-1.743759e+02
7.000000e-07	-1.285762e-06	-2.588036e-09	-1.365792e+01	-1.695280e+02
7.100000e-07	-1.186560e-06	-2.506933e-09	-1.260416e+01	-1.644252e+02
7.200000e-07	-1.086970e-06	-2.421255e-09	-1.154627e+01	-1.590461e+02
7.300000e-07	-9.870979e-07	-2.336100e-09	-1.048538e+01	-1.533673e+02
7.400000e-07	-8.869882e-07	-2.247153e-09	-9.421972e+00	-1.473638e+02
7.500000e-07	-7.866131e-07	-2.151039e-09	-8.355744e+00	-1.410088e+02
7.600000e-07	-6.859252e-07	-2.043458e-09	-7.286193e+00	-1.342734e+02
7.700000e-07	-5.849695e-07	-1.930560e-09	-6.213799e+00	-1.271277e+02
7.800000e-07	-4.838052e-07	-1.817449e-09	-5.139188e+00	-1.195408e+02
7.900000e-07	-3.824483e-07	-1.697978e-09	-4.062531e+00	-1.114823e+02
8.000000e-07	-2.809176e-07	-1.567632e-09	-2.984028e+00	-1.029235e+02
8.100000e-07	-1.792970e-07	-1.426196e-09	-1.904570e+00	-9.383972e+01
8.200000e-07	-7.763444e-08	-1.276815e-09	-8.246666e-01	-8.421201e+01
8.300000e-07	2.406625e-08	-1.121058e-09	2.556421e-01	-7.402986e+01
8.400000e-07	1.257770e-07	-9.591357e-10	1.336057e+00	-6.329352e+01
8.500000e-07	2.274616e-07	-7.846140e-10	2.416196e+00	-5.201621e+01
8.600000e-07	3.290866e-07	-6.005333e-10	3.495700e+00	-4.022596e+01
8.700000e-07	4.305665e-07	-4.142497e-10	4.573664e+00	-2.796679e+01
8.800000e-07	5.318296e-07	-2.248624e-10	5.649324e+00	-1.529912e+01
8.900000e-07	6.329244e-07	-2.826235e-11	6.723197e+00	-2.299226e+00
9.000000e-07	7.338145e-07	1.760060e-10	7.794895e+00	1.094234e+01
9.100000e-07	8.343965e-07	3.814053e-10	8.863320e+00	2.432328e+01
9.200000e-07	9.346919e-07	5.840343e-10	9.928701e+00	3.773294e+01
9.300000e-07	1.034726e-06	7.829822e-10	1.099131e+01	5.105647e+01
9.400000e-07	1.134423e-06	9.831654e-10	1.205033e+01	6.417939e+01
9.500000e-07	1.233776e-06	1.181976e-09	1.310570e+01	7.699221e+01
9.600000e-07	1.332759e-06	1.371602e-09	1.415714e+01	8.939500e+01
9.700000e-07	1.431217e-06	1.549877e-09	1.520300e+01	1.013013e+02
9.800000e-07	1.529008e-06	1.720725e-09	1.624178e+01	1.126414e+02
9.900000e-07	1.626095e-06	1.886260e-09	1.727309e+01	1.233644e+02
1.000000e-06	1.722510e-06	2.043505e-09	1.829725e+01	1.334392e+02
1.010000e-06	1.818250e-06	2.189991e-09	1.931424e+01	1.428541e+02
1.020000e-06	1.913313e-06	2.322035e-09	2.032403e+01	1.516161e+02
1.030000e-06	2.007759e-06	2.443096e-09	2.132729e+01	1.597476e+02
1.040000e-06	2.101581e-06	2.556474e-09	2.232390e+01	1.672840e+02
1.050000e-06	2.194655e-06	2.663685e-09	2.331257e+01	1.742699e+02
1.060000e-06	2.287004e-06	2.763196e-09	2.429354e+01	1.807550e+02
1.070000e-06	2.378712e-06	2.853793e-09	2.526771e+01	1.867909e+02
1.080000e-06	2.469677e-06	2.939125e-09	2.623397e+01	1.924278e+02
1.090000e-06	2.559694e-06	3.021034e-09	2.719017e+01	1.977114e+02
1.100000e-06	2.648566e-06	3.098878e-09	2.813421e+01	2.026818e+02
1.110000e-06	2.736334e-06	3.169561e-09	2.906653e+01	2.073718e+02
1.120000e-06	2.823169e-06	3.233880e-09	2.998892e+01	2.118070e+02
1.130000e-06	2.909125e-06	3.294255e-09	3.090198e+01	2.160063e+02
1.140000e-06	2.994142e-06	3.355288e-09	3.180507e+01	2.199830e+02
1.150000e-06	3.078192e-06	3.414920e-09	3.269788e+01	2.237459e+02
1.160000e-06	3.161341e-06	3.468700e-09	3.358113e+01	2.273012e+02
1.170000e-06	3.243412e-06	3.517096e-09	3.445292e+01	2.306542e+02
1.180000e-06	3.324197e-06	3.565646e-09	3.531106e+01	2.338099e+02
1.190000e-06	3.403754e-06	3.613630e-09	3.615615e+01	2.367748e+02
1.200000e-06	3.482093e-06	3.654377e-09	3.698829e+01	2.395572e+02
1.210000e-06	3.559187e-06	3.688884e-09	3.780722e+01	2.421670e+02
1.220000e-06	3.635049e-06	3.722413e-09	3.861306e+01	2.446162e+02
1.230000e-06	3.709509e-06	3.756455e-09	3.940400e+01	2.469180e+02
1.240000e-06	3.782369e-06	3.787387e-09	4.017796e+01	2.490858e+02
1.250000e-06	3.853711e-06	3.818287e-09	4.093579e+01	2.511332e+02
1.260000e-06	3.923738e-06	3.848626e-09	4.167964e+01	2.530724e+02
1.270000e-06	3.992455e-06	3.877688e-09	4.240959e+01	2.549144e+02
1.280000e-06	4.059873e-06	3.906010e-09	4.312572e+01	2.566680e+02
1.290000e-06	4.125817e-06	3.932996e-09	4.382621e+01	2.583398e+02
1.300000e-06	4.190119e-06	3.957393e-09	4.450925e+01	2.599345e+02
1.310000e-06	4.252977e-06	3.979572e-09	4.517696e+01	2.614550e+02
1.320000e-06	4.314441e-06	3.999771e-09	4.582986e+01	2.629031e+02
1.330000e-06	4.374527e-06	4.017889e-09	4.646811e+01	2.642794e+02
1.340000e-06	4.433194e-06	4.037388e-09	4.709130e+01	2.655848e+02
1.350000e-06	4.490194e-06	4.056946e-09	4.769678e+01	2.668200e+02
1.360000e-06	4.545470e-06	4.075052e-09	4.828395e+01	2.679866e+02
1.370000e-06	4.599077e-06	4.093268e-09	4.885338e+01	2.690868e+02
1.380000e-06	4.650970e-06	4.111950e-09	4.940462e+01	2.701238e+02
1.390000e-06	4.700873e-06	4.129403e-09	4.993470e+01	2.711011e+02
1.400000e-06	4.748722e-06	4.144943e-09	5.044297e+01	2.720231e+02
1.410000e-06	4.794834e-06	4.158173e-09	5.093280e+01	2.728939e+02
1.420000e-06	4.839401e-06	4.169753e-09	5.140620e+01	2.737176e+02
1.430000e-06	4.882389e-06	4.182311e-09	5.186285e+01	2.744977e+02
1.440000e-06	4.923537e-06	4.194526e-09	5.229994e+01	2.752369e+02
1.450000e-06	4.962835e-06	4.205343e-09	5.271737e+01	2.759369e+02
1.460000e-06	5.000449e-06	4.216039e-09	5.311693e+01	2.765988e+02
1.470000e-06	5.036494e-06	4.227481e-09	5.349981e+01	2.772227e+02
1.480000e-06	5.070826e-06	4.238552e-09	5.386450e+01	2.778080e+02
1.490000e-06	5.103151e-06	4.247704e-09	5.420787e+01	2.783540e+02
1.500000e-06	5.133646e-06	4.255913e-09	5.453180e+01	2.788598e+02
1.510000e-06	5.162525e-06	4.263961e-09	5.483857e+01	2.793248e+02
1.520000e-06	5.189710e-06	4.271545e-09	5.512734e+01	2.797488e+02
1.530000e-06	5.214931e-06	4.278168e-09	5.539525e+01	2.801321e+02
1.540000e-06	5.238129e-06	4.282654e-09	5.564167e+01	2.804756e+02
1.550000e-06	5.259553e-06	4.286542e-09	5.586925e+01	2.807806e+02
1.560000e-06	5.279291e-06	4.292436e-09	5.607891e+01	2.810491e+02
1.570000e-06	5.297221e-06	4.298251e-09	5.626937e+01	2.812831e+02
1.580000e-06	5.313184e-06	4.302115e-09	5.643894e+01	2.814844e+02
1.590000e-06	5.327150e-06	4.305419e-09	5.658729e+01	2.816548e+02
1.600000e-06	5.339183e-06	4.308335e-09	5.671510e+01	2.817956e+02
1.610000e-06	5.349116e-06	4.310680e-09	5.682062e+01	2.819076e+02
1.620000e-06	5.356951e-06	4.312967e-09	5.690385e+01	2.819909e+02
1.630000e-06	5.362916e-06	4.313529e-09	5.696721e+01	2.820451e+02
1.640000e-06	5.367120e-06	4.311942e-09	5.701187e+01	2.820694e+02
1.650000e-06	5.369513e-06	4.312455e-09	5.703728e+01	2.820628e+02
1.660000e-06	5.369910e-06	4.314195e-09	5.704150e+01	2.820242e+02
1.670000e-06	5.368464e-06	4.315063e-09	5.702614e+01	2.819528e+02
1.680000e-06	5.365385e-06	4.314033e-09	5.699344e+01	2.818479e+02
1.690000e-06	5.360642e-06	4.311642e-09	5.694305e+01	2.817097e+02
1.700000e-06	5.354061e-06	4.309760e-09	5.687315e+01	2.815389e+02
1.710000e-06	5.345665e-06	4.306077e-09	5.678396e+01	2.813367e+02
1.720000e-06	5.335641e-06	4.299733e-09	5.667749e+01	2.811048e+02
1.730000e-06	5.323919e-06	4.292707e-09	5.655297e+01	2.808456e+02
1.740000e-06	5.310283e-06	4.265997e-09	5.640812e+01	2.805611e+02
1.750000e-06	5.294534e-06	4.266915e-09	5.624083e+01	2.802536e+02
1.760000e-06	5.276441e-06	4.257753e-09	5.604864e+01	2.799249e+02
1.770000e-06	5.255808e-06	4.248533e-09	5.582946e+01	2.795762e+02
1.780000e-06	5.232907e-06	4.289323e-09	5.558619e+01	2.792079e+02
1.790000e-06	5.208667e-06	4.250801e-09	5.532871e+01	2.788196e+02
1.800000e-06	5.183644e-06	4.238077e-09	5.506291e+01	2.784100e+02
1.810000e-06	5.157125e-06	4.290534e-09	5.478121e+01	2.779770e+02
1.820000e-06	5.128549e-06	4.194971e-09	5.447766e+01	2.775181e+02
1.830000e-06	5.098354e-06	4.227303e-09	5.415692e+01	2.770302e+02
1.840000e-06	5.066443e-06	4.274660e-09	5.381795e+01	2.765101e+02
1.850000e-06	5.032395e-06	4.150389e-09	5.345628e+01	2.759549e+02
1.860000e-06	4.996642e-06	4.214944e-09	5.307649e+01	2.753620e+02
1.870000e-06	4.959238e-06	4.220722e-09	5.267917e+01	2.747293e+02
1.880000e-06	4.919940e-06	4.111365e-09	5.226173e+01	2.740556e+02
1.890000e-06	4.878874e-06	4.179543e-09	5.182551e+01	2.733403e+02
1.900000e-06	4.836036e-06	4.182580e-09	5.137046e+01	2.725837e+02
1.910000e-06	4.791723e-06	4.131731e-09	5.089975e+01	2.717862e+02
1.920000e-06	4.745825e-06	4.121287e-09	5.041221e+01	2.709491e+02
1.930000e-06	4.697980e-06	4.083915e-09	4.990397e+01	2.700735e+02
1.940000e-06	4.648435e-06	4.136412e-09	4.937768e+01	2.691603e+02
1.950000e-06	4.597227e-06	4.077723e-09	4.883373e+01	2.682103e+02
1.960000e-06	4.544114e-06	4.047288e-09	4.826955e+01	2.672234e+02
1.970000e-06	4.489057e-06	4.083757e-09	4.768470e+01	2.661993e+02
1.980000e-06	4.432329e-06	4.019039e-09	4.708211e+01	2.651367e+02
1.990000e-06	4.374098e-06	4.030379e-09	4.646356e+01	2.640339e+02
2.000000e-06	4.314359e-06	4.012832e-09	4.582899e+01	2.628887e+02
2.010000e-06	4.253210e-06	3.995029e-09	4.517943e+01	2.616985e+02
2.020000e-06	4.190449e-06	3.963303e-09	4.451276e+01	2.604607e+02
2.030000e-06	4.125927e-06	3.921041e-09	4.382738e+01	2.591730e+02
2.040000e-06	4.059888e-06	3.965688e-09	4.312588e+01	2.578331e+02
2.050000e-06	3.992547e-06	3.904725e-09	4.241056e+01	2.564392e+02
2.060000e-06	3.923906e-06	3.862071e-09	4.168143e+01	2.549899e+02
2.070000e-06	3.853654e-06	3.860357e-09	4.093517e+01	2.534843e+02
2.080000e-06	3.781805e-06	3.839414e-09	4.017197e+01	2.519214e+02
2.090000e-06	3.708705e-06	3.824147e-09	3.939547e+01	2.503004e+02
2.100000e-06	3.634292e-06	3.772531e-09	3.860502e+01	2.486203e+02
2.110000e-06	3.558445e-06	3.768317e-09	3.779934e+01	2.468796e+02
2.120000e-06	3.481094e-06	3.732479e-09	3.697769e+01	2.450764e+02
2.130000e-06	3.402288e-06	3.700568e-09	3.614057e+01	2.432078e+02
2.140000e-06	3.322162e-06	3.683979e-09	3.528944e+01	2.412705e+02
2.150000e-06	3.240847e-06	3.642949e-09	3.442567e+01	2.392602e+02
2.160000e-06	3.158475e-06	3.611071e-09	3.355069e+01	2.371722e+02
2.170000e-06	3.075115e-06	3.562226e-09	3.266520e+01	2.350014e+02
2.180000e-06	2.990826e-06	3.543066e-09	3.176985e+01	2.327428e+02
2.190000e-06	2.905461e-06	3.513633e-09	3.086306e+01	2.303911e+02
2.200000e-06	2.818875e-06	3.467885e-09	2.994331e+01	2.279417e+02
2.210000e-06	2.731116e-06	3.422029e-09	2.901110e+01	2.253903e+02
2.220000e-06	2.642379e-06	3.385156e-09	2.806849e+01	2.227329e+02
2.230000e-06	2.552782e-06	3.355243e-09	2.711675e+01	2.199662e+02
2.240000e-06	2.462319e-06	3.303990e-09	2.615581e+01	2.170867e+02
2.250000e-06	2.371097e-06	3.262116e-09	2.518682e+01	2.140913e+02
2.260000e-06	2.279219e-06	3.209673e-09	2.421085e+01	2.109760e+02
2.270000e-06	2.186637e-06	3.156649e-09	2.322740e+01	2.077364e+02
2.280000e-06	2.093167e-06	3.111671e-09	2.223453e+01	2.043668e+02
2.290000e-06	1.998746e-06	3.064991e-09	2.123154e+01	2.008603e+02
2.300000e-06	1.903528e-06	3.003362e-09	2.022010e+01	1.972085e+02
2.310000e-06	1.807621e-06	2.934150e-09	1.920133e+01	1.934009e+02
2.320000e-06	1.711089e-06	2.883486e-09	1.817593e+01	1.894259e+02
2.330000e-06	1.614031e-06	2.832121e-09	1.714493e+01	1.852698e+02
2.340000e-06	1.516491e-06	2.763860e-09	1.610883e+01	1.809175e+02
2.350000e-06	1.418416e-06	2.682491e-09	1.506703e+01	1.763524e+02
2.360000e-06	1.319863e-06	2.610765e-09	1.402015e+01	1.715563e+02
2.370000e-06	1.220907e-06	2.542385e-09	1.296900e+01	1.665097e+02
2.380000e-06	1.121578e-06	2.464232e-09	1.191388e+01	1.611915e+02
2.390000e-06	1.021935e-06	2.375553e-09	1.085544e+01	1.555787e+02
2.400000e-06	9.219972e-07	2.278646e-09	9.793853e+00	1.496469e+02
2.410000e-06	8.217906e-07	2.184730e-09	8.729414e+00	1.433693e+02
2.420000e-06	7.213473e-07	2.091697e-09	7.662462e+00	1.367178e+02
2.430000e-06	6.206419e-07	1.989425e-09	6.592726e+00	1.296625e+02
2.440000e-06	5.196910e-07	1.870066e-09	5.520383e+00	1.221725e+02
2.450000e-06	4.185575e-07	1.741107e-09	4.446099e+00	1.142173e+02
2.460000e-06	3.172864e-07	1.615499e-09	3.370354e+00	1.057678e+02
2.470000e-06	2.158876e-07	1.487487e-09	2.293251e+00	9.679816e+01
2.480000e-06	1.143694e-07	1.342431e-09	1.214881e+00	8.728801e+01
2.490000e-06	1.282246e-08	1.182112e-09	1.362057e-01	7.722487e+01
2.500000e-06	-8.869440e-08	1.020124e-09	-9.421502e-01	6.660646e+01
2.510000e-06	-1.900893e-07	8.563411e-10	-2.019211e+00	5.544305e+01
2.520000e-06	-2.913933e-07	6.805148e-10	-3.095305e+00	4.375937e+01
2.530000e-06	-3.925810e-07	4.925520e-10	-4.170165e+00	3.159597e+01
2.540000e-06	-4.935708e-07	2.969322e-10	-5.242922e+00	1.900975e+01
2.550000e-06	-5.943784e-07	9.805421e-11	-6.313744e+00	6.073693e+00
2.560000e-06	-6.950094e-07	-1.002460e-10	-7.382690e+00	-7.124535e+00
2.570000e-06	-7.954132e-07	-3.010129e-10	-8.449222e+00	-2.048488e+01
2.580000e-06	-8.954792e-07	-5.074969e-10	-9.512167e+00	-3.389816e+01
2.590000e-06	-9.952139e-07	-7.163739e-10	-1.057159e+01	-4.725007e+01
2.600000e-06	-1.094668e-06	-9.188889e-10	-1.162804e+01	-6.042562e+01
2.610000e-06	-1.193777e-06	-1.111982e-09	-1.268082e+01	-7.331388e+01
2.620000e-06	-1.292492e-06	-1.300624e-09	-1.372941e+01	-8.581251e+01
2.630000e-06	-1.390725e-06	-1.486839e-09	-1.477288e+01	-9.783190e+01
2.640000e-06	-1.488415e-06	-1.664678e-09	-1.581058e+01	-1.092985e+02
2.650000e-06	-1.585648e-06	-1.828479e-09	-1.684344e+01	-1.201572e+02
2.660000e-06	-1.682463e-06	-1.980432e-09	-1.787185e+01	-1.303726e+02
2.670000e-06	-1.778866e-06	-2.126209e-09	-1.889588e+01	-1.399292e+02
2.680000e-06	-1.874697e-06	-2.266763e-09	-1.991384e+01	-1.488299e+02
2.690000e-06	-1.969756e-06	-2.395733e-09	-2.092359e+01	-1.570941e+02
2.700000e-06	-2.063964e-06	-2.509173e-09	-2.192431e+01	-1.647547e+02
2.710000e-06	-2.157323e-06	-2.613479e-09	-2.291601e+01	-1.718547e+02
2.720000e-06	-2.249836e-06	-2.714909e-09	-2.389873e+01	-1.784429e+02
2.730000e-06	-2.341517e-06	-2.810805e-09	-2.487261e+01	-1.845710e+02
2.740000e-06	-2.432390e-06	-2.897198e-09	-2.583789e+01	-1.902895e+02
2.750000e-06	-2.522383e-06	-2.977001e-09	-2.679384e+01	-1.956455e+02
2.760000e-06	-2.611514e-06	-3.055240e-09	-2.774063e+01	-2.006802e+02
2.770000e-06	-2.699872e-06	-3.130497e-09	-2.867921e+01	-2.054280e+02
2.780000e-06	-2.787385e-06	-3.200246e-09	-2.960881e+01	-2.099162e+02
2.790000e-06	-2.873777e-06	-3.264373e-09	-3.052650e+01	-2.141649e+02
2.800000e-06	-2.958934e-06	-3.324879e-09	-3.143107e+01	-2.181886e+02
2.810000e-06	-3.043018e-06	-3.383904e-09	-3.232425e+01	-2.219969e+02
2.820000e-06	-3.126142e-06	-3.440932e-09	-3.320723e+01	-2.255965e+02
2.830000e-06	-3.208263e-06	-3.494637e-09	-3.407956e+01	-2.289926e+02
2.840000e-06	-3.289329e-06	-3.544163e-09	-3.494067e+01	-2.321903e+02
2.850000e-06	-3.369332e-06	-3.589739e-09	-3.579050e+01	-2.351957e+02
2.860000e-06	-3.448000e-06	-3.633129e-09	-3.662614e+01	-2.380165e+02
2.870000e-06	-3.525143e-06	-3.675191e-09	-3.744559e+01	-2.406626e+02
2.880000e-06	-3.600854e-06	-3.715624e-09	-3.824982e+01	-2.431453e+02
2.890000e-06	-3.675188e-06	-3.752215e-09	-3.903943e+01	-2.454777e+02
2.900000e-06	-3.748209e-06	-3.783865e-09	-3.981510e+01	-2.476733e+02
2.910000e-06	-3.819943e-06	-3.816062e-09	-4.057708e+01	-2.497456e+02
2.920000e-06	-3.890207e-06	-3.849823e-09	-4.132346e+01	-2.517072e+02
2.930000e-06	-3.958906e-06	-3.880174e-09	-4.205321e+01	-2.535694e+02
2.940000e-06	-4.026217e-06	-3.906269e-09	-4.276822e+01	-2.553415e+02
