# Temperatura_=_20.0
# Concentracion g/m^3_=_9000.0
# C_Vs_to_Am_M_A/Vsm_=_65563218390.804596
# pendiente_HvsI_1/m_=_3716.3
# ordenada_HvsI_A/m_=_1297.0
# frecuencia_Hz_=_300875.1212859881

Tiempo_(s)	Campo_(V.s)	Magnetizacion_(V.s)	Campo_(kA/m)	Magnetizacion_(A/m)
0.000000e+00	-5.367346e-06	-4.270172e-09	-5.680269e+01	-2.810959e+02
1.000000e-08	-5.365969e-06	-4.271498e-09	-5.678812e+01	-2.810233e+02
2.000000e-08	-5.362681e-06	-4.271899e-09	-5.675333e+01	-2.809216e+02
3.000000e-08	-5.357710e-06	-4.270066e-09	-5.670072e+01	-2.807912e+02
4.000000e-08	-5.351106e-06	-4.265921e-09	-5.663083e+01	-2.806321e+02
5.000000e-08	-5.342796e-06	-4.261481e-09	-5.654288e+01	-2.804434e+02
6.000000e-08	-5.332513e-06	-4.259226e-09	-5.643406e+01	-2.802237e+02
7.000000e-08	-5.320256e-06	-4.256705e-09	-5.630434e+01	-2.799710e+02
8.000000e-08	-5.306132e-06	-4.253639e-09	-5.615487e+01	-2.796831e+02
9.000000e-08	-5.289857e-06	-4.260775e-09	-5.598263e+01	-2.793581e+02
1.000000e-07	-5.271403e-06	-4.274566e-09	-5.578733e+01	-2.789944e+02
1.100000e-07	-5.251011e-06	-4.271256e-09	-5.557152e+01	-2.785916e+02
1.200000e-07	-5.228772e-06	-4.247556e-09	-5.533617e+01	-2.781507e+02
1.300000e-07	-5.204866e-06	-4.216865e-09	-5.508317e+01	-2.776737e+02
1.400000e-07	-5.179331e-06	-4.195695e-09	-5.481293e+01	-2.771644e+02
1.500000e-07	-5.152202e-06	-4.207040e-09	-5.452582e+01	-2.766275e+02
1.600000e-07	-5.123548e-06	-4.224409e-09	-5.422257e+01	-2.760685e+02
1.700000e-07	-5.093349e-06	-4.199102e-09	-5.390298e+01	-2.754929e+02
1.800000e-07	-5.061426e-06	-4.178772e-09	-5.356514e+01	-2.749058e+02
1.900000e-07	-5.027435e-06	-4.177708e-09	-5.320541e+01	-2.743109e+02
2.000000e-07	-4.991856e-06	-4.187442e-09	-5.282888e+01	-2.737103e+02
2.100000e-07	-4.954739e-06	-4.200018e-09	-5.243607e+01	-2.731040e+02
2.200000e-07	-4.915703e-06	-4.160600e-09	-5.202295e+01	-2.724898e+02
2.300000e-07	-4.874826e-06	-4.138187e-09	-5.159034e+01	-2.718630e+02
2.400000e-07	-4.832015e-06	-4.160114e-09	-5.113728e+01	-2.712173e+02
2.500000e-07	-4.787438e-06	-4.147394e-09	-5.066552e+01	-2.705450e+02
2.600000e-07	-4.741162e-06	-4.124705e-09	-5.017579e+01	-2.698377e+02
2.700000e-07	-4.692882e-06	-4.112741e-09	-4.966483e+01	-2.690873e+02
2.800000e-07	-4.642504e-06	-4.089691e-09	-4.913168e+01	-2.682863e+02
2.900000e-07	-4.590289e-06	-4.085348e-09	-4.857909e+01	-2.674287e+02
3.000000e-07	-4.536413e-06	-4.090754e-09	-4.800892e+01	-2.665103e+02
3.100000e-07	-4.480940e-06	-4.060438e-09	-4.742185e+01	-2.655288e+02
3.200000e-07	-4.423745e-06	-4.025969e-09	-4.681655e+01	-2.644842e+02
3.300000e-07	-4.364816e-06	-4.031199e-09	-4.619291e+01	-2.633776e+02
3.400000e-07	-4.304427e-06	-4.024786e-09	-4.555381e+01	-2.622117e+02
3.500000e-07	-4.242663e-06	-3.988296e-09	-4.490015e+01	-2.609896e+02
3.600000e-07	-4.179488e-06	-3.963359e-09	-4.423158e+01	-2.597145e+02
3.700000e-07	-4.114670e-06	-3.945378e-09	-4.354561e+01	-2.583890e+02
3.800000e-07	-4.048186e-06	-3.930368e-09	-4.284201e+01	-2.570150e+02
3.900000e-07	-3.980272e-06	-3.912014e-09	-4.212327e+01	-2.555927e+02
4.000000e-07	-3.910939e-06	-3.885518e-09	-4.138952e+01	-2.541216e+02
4.100000e-07	-3.840278e-06	-3.864217e-09	-4.064172e+01	-2.525995e+02
4.200000e-07	-3.768481e-06	-3.844693e-09	-3.988188e+01	-2.510236e+02
4.300000e-07	-3.695241e-06	-3.823116e-09	-3.910678e+01	-2.493903e+02
4.400000e-07	-3.620261e-06	-3.794186e-09	-3.831327e+01	-2.476959e+02
4.500000e-07	-3.543733e-06	-3.761161e-09	-3.750338e+01	-2.459368e+02
4.600000e-07	-3.465878e-06	-3.732292e-09	-3.667944e+01	-2.441097e+02
4.700000e-07	-3.386661e-06	-3.708692e-09	-3.584107e+01	-2.422117e+02
4.800000e-07	-3.306072e-06	-3.680174e-09	-3.498821e+01	-2.402407e+02
4.900000e-07	-3.224242e-06	-3.643197e-09	-3.412220e+01	-2.381946e+02
5.000000e-07	-3.141344e-06	-3.615706e-09	-3.324489e+01	-2.360716e+02
5.100000e-07	-3.057562e-06	-3.592615e-09	-3.235822e+01	-2.338699e+02
5.200000e-07	-2.972886e-06	-3.557271e-09	-3.146209e+01	-2.315869e+02
5.300000e-07	-2.887206e-06	-3.514861e-09	-3.055534e+01	-2.292196e+02
5.400000e-07	-2.800545e-06	-3.477099e-09	-2.963821e+01	-2.267638e+02
5.500000e-07	-2.713062e-06	-3.441404e-09	-2.871237e+01	-2.242148e+02
5.600000e-07	-2.624602e-06	-3.399903e-09	-2.777620e+01	-2.215665e+02
5.700000e-07	-2.534887e-06	-3.353661e-09	-2.682675e+01	-2.188125e+02
5.800000e-07	-2.444056e-06	-3.308000e-09	-2.586548e+01	-2.159456e+02
5.900000e-07	-2.352472e-06	-3.265445e-09	-2.489624e+01	-2.129583e+02
6.000000e-07	-2.260162e-06	-3.218637e-09	-2.391933e+01	-2.098433e+02
6.100000e-07	-2.167117e-06	-3.165237e-09	-2.293463e+01	-2.065933e+02
6.200000e-07	-2.073328e-06	-3.112865e-09	-2.194206e+01	-2.032011e+02
6.300000e-07	-1.978760e-06	-3.061227e-09	-2.094125e+01	-1.996598e+02
6.400000e-07	-1.883599e-06	-3.007262e-09	-1.993415e+01	-1.959625e+02
6.500000e-07	-1.787928e-06	-2.949039e-09	-1.892166e+01	-1.921018e+02
6.600000e-07	-1.691591e-06	-2.882816e-09	-1.790214e+01	-1.880697e+02
6.700000e-07	-1.594324e-06	-2.814545e-09	-1.687275e+01	-1.838568e+02
6.800000e-07	-1.496170e-06	-2.748275e-09	-1.583398e+01	-1.794524e+02
6.900000e-07	-1.397477e-06	-2.678193e-09	-1.478951e+01	-1.748432e+02
7.000000e-07	-1.298435e-06	-2.600729e-09	-1.374136e+01	-1.700137e+02
7.100000e-07	-1.199013e-06	-2.521846e-09	-1.268917e+01	-1.649453e+02
7.200000e-07	-1.099195e-06	-2.445095e-09	-1.163279e+01	-1.596164e+02
7.300000e-07	-9.990334e-07	-2.361810e-09	-1.057278e+01	-1.540024e+02
7.400000e-07	-8.985696e-07	-2.267671e-09	-9.509574e+00	-1.480756e+02
7.500000e-07	-7.978255e-07	-2.167840e-09	-8.443398e+00	-1.418059e+02
7.600000e-07	-6.967908e-07	-2.065500e-09	-7.374147e+00	-1.351612e+02
7.700000e-07	-5.954451e-07	-1.958381e-09	-6.301604e+00	-1.281080e+02
7.800000e-07	-4.938455e-07	-1.843555e-09	-5.226374e+00	-1.206129e+02
7.900000e-07	-3.920895e-07	-1.720549e-09	-4.149488e+00	-1.126435e+02
8.000000e-07	-2.901929e-07	-1.590654e-09	-3.071115e+00	-1.041704e+02
8.100000e-07	-1.882512e-07	-1.455648e-09	-1.992265e+00	-9.516873e+01
8.200000e-07	-8.625868e-08	-1.310750e-09	-9.128768e-01	-8.562026e+01
8.300000e-07	1.582113e-08	-1.154236e-09	1.674352e-01	-7.551544e+01
8.400000e-07	1.178937e-07	-9.900120e-10	1.247671e+00	-6.485549e+01
8.500000e-07	2.199709e-07	-8.193391e-10	2.327955e+00	-5.365427e+01
8.600000e-07	3.219846e-07	-6.409726e-10	3.407568e+00	-4.193981e+01
8.700000e-07	4.238534e-07	-4.547126e-10	4.485646e+00	-2.975533e+01
8.800000e-07	5.255536e-07	-2.615616e-10	5.561941e+00	-1.715962e+01
8.900000e-07	6.270207e-07	-6.205858e-11	6.635768e+00	-4.226582e+00
9.000000e-07	7.282575e-07	1.413339e-10	7.707158e+00	8.956083e+00
9.100000e-07	8.292269e-07	3.465278e-10	8.775720e+00	2.228912e+01
9.200000e-07	9.299142e-07	5.498033e-10	9.841295e+00	3.566475e+01
9.300000e-07	1.030294e-06	7.505207e-10	1.090362e+01	4.897049e+01
9.400000e-07	1.130333e-06	9.516065e-10	1.196233e+01	6.209337e+01
9.500000e-07	1.230052e-06	1.149973e-09	1.301766e+01	7.492445e+01
9.600000e-07	1.329390e-06	1.339692e-09	1.406896e+01	8.736328e+01
9.700000e-07	1.428319e-06	1.520777e-09	1.511592e+01	9.932186e+01
9.800000e-07	1.526741e-06	1.695239e-09	1.615752e+01	1.107281e+02
9.900000e-07	1.624528e-06	1.862866e-09	1.719240e+01	1.215279e+02
1.000000e-06	1.721565e-06	2.020954e-09	1.821935e+01	1.316871e+02
1.010000e-06	1.817724e-06	2.167102e-09	1.923699e+01	1.411907e+02
1.020000e-06	1.913123e-06	2.301501e-09	2.024661e+01	1.500425e+02
1.030000e-06	2.007925e-06	2.426749e-09	2.124990e+01	1.582623e+02
1.040000e-06	2.102112e-06	2.543077e-09	2.224667e+01	1.658837e+02
1.050000e-06	2.195576e-06	2.649090e-09	2.323581e+01	1.729495e+02
1.060000e-06	2.288295e-06	2.746939e-09	2.421705e+01	1.795089e+02
1.070000e-06	2.380340e-06	2.839627e-09	2.519117e+01	1.856131e+02
1.080000e-06	2.471671e-06	2.926528e-09	2.615773e+01	1.913120e+02
1.090000e-06	2.562155e-06	3.008834e-09	2.711532e+01	1.966517e+02
1.100000e-06	2.651599e-06	3.085863e-09	2.806191e+01	2.016725e+02
1.110000e-06	2.739800e-06	3.157694e-09	2.899534e+01	2.064076e+02
1.120000e-06	2.826950e-06	3.225779e-09	2.991765e+01	2.108831e+02
1.130000e-06	2.913260e-06	3.291005e-09	3.083107e+01	2.151182e+02
1.140000e-06	2.998594e-06	3.351472e-09	3.173416e+01	2.191267e+02
1.150000e-06	3.082929e-06	3.407895e-09	3.262668e+01	2.229182e+02
1.160000e-06	3.166334e-06	3.462230e-09	3.350935e+01	2.264997e+02
1.170000e-06	3.248758e-06	3.511630e-09	3.438165e+01	2.298772e+02
1.180000e-06	3.329950e-06	3.558973e-09	3.524091e+01	2.330568e+02
1.190000e-06	3.409805e-06	3.605650e-09	3.608601e+01	2.360462e+02
1.200000e-06	3.488417e-06	3.648468e-09	3.691796e+01	2.388543e+02
1.210000e-06	3.565821e-06	3.686037e-09	3.773713e+01	2.414920e+02
1.220000e-06	3.642036e-06	3.723517e-09	3.854372e+01	2.439713e+02
1.230000e-06	3.716946e-06	3.761373e-09	3.933648e+01	2.463054e+02
1.240000e-06	3.790295e-06	3.794038e-09	4.011274e+01	2.485073e+02
1.250000e-06	3.862062e-06	3.824277e-09	4.087225e+01	2.505894e+02
1.260000e-06	3.932425e-06	3.853893e-09	4.161691e+01	2.525629e+02
1.270000e-06	4.001436e-06	3.882094e-09	4.234725e+01	2.544374e+02
1.280000e-06	4.069149e-06	3.909155e-09	4.306386e+01	2.562204e+02
1.290000e-06	4.135501e-06	3.934151e-09	4.376606e+01	2.579179e+02
1.300000e-06	4.200258e-06	3.958852e-09	4.445138e+01	2.595342e+02
1.310000e-06	4.263442e-06	3.983572e-09	4.512006e+01	2.610723e+02
1.320000e-06	4.325216e-06	4.006188e-09	4.577382e+01	2.625350e+02
1.330000e-06	4.385646e-06	4.026880e-09	4.641335e+01	2.639244e+02
1.340000e-06	4.444726e-06	4.047321e-09	4.703860e+01	2.652431e+02
1.350000e-06	4.502139e-06	4.067895e-09	4.764620e+01	2.664938e+02
1.360000e-06	4.557703e-06	4.086048e-09	4.823424e+01	2.676799e+02
1.370000e-06	4.611604e-06	4.101565e-09	4.880467e+01	2.688050e+02
1.380000e-06	4.663801e-06	4.117514e-09	4.935707e+01	2.698729e+02
1.390000e-06	4.714066e-06	4.134380e-09	4.988902e+01	2.708870e+02
1.400000e-06	4.762315e-06	4.151022e-09	5.039964e+01	2.718506e+02
1.410000e-06	4.808730e-06	4.164860e-09	5.089086e+01	2.727662e+02
1.420000e-06	4.853530e-06	4.177924e-09	5.136497e+01	2.736354e+02
1.430000e-06	4.896794e-06	4.193025e-09	5.182283e+01	2.744591e+02
1.440000e-06	4.938275e-06	4.207445e-09	5.226183e+01	2.752375e+02
1.450000e-06	4.977814e-06	4.218548e-09	5.268028e+01	2.759702e+02
1.460000e-06	5.015662e-06	4.227900e-09	5.308082e+01	2.766567e+02
1.470000e-06	5.051925e-06	4.237194e-09	5.346459e+01	2.772967e+02
1.480000e-06	5.086516e-06	4.246919e-09	5.383067e+01	2.778902e+02
1.490000e-06	5.119217e-06	4.256189e-09	5.417674e+01	2.784377e+02
1.500000e-06	5.150033e-06	4.263550e-09	5.450287e+01	2.789404e+02
1.510000e-06	5.179129e-06	4.271202e-09	5.481079e+01	2.794003e+02
1.520000e-06	5.206552e-06	4.279336e-09	5.510101e+01	2.798195e+02
1.530000e-06	5.232055e-06	4.286364e-09	5.537091e+01	2.802007e+02
1.540000e-06	5.255498e-06	4.291599e-09	5.561901e+01	2.805462e+02
1.550000e-06	5.277109e-06	4.296145e-09	5.584772e+01	2.808582e+02
1.560000e-06	5.297056e-06	4.301546e-09	5.605881e+01	2.811384e+02
1.570000e-06	5.315250e-06	4.306727e-09	5.625136e+01	2.813877e+02
1.580000e-06	5.331463e-06	4.310448e-09	5.642294e+01	2.816064e+02
1.590000e-06	5.345711e-06	4.312895e-09	5.657373e+01	2.817944e+02
1.600000e-06	5.358008e-06	4.315701e-09	5.670387e+01	2.819510e+02
1.610000e-06	5.368218e-06	4.319576e-09	5.681192e+01	2.820756e+02
1.620000e-06	5.376292e-06	4.323046e-09	5.689737e+01	2.821677e+02
1.630000e-06	5.382425e-06	4.324334e-09	5.696228e+01	2.822268e+02
1.640000e-06	5.386827e-06	4.323598e-09	5.700887e+01	2.822531e+02
1.650000e-06	5.389404e-06	4.323658e-09	5.703613e+01	2.822472e+02
1.660000e-06	5.389911e-06	4.326123e-09	5.704150e+01	2.822101e+02
1.670000e-06	5.388503e-06	4.325605e-09	5.702660e+01	2.821426e+02
1.680000e-06	5.385487e-06	4.321330e-09	5.699468e+01	2.820459e+02
1.690000e-06	5.380888e-06	4.318891e-09	5.694601e+01	2.819204e+02
1.700000e-06	5.374418e-06	4.318695e-09	5.687754e+01	2.817662e+02
1.710000e-06	5.366056e-06	4.317519e-09	5.678905e+01	2.815827e+02
1.720000e-06	5.356113e-06	4.312997e-09	5.668382e+01	2.813684e+02
1.730000e-06	5.344559e-06	4.305563e-09	5.656154e+01	2.811216e+02
1.740000e-06	5.331162e-06	4.293119e-09	5.641976e+01	2.808399e+02
1.750000e-06	5.315659e-06	4.265587e-09	5.625569e+01	2.805215e+02
1.760000e-06	5.297753e-06	4.244983e-09	5.606620e+01	2.801645e+02
1.770000e-06	5.277276e-06	4.248929e-09	5.584948e+01	2.797685e+02
1.780000e-06	5.254437e-06	4.271706e-09	5.560777e+01	2.793341e+02
1.790000e-06	5.230154e-06	4.294649e-09	5.535079e+01	2.788631e+02
1.800000e-06	5.205166e-06	4.273803e-09	5.508635e+01	2.783590e+02
1.810000e-06	5.178788e-06	4.223803e-09	5.480718e+01	2.778265e+02
1.820000e-06	5.150211e-06	4.215828e-09	5.450475e+01	2.772708e+02
1.830000e-06	5.119860e-06	4.222464e-09	5.418355e+01	2.766976e+02
1.840000e-06	5.087885e-06	4.217187e-09	5.384516e+01	2.761120e+02
1.850000e-06	5.053827e-06	4.200921e-09	5.348472e+01	2.755180e+02
1.860000e-06	5.018049e-06	4.167878e-09	5.310608e+01	2.749182e+02
1.870000e-06	4.980717e-06	4.170041e-09	5.271099e+01	2.743129e+02
1.880000e-06	4.941446e-06	4.174857e-09	5.229539e+01	2.737001e+02
1.890000e-06	4.900398e-06	4.142285e-09	5.186097e+01	2.730758e+02
1.900000e-06	4.857573e-06	4.142352e-09	5.140776e+01	2.724338e+02
1.910000e-06	4.813182e-06	4.142839e-09	5.093797e+01	2.717667e+02
1.920000e-06	4.767269e-06	4.123250e-09	5.045207e+01	2.710661e+02
1.930000e-06	4.719347e-06	4.126639e-09	4.994491e+01	2.703237e+02
1.940000e-06	4.669651e-06	4.104654e-09	4.941898e+01	2.695320e+02
1.950000e-06	4.618393e-06	4.072840e-09	4.887651e+01	2.686847e+02
1.960000e-06	4.565277e-06	4.065844e-09	4.831439e+01	2.677771e+02
1.970000e-06	4.510112e-06	4.080545e-09	4.773058e+01	2.668068e+02
1.980000e-06	4.453218e-06	4.053254e-09	4.712847e+01	2.657732e+02
1.990000e-06	4.394894e-06	4.004721e-09	4.651122e+01	2.646773e+02
2.000000e-06	4.335078e-06	4.014260e-09	4.587819e+01	2.635216e+02
2.010000e-06	4.273860e-06	4.005396e-09	4.523031e+01	2.623090e+02
2.020000e-06	4.211005e-06	3.977558e-09	4.456512e+01	2.610430e+02
2.030000e-06	4.146341e-06	3.955809e-09	4.388078e+01	2.597262e+02
2.040000e-06	4.080194e-06	3.934048e-09	4.318074e+01	2.583605e+02
2.050000e-06	4.012720e-06	3.920346e-09	4.246667e+01	2.569467e+02
2.060000e-06	3.943936e-06	3.884287e-09	4.173873e+01	2.554842e+02
2.070000e-06	3.873504e-06	3.868163e-09	4.099334e+01	2.539712e+02
2.080000e-06	3.801468e-06	3.844318e-09	4.023098e+01	2.524049e+02
2.090000e-06	3.728211e-06	3.806128e-09	3.945570e+01	2.507820e+02
2.100000e-06	3.653629e-06	3.788822e-09	3.866641e+01	2.490986e+02
2.110000e-06	3.577601e-06	3.767153e-09	3.786179e+01	2.473511e+02
2.120000e-06	3.499994e-06	3.737537e-09	3.704048e+01	2.455361e+02
2.130000e-06	3.420883e-06	3.700367e-09	3.620325e+01	2.436508e+02
2.140000e-06	3.340570e-06	3.682292e-09	3.535329e+01	2.416927e+02
2.150000e-06	3.259111e-06	3.652503e-09	3.449122e+01	2.396600e+02
2.160000e-06	3.176558e-06	3.605859e-09	3.361755e+01	2.375507e+02
2.170000e-06	3.093016e-06	3.575596e-09	3.273343e+01	2.353629e+02
2.180000e-06	3.008531e-06	3.544279e-09	3.183933e+01	2.330945e+02
2.190000e-06	2.922885e-06	3.508032e-09	3.093293e+01	2.307423e+02
2.200000e-06	2.835941e-06	3.466819e-09	3.001280e+01	2.283025e+02
2.210000e-06	2.747944e-06	3.429298e-09	2.908153e+01	2.257703e+02
2.220000e-06	2.659012e-06	3.390679e-09	2.814036e+01	2.231400e+02
2.230000e-06	2.569179e-06	3.351680e-09	2.718966e+01	2.204052e+02
2.240000e-06	2.478463e-06	3.310967e-09	2.622961e+01	2.175587e+02
2.250000e-06	2.386966e-06	3.263041e-09	2.526129e+01	2.145933e+02
2.260000e-06	2.294861e-06	3.216876e-09	2.428655e+01	2.115015e+02
2.270000e-06	2.202160e-06	3.168528e-09	2.330548e+01	2.082759e+02
2.280000e-06	2.108575e-06	3.117445e-09	2.231508e+01	2.049094e+02
2.290000e-06	2.013883e-06	3.061193e-09	2.131295e+01	2.013950e+02
2.300000e-06	1.918347e-06	3.002668e-09	2.030189e+01	1.977259e+02
2.310000e-06	1.822199e-06	2.946625e-09	1.928436e+01	1.938947e+02
2.320000e-06	1.725431e-06	2.891537e-09	1.826026e+01	1.898936e+02
2.330000e-06	1.628073e-06	2.830338e-09	1.722992e+01	1.857136e+02
2.340000e-06	1.530204e-06	2.760541e-09	1.619417e+01	1.813441e+02
2.350000e-06	1.431767e-06	2.689698e-09	1.515241e+01	1.767723e+02
2.360000e-06	1.332856e-06	2.620000e-09	1.410563e+01	1.719832e+02
2.370000e-06	1.233649e-06	2.545285e-09	1.305573e+01	1.669588e+02
2.380000e-06	1.134086e-06	2.461762e-09	1.200205e+01	1.616779e+02
2.390000e-06	1.034179e-06	2.375775e-09	1.094473e+01	1.561165e+02
2.400000e-06	9.340413e-07	2.288556e-09	9.884972e+00	1.502476e+02
2.410000e-06	8.336918e-07	2.195585e-09	8.822971e+00	1.440412e+02
2.420000e-06	7.330050e-07	2.096704e-09	7.757402e+00	1.374657e+02
2.430000e-06	6.320052e-07	1.992101e-09	6.688519e+00	1.304877e+02
2.440000e-06	5.307126e-07	1.878393e-09	5.616539e+00	1.230737e+02
2.450000e-06	4.290876e-07	1.756253e-09	4.541040e+00	1.151911e+02
2.460000e-06	3.273139e-07	1.628250e-09	3.463967e+00	1.068097e+02
2.470000e-06	2.254830e-07	1.492297e-09	2.386290e+00	9.790379e+01
2.480000e-06	1.234763e-07	1.346981e-09	1.306751e+00	8.845374e+01
2.490000e-06	2.137894e-08	1.193961e-09	2.262536e-01	7.844831e+01
2.500000e-06	-8.063124e-08	1.034906e-09	-8.533215e-01	6.788666e+01
2.510000e-06	-1.825809e-07	8.672589e-10	-1.932256e+00	5.678026e+01
2.520000e-06	-2.843840e-07	6.909062e-10	-3.009640e+00	4.515452e+01
2.530000e-06	-3.860114e-07	5.080282e-10	-4.085164e+00	3.304991e+01
2.540000e-06	-4.875256e-07	3.173494e-10	-5.159490e+00	2.052243e+01
2.550000e-06	-5.887938e-07	1.205817e-10	-6.231212e+00	7.643374e+00
2.560000e-06	-6.897273e-07	-8.020111e-11	-7.299393e+00	-5.501899e+00
2.570000e-06	-7.903733e-07	-2.833753e-10	-8.364531e+00	-1.881599e+01
2.580000e-06	-8.907218e-07	-4.862380e-10	-9.426521e+00	-3.219239e+01
2.590000e-06	-9.907494e-07	-6.909259e-10	-1.048511e+01	-4.551914e+01
2.600000e-06	-1.090535e-06	-8.942129e-10	-1.154114e+01	-5.868304e+01
2.610000e-06	-1.190049e-06	-1.090824e-09	-1.259430e+01	-7.157410e+01
2.620000e-06	-1.289190e-06	-1.277657e-09	-1.364352e+01	-8.409004e+01
2.630000e-06	-1.387879e-06	-1.457714e-09	-1.468794e+01	-9.614036e+01
2.640000e-06	-1.486074e-06	-1.634060e-09	-1.572714e+01	-1.076499e+02
2.650000e-06	-1.583728e-06	-1.801328e-09	-1.676061e+01	-1.185614e+02
2.660000e-06	-1.680851e-06	-1.957068e-09	-1.778847e+01	-1.288368e+02
2.670000e-06	-1.777497e-06	-2.103644e-09	-1.881127e+01	-1.384579e+02
2.680000e-06	-1.873615e-06	-2.242361e-09	-1.982850e+01	-1.474252e+02
2.690000e-06	-1.969124e-06	-2.372922e-09	-2.083927e+01	-1.557560e+02
2.700000e-06	-2.063918e-06	-2.492531e-09	-2.184247e+01	-1.634815e+02
2.710000e-06	-2.157786e-06	-2.599028e-09	-2.283587e+01	-1.706433e+02
2.720000e-06	-2.250610e-06	-2.698028e-09	-2.381824e+01	-1.772896e+02
2.730000e-06	-2.342628e-06	-2.792128e-09	-2.479206e+01	-1.834715e+02
2.740000e-06	-2.433955e-06	-2.879875e-09	-2.575857e+01	-1.892394e+02
2.750000e-06	-2.524431e-06	-2.961131e-09	-2.671609e+01	-1.946404e+02
2.760000e-06	-2.613988e-06	-3.039638e-09	-2.766387e+01	-1.997157e+02
2.770000e-06	-2.702682e-06	-3.115225e-09	-2.860252e+01	-2.044999e+02
2.780000e-06	-2.790525e-06	-3.186208e-09	-2.953216e+01	-2.090203e+02
2.790000e-06	-2.877343e-06	-3.251868e-09	-3.045096e+01	-2.132974e+02
2.800000e-06	-2.962991e-06	-3.312659e-09	-3.135737e+01	-2.173458e+02
2.810000e-06	-3.047449e-06	-3.370234e-09	-3.225120e+01	-2.211757e+02
2.820000e-06	-3.130871e-06	-3.425685e-09	-3.313405e+01	-2.247944e+02
2.830000e-06	-3.213344e-06	-3.478759e-09	-3.400687e+01	-2.282081e+02
2.840000e-06	-3.294775e-06	-3.527898e-09	-3.486865e+01	-2.314228e+02
2.850000e-06	-3.375104e-06	-3.573997e-09	-3.571878e+01	-2.344457e+02
2.860000e-06	-3.454186e-06	-3.616806e-09	-3.655569e+01	-2.372857e+02
2.870000e-06	-3.531795e-06	-3.657950e-09	-3.737704e+01	-2.399531e+02
2.880000e-06	-3.607959e-06	-3.697950e-09	-3.818308e+01	-2.424600e+02
2.890000e-06	-3.682792e-06	-3.736610e-09	-3.897503e+01	-2.448193e+02
2.900000e-06	-3.756247e-06	-3.771125e-09	-3.975241e+01	-2.470440e+02
2.910000e-06	-3.828373e-06	-3.801330e-09	-4.051572e+01	-2.491468e+02
2.920000e-06	-3.899114e-06	-3.832671e-09	-4.126437e+01	-2.511392e+02
2.930000e-06	-3.968273e-06	-3.862642e-09	-4.199629e+01	-2.530309e+02
2.940000e-06	-4.035966e-06	-3.888177e-09	-4.271268e+01	-2.548300e+02
