# Temperatura_=_20.0
# Concentracion g/m^3_=_9000.0
# C_Vs_to_Am_M_A/Vsm_=_65563218390.804596
# pendiente_HvsI_1/m_=_3716.3
# ordenada_HvsI_A/m_=_1297.0
# frecuencia_Hz_=_300871.2206565967

Tiempo_(s)	Campo_(V.s)	Magnetizacion_(V.s)	Campo_(kA/m)	Magnetizacion_(A/m)
0.000000e+00	-5.332762e-06	-4.300297e-09	-5.679933e+01	-2.822892e+02
1.000000e-08	-5.331089e-06	-4.300177e-09	-5.678151e+01	-2.822110e+02
2.000000e-08	-5.327557e-06	-4.298295e-09	-5.674389e+01	-2.821016e+02
3.000000e-08	-5.322352e-06	-4.296582e-09	-5.668845e+01	-2.819636e+02
4.000000e-08	-5.315528e-06	-4.291926e-09	-5.661577e+01	-2.817991e+02
5.000000e-08	-5.307003e-06	-4.286397e-09	-5.652496e+01	-2.816099e+02
6.000000e-08	-5.296462e-06	-4.284188e-09	-5.641270e+01	-2.813967e+02
7.000000e-08	-5.283988e-06	-4.273415e-09	-5.627984e+01	-2.811594e+02
8.000000e-08	-5.269599e-06	-4.270040e-09	-5.612658e+01	-2.808969e+02
9.000000e-08	-5.252995e-06	-4.313171e-09	-5.594973e+01	-2.806072e+02
1.000000e-07	-5.234293e-06	-4.326486e-09	-5.575053e+01	-2.802880e+02
1.100000e-07	-5.213688e-06	-4.303085e-09	-5.553107e+01	-2.799370e+02
1.200000e-07	-5.191258e-06	-4.273479e-09	-5.529217e+01	-2.795520e+02
1.300000e-07	-5.167248e-06	-4.192986e-09	-5.503644e+01	-2.791318e+02
1.400000e-07	-5.141694e-06	-4.215216e-09	-5.476427e+01	-2.786758e+02
1.500000e-07	-5.114528e-06	-4.319649e-09	-5.447492e+01	-2.781848e+02
1.600000e-07	-5.085761e-06	-4.220145e-09	-5.416852e+01	-2.776601e+02
1.700000e-07	-5.055476e-06	-4.197385e-09	-5.384596e+01	-2.771040e+02
1.800000e-07	-5.023384e-06	-4.222867e-09	-5.350414e+01	-2.765190e+02
1.900000e-07	-4.989199e-06	-4.161006e-09	-5.314003e+01	-2.759074e+02
2.000000e-07	-4.953492e-06	-4.256626e-09	-5.275972e+01	-2.752711e+02
2.100000e-07	-4.916236e-06	-4.219869e-09	-5.236291e+01	-2.746109e+02
2.200000e-07	-4.877082e-06	-4.098975e-09	-5.194588e+01	-2.739264e+02
2.300000e-07	-4.836127e-06	-4.167216e-09	-5.150966e+01	-2.732159e+02
2.400000e-07	-4.793316e-06	-4.198952e-09	-5.105368e+01	-2.724762e+02
2.500000e-07	-4.748752e-06	-4.159293e-09	-5.057903e+01	-2.717034e+02
2.600000e-07	-4.702460e-06	-4.123375e-09	-5.008597e+01	-2.708928e+02
2.700000e-07	-4.654193e-06	-4.064991e-09	-4.957188e+01	-2.700393e+02
2.800000e-07	-4.603881e-06	-4.115207e-09	-4.903600e+01	-2.691384e+02
2.900000e-07	-4.551735e-06	-4.136159e-09	-4.848060e+01	-2.681863e+02
3.000000e-07	-4.497896e-06	-4.064846e-09	-4.790716e+01	-2.671801e+02
3.100000e-07	-4.442460e-06	-4.025698e-09	-4.731671e+01	-2.661183e+02
3.200000e-07	-4.385341e-06	-4.043154e-09	-4.670833e+01	-2.650008e+02
3.300000e-07	-4.326512e-06	-4.047336e-09	-4.608175e+01	-2.638283e+02
3.400000e-07	-4.266223e-06	-4.003671e-09	-4.543960e+01	-2.626028e+02
3.500000e-07	-4.204534e-06	-3.993052e-09	-4.478255e+01	-2.613263e+02
3.600000e-07	-4.141377e-06	-3.946517e-09	-4.410987e+01	-2.600010e+02
3.700000e-07	-4.076650e-06	-3.933035e-09	-4.342046e+01	-2.586289e+02
3.800000e-07	-4.010336e-06	-3.962056e-09	-4.271414e+01	-2.572109e+02
3.900000e-07	-3.942480e-06	-3.904183e-09	-4.199141e+01	-2.557471e+02
4.000000e-07	-3.873220e-06	-3.844962e-09	-4.125372e+01	-2.542366e+02
4.100000e-07	-3.802764e-06	-3.850785e-09	-4.050330e+01	-2.526774e+02
4.200000e-07	-3.731212e-06	-3.860933e-09	-3.974119e+01	-2.510667e+02
4.300000e-07	-3.658239e-06	-3.808392e-09	-3.896396e+01	-2.494010e+02
4.400000e-07	-3.583489e-06	-3.752075e-09	-3.816780e+01	-2.476766e+02
4.500000e-07	-3.507238e-06	-3.745784e-09	-3.735564e+01	-2.458897e+02
4.600000e-07	-3.429720e-06	-3.735763e-09	-3.653000e+01	-2.440366e+02
4.700000e-07	-3.350770e-06	-3.697573e-09	-3.568910e+01	-2.421141e+02
4.800000e-07	-3.270403e-06	-3.656768e-09	-3.483312e+01	-2.401191e+02
4.900000e-07	-3.188824e-06	-3.623570e-09	-3.396422e+01	-2.380489e+02
5.000000e-07	-3.106209e-06	-3.601994e-09	-3.308428e+01	-2.359011e+02
5.100000e-07	-3.022706e-06	-3.578633e-09	-3.219489e+01	-2.336728e+02
5.200000e-07	-2.938335e-06	-3.542174e-09	-3.129626e+01	-2.313612e+02
5.300000e-07	-2.852926e-06	-3.489995e-09	-3.038656e+01	-2.289629e+02
5.400000e-07	-2.766467e-06	-3.447242e-09	-2.946568e+01	-2.264737e+02
5.500000e-07	-2.679239e-06	-3.427476e-09	-2.853661e+01	-2.238889e+02
5.600000e-07	-2.591232e-06	-3.391694e-09	-2.759925e+01	-2.212031e+02
5.700000e-07	-2.502092e-06	-3.332158e-09	-2.664982e+01	-2.184103e+02
5.800000e-07	-2.411701e-06	-3.276568e-09	-2.568707e+01	-2.155042e+02
5.900000e-07	-2.320403e-06	-3.245656e-09	-2.471465e+01	-2.124780e+02
6.000000e-07	-2.228467e-06	-3.205496e-09	-2.373544e+01	-2.093250e+02
6.100000e-07	-2.135884e-06	-3.145229e-09	-2.274933e+01	-2.060383e+02
6.200000e-07	-2.042547e-06	-3.087225e-09	-2.175520e+01	-2.026113e+02
6.300000e-07	-1.948410e-06	-3.036272e-09	-2.075254e+01	-1.990369e+02
6.400000e-07	-1.853661e-06	-2.985120e-09	-1.974337e+01	-1.953081e+02
6.500000e-07	-1.758469e-06	-2.925143e-09	-1.872949e+01	-1.914171e+02
6.600000e-07	-1.662772e-06	-2.862424e-09	-1.771021e+01	-1.873553e+02
6.700000e-07	-1.566244e-06	-2.794822e-09	-1.668209e+01	-1.831127e+02
6.800000e-07	-1.468759e-06	-2.725522e-09	-1.564378e+01	-1.786776e+02
6.900000e-07	-1.370592e-06	-2.655655e-09	-1.459819e+01	-1.740362e+02
7.000000e-07	-1.271969e-06	-2.582600e-09	-1.354777e+01	-1.691720e+02
7.100000e-07	-1.172947e-06	-2.501017e-09	-1.249307e+01	-1.640657e+02
7.200000e-07	-1.073575e-06	-2.415599e-09	-1.143466e+01	-1.586952e+02
7.300000e-07	-9.739101e-07	-2.332667e-09	-1.037313e+01	-1.530352e+02
7.400000e-07	-8.739975e-07	-2.241395e-09	-9.308960e+00	-1.470579e+02
7.500000e-07	-7.738363e-07	-2.142388e-09	-8.242142e+00	-1.407327e+02
7.600000e-07	-6.733970e-07	-2.038886e-09	-7.172361e+00	-1.340275e+02
7.700000e-07	-5.727017e-07	-1.931998e-09	-6.099854e+00	-1.269088e+02
7.800000e-07	-4.717957e-07	-1.814956e-09	-5.025103e+00	-1.193434e+02
7.900000e-07	-3.707547e-07	-1.689829e-09	-3.948914e+00	-1.112997e+02
8.000000e-07	-2.695855e-07	-1.563118e-09	-2.871359e+00	-1.027489e+02
8.100000e-07	-1.682747e-07	-1.428197e-09	-1.792296e+00	-9.366733e+01
8.200000e-07	-6.687771e-08	-1.276513e-09	-7.123155e-01	-8.403821e+01
8.300000e-07	3.457830e-08	-1.113998e-09	3.682939e-01	-7.385388e+01
8.400000e-07	1.360291e-07	-9.523401e-10	1.448848e+00	-6.311772e+01
8.500000e-07	2.374191e-07	-7.838577e-10	2.528754e+00	-5.184603e+01
8.600000e-07	3.387169e-07	-6.039975e-10	3.607678e+00	-4.006943e+01
8.700000e-07	4.398601e-07	-4.141586e-10	4.684957e+00	-2.783377e+01
8.800000e-07	5.408072e-07	-2.210345e-10	5.760145e+00	-1.520033e+01
8.900000e-07	6.415862e-07	-2.469199e-11	6.833544e+00	-2.245194e+00
9.000000e-07	7.421800e-07	1.755226e-10	7.904970e+00	1.094224e+01
9.100000e-07	8.425025e-07	3.800515e-10	8.973506e+00	2.426166e+01
9.200000e-07	9.425000e-07	5.857096e-10	1.003858e+01	3.760502e+01
9.300000e-07	1.042197e-06	7.844362e-10	1.110046e+01	5.086039e+01
9.400000e-07	1.141675e-06	9.805834e-10	1.216000e+01	6.391627e+01
9.500000e-07	1.240834e-06	1.176122e-09	1.321614e+01	7.666601e+01
9.600000e-07	1.339609e-06	1.369797e-09	1.426820e+01	8.901219e+01
9.700000e-07	1.437836e-06	1.551964e-09	1.531441e+01	1.008704e+02
9.800000e-07	1.535300e-06	1.719142e-09	1.635250e+01	1.121726e+02
9.900000e-07	1.632013e-06	1.878792e-09	1.738259e+01	1.228688e+02
1.000000e-06	1.728033e-06	2.035448e-09	1.840531e+01	1.329287e+02
1.010000e-06	1.823414e-06	2.183275e-09	1.942121e+01	1.423411e+02
1.020000e-06	1.918190e-06	2.314435e-09	2.043067e+01	1.511127e+02
1.030000e-06	2.012346e-06	2.434825e-09	2.143352e+01	1.592660e+02
1.040000e-06	2.105812e-06	2.549108e-09	2.242904e+01	1.668358e+02
1.050000e-06	2.198560e-06	2.658282e-09	2.341690e+01	1.738658e+02
1.060000e-06	2.290603e-06	2.759666e-09	2.439725e+01	1.804048e+02
1.070000e-06	2.382041e-06	2.851578e-09	2.537116e+01	1.865031e+02
1.080000e-06	2.472760e-06	2.934160e-09	2.633740e+01	1.922092e+02
1.090000e-06	2.562390e-06	3.014761e-09	2.729205e+01	1.975670e+02
1.100000e-06	2.650817e-06	3.093895e-09	2.823389e+01	2.026146e+02
1.110000e-06	2.738271e-06	3.165912e-09	2.916536e+01	2.073827e+02
1.120000e-06	2.824832e-06	3.232473e-09	3.008732e+01	2.118950e+02
1.130000e-06	2.910444e-06	3.297121e-09	3.099918e+01	2.161688e+02
1.140000e-06	2.995119e-06	3.361638e-09	3.190105e+01	2.202160e+02
1.150000e-06	3.078916e-06	3.422021e-09	3.279359e+01	2.240447e+02
1.160000e-06	3.161822e-06	3.476557e-09	3.367661e+01	2.276608e+02
1.170000e-06	3.243480e-06	3.523730e-09	3.454636e+01	2.310696e+02
1.180000e-06	3.323851e-06	3.569532e-09	3.540239e+01	2.342769e+02
1.190000e-06	3.403086e-06	3.616219e-09	3.624633e+01	2.372897e+02
1.200000e-06	3.481081e-06	3.658414e-09	3.707705e+01	2.401170e+02
1.210000e-06	3.557827e-06	3.694568e-09	3.789447e+01	2.427694e+02
1.220000e-06	3.633376e-06	3.730876e-09	3.869914e+01	2.452589e+02
1.230000e-06	3.707545e-06	3.768251e-09	3.948912e+01	2.475984e+02
1.240000e-06	3.780046e-06	3.801641e-09	4.026133e+01	2.498008e+02
1.250000e-06	3.851036e-06	3.833050e-09	4.101744e+01	2.518783e+02
1.260000e-06	3.920734e-06	3.862921e-09	4.175980e+01	2.538419e+02
1.270000e-06	3.989161e-06	3.890902e-09	4.248861e+01	2.557014e+02
1.280000e-06	4.056360e-06	3.916976e-09	4.320435e+01	2.574646e+02
1.290000e-06	4.121991e-06	3.941723e-09	4.390339e+01	2.591378e+02
1.300000e-06	4.185915e-06	3.965548e-09	4.458424e+01	2.607263e+02
1.310000e-06	4.248411e-06	3.987889e-09	4.524989e+01	2.622344e+02
1.320000e-06	4.309531e-06	4.008775e-09	4.590088e+01	2.636660e+02
1.330000e-06	4.369328e-06	4.028312e-09	4.653778e+01	2.650250e+02
1.340000e-06	4.427713e-06	4.048134e-09	4.715964e+01	2.663157e+02
1.350000e-06	4.484339e-06	4.068439e-09	4.776277e+01	2.675425e+02
1.360000e-06	4.539227e-06	4.087848e-09	4.834737e+01	2.687102e+02
1.370000e-06	4.592547e-06	4.105412e-09	4.891529e+01	2.698233e+02
1.380000e-06	4.644094e-06	4.122076e-09	4.946432e+01	2.708864e+02
1.390000e-06	4.693549e-06	4.139456e-09	4.999107e+01	2.719031e+02
1.400000e-06	4.741086e-06	4.156091e-09	5.049737e+01	2.728761e+02
1.410000e-06	4.786978e-06	4.169949e-09	5.098617e+01	2.738069e+02
1.420000e-06	4.831274e-06	4.183101e-09	5.145798e+01	2.746956e+02
1.430000e-06	4.873990e-06	4.197962e-09	5.191294e+01	2.755414e+02
1.440000e-06	4.914848e-06	4.212719e-09	5.234812e+01	2.763425e+02
1.450000e-06	4.953826e-06	4.224993e-09	5.276327e+01	2.770965e+02
1.460000e-06	4.991150e-06	4.235737e-09	5.316081e+01	2.778014e+02
1.470000e-06	5.026901e-06	4.246854e-09	5.354160e+01	2.784555e+02
1.480000e-06	5.060881e-06	4.257581e-09	5.390352e+01	2.790579e+02
1.490000e-06	5.092897e-06	4.266000e-09	5.424452e+01	2.796090e+02
1.500000e-06	5.123137e-06	4.273010e-09	5.456661e+01	2.801105e+02
1.510000e-06	5.151756e-06	4.279674e-09	5.487143e+01	2.805651e+02
1.520000e-06	5.178669e-06	4.286810e-09	5.515808e+01	2.809766e+02
1.530000e-06	5.203561e-06	4.294519e-09	5.542321e+01	2.813490e+02
1.540000e-06	5.226443e-06	4.300819e-09	5.566692e+01	2.816864e+02
1.550000e-06	5.247602e-06	4.305256e-09	5.589229e+01	2.819926e+02
1.560000e-06	5.267131e-06	4.309541e-09	5.610030e+01	2.822701e+02
1.570000e-06	5.284832e-06	4.315041e-09	5.628883e+01	2.825207e+02
1.580000e-06	5.300517e-06	4.320057e-09	5.645589e+01	2.827447e+02
1.590000e-06	5.314296e-06	4.323136e-09	5.660265e+01	2.829415e+02
1.600000e-06	5.326140e-06	4.325877e-09	5.672880e+01	2.831094e+02
1.610000e-06	5.335816e-06	4.328968e-09	5.683186e+01	2.832464e+02
1.620000e-06	5.343404e-06	4.331355e-09	5.691267e+01	2.833502e+02
1.630000e-06	5.349163e-06	4.332392e-09	5.697401e+01	2.834191e+02
1.640000e-06	5.353197e-06	4.332972e-09	5.701698e+01	2.834520e+02
1.650000e-06	5.355351e-06	4.336568e-09	5.703992e+01	2.834486e+02
1.660000e-06	5.355499e-06	4.338693e-09	5.704150e+01	2.834098e+02
1.670000e-06	5.353877e-06	4.335325e-09	5.702422e+01	2.833372e+02
1.680000e-06	5.350606e-06	4.332771e-09	5.698939e+01	2.832330e+02
1.690000e-06	5.345675e-06	4.330776e-09	5.693687e+01	2.830997e+02
1.700000e-06	5.338868e-06	4.330896e-09	5.686436e+01	2.829396e+02
1.710000e-06	5.330224e-06	4.329698e-09	5.677230e+01	2.827545e+02
1.720000e-06	5.320018e-06	4.326645e-09	5.666359e+01	2.825454e+02
1.730000e-06	5.308219e-06	4.335487e-09	5.653792e+01	2.823123e+02
1.740000e-06	5.294585e-06	4.303837e-09	5.639270e+01	2.820541e+02
1.750000e-06	5.278778e-06	4.250545e-09	5.622435e+01	2.817692e+02
1.760000e-06	5.260479e-06	4.251393e-09	5.602944e+01	2.814553e+02
1.770000e-06	5.239583e-06	4.255077e-09	5.580688e+01	2.811099e+02
1.780000e-06	5.216521e-06	4.335495e-09	5.556125e+01	2.807309e+02
1.790000e-06	5.192251e-06	4.372327e-09	5.530275e+01	2.803168e+02
1.800000e-06	5.167210e-06	4.207559e-09	5.503603e+01	2.798670e+02
1.810000e-06	5.140543e-06	4.256043e-09	5.475200e+01	2.793819e+02
1.820000e-06	5.111811e-06	4.286411e-09	5.444598e+01	2.788628e+02
1.830000e-06	5.081562e-06	4.211841e-09	5.412379e+01	2.783119e+02
1.840000e-06	5.049533e-06	4.327558e-09	5.378266e+01	2.777317e+02
1.850000e-06	5.015290e-06	4.217029e-09	5.341793e+01	2.771245e+02
1.860000e-06	4.979387e-06	4.136439e-09	5.303553e+01	2.764923e+02
1.870000e-06	4.941894e-06	4.305378e-09	5.263619e+01	2.758362e+02
1.880000e-06	4.902535e-06	4.202311e-09	5.221698e+01	2.751559e+02
1.890000e-06	4.861372e-06	4.118541e-09	5.177855e+01	2.744500e+02
1.900000e-06	4.818424e-06	4.178380e-09	5.132110e+01	2.737156e+02
1.910000e-06	4.773998e-06	4.151667e-09	5.084792e+01	2.729488e+02
1.920000e-06	4.727964e-06	4.217610e-09	5.035762e+01	2.721450e+02
1.930000e-06	4.679985e-06	4.120303e-09	4.984659e+01	2.712993e+02
1.940000e-06	4.630330e-06	4.067090e-09	4.931771e+01	2.704070e+02
1.950000e-06	4.579121e-06	4.144199e-09	4.877228e+01	2.694641e+02
1.960000e-06	4.526067e-06	4.083310e-09	4.820721e+01	2.684675e+02
1.970000e-06	4.470940e-06	4.092169e-09	4.762005e+01	2.674155e+02
1.980000e-06	4.414066e-06	4.048030e-09	4.701428e+01	2.663076e+02
1.990000e-06	4.355744e-06	4.010978e-09	4.639309e+01	2.651447e+02
2.000000e-06	4.296011e-06	4.033857e-09	4.575688e+01	2.639282e+02
2.010000e-06	4.234980e-06	4.016292e-09	4.510684e+01	2.626604e+02
2.020000e-06	4.172330e-06	4.016851e-09	4.443955e+01	2.613435e+02
2.030000e-06	4.107832e-06	3.907188e-09	4.375258e+01	2.599794e+02
2.040000e-06	4.041781e-06	3.925909e-09	4.304907e+01	2.585693e+02
2.050000e-06	3.974421e-06	3.973890e-09	4.233162e+01	2.571136e+02
2.060000e-06	3.905697e-06	3.893572e-09	4.159964e+01	2.556113e+02
2.070000e-06	3.835323e-06	3.857397e-09	4.085008e+01	2.540608e+02
2.080000e-06	3.763474e-06	3.818871e-09	4.008482e+01	2.524593e+02
2.090000e-06	3.690400e-06	3.848002e-09	3.930650e+01	2.508035e+02
2.100000e-06	3.615988e-06	3.811552e-09	3.851394e+01	2.490897e+02
2.110000e-06	3.540239e-06	3.752187e-09	3.770714e+01	2.473139e+02
2.120000e-06	3.462976e-06	3.737194e-09	3.688421e+01	2.454727e+02
2.130000e-06	3.384162e-06	3.699172e-09	3.604476e+01	2.435626e+02
2.140000e-06	3.304077e-06	3.693210e-09	3.519178e+01	2.415805e+02
2.150000e-06	3.222888e-06	3.655456e-09	3.432703e+01	2.395238e+02
2.160000e-06	3.140617e-06	3.621244e-09	3.345076e+01	2.373898e+02
2.170000e-06	3.057308e-06	3.569658e-09	3.256343e+01	2.351759e+02
2.180000e-06	2.973073e-06	3.537844e-09	3.166624e+01	2.328792e+02
2.190000e-06	2.887778e-06	3.526256e-09	3.075777e+01	2.304964e+02
2.200000e-06	2.801287e-06	3.472226e-09	2.983655e+01	2.280235e+02
2.210000e-06	2.713656e-06	3.418438e-09	2.890319e+01	2.254559e+02
2.220000e-06	2.625065e-06	3.382588e-09	2.795961e+01	2.227883e+02
2.230000e-06	2.535648e-06	3.366845e-09	2.700723e+01	2.200149e+02
2.240000e-06	2.445385e-06	3.313557e-09	2.604583e+01	2.171293e+02
2.250000e-06	2.354302e-06	3.256223e-09	2.507571e+01	2.141248e+02
2.260000e-06	2.262552e-06	3.215608e-09	2.409847e+01	2.109947e+02
2.270000e-06	2.170216e-06	3.167811e-09	2.311500e+01	2.077323e+02
2.280000e-06	2.077029e-06	3.114216e-09	2.212247e+01	2.043306e+02
2.290000e-06	1.982791e-06	3.060465e-09	2.111874e+01	2.007828e+02
2.300000e-06	1.887685e-06	3.007373e-09	2.010576e+01	1.970819e+02
2.310000e-06	1.791933e-06	2.940288e-09	1.908590e+01	1.932202e+02
2.320000e-06	1.695616e-06	2.880533e-09	1.806003e+01	1.891894e+02
2.330000e-06	1.598808e-06	2.828321e-09	1.702893e+01	1.849797e+02
2.340000e-06	1.501478e-06	2.765373e-09	1.599226e+01	1.805797e+02
2.350000e-06	1.403581e-06	2.687195e-09	1.494957e+01	1.759761e+02
2.360000e-06	1.305208e-06	2.613689e-09	1.390179e+01	1.711527e+02
2.370000e-06	1.206388e-06	2.542524e-09	1.284926e+01	1.660910e+02
2.380000e-06	1.107163e-06	2.458775e-09	1.179241e+01	1.607692e+02
2.390000e-06	1.007617e-06	2.370307e-09	1.073214e+01	1.551627e+02
2.400000e-06	9.078487e-07	2.279560e-09	9.669510e+00	1.492440e+02
2.410000e-06	8.079327e-07	2.184129e-09	8.605303e+00	1.429831e+02
2.420000e-06	7.078122e-07	2.085099e-09	7.538919e+00	1.363479e+02
2.430000e-06	6.075212e-07	1.985781e-09	6.470717e+00	1.293052e+02
2.440000e-06	5.070321e-07	1.875944e-09	5.400407e+00	1.218218e+02
2.450000e-06	4.062962e-07	1.747901e-09	4.327467e+00	1.138655e+02
2.460000e-06	3.054247e-07	1.612027e-09	3.253083e+00	1.054070e+02
2.470000e-06	2.044263e-07	1.479927e-09	2.177348e+00	9.642141e+01
2.480000e-06	1.032802e-07	1.340945e-09	1.100039e+00	8.689071e+01
2.490000e-06	2.078152e-09	1.182412e-09	2.213443e-02	7.680540e+01
2.500000e-06	-9.902663e-08	1.013214e-09	-1.054734e+00	6.616676e+01
2.510000e-06	-2.000112e-07	8.453949e-10	-2.130322e+00	5.498867e+01
2.520000e-06	-3.008860e-07	6.746824e-10	-3.204741e+00	4.329909e+01
2.530000e-06	-4.016600e-07	4.912971e-10	-4.278086e+00	3.114114e+01
2.540000e-06	-5.023257e-07	2.956061e-10	-5.350279e+00	1.857335e+01
2.550000e-06	-6.027960e-07	9.407608e-11	-6.420389e+00	5.669243e+00
2.560000e-06	-7.030749e-07	-1.054116e-10	-7.488461e+00	-7.484006e+00
2.570000e-06	-8.031451e-07	-3.016158e-10	-8.554310e+00	-2.078782e+01
2.580000e-06	-9.029498e-07	-5.030912e-10	-9.617332e+00	-3.413527e+01
2.590000e-06	-1.002449e-06	-7.148756e-10	-1.067709e+01	-4.741482e+01
2.600000e-06	-1.101638e-06	-9.219656e-10	-1.173357e+01	-6.051456e+01
2.610000e-06	-1.200483e-06	-1.111827e-09	-1.278636e+01	-7.332665e+01
2.620000e-06	-1.298910e-06	-1.293680e-09	-1.383471e+01	-8.575172e+01
2.630000e-06	-1.396854e-06	-1.479097e-09	-1.487792e+01	-9.770281e+01
2.640000e-06	-1.494339e-06	-1.661078e-09	-1.591623e+01	-1.091087e+02
2.650000e-06	-1.591350e-06	-1.826629e-09	-1.694949e+01	-1.199161e+02
2.660000e-06	-1.687861e-06	-1.977684e-09	-1.797743e+01	-1.300912e+02
2.670000e-06	-1.783960e-06	-2.121801e-09	-1.900098e+01	-1.396194e+02
2.680000e-06	-1.879589e-06	-2.262502e-09	-2.001954e+01	-1.485045e+02
2.690000e-06	-1.974390e-06	-2.394664e-09	-2.102925e+01	-1.567662e+02
2.700000e-06	-2.068123e-06	-2.511847e-09	-2.202761e+01	-1.644374e+02
2.710000e-06	-2.160943e-06	-2.615559e-09	-2.301624e+01	-1.715605e+02
2.720000e-06	-2.252998e-06	-2.714617e-09	-2.399671e+01	-1.781837e+02
2.730000e-06	-2.344331e-06	-2.812379e-09	-2.496950e+01	-1.843573e+02
2.740000e-06	-2.434894e-06	-2.902378e-09	-2.593409e+01	-1.901302e+02
2.750000e-06	-2.524544e-06	-2.983023e-09	-2.688896e+01	-1.955475e+02
2.760000e-06	-2.613352e-06	-3.059226e-09	-2.783485e+01	-2.006482e+02
2.770000e-06	-2.701481e-06	-3.134804e-09	-2.877352e+01	-2.054645e+02
2.780000e-06	-2.788709e-06	-3.208719e-09	-2.970259e+01	-2.100213e+02
2.790000e-06	-2.874676e-06	-3.275554e-09	-3.061822e+01	-2.143369e+02
2.800000e-06	-2.959461e-06	-3.335456e-09	-3.152126e+01	-2.184241e+02
2.810000e-06	-3.043238e-06	-3.392620e-09	-3.241358e+01	-2.222915e+02
2.820000e-06	-3.126049e-06	-3.449474e-09	-3.329560e+01	-2.259454e+02
2.830000e-06	-3.207855e-06	-3.505343e-09	-3.416692e+01	-2.293911e+02
2.840000e-06	-3.288625e-06	-3.555709e-09	-3.502719e+01	-2.326341e+02
2.850000e-06	-3.368291e-06	-3.601201e-09	-3.587572e+01	-2.356812e+02
2.860000e-06	-3.446483e-06	-3.644016e-09	-3.670854e+01	-2.385411e+02
2.870000e-06	-3.523192e-06	-3.686921e-09	-3.752557e+01	-2.412241e+02
2.880000e-06	-3.598630e-06	-3.729931e-09	-3.832906e+01	-2.437420e+02
2.890000e-06	-3.672725e-06	-3.767399e-09	-3.911825e+01	-2.461076e+02
2.900000e-06	-3.745493e-06	-3.800339e-09	-3.989331e+01	-2.483337e+02
2.910000e-06	-3.816959e-06	-3.833501e-09	-4.065449e+01	-2.504329e+02
2.920000e-06	-3.886855e-06	-3.866977e-09	-4.139895e+01	-2.524163e+02
2.930000e-06	-3.955215e-06	-3.896468e-09	-4.212706e+01	-2.542940e+02
2.940000e-06	-4.022252e-06	-3.922144e-09	-4.284106e+01	-2.560741e+02
