# Temperatura_=_20.0
# Concentracion g/m^3_=_9000.0
# C_Vs_to_Am_M_A/Vsm_=_65563218390.804596
# pendiente_HvsI_1/m_=_3716.3
# ordenada_HvsI_A/m_=_1297.0
# frecuencia_Hz_=_300794.70507543284

Tiempo_(s)	Campo_(V.s)	Magnetizacion_(V.s)	Campo_(kA/m)	Magnetizacion_(A/m)
0.000000e+00	-4.074632e-06	-3.804494e-09	-2.906420e+01	-2.493286e+02
1.000000e-08	-4.072648e-06	-3.806908e-09	-2.905005e+01	-2.493667e+02
2.000000e-08	-4.069211e-06	-3.808701e-09	-2.902553e+01	-2.493756e+02
3.000000e-08	-4.064642e-06	-3.809673e-09	-2.899295e+01	-2.493544e+02
4.000000e-08	-4.058794e-06	-3.808761e-09	-2.895123e+01	-2.493020e+02
5.000000e-08	-4.051703e-06	-3.808094e-09	-2.890065e+01	-2.492179e+02
6.000000e-08	-4.043431e-06	-3.800196e-09	-2.884165e+01	-2.491019e+02
7.000000e-08	-4.033586e-06	-3.786127e-09	-2.877142e+01	-2.489547e+02
8.000000e-08	-4.021948e-06	-3.819859e-09	-2.868841e+01	-2.487774e+02
9.000000e-08	-4.008402e-06	-3.859203e-09	-2.859179e+01	-2.485719e+02
1.000000e-07	-3.992786e-06	-3.864636e-09	-2.848040e+01	-2.483405e+02
1.100000e-07	-3.975503e-06	-3.804320e-09	-2.835712e+01	-2.480856e+02
1.200000e-07	-3.957089e-06	-3.686619e-09	-2.822577e+01	-2.478093e+02
1.300000e-07	-3.937773e-06	-3.766309e-09	-2.808799e+01	-2.475130e+02
1.400000e-07	-3.917432e-06	-3.864423e-09	-2.794290e+01	-2.471970e+02
1.500000e-07	-3.896060e-06	-3.755034e-09	-2.779046e+01	-2.468604e+02
1.600000e-07	-3.873566e-06	-3.756948e-09	-2.763001e+01	-2.465008e+02
1.700000e-07	-3.849300e-06	-3.730550e-09	-2.745691e+01	-2.461143e+02
1.800000e-07	-3.823268e-06	-3.668975e-09	-2.727123e+01	-2.456958e+02
1.900000e-07	-3.796176e-06	-3.829835e-09	-2.707799e+01	-2.452391e+02
2.000000e-07	-3.767955e-06	-3.803316e-09	-2.687668e+01	-2.447376e+02
2.100000e-07	-3.738279e-06	-3.611936e-09	-2.666501e+01	-2.441844e+02
2.200000e-07	-3.707452e-06	-3.709847e-09	-2.644512e+01	-2.435735e+02
2.300000e-07	-3.675580e-06	-3.815416e-09	-2.621778e+01	-2.428994e+02
2.400000e-07	-3.642263e-06	-3.723341e-09	-2.598013e+01	-2.421585e+02
2.500000e-07	-3.607360e-06	-3.656932e-09	-2.573117e+01	-2.413485e+02
2.600000e-07	-3.571096e-06	-3.610482e-09	-2.547250e+01	-2.404690e+02
2.700000e-07	-3.533714e-06	-3.671923e-09	-2.520585e+01	-2.395214e+02
2.800000e-07	-3.495237e-06	-3.702541e-09	-2.493140e+01	-2.385084e+02
2.900000e-07	-3.455555e-06	-3.592698e-09	-2.464835e+01	-2.374340e+02
3.000000e-07	-3.414565e-06	-3.587139e-09	-2.435597e+01	-2.363026e+02
3.100000e-07	-3.372116e-06	-3.598947e-09	-2.405318e+01	-2.351191e+02
3.200000e-07	-3.328344e-06	-3.550108e-09	-2.374095e+01	-2.338878e+02
3.300000e-07	-3.283474e-06	-3.577786e-09	-2.342090e+01	-2.326121e+02
3.400000e-07	-3.237479e-06	-3.559359e-09	-2.309282e+01	-2.312947e+02
3.500000e-07	-3.190217e-06	-3.449949e-09	-2.275570e+01	-2.299367e+02
3.600000e-07	-3.141742e-06	-3.469445e-09	-2.240993e+01	-2.285380e+02
3.700000e-07	-3.091962e-06	-3.535058e-09	-2.205485e+01	-2.270975e+02
3.800000e-07	-3.040619e-06	-3.449863e-09	-2.168862e+01	-2.256130e+02
3.900000e-07	-2.987880e-06	-3.356225e-09	-2.131244e+01	-2.240820e+02
4.000000e-07	-2.934189e-06	-3.411133e-09	-2.092947e+01	-2.225013e+02
4.100000e-07	-2.879676e-06	-3.419253e-09	-2.054062e+01	-2.208684e+02
4.200000e-07	-2.824278e-06	-3.332204e-09	-2.014547e+01	-2.191807e+02
4.300000e-07	-2.767798e-06	-3.301689e-09	-1.974261e+01	-2.174366e+02
4.400000e-07	-2.709954e-06	-3.303910e-09	-1.933000e+01	-2.156349e+02
4.500000e-07	-2.650990e-06	-3.277868e-09	-1.890942e+01	-2.137751e+02
4.600000e-07	-2.591225e-06	-3.224051e-09	-1.848311e+01	-2.118574e+02
4.700000e-07	-2.530656e-06	-3.199339e-09	-1.805108e+01	-2.098820e+02
4.800000e-07	-2.469202e-06	-3.174208e-09	-1.761273e+01	-2.078490e+02
4.900000e-07	-2.406836e-06	-3.135939e-09	-1.716788e+01	-2.057581e+02
5.000000e-07	-2.343731e-06	-3.110952e-09	-1.671775e+01	-2.036086e+02
5.100000e-07	-2.280009e-06	-3.077977e-09	-1.626322e+01	-2.013985e+02
5.200000e-07	-2.215271e-06	-3.030290e-09	-1.580145e+01	-1.991250e+02
5.300000e-07	-2.149208e-06	-2.995060e-09	-1.533022e+01	-1.967843e+02
5.400000e-07	-2.082286e-06	-2.979058e-09	-1.485287e+01	-1.943714e+02
5.500000e-07	-2.014962e-06	-2.941052e-09	-1.437265e+01	-1.918806e+02
5.600000e-07	-1.947113e-06	-2.877345e-09	-1.388869e+01	-1.893057e+02
5.700000e-07	-1.878559e-06	-2.833838e-09	-1.339969e+01	-1.866400e+02
5.800000e-07	-1.809409e-06	-2.821431e-09	-1.290644e+01	-1.838769e+02
5.900000e-07	-1.739728e-06	-2.775067e-09	-1.240942e+01	-1.810100e+02
6.000000e-07	-1.669394e-06	-2.701441e-09	-1.190773e+01	-1.780329e+02
6.100000e-07	-1.598409e-06	-2.655637e-09	-1.140139e+01	-1.749401e+02
6.200000e-07	-1.526978e-06	-2.630300e-09	-1.089188e+01	-1.717258e+02
6.300000e-07	-1.455211e-06	-2.578853e-09	-1.037997e+01	-1.683850e+02
6.400000e-07	-1.382943e-06	-2.507233e-09	-9.864480e+00	-1.649121e+02
6.500000e-07	-1.309944e-06	-2.452985e-09	-9.343785e+00	-1.613014e+02
6.600000e-07	-1.236026e-06	-2.402710e-09	-8.816528e+00	-1.575467e+02
6.700000e-07	-1.161394e-06	-2.346605e-09	-8.284182e+00	-1.536406e+02
6.800000e-07	-1.086393e-06	-2.283984e-09	-7.749201e+00	-1.495747e+02
6.900000e-07	-1.011005e-06	-2.215572e-09	-7.211465e+00	-1.453395e+02
7.000000e-07	-9.352842e-07	-2.140595e-09	-6.671348e+00	-1.409238e+02
7.100000e-07	-8.593044e-07	-2.074980e-09	-6.129387e+00	-1.363154e+02
7.200000e-07	-7.830568e-07	-2.015450e-09	-5.585515e+00	-1.315008e+02
7.300000e-07	-7.065265e-07	-1.933150e-09	-5.039628e+00	-1.264660e+02
7.400000e-07	-6.296665e-07	-1.839974e-09	-4.491388e+00	-1.211965e+02
7.500000e-07	-5.525575e-07	-1.760159e-09	-3.941373e+00	-1.156776e+02
7.600000e-07	-4.752937e-07	-1.685353e-09	-3.390252e+00	-1.098954e+02
7.700000e-07	-3.978763e-07	-1.588704e-09	-2.838037e+00	-1.038372e+02
7.800000e-07	-3.203298e-07	-1.480779e-09	-2.284901e+00	-9.749147e+01
7.900000e-07	-2.426442e-07	-1.381125e-09	-1.730773e+00	-9.084924e+01
8.000000e-07	-1.648649e-07	-1.283598e-09	-1.175976e+00	-8.390393e+01
8.100000e-07	-8.705309e-08	-1.174168e-09	-6.209465e-01	-7.665211e+01
8.200000e-07	-9.195663e-09	-1.055723e-09	-6.559233e-02	-6.909387e+01
8.300000e-07	6.870678e-08	-9.366951e-10	4.900829e-01	-6.123324e+01
8.400000e-07	1.466060e-07	-8.124745e-10	1.045735e+00	-5.307852e+01
8.500000e-07	2.243737e-07	-6.838903e-10	1.600449e+00	-4.464260e+01
8.600000e-07	3.019694e-07	-5.514203e-10	2.153936e+00	-3.594323e+01
8.700000e-07	3.794682e-07	-4.126705e-10	2.706733e+00	-2.700311e+01
8.800000e-07	4.568612e-07	-2.679407e-10	3.258774e+00	-1.784997e+01
8.900000e-07	5.340861e-07	-1.262301e-10	3.809616e+00	-8.516463e+00
9.000000e-07	6.111285e-07	1.461375e-11	4.359157e+00	9.601278e-01
9.100000e-07	6.879532e-07	1.630758e-10	4.907145e+00	1.053832e+01
9.200000e-07	7.645362e-07	3.134722e-10	5.453409e+00	2.017312e+01
9.300000e-07	8.408549e-07	4.595474e-10	5.997788e+00	2.981686e+01
9.400000e-07	9.168307e-07	6.032361e-10	6.539720e+00	3.942030e+01
9.500000e-07	9.925079e-07	7.506765e-10	7.079523e+00	4.893380e+01
9.600000e-07	1.067906e-06	8.953077e-10	7.617337e+00	5.830869e+01
9.700000e-07	1.142969e-06	1.034366e-09	8.152753e+00	6.749860e+01
9.800000e-07	1.217534e-06	1.170673e-09	8.684622e+00	7.646087e+01
9.900000e-07	1.291357e-06	1.305976e-09	9.211205e+00	8.515773e+01
1.000000e-06	1.364438e-06	1.435006e-09	9.732490e+00	9.355741e+01
1.010000e-06	1.436838e-06	1.554592e-09	1.024891e+01	1.016349e+02
1.020000e-06	1.508671e-06	1.672343e-09	1.076129e+01	1.093725e+02
1.030000e-06	1.580108e-06	1.786457e-09	1.127085e+01	1.167600e+02
1.040000e-06	1.651140e-06	1.893027e-09	1.177752e+01	1.237941e+02
1.050000e-06	1.721598e-06	1.993143e-09	1.228009e+01	1.304784e+02
1.060000e-06	1.791382e-06	2.090005e-09	1.277787e+01	1.368221e+02
1.070000e-06	1.860533e-06	2.182175e-09	1.327111e+01	1.428391e+02
1.080000e-06	1.929066e-06	2.269838e-09	1.375996e+01	1.485467e+02
1.090000e-06	1.996985e-06	2.351997e-09	1.424442e+01	1.539640e+02
1.100000e-06	2.064366e-06	2.427505e-09	1.472504e+01	1.591111e+02
1.110000e-06	2.131128e-06	2.500945e-09	1.520126e+01	1.640074e+02
1.120000e-06	2.196921e-06	2.571941e-09	1.567055e+01	1.686709e+02
1.130000e-06	2.261605e-06	2.640453e-09	1.613195e+01	1.731176e+02
1.140000e-06	2.325427e-06	2.704942e-09	1.658719e+01	1.773608e+02
1.150000e-06	2.388617e-06	2.765626e-09	1.703792e+01	1.814111e+02
1.160000e-06	2.451077e-06	2.824371e-09	1.748344e+01	1.852766e+02
1.170000e-06	2.512713e-06	2.881083e-09	1.792309e+01	1.889633e+02
1.180000e-06	2.573508e-06	2.933850e-09	1.835674e+01	1.924754e+02
1.190000e-06	2.633512e-06	2.982491e-09	1.878475e+01	1.958163e+02
1.200000e-06	2.692830e-06	3.028695e-09	1.920786e+01	1.989891e+02
1.210000e-06	2.751175e-06	3.072320e-09	1.962403e+01	2.019970e+02
1.220000e-06	2.808163e-06	3.115537e-09	2.003053e+01	2.048443e+02
1.230000e-06	2.863945e-06	3.156062e-09	2.042841e+01	2.075358e+02
1.240000e-06	2.918813e-06	3.192332e-09	2.081979e+01	2.100780e+02
1.250000e-06	2.972735e-06	3.226944e-09	2.120441e+01	2.124782e+02
1.260000e-06	3.025642e-06	3.261461e-09	2.158180e+01	2.147446e+02
1.270000e-06	3.077459e-06	3.294164e-09	2.195141e+01	2.168859e+02
1.280000e-06	3.127934e-06	3.324921e-09	2.231144e+01	2.189113e+02
1.290000e-06	3.176872e-06	3.352519e-09	2.266051e+01	2.208291e+02
1.300000e-06	3.224496e-06	3.377430e-09	2.300021e+01	2.226475e+02
1.310000e-06	3.270996e-06	3.402599e-09	2.333189e+01	2.243735e+02
1.320000e-06	3.316387e-06	3.428222e-09	2.365567e+01	2.260131e+02
1.330000e-06	3.360767e-06	3.451241e-09	2.397223e+01	2.275711e+02
1.340000e-06	3.404172e-06	3.470687e-09	2.428183e+01	2.290515e+02
1.350000e-06	3.446352e-06	3.491657e-09	2.458270e+01	2.304573e+02
1.360000e-06	3.487061e-06	3.513820e-09	2.487308e+01	2.317913e+02
1.370000e-06	3.526451e-06	3.533661e-09	2.515404e+01	2.330558e+02
1.380000e-06	3.564655e-06	3.549251e-09	2.542656e+01	2.342535e+02
1.390000e-06	3.601662e-06	3.563688e-09	2.569053e+01	2.353873e+02
1.400000e-06	3.637549e-06	3.579324e-09	2.594650e+01	2.364605e+02
1.410000e-06	3.672185e-06	3.594922e-09	2.619356e+01	2.374772e+02
1.420000e-06	3.705302e-06	3.609035e-09	2.642978e+01	2.384416e+02
1.430000e-06	3.737013e-06	3.621828e-09	2.665598e+01	2.393582e+02
1.440000e-06	3.767547e-06	3.635973e-09	2.687377e+01	2.402316e+02
1.450000e-06	3.796869e-06	3.650734e-09	2.708293e+01	2.410658e+02
1.460000e-06	3.824970e-06	3.664924e-09	2.728337e+01	2.418643e+02
1.470000e-06	3.851765e-06	3.677301e-09	2.747450e+01	2.426296e+02
1.480000e-06	3.876992e-06	3.688862e-09	2.765444e+01	2.433631e+02
1.490000e-06	3.900683e-06	3.700114e-09	2.782343e+01	2.440651e+02
1.500000e-06	3.923052e-06	3.709035e-09	2.798299e+01	2.447350e+02
1.510000e-06	3.944122e-06	3.716878e-09	2.813328e+01	2.453710e+02
1.520000e-06	3.963986e-06	3.725274e-09	2.827497e+01	2.459711e+02
1.530000e-06	3.982639e-06	3.734424e-09	2.840802e+01	2.465327e+02
1.540000e-06	3.999911e-06	3.744116e-09	2.853122e+01	2.470535e+02
1.550000e-06	4.015673e-06	3.753787e-09	2.864365e+01	2.475317e+02
1.560000e-06	4.029836e-06	3.762870e-09	2.874468e+01	2.479661e+02
1.570000e-06	4.042528e-06	3.769882e-09	2.883520e+01	2.483563e+02
1.580000e-06	4.053689e-06	3.775190e-09	2.891481e+01	2.487030e+02
1.590000e-06	4.063088e-06	3.779050e-09	2.898186e+01	2.490077e+02
1.600000e-06	4.070913e-06	3.781838e-09	2.903767e+01	2.492725e+02
1.610000e-06	4.077373e-06	3.785488e-09	2.908375e+01	2.494999e+02
1.620000e-06	4.082438e-06	3.789226e-09	2.911988e+01	2.496926e+02
1.630000e-06	4.086231e-06	3.792944e-09	2.914694e+01	2.498530e+02
1.640000e-06	4.088607e-06	3.797493e-09	2.916389e+01	2.499831e+02
1.650000e-06	4.089359e-06	3.801764e-09	2.916925e+01	2.500843e+02
1.660000e-06	4.088676e-06	3.803363e-09	2.916438e+01	2.501571e+02
1.670000e-06	4.086694e-06	3.802332e-09	2.915024e+01	2.502015e+02
1.680000e-06	4.083460e-06	3.799777e-09	2.912717e+01	2.502170e+02
1.690000e-06	4.079103e-06	3.797051e-09	2.909609e+01	2.502024e+02
1.700000e-06	4.073375e-06	3.795492e-09	2.905523e+01	2.501570e+02
1.710000e-06	4.066058e-06	3.794914e-09	2.900304e+01	2.500800e+02
1.720000e-06	4.057457e-06	3.801766e-09	2.894170e+01	2.499710e+02
1.730000e-06	4.047766e-06	3.808058e-09	2.887257e+01	2.498306e+02
1.740000e-06	4.036826e-06	3.748998e-09	2.879453e+01	2.496598e+02
1.750000e-06	4.023976e-06	3.717859e-09	2.870287e+01	2.494603e+02
1.760000e-06	4.008640e-06	3.710487e-09	2.859349e+01	2.492345e+02
1.770000e-06	3.991306e-06	3.821122e-09	2.846984e+01	2.489847e+02
1.780000e-06	3.973169e-06	3.872579e-09	2.834047e+01	2.487130e+02
1.790000e-06	3.954692e-06	3.716975e-09	2.820867e+01	2.484211e+02
1.800000e-06	3.934874e-06	3.737992e-09	2.806731e+01	2.481096e+02
1.810000e-06	3.912961e-06	3.777420e-09	2.791101e+01	2.477777e+02
1.820000e-06	3.889856e-06	3.726145e-09	2.774620e+01	2.474235e+02
1.830000e-06	3.865857e-06	3.840627e-09	2.757502e+01	2.470434e+02
1.840000e-06	3.840086e-06	3.789994e-09	2.739120e+01	2.466324e+02
1.850000e-06	3.812867e-06	3.605494e-09	2.719704e+01	2.461847e+02
1.860000e-06	3.784775e-06	3.782623e-09	2.699666e+01	2.456935e+02
1.870000e-06	3.755326e-06	3.850918e-09	2.678660e+01	2.451522e+02
1.880000e-06	3.724238e-06	3.642856e-09	2.656485e+01	2.445543e+02
1.890000e-06	3.691707e-06	3.700646e-09	2.633281e+01	2.438944e+02
1.900000e-06	3.658003e-06	3.792791e-09	2.609240e+01	2.431682e+02
1.910000e-06	3.623227e-06	3.732202e-09	2.584435e+01	2.423733e+02
1.920000e-06	3.587189e-06	3.731012e-09	2.558729e+01	2.415089e+02
1.930000e-06	3.549924e-06	3.640075e-09	2.532148e+01	2.405758e+02
1.940000e-06	3.511406e-06	3.672743e-09	2.504673e+01	2.395768e+02
1.950000e-06	3.471297e-06	3.701361e-09	2.476063e+01	2.385153e+02
1.960000e-06	3.429816e-06	3.579471e-09	2.446475e+01	2.373960e+02
1.970000e-06	3.387347e-06	3.675466e-09	2.416183e+01	2.362235e+02
1.980000e-06	3.343832e-06	3.626303e-09	2.385143e+01	2.350023e+02
1.990000e-06	3.299221e-06	3.496399e-09	2.353322e+01	2.337361e+02
2.000000e-06	3.253471e-06	3.614901e-09	2.320689e+01	2.324276e+02
2.010000e-06	3.206602e-06	3.593901e-09	2.287258e+01	2.310785e+02
2.020000e-06	3.158422e-06	3.475162e-09	2.252891e+01	2.296888e+02
2.030000e-06	3.108923e-06	3.460722e-09	2.217584e+01	2.282576e+02
2.040000e-06	3.058496e-06	3.508722e-09	2.181614e+01	2.267830e+02
2.050000e-06	3.007038e-06	3.501604e-09	2.144909e+01	2.252623e+02
2.060000e-06	2.954275e-06	3.373659e-09	2.107273e+01	2.236928e+02
2.070000e-06	2.900040e-06	3.390312e-09	2.068588e+01	2.220714e+02
2.080000e-06	2.844512e-06	3.422137e-09	2.028980e+01	2.203958e+02
2.090000e-06	2.788006e-06	3.338015e-09	1.988675e+01	2.186641e+02
2.100000e-06	2.730500e-06	3.307836e-09	1.947656e+01	2.168750e+02
2.110000e-06	2.672146e-06	3.287079e-09	1.906032e+01	2.150279e+02
2.120000e-06	2.613007e-06	3.289617e-09	1.863848e+01	2.131229e+02
2.130000e-06	2.553044e-06	3.225864e-09	1.821077e+01	2.111600e+02
2.140000e-06	2.492281e-06	3.184168e-09	1.777735e+01	2.091395e+02
2.150000e-06	2.430416e-06	3.201692e-09	1.733607e+01	2.070613e+02
2.160000e-06	2.367330e-06	3.132157e-09	1.688608e+01	2.049246e+02
2.170000e-06	2.303389e-06	3.102716e-09	1.642999e+01	2.027279e+02
2.180000e-06	2.238798e-06	3.084600e-09	1.596927e+01	2.004685e+02
2.190000e-06	2.173470e-06	3.041249e-09	1.550328e+01	1.981428e+02
2.200000e-06	2.107320e-06	2.988838e-09	1.503144e+01	1.957460e+02
2.210000e-06	2.040405e-06	2.953167e-09	1.455414e+01	1.932726e+02
2.220000e-06	1.972853e-06	2.952789e-09	1.407229e+01	1.907165e+02
2.230000e-06	1.904731e-06	2.880674e-09	1.358638e+01	1.880710e+02
2.240000e-06	1.835972e-06	2.812981e-09	1.309592e+01	1.853296e+02
2.250000e-06	1.766449e-06	2.802287e-09	1.260002e+01	1.824856e+02
2.260000e-06	1.696067e-06	2.770472e-09	1.209798e+01	1.795329e+02
2.270000e-06	1.624766e-06	2.702519e-09	1.158940e+01	1.764655e+02
2.280000e-06	1.552842e-06	2.639884e-09	1.107636e+01	1.732779e+02
2.290000e-06	1.480592e-06	2.612989e-09	1.056101e+01	1.699648e+02
2.300000e-06	1.407930e-06	2.566010e-09	1.004272e+01	1.665209e+02
2.310000e-06	1.334795e-06	2.498235e-09	9.521047e+00	1.629404e+02
2.320000e-06	1.261211e-06	2.443912e-09	8.996170e+00	1.592173e+02
2.330000e-06	1.187198e-06	2.382538e-09	8.468237e+00	1.553446e+02
2.340000e-06	1.112767e-06	2.319475e-09	7.937327e+00	1.513139e+02
2.350000e-06	1.037988e-06	2.262897e-09	7.403929e+00	1.471161e+02
2.360000e-06	9.628673e-07	2.206628e-09	6.868097e+00	1.427402e+02
2.370000e-06	8.873585e-07	2.126148e-09	6.329496e+00	1.381744e+02
2.380000e-06	8.115269e-07	2.038299e-09	5.788592e+00	1.334054e+02
2.390000e-06	7.354093e-07	1.976539e-09	5.245648e+00	1.284192e+02
2.400000e-06	6.590180e-07	1.905349e-09	4.700752e+00	1.232014e+02
2.410000e-06	5.823811e-07	1.810023e-09	4.154103e+00	1.177373e+02
2.420000e-06	5.055697e-07	1.713828e-09	3.606210e+00	1.120129e+02
2.430000e-06	4.285462e-07	1.631617e-09	3.056804e+00	1.060150e+02
2.440000e-06	3.512182e-07	1.542790e-09	2.505227e+00	9.973200e+01
2.450000e-06	2.736691e-07	1.434481e-09	1.952072e+00	9.315416e+01
2.460000e-06	1.959018e-07	1.328751e-09	1.397361e+00	8.627440e+01
2.470000e-06	1.179190e-07	1.224880e-09	8.411122e-01	7.908858e+01
2.480000e-06	3.990973e-08	1.110725e-09	2.846747e-01	7.159600e+01
2.490000e-06	-3.797416e-08	9.900571e-10	-2.708683e-01	6.379982e+01
2.500000e-06	-1.157261e-07	8.717433e-10	-8.254700e-01	5.570739e+01
2.510000e-06	-1.934847e-07	7.434789e-10	-1.380119e+00	4.733061e+01
2.520000e-06	-2.711622e-07	6.040640e-10	-1.934190e+00	3.868615e+01
2.530000e-06	-3.485333e-07	4.687831e-10	-2.486075e+00	2.979566e+01
2.540000e-06	-4.256280e-07	3.345201e-10	-3.035989e+00	2.068579e+01
2.550000e-06	-5.025125e-07	1.935020e-10	-3.584403e+00	1.138814e+01
2.560000e-06	-5.791241e-07	4.738457e-11	-4.130871e+00	1.939055e+00
2.570000e-06	-6.554501e-07	-9.575572e-11	-4.675302e+00	-7.620845e+00
2.580000e-06	-7.315752e-07	-2.396003e-10	-5.218299e+00	-1.724725e+01
2.590000e-06	-8.074800e-07	-3.867940e-10	-5.759726e+00	-2.689298e+01
2.600000e-06	-8.830860e-07	-5.317057e-10	-6.299020e+00	-3.650904e+01
2.610000e-06	-9.583107e-07	-6.759785e-10	-6.835595e+00	-4.604576e+01
2.620000e-06	-1.033129e-06	-8.231504e-10	-7.369272e+00	-5.545415e+01
2.630000e-06	-1.107603e-06	-9.663021e-10	-7.900491e+00	-6.468724e+01
2.640000e-06	-1.181698e-06	-1.098631e-09	-8.429008e+00	-7.370145e+01
2.650000e-06	-1.255391e-06	-1.229733e-09	-8.954658e+00	-8.245788e+01
2.660000e-06	-1.328639e-06	-1.364575e-09	-9.477136e+00	-9.092339e+01
2.670000e-06	-1.401417e-06	-1.492523e-09	-9.996255e+00	-9.907148e+01
2.680000e-06	-1.473814e-06	-1.608190e-09	-1.051266e+01	-1.068829e+02
2.690000e-06	-1.545890e-06	-1.722053e-09	-1.102678e+01	-1.143456e+02
2.700000e-06	-1.617574e-06	-1.836291e-09	-1.153810e+01	-1.214552e+02
2.710000e-06	-1.688568e-06	-1.942457e-09	-1.204449e+01	-1.282136e+02
2.720000e-06	-1.758654e-06	-2.038901e-09	-1.254441e+01	-1.346291e+02
2.730000e-06	-1.827861e-06	-2.129827e-09	-1.303807e+01	-1.407146e+02
2.740000e-06	-1.896344e-06	-2.217743e-09	-1.352656e+01	-1.464867e+02
2.750000e-06	-1.964268e-06	-2.303226e-09	-1.401105e+01	-1.519643e+02
2.760000e-06	-2.031591e-06	-2.386462e-09	-1.449126e+01	-1.571674e+02
2.770000e-06	-2.098215e-06	-2.461138e-09	-1.496649e+01	-1.621157e+02
2.780000e-06	-2.164167e-06	-2.529236e-09	-1.543693e+01	-1.668275e+02
2.790000e-06	-2.229452e-06	-2.598562e-09	-1.590260e+01	-1.713192e+02
2.800000e-06	-2.294033e-06	-2.667920e-09	-1.636326e+01	-1.756048e+02
2.810000e-06	-2.357889e-06	-2.730988e-09	-1.681873e+01	-1.796955e+02
2.820000e-06	-2.420790e-06	-2.789709e-09	-1.726740e+01	-1.835998e+02
2.830000e-06	-2.482483e-06	-2.849490e-09	-1.770746e+01	-1.873242e+02
2.840000e-06	-2.543197e-06	-2.907046e-09	-1.814053e+01	-1.908732e+02
2.850000e-06	-2.603167e-06	-2.959030e-09	-1.856829e+01	-1.942503e+02
2.860000e-06	-2.662258e-06	-3.007600e-09	-1.898979e+01	-1.974587e+02
2.870000e-06	-2.720442e-06	-3.054033e-09	-1.940481e+01	-2.005015e+02
2.880000e-06	-2.777705e-06	-3.097447e-09	-1.981327e+01	-2.033825e+02
2.890000e-06	-2.834034e-06	-3.138965e-09	-2.021506e+01	-2.061068e+02
2.900000e-06	-2.889402e-06	-3.180825e-09	-2.061000e+01	-2.086802e+02
2.910000e-06	-2.943473e-06	-3.220475e-09	-2.099569e+01	-2.111099e+02
2.920000e-06	-2.996170e-06	-3.254393e-09	-2.137157e+01	-2.134040e+02
2.930000e-06	-3.047692e-06	-3.286775e-09	-2.173907e+01	-2.155712e+02
2.940000e-06	-3.098053e-06	-3.321421e-09	-2.209830e+01	-2.176205e+02
