# Temperatura_=_20.0
# Concentracion g/m^3_=_9000.0
# C_Vs_to_Am_M_A/Vsm_=_65563218390.804596
# pendiente_HvsI_1/m_=_3716.3
# ordenada_HvsI_A/m_=_1297.0
# frecuencia_Hz_=_300801.2193181905

Tiempo_(s)	Campo_(V.s)	Magnetizacion_(V.s)	Campo_(kA/m)	Magnetizacion_(A/m)
0.000000e+00	-4.056909e-06	-6.441182e-11	-2.906520e+01	-3.607072e+00
1.000000e-08	-4.055569e-06	-6.742848e-11	-2.905560e+01	-3.641908e+00
2.000000e-08	-4.052624e-06	-6.690817e-11	-2.903450e+01	-3.670089e+00
3.000000e-08	-4.048469e-06	-6.595914e-11	-2.900473e+01	-3.693068e+00
4.000000e-08	-4.043165e-06	-6.691242e-11	-2.896673e+01	-3.712410e+00
5.000000e-08	-4.036534e-06	-6.789095e-11	-2.891922e+01	-3.729469e+00
6.000000e-08	-4.028720e-06	-6.758384e-11	-2.886324e+01	-3.745106e+00
7.000000e-08	-4.019567e-06	-5.593916e-11	-2.879767e+01	-3.759486e+00
8.000000e-08	-4.008682e-06	-4.733571e-11	-2.871968e+01	-3.771987e+00
9.000000e-08	-3.996020e-06	-9.468955e-11	-2.862897e+01	-3.781232e+00
1.000000e-07	-3.981253e-06	-1.212697e-10	-2.852317e+01	-3.785249e+00
1.100000e-07	-3.964474e-06	-1.167305e-10	-2.840296e+01	-3.781730e+00
1.200000e-07	-3.946408e-06	-2.615827e-11	-2.827352e+01	-3.768348e+00
1.300000e-07	-3.927450e-06	4.301615e-11	-2.813770e+01	-3.743099e+00
1.400000e-07	-3.907575e-06	-1.321611e-10	-2.799531e+01	-3.704615e+00
1.500000e-07	-3.886664e-06	-1.532400e-10	-2.784550e+01	-3.652391e+00
1.600000e-07	-3.864702e-06	-3.192295e-12	-2.768816e+01	-3.586919e+00
1.700000e-07	-3.841280e-06	-7.641525e-11	-2.752035e+01	-3.509681e+00
1.800000e-07	-3.815974e-06	-6.085650e-11	-2.733905e+01	-3.423028e+00
1.900000e-07	-3.789365e-06	-5.708696e-12	-2.714841e+01	-3.329934e+00
2.000000e-07	-3.761738e-06	-1.763854e-10	-2.695049e+01	-3.233690e+00
2.100000e-07	-3.732660e-06	-7.353734e-11	-2.674216e+01	-3.137551e+00
2.200000e-07	-3.702319e-06	1.082525e-10	-2.652478e+01	-3.044397e+00
2.300000e-07	-3.670998e-06	-6.542216e-11	-2.630039e+01	-2.956451e+00
2.400000e-07	-3.638396e-06	-1.336314e-10	-2.606681e+01	-2.875084e+00
2.500000e-07	-3.604190e-06	-9.304531e-12	-2.582175e+01	-2.800732e+00
2.600000e-07	-3.568538e-06	2.818272e-11	-2.556633e+01	-2.732932e+00
2.700000e-07	-3.531761e-06	4.003210e-12	-2.530284e+01	-2.670460e+00
2.800000e-07	-3.493851e-06	-1.057127e-10	-2.503124e+01	-2.611555e+00
2.900000e-07	-3.454733e-06	-7.289257e-11	-2.475099e+01	-2.554190e+00
3.000000e-07	-3.414512e-06	6.084868e-11	-2.446283e+01	-2.496355e+00
3.100000e-07	-3.372891e-06	-3.788684e-11	-2.416464e+01	-2.436315e+00
3.200000e-07	-3.329725e-06	-7.201313e-11	-2.385538e+01	-2.372803e+00
3.300000e-07	-3.285430e-06	1.212826e-11	-2.353803e+01	-2.305149e+00
3.400000e-07	-3.240126e-06	-3.768319e-11	-2.321346e+01	-2.233317e+00
3.500000e-07	-3.193594e-06	-4.925963e-11	-2.288009e+01	-2.157858e+00
3.600000e-07	-3.145843e-06	4.106795e-11	-2.253798e+01	-2.079810e+00
3.700000e-07	-3.096962e-06	-2.076768e-11	-2.218778e+01	-2.000550e+00
3.800000e-07	-3.046608e-06	-9.908664e-11	-2.182703e+01	-1.921633e+00
3.900000e-07	-2.994597e-06	1.495542e-11	-2.145440e+01	-1.844641e+00
4.000000e-07	-2.941380e-06	5.795992e-11	-2.107313e+01	-1.771062e+00
4.100000e-07	-2.887356e-06	-6.248436e-11	-2.068608e+01	-1.702205e+00
4.200000e-07	-2.832424e-06	-6.109472e-11	-2.029254e+01	-1.639165e+00
4.300000e-07	-2.776570e-06	4.212261e-11	-1.989238e+01	-1.582810e+00
4.400000e-07	-2.719634e-06	2.144926e-11	-1.948447e+01	-1.533804e+00
4.500000e-07	-2.661380e-06	-4.334120e-11	-1.906711e+01	-1.492625e+00
4.600000e-07	-2.602097e-06	-3.157973e-11	-1.864239e+01	-1.459577e+00
4.700000e-07	-2.542072e-06	2.387457e-11	-1.821234e+01	-1.434783e+00
4.800000e-07	-2.481220e-06	7.503602e-12	-1.777638e+01	-1.418148e+00
4.900000e-07	-2.419520e-06	-2.705258e-11	-1.733434e+01	-1.409300e+00
5.000000e-07	-2.356995e-06	-7.539231e-12	-1.688638e+01	-1.407529e+00
5.100000e-07	-2.293721e-06	4.769931e-12	-1.643307e+01	-1.411724e+00
5.200000e-07	-2.229773e-06	-1.284864e-12	-1.597492e+01	-1.420342e+00
5.300000e-07	-2.164785e-06	-2.523783e-13	-1.550932e+01	-1.431417e+00
5.400000e-07	-2.098555e-06	4.909423e-12	-1.503482e+01	-1.442639e+00
5.500000e-07	-2.031528e-06	-1.694614e-11	-1.455462e+01	-1.451481e+00
5.600000e-07	-1.964081e-06	-1.237525e-11	-1.407140e+01	-1.455394e+00
5.700000e-07	-1.896116e-06	1.915508e-11	-1.358447e+01	-1.452030e+00
5.800000e-07	-1.827501e-06	4.128653e-12	-1.309289e+01	-1.439488e+00
5.900000e-07	-1.758306e-06	-3.169439e-11	-1.259716e+01	-1.416528e+00
6.000000e-07	-1.688535e-06	-8.961861e-12	-1.209729e+01	-1.382745e+00
6.100000e-07	-1.618049e-06	2.599488e-11	-1.159230e+01	-1.338646e+00
6.200000e-07	-1.546963e-06	1.237457e-12	-1.108301e+01	-1.285641e+00
6.300000e-07	-1.475544e-06	-2.358621e-11	-1.057134e+01	-1.225910e+00
6.400000e-07	-1.403782e-06	-7.520414e-13	-1.005721e+01	-1.162187e+00
6.500000e-07	-1.331520e-06	2.258541e-11	-9.539505e+00	-1.097446e+00
6.600000e-07	-1.258556e-06	4.556009e-12	-9.016759e+00	-1.034568e+00
6.700000e-07	-1.184839e-06	-8.988182e-12	-8.488627e+00	-9.759878e-01
6.800000e-07	-1.110528e-06	9.145137e-13	-7.956236e+00	-9.233999e-01
6.900000e-07	-1.035691e-06	9.078355e-12	-7.420073e+00	-8.775469e-01
7.000000e-07	-9.603691e-07	8.607354e-12	-6.880440e+00	-8.381231e-01
7.100000e-07	-8.846849e-07	7.508618e-12	-6.338210e+00	-8.038117e-01
7.200000e-07	-8.087209e-07	4.674010e-12	-5.793975e+00	-7.724498e-01
7.300000e-07	-7.325430e-07	8.890721e-13	-5.248209e+00	-7.413026e-01
7.400000e-07	-6.561061e-07	1.330819e-11	-4.700587e+00	-7.074109e-01
7.500000e-07	-5.793595e-07	1.956423e-11	-4.150746e+00	-6.679649e-01
7.600000e-07	-5.024100e-07	7.043676e-12	-3.599451e+00	-6.206549e-01
7.700000e-07	-4.254006e-07	-4.073752e-13	-3.047727e+00	-5.639513e-01
7.800000e-07	-3.482525e-07	1.437918e-11	-2.495010e+00	-4.972766e-01
7.900000e-07	-2.708640e-07	2.391088e-11	-1.940570e+00	-4.210462e-01
8.000000e-07	-1.933494e-07	9.946321e-12	-1.385227e+00	-3.365754e-01
8.100000e-07	-1.158019e-07	2.566630e-12	-8.296475e-01	-2.458666e-01
8.200000e-07	-3.821432e-08	1.454983e-11	-2.737815e-01	-1.513095e-01
8.300000e-07	3.944178e-08	2.254139e-11	2.825755e-01	-5.533832e-02
8.400000e-07	1.170504e-07	1.436118e-11	8.385924e-01	3.990383e-02
8.500000e-07	1.945195e-07	1.217882e-11	1.393610e+00	1.328446e-01
8.600000e-07	2.719080e-07	1.834629e-11	1.948050e+00	2.226666e-01
8.700000e-07	3.492682e-07	2.035731e-11	2.502287e+00	3.093700e-01
8.800000e-07	4.265352e-07	1.881187e-11	3.055856e+00	3.937071e-01
8.900000e-07	5.035569e-07	1.971310e-11	3.607668e+00	4.769997e-01
9.000000e-07	5.803354e-07	1.988381e-11	4.157737e+00	5.608695e-01
9.100000e-07	6.569673e-07	1.885637e-11	4.706757e+00	6.469230e-01
9.200000e-07	7.333935e-07	2.425084e-11	5.254303e+00	7.364389e-01
9.300000e-07	8.095252e-07	2.841184e-11	5.799738e+00	8.301085e-01
9.400000e-07	8.853740e-07	2.682476e-11	6.343147e+00	9.278648e-01
9.500000e-07	9.609391e-07	2.747032e-11	6.884523e+00	1.028831e+00
9.600000e-07	1.036213e-06	3.348378e-11	7.423817e+00	1.131395e+00
9.700000e-07	1.111200e-06	3.419448e-11	7.961045e+00	1.233395e+00
9.800000e-07	1.185626e-06	3.068666e-11	8.494263e+00	1.332399e+00
9.900000e-07	1.259165e-06	3.221446e-11	9.021123e+00	1.426026e+00
1.000000e-06	1.331936e-06	3.626410e-11	9.542486e+00	1.512266e+00
1.010000e-06	1.404190e-06	3.502198e-11	1.006013e+01	1.589754e+00
1.020000e-06	1.475991e-06	3.262489e-11	1.057455e+01	1.657952e+00
1.030000e-06	1.547386e-06	3.810695e-11	1.108605e+01	1.717215e+00
1.040000e-06	1.618315e-06	4.161832e-11	1.159421e+01	1.768735e+00
1.050000e-06	1.688711e-06	3.933683e-11	1.209855e+01	1.814360e+00
1.060000e-06	1.758546e-06	3.736191e-11	1.259888e+01	1.856336e+00
1.070000e-06	1.827715e-06	3.902029e-11	1.309443e+01	1.896982e+00
1.080000e-06	1.896198e-06	4.085779e-11	1.358506e+01	1.938373e+00
1.090000e-06	1.964129e-06	3.926272e-11	1.407175e+01	1.982057e+00
1.100000e-06	2.031634e-06	3.930114e-11	1.455537e+01	2.028857e+00
1.110000e-06	2.098579e-06	4.150391e-11	1.503500e+01	2.078781e+00
1.120000e-06	2.164545e-06	4.298895e-11	1.550760e+01	2.131051e+00
1.130000e-06	2.229278e-06	4.292888e-11	1.597137e+01	2.184243e+00
1.140000e-06	2.293126e-06	4.474214e-11	1.642880e+01	2.236516e+00
1.150000e-06	2.356450e-06	4.453278e-11	1.688248e+01	2.285900e+00
1.160000e-06	2.419116e-06	4.229109e-11	1.733144e+01	2.330579e+00
1.170000e-06	2.480920e-06	4.382373e-11	1.777423e+01	2.369156e+00
1.180000e-06	2.541846e-06	4.534292e-11	1.821072e+01	2.400837e+00
1.190000e-06	2.601970e-06	4.425857e-11	1.864148e+01	2.425520e+00
1.200000e-06	2.661466e-06	4.398661e-11	1.906773e+01	2.443779e+00
1.210000e-06	2.720068e-06	4.670007e-11	1.948757e+01	2.456751e+00
1.220000e-06	2.777286e-06	4.810741e-11	1.989750e+01	2.465936e+00
1.230000e-06	2.833298e-06	4.618682e-11	2.029879e+01	2.472967e+00
1.240000e-06	2.888420e-06	4.362186e-11	2.069371e+01	2.479358e+00
1.250000e-06	2.942605e-06	4.499232e-11	2.108191e+01	2.486301e+00
1.260000e-06	2.995779e-06	4.571257e-11	2.146287e+01	2.494521e+00
1.270000e-06	3.047833e-06	4.463667e-11	2.183580e+01	2.504217e+00
1.280000e-06	3.098509e-06	4.656192e-11	2.219887e+01	2.515100e+00
1.290000e-06	3.147554e-06	4.814761e-11	2.255024e+01	2.526515e+00
1.300000e-06	3.195240e-06	4.559568e-11	2.289188e+01	2.537619e+00
1.310000e-06	3.241884e-06	4.321965e-11	2.322605e+01	2.547595e+00
1.320000e-06	3.287425e-06	4.527875e-11	2.355233e+01	2.555849e+00
1.330000e-06	3.331894e-06	4.695460e-11	2.387092e+01	2.562168e+00
1.340000e-06	3.375402e-06	4.540140e-11	2.418263e+01	2.566808e+00
1.350000e-06	3.417744e-06	4.350086e-11	2.448598e+01	2.570484e+00
1.360000e-06	3.458576e-06	4.314580e-11	2.477852e+01	2.574286e+00
1.370000e-06	3.498107e-06	4.363320e-11	2.506173e+01	2.579515e+00
1.380000e-06	3.536522e-06	4.386864e-11	2.533696e+01	2.587467e+00
1.390000e-06	3.573758e-06	4.331559e-11	2.560373e+01	2.599215e+00
1.400000e-06	3.609886e-06	4.202035e-11	2.586256e+01	2.615413e+00
1.410000e-06	3.644896e-06	4.260108e-11	2.611339e+01	2.636161e+00
1.420000e-06	3.678408e-06	4.386945e-11	2.635348e+01	2.660959e+00
1.430000e-06	3.710425e-06	4.352372e-11	2.658285e+01	2.688759e+00
1.440000e-06	3.741241e-06	4.211330e-11	2.680363e+01	2.718107e+00
1.450000e-06	3.770862e-06	4.039517e-11	2.701585e+01	2.747370e+00
1.460000e-06	3.799289e-06	3.992114e-11	2.721951e+01	2.774991e+00
1.470000e-06	3.826472e-06	4.057275e-11	2.741426e+01	2.799760e+00
1.480000e-06	3.852079e-06	4.250022e-11	2.759772e+01	2.821036e+00
1.490000e-06	3.876083e-06	4.356993e-11	2.776969e+01	2.838897e+00
1.500000e-06	3.898766e-06	4.540165e-11	2.793221e+01	2.854182e+00
1.510000e-06	3.920173e-06	4.697680e-11	2.808557e+01	2.868426e+00
1.520000e-06	3.940402e-06	4.579837e-11	2.823050e+01	2.883677e+00
1.530000e-06	3.959482e-06	4.395229e-11	2.836719e+01	2.902235e+00
1.540000e-06	3.977181e-06	4.251180e-11	2.849399e+01	2.926335e+00
1.550000e-06	3.993339e-06	4.150762e-11	2.860976e+01	2.957830e+00
1.560000e-06	4.007948e-06	4.220575e-11	2.871442e+01	2.997913e+00
1.570000e-06	4.021079e-06	4.426910e-11	2.880850e+01	3.046918e+00
1.580000e-06	4.032730e-06	4.499196e-11	2.889197e+01	3.104238e+00
1.590000e-06	4.042580e-06	4.470679e-11	2.896254e+01	3.168364e+00
1.600000e-06	4.050732e-06	4.642660e-11	2.902095e+01	3.237053e+00
1.610000e-06	4.057541e-06	4.949148e-11	2.906972e+01	3.307579e+00
1.620000e-06	4.063002e-06	5.053134e-11	2.910885e+01	3.377069e+00
1.630000e-06	4.067205e-06	5.057508e-11	2.913896e+01	3.442831e+00
1.640000e-06	4.070148e-06	5.155301e-11	2.916005e+01	3.502665e+00
1.650000e-06	4.071433e-06	5.366893e-11	2.916925e+01	3.555095e+00
1.660000e-06	4.071135e-06	5.602618e-11	2.916712e+01	3.599487e+00
1.670000e-06	4.069566e-06	5.439548e-11	2.915588e+01	3.636042e+00
1.680000e-06	4.066731e-06	5.259279e-11	2.913557e+01	3.665674e+00
1.690000e-06	4.062798e-06	5.185475e-11	2.910739e+01	3.689773e+00
1.700000e-06	4.057638e-06	5.347419e-11	2.907042e+01	3.709907e+00
1.710000e-06	4.050852e-06	5.552296e-11	2.902180e+01	3.727500e+00
1.720000e-06	4.042662e-06	5.728799e-11	2.896312e+01	3.743540e+00
1.730000e-06	4.033397e-06	7.688899e-11	2.889675e+01	3.758353e+00
1.740000e-06	4.023019e-06	7.506510e-11	2.882239e+01	3.771486e+00
1.750000e-06	4.011007e-06	1.377273e-11	2.873634e+01	3.781716e+00
1.760000e-06	3.996541e-06	4.498699e-12	2.863270e+01	3.787179e+00
1.770000e-06	3.979788e-06	2.582575e-11	2.851267e+01	3.785614e+00
1.780000e-06	3.961839e-06	1.552429e-10	2.838408e+01	3.774668e+00
1.790000e-06	3.943583e-06	1.159871e-10	2.825329e+01	3.752241e+00
1.800000e-06	3.924558e-06	-7.402533e-11	2.811699e+01	3.716805e+00
1.810000e-06	3.903508e-06	8.324923e-11	2.796618e+01	3.667657e+00
1.820000e-06	3.880801e-06	8.558555e-11	2.780349e+01	3.605070e+00
1.830000e-06	3.857328e-06	-1.693150e-11	2.763533e+01	3.530321e+00
1.840000e-06	3.832366e-06	1.647334e-10	2.745649e+01	3.445589e+00
1.850000e-06	3.805688e-06	6.197351e-11	2.726536e+01	3.353742e+00
1.860000e-06	3.778030e-06	-1.029054e-10	2.706721e+01	3.258031e+00
1.870000e-06	3.749211e-06	1.601022e-10	2.686073e+01	3.161747e+00
1.880000e-06	3.718795e-06	1.423847e-10	2.664283e+01	3.067879e+00
1.890000e-06	3.686872e-06	-1.070706e-10	2.641411e+01	2.978808e+00
1.900000e-06	3.653642e-06	4.777071e-11	2.617604e+01	2.896100e+00
1.910000e-06	3.619397e-06	1.237975e-10	2.593070e+01	2.820393e+00
1.920000e-06	3.583999e-06	2.946001e-11	2.567710e+01	2.751408e+00
1.930000e-06	3.547237e-06	9.225182e-12	2.541372e+01	2.688066e+00
1.940000e-06	3.509362e-06	-4.513210e-11	2.514236e+01	2.628701e+00
1.950000e-06	3.470026e-06	9.264141e-11	2.486055e+01	2.571318e+00
1.960000e-06	3.429041e-06	7.054644e-11	2.456692e+01	2.513881e+00
1.970000e-06	3.387044e-06	-8.585883e-11	2.426604e+01	2.454576e+00
1.980000e-06	3.344109e-06	9.016070e-11	2.395844e+01	2.392023e+00
1.990000e-06	3.300063e-06	3.765219e-11	2.364287e+01	2.325420e+00
2.000000e-06	3.254931e-06	-6.839256e-11	2.331953e+01	2.254594e+00
2.010000e-06	3.208674e-06	8.760554e-11	2.298813e+01	2.179977e+00
2.020000e-06	3.161164e-06	5.269425e-11	2.264775e+01	2.102515e+00
2.030000e-06	3.112247e-06	-4.571675e-11	2.229729e+01	2.023526e+00
2.040000e-06	3.062267e-06	-1.266158e-11	2.193922e+01	1.944539e+00
2.050000e-06	3.011380e-06	9.063374e-11	2.157464e+01	1.867143e+00
2.060000e-06	2.959328e-06	4.899963e-11	2.120172e+01	1.792853e+00
2.070000e-06	2.905992e-06	-8.018927e-11	2.081960e+01	1.723023e+00
2.080000e-06	2.851211e-06	2.348772e-11	2.042713e+01	1.658794e+00
2.090000e-06	2.795250e-06	8.260946e-11	2.002621e+01	1.601082e+00
2.100000e-06	2.738373e-06	-1.058874e-11	1.961872e+01	1.550593e+00
2.110000e-06	2.680562e-06	-3.126965e-11	1.920454e+01	1.507843e+00
2.120000e-06	2.621969e-06	1.745677e-11	1.878475e+01	1.473174e+00
2.130000e-06	2.562514e-06	6.493965e-11	1.835880e+01	1.446750e+00
2.140000e-06	2.502280e-06	-1.554964e-11	1.792726e+01	1.428525e+00
2.150000e-06	2.441205e-06	-1.506620e-11	1.748969e+01	1.418193e+00
2.160000e-06	2.378946e-06	5.776310e-11	1.704365e+01	1.415123e+00
2.170000e-06	2.315528e-06	3.420441e-12	1.658930e+01	1.418293e+00
2.180000e-06	2.251341e-06	-1.436396e-12	1.612944e+01	1.426253e+00
2.190000e-06	2.186584e-06	2.509471e-11	1.566550e+01	1.437124e+00
2.200000e-06	2.120989e-06	2.318565e-11	1.519555e+01	1.448660e+00
2.210000e-06	2.054578e-06	-3.755849e-12	1.471976e+01	1.458368e+00
2.220000e-06	1.987534e-06	1.144050e-11	1.423943e+01	1.463683e+00
2.230000e-06	1.919864e-06	5.374174e-11	1.375461e+01	1.462196e+00
2.240000e-06	1.851626e-06	1.434508e-12	1.326573e+01	1.451888e+00
2.250000e-06	1.782819e-06	-6.947802e-12	1.277278e+01	1.431363e+00
2.260000e-06	1.713331e-06	4.025024e-11	1.227493e+01	1.400026e+00
2.270000e-06	1.642863e-06	3.507852e-11	1.177008e+01	1.358187e+00
2.280000e-06	1.571426e-06	-6.723769e-12	1.125828e+01	1.307068e+00
2.290000e-06	1.499474e-06	-6.917994e-12	1.074279e+01	1.248701e+00
2.300000e-06	1.427211e-06	3.495585e-11	1.022507e+01	1.185724e+00
2.310000e-06	1.354555e-06	2.239396e-11	9.704531e+00	1.121089e+00
2.320000e-06	1.281491e-06	-4.945984e-12	9.181072e+00	1.057725e+00
2.330000e-06	1.208008e-06	6.882204e-12	8.654614e+00	9.981894e-01
2.340000e-06	1.134048e-06	1.787292e-11	8.124739e+00	9.443583e-01
2.350000e-06	1.059668e-06	1.128897e-11	7.591854e+00	8.971898e-01
2.360000e-06	9.849654e-07	8.922801e-12	7.056657e+00	8.566045e-01
2.370000e-06	9.098740e-07	1.611707e-11	6.518674e+00	8.214925e-01
2.380000e-06	8.343485e-07	5.342862e-12	5.977581e+00	7.898523e-01
2.390000e-06	7.585572e-07	-2.019193e-12	5.434585e+00	7.590443e-01
2.400000e-06	6.825782e-07	1.502601e-11	4.890243e+00	7.261261e-01
2.410000e-06	6.063511e-07	1.375407e-11	4.344124e+00	6.882248e-01
2.420000e-06	5.299150e-07	-5.121614e-12	3.796507e+00	6.428967e-01
2.430000e-06	4.533829e-07	-3.257692e-12	3.248203e+00	5.884268e-01
2.440000e-06	3.766706e-07	1.648102e-11	2.698607e+00	5.240251e-01
2.450000e-06	2.996785e-07	1.422331e-11	2.147008e+00	4.498979e-01
2.460000e-06	2.225464e-07	-7.421329e-12	1.594404e+00	3.671818e-01
2.470000e-06	1.453716e-07	-3.617333e-12	1.041496e+00	2.777547e-01
2.480000e-06	6.804784e-08	7.873107e-12	4.875199e-01	1.839516e-01
2.490000e-06	-9.340643e-09	-3.099453e-12	-6.691982e-02	8.822643e-02
2.500000e-06	-8.653705e-08	-1.499378e-11	-6.199834e-01	-7.189214e-03
2.510000e-06	-1.636238e-07	-1.030504e-11	-1.172262e+00	-1.005814e-01
2.520000e-06	-2.408148e-07	-8.212866e-12	-1.725286e+00	-1.909613e-01
2.530000e-06	-3.179450e-07	-1.537196e-11	-2.277876e+00	-2.781552e-01
2.540000e-06	-3.947509e-07	-1.440181e-11	-2.828142e+00	-3.627657e-01
2.550000e-06	-4.712902e-07	-1.007583e-11	-3.376497e+00	-4.460131e-01
2.560000e-06	-5.476896e-07	-1.295876e-11	-3.923851e+00	-5.294805e-01
2.570000e-06	-6.238871e-07	-1.652475e-11	-4.469758e+00	-6.148046e-01
2.580000e-06	-6.997908e-07	-1.466148e-11	-5.013560e+00	-7.033591e-01
2.590000e-06	-7.755149e-07	-1.892730e-11	-5.556075e+00	-7.959786e-01
2.600000e-06	-8.509911e-07	-2.688369e-11	-6.096815e+00	-8.927676e-01
2.610000e-06	-9.260214e-07	-2.604756e-11	-6.634360e+00	-9.930209e-01
2.620000e-06	-1.000751e-06	-2.488444e-11	-7.169749e+00	-1.095271e+00
2.630000e-06	-1.075228e-06	-3.029841e-11	-7.703330e+00	-1.197454e+00
2.640000e-06	-1.149243e-06	-3.266440e-11	-8.233601e+00	-1.297169e+00
2.650000e-06	-1.222788e-06	-2.687255e-11	-8.760509e+00	-1.391997e+00
2.660000e-06	-1.295949e-06	-2.750392e-11	-9.284657e+00	-1.479822e+00
2.670000e-06	-1.368740e-06	-3.537117e-11	-9.806162e+00	-1.559123e+00
2.680000e-06	-1.441123e-06	-3.811311e-11	-1.032474e+01	-1.629174e+00
2.690000e-06	-1.513107e-06	-3.561855e-11	-1.084046e+01	-1.690140e+00
2.700000e-06	-1.584673e-06	-3.785034e-11	-1.135318e+01	-1.743044e+00
2.710000e-06	-1.655562e-06	-4.380442e-11	-1.186106e+01	-1.789614e+00
2.720000e-06	-1.725488e-06	-4.404030e-11	-1.236204e+01	-1.832036e+00
2.730000e-06	-1.794494e-06	-4.088166e-11	-1.285642e+01	-1.872642e+00
2.740000e-06	-1.862905e-06	-3.918678e-11	-1.334654e+01	-1.913583e+00
2.750000e-06	-1.930842e-06	-4.002073e-11	-1.383327e+01	-1.956541e+00
2.760000e-06	-1.998168e-06	-4.206980e-11	-1.431562e+01	-2.002506e+00
2.770000e-06	-2.064795e-06	-4.512234e-11	-1.479295e+01	-2.051664e+00
2.780000e-06	-2.130734e-06	-4.537528e-11	-1.526537e+01	-2.103394e+00
2.790000e-06	-2.195923e-06	-4.304991e-11	-1.573241e+01	-2.156394e+00
2.800000e-06	-2.260379e-06	-4.397430e-11	-1.619419e+01	-2.208893e+00
2.810000e-06	-2.324169e-06	-4.728659e-11	-1.665120e+01	-2.258919e+00
2.820000e-06	-2.387014e-06	-4.674233e-11	-1.710145e+01	-2.304604e+00
2.830000e-06	-2.448675e-06	-4.338889e-11	-1.754322e+01	-2.344440e+00
2.840000e-06	-2.509370e-06	-4.427452e-11	-1.797806e+01	-2.377493e+00
2.850000e-06	-2.569323e-06	-4.781321e-11	-1.840758e+01	-2.403511e+00
2.860000e-06	-2.628504e-06	-4.833655e-11	-1.883158e+01	-2.422930e+00
2.870000e-06	-2.686813e-06	-4.625315e-11	-1.924932e+01	-2.436779e+00
2.880000e-06	-2.744126e-06	-4.534492e-11	-1.965994e+01	-2.446501e+00
2.890000e-06	-2.800578e-06	-4.609674e-11	-2.006438e+01	-2.453720e+00
2.900000e-06	-2.856174e-06	-4.677853e-11	-2.046269e+01	-2.459996e+00
2.910000e-06	-2.910424e-06	-4.729963e-11	-2.085135e+01	-2.466605e+00
2.920000e-06	-2.963297e-06	-4.729754e-11	-2.123016e+01	-2.474378e+00
2.930000e-06	-3.015072e-06	-4.635283e-11	-2.160109e+01	-2.483629e+00
2.940000e-06	-3.065750e-06	-4.586367e-11	-2.196417e+01	-2.494165e+00
