# Temperatura_=_20.0
# Concentracion g/m^3_=_9000.0
# C_Vs_to_Am_M_A/Vsm_=_65563218390.804596
# pendiente_HvsI_1/m_=_3716.3
# ordenada_HvsI_A/m_=_1297.0
# frecuencia_Hz_=_300793.73710651835

Tiempo_(s)	Campo_(V.s)	Magnetizacion_(V.s)	Campo_(kA/m)	Magnetizacion_(A/m)
0.000000e+00	-4.069073e-06	-3.827941e-09	-2.906904e+01	-2.488404e+02
1.000000e-08	-4.067599e-06	-3.830932e-09	-2.905851e+01	-2.488892e+02
2.000000e-08	-4.064569e-06	-3.830497e-09	-2.903687e+01	-2.489130e+02
3.000000e-08	-4.060298e-06	-3.828915e-09	-2.900635e+01	-2.489059e+02
4.000000e-08	-4.054834e-06	-3.828373e-09	-2.896732e+01	-2.488610e+02
5.000000e-08	-4.048072e-06	-3.828040e-09	-2.891902e+01	-2.487715e+02
6.000000e-08	-4.040154e-06	-3.827385e-09	-2.886245e+01	-2.486318e+02
7.000000e-08	-4.030865e-06	-3.820844e-09	-2.879609e+01	-2.484386e+02
8.000000e-08	-4.019771e-06	-3.810087e-09	-2.871684e+01	-2.481920e+02
9.000000e-08	-4.006827e-06	-3.839826e-09	-2.862437e+01	-2.478957e+02
1.000000e-07	-3.991803e-06	-3.865305e-09	-2.851704e+01	-2.475573e+02
1.100000e-07	-3.974889e-06	-3.861246e-09	-2.839620e+01	-2.471878e+02
1.200000e-07	-3.956700e-06	-3.794677e-09	-2.826626e+01	-2.468004e+02
1.300000e-07	-3.937603e-06	-3.700499e-09	-2.812983e+01	-2.464095e+02
1.400000e-07	-3.917638e-06	-3.785789e-09	-2.798720e+01	-2.460289e+02
1.500000e-07	-3.896647e-06	-3.862003e-09	-2.783725e+01	-2.456701e+02
1.600000e-07	-3.874593e-06	-3.757465e-09	-2.767970e+01	-2.453408e+02
1.700000e-07	-3.851047e-06	-3.741030e-09	-2.751149e+01	-2.450439e+02
1.800000e-07	-3.825532e-06	-3.734321e-09	-2.732921e+01	-2.447764e+02
1.900000e-07	-3.798647e-06	-3.690171e-09	-2.713715e+01	-2.445294e+02
2.000000e-07	-3.770802e-06	-3.803562e-09	-2.693822e+01	-2.442890e+02
2.100000e-07	-3.741543e-06	-3.777668e-09	-2.672920e+01	-2.440366e+02
2.200000e-07	-3.710981e-06	-3.614029e-09	-2.651087e+01	-2.437513e+02
2.300000e-07	-3.679452e-06	-3.676960e-09	-2.628563e+01	-2.434109e+02
2.400000e-07	-3.646608e-06	-3.770897e-09	-2.605100e+01	-2.429948e+02
2.500000e-07	-3.612179e-06	-3.702814e-09	-2.580504e+01	-2.424849e+02
2.600000e-07	-3.576335e-06	-3.628493e-09	-2.554897e+01	-2.418676e+02
2.700000e-07	-3.539290e-06	-3.593312e-09	-2.528433e+01	-2.411348e+02
2.800000e-07	-3.501096e-06	-3.645635e-09	-2.501147e+01	-2.402843e+02
2.900000e-07	-3.461756e-06	-3.664965e-09	-2.473043e+01	-2.393193e+02
3.000000e-07	-3.421196e-06	-3.582960e-09	-2.444068e+01	-2.382483e+02
3.100000e-07	-3.379141e-06	-3.564790e-09	-2.414024e+01	-2.370831e+02
3.200000e-07	-3.335672e-06	-3.550252e-09	-2.382970e+01	-2.358378e+02
3.300000e-07	-3.291101e-06	-3.535125e-09	-2.351129e+01	-2.345272e+02
3.400000e-07	-3.245441e-06	-3.562072e-09	-2.318510e+01	-2.331649e+02
3.500000e-07	-3.198594e-06	-3.516953e-09	-2.285043e+01	-2.317621e+02
3.600000e-07	-3.150571e-06	-3.424140e-09	-2.250736e+01	-2.303271e+02
3.700000e-07	-3.101244e-06	-3.447163e-09	-2.215497e+01	-2.288644e+02
3.800000e-07	-3.050420e-06	-3.498189e-09	-2.179189e+01	-2.273749e+02
3.900000e-07	-2.998133e-06	-3.422349e-09	-2.141835e+01	-2.258563e+02
4.000000e-07	-2.944696e-06	-3.338054e-09	-2.103661e+01	-2.243042e+02
4.100000e-07	-2.890390e-06	-3.363232e-09	-2.064865e+01	-2.227124e+02
4.200000e-07	-2.835262e-06	-3.372758e-09	-2.025482e+01	-2.210749e+02
4.300000e-07	-2.779216e-06	-3.311838e-09	-1.985444e+01	-2.193856e+02
4.400000e-07	-2.721931e-06	-3.272886e-09	-1.944520e+01	-2.176400e+02
4.500000e-07	-2.663345e-06	-3.250810e-09	-1.902667e+01	-2.158350e+02
4.600000e-07	-2.603802e-06	-3.229907e-09	-1.860130e+01	-2.139691e+02
4.700000e-07	-2.543495e-06	-3.199663e-09	-1.817047e+01	-2.120422e+02
4.800000e-07	-2.482323e-06	-3.172708e-09	-1.773346e+01	-2.100550e+02
4.900000e-07	-2.420250e-06	-3.130892e-09	-1.729002e+01	-2.080083e+02
5.000000e-07	-2.357384e-06	-3.090118e-09	-1.684091e+01	-2.059023e+02
5.100000e-07	-2.293897e-06	-3.077913e-09	-1.638737e+01	-2.037363e+02
5.200000e-07	-2.229623e-06	-3.048622e-09	-1.592820e+01	-2.015076e+02
5.300000e-07	-2.164101e-06	-2.996358e-09	-1.546012e+01	-1.992122e+02
5.400000e-07	-2.097463e-06	-2.952137e-09	-1.498406e+01	-1.968440e+02
5.500000e-07	-2.030248e-06	-2.933794e-09	-1.450389e+01	-1.943956e+02
5.600000e-07	-1.962614e-06	-2.899488e-09	-1.402072e+01	-1.918588e+02
5.700000e-07	-1.894337e-06	-2.841618e-09	-1.353295e+01	-1.892249e+02
5.800000e-07	-1.825356e-06	-2.795568e-09	-1.304016e+01	-1.864853e+02
5.900000e-07	-1.755822e-06	-2.767016e-09	-1.254341e+01	-1.836323e+02
6.000000e-07	-1.685760e-06	-2.723573e-09	-1.204290e+01	-1.806593e+02
6.100000e-07	-1.615046e-06	-2.664107e-09	-1.153772e+01	-1.775609e+02
6.200000e-07	-1.543784e-06	-2.615884e-09	-1.102863e+01	-1.743328e+02
6.300000e-07	-1.472175e-06	-2.572232e-09	-1.051707e+01	-1.709716e+02
6.400000e-07	-1.400177e-06	-2.519622e-09	-1.000272e+01	-1.674742e+02
6.500000e-07	-1.327580e-06	-2.458919e-09	-9.484093e+00	-1.638374e+02
6.600000e-07	-1.254169e-06	-2.403426e-09	-8.959657e+00	-1.600570e+02
6.700000e-07	-1.179984e-06	-2.344538e-09	-8.429684e+00	-1.561277e+02
6.800000e-07	-1.105245e-06	-2.282027e-09	-7.895757e+00	-1.520424e+02
6.900000e-07	-1.030085e-06	-2.217478e-09	-7.358823e+00	-1.477920e+02
7.000000e-07	-9.545341e-07	-2.146540e-09	-6.819094e+00	-1.433655e+02
7.100000e-07	-8.787283e-07	-2.071686e-09	-6.277546e+00	-1.387504e+02
7.200000e-07	-8.027202e-07	-2.001073e-09	-5.734552e+00	-1.339324e+02
7.300000e-07	-7.264464e-07	-1.932000e-09	-5.189659e+00	-1.288968e+02
7.400000e-07	-6.498532e-07	-1.844461e-09	-4.642485e+00	-1.236282e+02
7.500000e-07	-5.728823e-07	-1.752215e-09	-4.092613e+00	-1.181118e+02
7.600000e-07	-4.956368e-07	-1.670353e-09	-3.540779e+00	-1.123336e+02
7.700000e-07	-4.183069e-07	-1.585531e-09	-2.988342e+00	-1.062807e+02
7.800000e-07	-3.408935e-07	-1.481117e-09	-2.435308e+00	-9.994248e+01
7.900000e-07	-2.633392e-07	-1.371156e-09	-1.881268e+00	-9.331014e+01
8.000000e-07	-1.856913e-07	-1.271576e-09	-1.326560e+00	-8.637754e+01
8.100000e-07	-1.079997e-07	-1.169755e-09	-7.715388e-01	-7.914137e+01
8.200000e-07	-3.024044e-08	-1.053207e-09	-2.160346e-01	-7.160146e+01
8.300000e-07	4.758118e-08	-9.268562e-10	3.399151e-01	-6.376118e+01
8.400000e-07	1.253587e-07	-8.018712e-10	8.955498e-01	-5.562783e+01
8.500000e-07	2.030219e-07	-6.755604e-10	1.450368e+00	-4.721302e+01
8.600000e-07	2.806151e-07	-5.452800e-10	2.004686e+00	-3.853312e+01
8.700000e-07	3.580898e-07	-4.056779e-10	2.558157e+00	-2.960958e+01
8.800000e-07	4.354273e-07	-2.583194e-10	3.110648e+00	-2.046916e+01
8.900000e-07	5.126325e-07	-1.149024e-10	3.662194e+00	-1.114397e+01
9.000000e-07	5.896749e-07	2.404053e-11	4.212577e+00	-1.671279e+00
9.100000e-07	6.665471e-07	1.692149e-10	4.761745e+00	7.906942e+00
9.200000e-07	7.431062e-07	3.250380e-10	5.308675e+00	1.754480e+01
9.300000e-07	8.193647e-07	4.775231e-10	5.853458e+00	2.719351e+01
9.400000e-07	8.953708e-07	6.193979e-10	6.396438e+00	3.680265e+01
9.500000e-07	9.710418e-07	7.580358e-10	6.937024e+00	4.632161e+01
9.600000e-07	1.046386e-06	9.036776e-10	7.475275e+00	5.570113e+01
9.700000e-07	1.121359e-06	1.050457e-09	8.010871e+00	6.489477e+01
9.800000e-07	1.195859e-06	1.187548e-09	8.543092e+00	7.386035e+01
9.900000e-07	1.269695e-06	1.316963e-09	9.070569e+00	8.256107e+01
1.000000e-06	1.342796e-06	1.444731e-09	9.592798e+00	9.096647e+01
1.010000e-06	1.415263e-06	1.570368e-09	1.011049e+01	9.905298e+01
1.020000e-06	1.487120e-06	1.690514e-09	1.062383e+01	1.068041e+02
1.030000e-06	1.558543e-06	1.804641e-09	1.113407e+01	1.142105e+02
1.040000e-06	1.629569e-06	1.909224e-09	1.164148e+01	1.212693e+02
1.050000e-06	1.700037e-06	2.007806e-09	1.214489e+01	1.279835e+02
1.060000e-06	1.769881e-06	2.104162e-09	1.264385e+01	1.343611e+02
1.070000e-06	1.839096e-06	2.196824e-09	1.313831e+01	1.404143e+02
1.080000e-06	1.907693e-06	2.283325e-09	1.362836e+01	1.461581e+02
1.090000e-06	1.975701e-06	2.363285e-09	1.411420e+01	1.516094e+02
1.100000e-06	2.043177e-06	2.441003e-09	1.459625e+01	1.567860e+02
1.110000e-06	2.110053e-06	2.517320e-09	1.507400e+01	1.617060e+02
1.120000e-06	2.176015e-06	2.589383e-09	1.554523e+01	1.663866e+02
1.130000e-06	2.240847e-06	2.654718e-09	1.600838e+01	1.708439e+02
1.140000e-06	2.304739e-06	2.718766e-09	1.646482e+01	1.750921e+02
1.150000e-06	2.367982e-06	2.781408e-09	1.691663e+01	1.791439e+02
1.160000e-06	2.430595e-06	2.839284e-09	1.736393e+01	1.830097e+02
1.170000e-06	2.492387e-06	2.893773e-09	1.780536e+01	1.866980e+02
1.180000e-06	2.553304e-06	2.945328e-09	1.824054e+01	1.902159e+02
1.190000e-06	2.613472e-06	2.994892e-09	1.867038e+01	1.935688e+02
1.200000e-06	2.672930e-06	3.043056e-09	1.909514e+01	1.967612e+02
1.210000e-06	2.731425e-06	3.089322e-09	1.951303e+01	1.997970e+02
1.220000e-06	2.788651e-06	3.131284e-09	1.992184e+01	2.026800e+02
1.230000e-06	2.844632e-06	3.170141e-09	2.032176e+01	2.054142e+02
1.240000e-06	2.899641e-06	3.206572e-09	2.071474e+01	2.080045e+02
1.250000e-06	2.953768e-06	3.242381e-09	2.110142e+01	2.104564e+02
1.260000e-06	3.006911e-06	3.276390e-09	2.148107e+01	2.127765e+02
1.270000e-06	3.058966e-06	3.307915e-09	2.185294e+01	2.149726e+02
1.280000e-06	3.109738e-06	3.339446e-09	2.221565e+01	2.170528e+02
1.290000e-06	3.159044e-06	3.370573e-09	2.256789e+01	2.190262e+02
1.300000e-06	3.206983e-06	3.398585e-09	2.291036e+01	2.209015e+02
1.310000e-06	3.253770e-06	3.424848e-09	2.324460e+01	2.226873e+02
1.320000e-06	3.299463e-06	3.451686e-09	2.357103e+01	2.243913e+02
1.330000e-06	3.344071e-06	3.476159e-09	2.388970e+01	2.260198e+02
1.340000e-06	3.387655e-06	3.497033e-09	2.420106e+01	2.275780e+02
1.350000e-06	3.430060e-06	3.517017e-09	2.450400e+01	2.290693e+02
1.360000e-06	3.470945e-06	3.539412e-09	2.479608e+01	2.304957e+02
1.370000e-06	3.510472e-06	3.561657e-09	2.507846e+01	2.318582e+02
1.380000e-06	3.548930e-06	3.581047e-09	2.535319e+01	2.331568e+02
1.390000e-06	3.586241e-06	3.597428e-09	2.561974e+01	2.343912e+02
1.400000e-06	3.622390e-06	3.613464e-09	2.587798e+01	2.355614e+02
1.410000e-06	3.657360e-06	3.630821e-09	2.612781e+01	2.366680e+02
1.420000e-06	3.690861e-06	3.646940e-09	2.636714e+01	2.377125e+02
1.430000e-06	3.722906e-06	3.660930e-09	2.659606e+01	2.386975e+02
1.440000e-06	3.753737e-06	3.674624e-09	2.681631e+01	2.396268e+02
1.450000e-06	3.783367e-06	3.689520e-09	2.702799e+01	2.405048e+02
1.460000e-06	3.811792e-06	3.704381e-09	2.723105e+01	2.413364e+02
1.470000e-06	3.838931e-06	3.717863e-09	2.742493e+01	2.421265e+02
1.480000e-06	3.864538e-06	3.731251e-09	2.760787e+01	2.428791e+02
1.490000e-06	3.888581e-06	3.745201e-09	2.777962e+01	2.435972e+02
1.500000e-06	3.911270e-06	3.757985e-09	2.794172e+01	2.442824e+02
1.510000e-06	3.932648e-06	3.767715e-09	2.809444e+01	2.449344e+02
1.520000e-06	3.952789e-06	3.775630e-09	2.823832e+01	2.455514e+02
1.530000e-06	3.971769e-06	3.783528e-09	2.837391e+01	2.461304e+02
1.540000e-06	3.989360e-06	3.791307e-09	2.849958e+01	2.466678e+02
1.550000e-06	4.005473e-06	3.799405e-09	2.861469e+01	2.471595e+02
1.560000e-06	4.020102e-06	3.807394e-09	2.871920e+01	2.476024e+02
1.570000e-06	4.033164e-06	3.815337e-09	2.881251e+01	2.479944e+02
1.580000e-06	4.044746e-06	3.823171e-09	2.889525e+01	2.483351e+02
1.590000e-06	4.054663e-06	3.830200e-09	2.896610e+01	2.486262e+02
1.600000e-06	4.062868e-06	3.836232e-09	2.902472e+01	2.488712e+02
1.610000e-06	4.069645e-06	3.840844e-09	2.907313e+01	2.490748e+02
1.620000e-06	4.075066e-06	3.844635e-09	2.911185e+01	2.492431e+02
1.630000e-06	4.079197e-06	3.848383e-09	2.914137e+01	2.493818e+02
1.640000e-06	4.081971e-06	3.851077e-09	2.916119e+01	2.494962e+02
1.650000e-06	4.083100e-06	3.852753e-09	2.916925e+01	2.495898e+02
1.660000e-06	4.082759e-06	3.855754e-09	2.916682e+01	2.496641e+02
1.670000e-06	4.081191e-06	3.856855e-09	2.915561e+01	2.497179e+02
1.680000e-06	4.078342e-06	3.856097e-09	2.913526e+01	2.497477e+02
1.690000e-06	4.074324e-06	3.854112e-09	2.910656e+01	2.497480e+02
1.700000e-06	4.069069e-06	3.853843e-09	2.906901e+01	2.497120e+02
1.710000e-06	4.062260e-06	3.853874e-09	2.902037e+01	2.496328e+02
1.720000e-06	4.054059e-06	3.851284e-09	2.896178e+01	2.495044e+02
1.730000e-06	4.044715e-06	3.855101e-09	2.889503e+01	2.493231e+02
1.740000e-06	4.034165e-06	3.853057e-09	2.881967e+01	2.490879e+02
1.750000e-06	4.021959e-06	3.796783e-09	2.873247e+01	2.488020e+02
1.760000e-06	4.007303e-06	3.776967e-09	2.862776e+01	2.484720e+02
1.770000e-06	3.990403e-06	3.781154e-09	2.850703e+01	2.481084e+02
1.780000e-06	3.972399e-06	3.887058e-09	2.837842e+01	2.477238e+02
1.790000e-06	3.954053e-06	3.916534e-09	2.824735e+01	2.473327e+02
1.800000e-06	3.934828e-06	3.744125e-09	2.811001e+01	2.469490e+02
1.810000e-06	3.913555e-06	3.784518e-09	2.795804e+01	2.465850e+02
1.820000e-06	3.890691e-06	3.833441e-09	2.779470e+01	2.462492e+02
1.830000e-06	3.867052e-06	3.770932e-09	2.762583e+01	2.459456e+02
1.840000e-06	3.841820e-06	3.857175e-09	2.744557e+01	2.456725e+02
1.850000e-06	3.814896e-06	3.813614e-09	2.725323e+01	2.454224e+02
1.860000e-06	3.787049e-06	3.658295e-09	2.705429e+01	2.451822e+02
1.870000e-06	3.758059e-06	3.780627e-09	2.684719e+01	2.449344e+02
1.880000e-06	3.727437e-06	3.817789e-09	2.662843e+01	2.446581e+02
1.890000e-06	3.695274e-06	3.621234e-09	2.639866e+01	2.443316e+02
1.900000e-06	3.661828e-06	3.638012e-09	2.615972e+01	2.439336e+02
1.910000e-06	3.627385e-06	3.707392e-09	2.591367e+01	2.434453e+02
1.920000e-06	3.591819e-06	3.681491e-09	2.565959e+01	2.428521e+02
1.930000e-06	3.554913e-06	3.670929e-09	2.539593e+01	2.421447e+02
1.940000e-06	3.516823e-06	3.581434e-09	2.512383e+01	2.413195e+02
1.950000e-06	3.477231e-06	3.611594e-09	2.484099e+01	2.403788e+02
1.960000e-06	3.436114e-06	3.625629e-09	2.454725e+01	2.393298e+02
1.970000e-06	3.394002e-06	3.538243e-09	2.424640e+01	2.381838e+02
1.980000e-06	3.350857e-06	3.614296e-09	2.393818e+01	2.369547e+02
1.990000e-06	3.306575e-06	3.540243e-09	2.362184e+01	2.356571e+02
2.000000e-06	3.261289e-06	3.449882e-09	2.329832e+01	2.343050e+02
2.010000e-06	3.214846e-06	3.555179e-09	2.296653e+01	2.329104e+02
2.020000e-06	3.167108e-06	3.522619e-09	2.262550e+01	2.314820e+02
2.030000e-06	3.117963e-06	3.419863e-09	2.227441e+01	2.300252e+02
2.040000e-06	3.067733e-06	3.394571e-09	2.191557e+01	2.285418e+02
2.050000e-06	3.016606e-06	3.445018e-09	2.155033e+01	2.270300e+02
2.060000e-06	2.964305e-06	3.434702e-09	2.117670e+01	2.254857e+02
2.070000e-06	2.910645e-06	3.320597e-09	2.079335e+01	2.239032e+02
2.080000e-06	2.855515e-06	3.323448e-09	2.039951e+01	2.222762e+02
2.090000e-06	2.799292e-06	3.334207e-09	1.999786e+01	2.205987e+02
2.100000e-06	2.742175e-06	3.280963e-09	1.958982e+01	2.188656e+02
2.110000e-06	2.684100e-06	3.257820e-09	1.917494e+01	2.170738e+02
2.120000e-06	2.625214e-06	3.223208e-09	1.875426e+01	2.152212e+02
2.130000e-06	2.565506e-06	3.210102e-09	1.832772e+01	2.133076e+02
2.140000e-06	2.504973e-06	3.161005e-09	1.789527e+01	2.113335e+02
2.150000e-06	2.443541e-06	3.143419e-09	1.745641e+01	2.092997e+02
2.160000e-06	2.380950e-06	3.141216e-09	1.700926e+01	2.072067e+02
2.170000e-06	2.317272e-06	3.062593e-09	1.655435e+01	2.050538e+02
2.180000e-06	2.252868e-06	3.038229e-09	1.609426e+01	2.028391e+02
2.190000e-06	2.187820e-06	3.024261e-09	1.562957e+01	2.005586e+02
2.200000e-06	2.121963e-06	2.987630e-09	1.515908e+01	1.982068e+02
2.210000e-06	2.055351e-06	2.932469e-09	1.468322e+01	1.957766e+02
2.220000e-06	1.988102e-06	2.893510e-09	1.420280e+01	1.932597e+02
2.230000e-06	1.920213e-06	2.882977e-09	1.371781e+01	1.906475e+02
2.240000e-06	1.851768e-06	2.819839e-09	1.322885e+01	1.879314e+02
2.250000e-06	1.782675e-06	2.770537e-09	1.273525e+01	1.851036e+02
2.260000e-06	1.712764e-06	2.742030e-09	1.223581e+01	1.821571e+02
2.270000e-06	1.641894e-06	2.693623e-09	1.172952e+01	1.790861e+02
2.280000e-06	1.570159e-06	2.632484e-09	1.121706e+01	1.758864e+02
2.290000e-06	1.497968e-06	2.582090e-09	1.070133e+01	1.725542e+02
2.300000e-06	1.425477e-06	2.548951e-09	1.018346e+01	1.690865e+02
2.310000e-06	1.352582e-06	2.489487e-09	9.662710e+00	1.654800e+02
2.320000e-06	1.279204e-06	2.422751e-09	9.138502e+00	1.617310e+02
2.330000e-06	1.205351e-06	2.368484e-09	8.610906e+00	1.578344e+02
2.340000e-06	1.131085e-06	2.308902e-09	8.080358e+00	1.537834e+02
2.350000e-06	1.056465e-06	2.245265e-09	7.547278e+00	1.495694e+02
2.360000e-06	9.815035e-07	2.182544e-09	7.011761e+00	1.451820e+02
2.370000e-06	9.061558e-07	2.114809e-09	6.473485e+00	1.406086e+02
2.380000e-06	8.304553e-07	2.031136e-09	5.932688e+00	1.358356e+02
2.390000e-06	7.544706e-07	1.951885e-09	5.389861e+00	1.308481e+02
2.400000e-06	6.782249e-07	1.886712e-09	4.845169e+00	1.256309e+02
2.410000e-06	6.016992e-07	1.801827e-09	4.298478e+00	1.201691e+02
2.420000e-06	5.249514e-07	1.700508e-09	3.750200e+00	1.144483e+02
2.430000e-06	4.481066e-07	1.608772e-09	3.201228e+00	1.084555e+02
2.440000e-06	3.710420e-07	1.528201e-09	2.650686e+00	1.021794e+02
2.450000e-06	2.936764e-07	1.433004e-09	2.097994e+00	9.561094e+01
2.460000e-06	2.161792e-07	1.316064e-09	1.544362e+00	8.874328e+01
2.470000e-06	1.385426e-07	1.204364e-09	9.897345e-01	8.157251e+01
2.480000e-06	6.073199e-08	1.098713e-09	4.338631e-01	7.409775e+01
2.490000e-06	-1.701140e-08	9.848243e-10	-1.215277e-01	6.632158e+01
2.500000e-06	-9.460743e-08	8.592020e-10	-6.758659e-01	5.825043e+01
2.510000e-06	-1.722187e-07	7.277974e-10	-1.230313e+00	4.989494e+01
2.520000e-06	-2.497628e-07	5.929142e-10	-1.784280e+00	4.127044e+01
2.530000e-06	-3.270081e-07	4.579300e-10	-2.336113e+00	3.239726e+01
2.540000e-06	-4.040195e-07	3.243177e-10	-2.886274e+00	2.330101e+01
2.550000e-06	-4.808249e-07	1.845116e-10	-3.434964e+00	1.401267e+01
2.560000e-06	-5.574054e-07	3.778136e-11	-3.982047e+00	4.568430e+00
2.570000e-06	-6.337706e-07	-1.062856e-10	-4.527593e+00	-4.990698e+00
2.580000e-06	-7.099004e-07	-2.433346e-10	-5.071456e+00	-1.461958e+01
2.590000e-06	-7.858005e-07	-3.880074e-10	-5.613679e+00	-2.426995e+01
2.600000e-06	-8.613994e-07	-5.412925e-10	-6.153749e+00	-3.389163e+01
2.610000e-06	-9.366394e-07	-6.884464e-10	-6.691256e+00	-4.343391e+01
2.620000e-06	-1.011506e-06	-8.271319e-10	-7.226094e+00	-5.284711e+01
2.630000e-06	-1.086008e-06	-9.647730e-10	-7.758329e+00	-6.208408e+01
2.640000e-06	-1.160097e-06	-1.103906e-09	-8.287613e+00	-7.110161e+01
2.650000e-06	-1.233773e-06	-1.237788e-09	-8.813945e+00	-7.986165e+01
2.660000e-06	-1.307015e-06	-1.366945e-09	-9.337183e+00	-8.833234e+01
2.670000e-06	-1.379793e-06	-1.491899e-09	-9.857104e+00	-9.648858e+01
2.680000e-06	-1.452193e-06	-1.611084e-09	-1.037432e+01	-1.043124e+02
2.690000e-06	-1.524271e-06	-1.726552e-09	-1.088924e+01	-1.117929e+02
2.700000e-06	-1.595926e-06	-1.839832e-09	-1.140114e+01	-1.189259e+02
2.710000e-06	-1.666894e-06	-1.947267e-09	-1.190812e+01	-1.257132e+02
2.720000e-06	-1.737006e-06	-2.043905e-09	-1.240900e+01	-1.321618e+02
2.730000e-06	-1.806248e-06	-2.134158e-09	-1.290365e+01	-1.382831e+02
2.740000e-06	-1.874761e-06	-2.223406e-09	-1.339310e+01	-1.440916e+02
2.750000e-06	-1.942746e-06	-2.311412e-09	-1.387878e+01	-1.496038e+02
2.760000e-06	-2.010158e-06	-2.391798e-09	-1.436037e+01	-1.548376e+02
2.770000e-06	-2.076896e-06	-2.463827e-09	-1.483714e+01	-1.598109e+02
2.780000e-06	-2.142984e-06	-2.534818e-09	-1.530926e+01	-1.645412e+02
2.790000e-06	-2.208324e-06	-2.606703e-09	-1.577604e+01	-1.690448e+02
2.800000e-06	-2.272881e-06	-2.674580e-09	-1.623723e+01	-1.733365e+02
2.810000e-06	-2.336835e-06	-2.736594e-09	-1.669411e+01	-1.774292e+02
2.820000e-06	-2.399967e-06	-2.795916e-09	-1.714512e+01	-1.813338e+02
2.830000e-06	-2.461899e-06	-2.854486e-09	-1.758756e+01	-1.850593e+02
2.840000e-06	-2.522762e-06	-2.911844e-09	-1.802235e+01	-1.886130e+02
2.850000e-06	-2.582844e-06	-2.964874e-09	-1.845157e+01	-1.920007e+02
2.860000e-06	-2.642115e-06	-3.013457e-09	-1.887500e+01	-1.952269e+02
2.870000e-06	-2.700441e-06	-3.059784e-09	-1.929167e+01	-1.982957e+02
2.880000e-06	-2.757794e-06	-3.105659e-09	-1.970140e+01	-2.012109e+02
2.890000e-06	-2.814260e-06	-3.150513e-09	-2.010479e+01	-2.039764e+02
2.900000e-06	-2.869880e-06	-3.192133e-09	-2.050213e+01	-2.065968e+02
2.910000e-06	-2.924248e-06	-3.230983e-09	-2.089053e+01	-2.090776e+02
2.920000e-06	-2.977203e-06	-3.265773e-09	-2.126884e+01	-2.114252e+02
2.930000e-06	-3.028967e-06	-3.298977e-09	-2.163863e+01	-2.136469e+02
2.940000e-06	-3.079531e-06	-3.333939e-09	-2.199986e+01	-2.157510e+02
