# Temperatura_=_20.0
# Concentracion g/m^3_=_9000.0
# C_Vs_to_Am_M_A/Vsm_=_65563218390.804596
# pendiente_HvsI_1/m_=_3716.3
# ordenada_HvsI_A/m_=_1297.0
# frecuencia_Hz_=_300798.76990137965

Tiempo_(s)	Campo_(V.s)	Magnetizacion_(V.s)	Campo_(kA/m)	Magnetizacion_(A/m)
0.000000e+00	-4.063453e-06	-1.098151e-09	-2.906514e+01	-7.220225e+01
1.000000e-08	-4.061882e-06	-1.097215e-09	-2.905390e+01	-7.220032e+01
2.000000e-08	-4.058813e-06	-1.096046e-09	-2.903195e+01	-7.219882e+01
3.000000e-08	-4.054539e-06	-1.095727e-09	-2.900138e+01	-7.220496e+01
4.000000e-08	-4.049013e-06	-1.096513e-09	-2.896185e+01	-7.222278e+01
5.000000e-08	-4.042197e-06	-1.096239e-09	-2.891310e+01	-7.225179e+01
6.000000e-08	-4.034208e-06	-1.093039e-09	-2.885596e+01	-7.228627e+01
7.000000e-08	-4.024823e-06	-1.086691e-09	-2.878883e+01	-7.231525e+01
8.000000e-08	-4.013736e-06	-1.076293e-09	-2.870952e+01	-7.232322e+01
9.000000e-08	-4.000754e-06	-1.073456e-09	-2.861666e+01	-7.229161e+01
1.000000e-07	-3.985613e-06	-1.087924e-09	-2.850837e+01	-7.220092e+01
1.100000e-07	-3.968653e-06	-1.106061e-09	-2.838705e+01	-7.203305e+01
1.200000e-07	-3.950522e-06	-1.108895e-09	-2.825736e+01	-7.177387e+01
1.300000e-07	-3.931451e-06	-1.070698e-09	-2.812096e+01	-7.141536e+01
1.400000e-07	-3.911442e-06	-1.054699e-09	-2.797783e+01	-7.095720e+01
1.500000e-07	-3.890431e-06	-1.092154e-09	-2.782754e+01	-7.040760e+01
1.600000e-07	-3.868360e-06	-1.077985e-09	-2.766967e+01	-6.978306e+01
1.700000e-07	-3.844735e-06	-1.062503e-09	-2.750069e+01	-6.910716e+01
1.800000e-07	-3.819215e-06	-1.079474e-09	-2.731815e+01	-6.840853e+01
1.900000e-07	-3.792418e-06	-1.034235e-09	-2.712647e+01	-6.771807e+01
2.000000e-07	-3.764622e-06	-1.024953e-09	-2.692765e+01	-6.706584e+01
2.100000e-07	-3.735421e-06	-1.057210e-09	-2.671879e+01	-6.647804e+01
2.200000e-07	-3.704892e-06	-9.920073e-10	-2.650042e+01	-6.597433e+01
2.300000e-07	-3.673341e-06	-9.788257e-10	-2.627474e+01	-6.556584e+01
2.400000e-07	-3.640551e-06	-1.084741e-09	-2.604020e+01	-6.525420e+01
2.500000e-07	-3.606214e-06	-1.078786e-09	-2.579459e+01	-6.503156e+01
2.600000e-07	-3.570428e-06	-9.989112e-10	-2.553862e+01	-6.488177e+01
2.700000e-07	-3.533411e-06	-1.023106e-09	-2.527384e+01	-6.478233e+01
2.800000e-07	-3.495269e-06	-1.047354e-09	-2.500102e+01	-6.470708e+01
2.900000e-07	-3.455957e-06	-1.016847e-09	-2.471983e+01	-6.462912e+01
3.000000e-07	-3.415355e-06	-1.023932e-09	-2.442942e+01	-6.452376e+01
3.100000e-07	-3.373340e-06	-1.027330e-09	-2.412889e+01	-6.437097e+01
3.200000e-07	-3.329985e-06	-9.918108e-10	-2.381878e+01	-6.415717e+01
3.300000e-07	-3.285488e-06	-9.902439e-10	-2.350050e+01	-6.387614e+01
3.400000e-07	-3.239855e-06	-1.014838e-09	-2.317409e+01	-6.352900e+01
3.500000e-07	-3.193052e-06	-9.952864e-10	-2.283932e+01	-6.312329e+01
3.600000e-07	-3.145092e-06	-9.600157e-10	-2.249627e+01	-6.267129e+01
3.700000e-07	-3.095864e-06	-9.641752e-10	-2.214415e+01	-6.218797e+01
3.800000e-07	-3.045113e-06	-9.804981e-10	-2.178114e+01	-6.168870e+01
3.900000e-07	-2.992868e-06	-9.633238e-10	-2.140744e+01	-6.118719e+01
4.000000e-07	-2.939520e-06	-9.282132e-10	-2.102585e+01	-6.069375e+01
4.100000e-07	-2.885233e-06	-9.273335e-10	-2.063755e+01	-6.021431e+01
4.200000e-07	-2.830041e-06	-9.426594e-10	-2.024277e+01	-5.974997e+01
4.300000e-07	-2.774010e-06	-9.264054e-10	-1.984199e+01	-5.929745e+01
4.400000e-07	-2.716791e-06	-9.010152e-10	-1.943271e+01	-5.884998e+01
4.500000e-07	-2.658209e-06	-9.003730e-10	-1.901369e+01	-5.839871e+01
4.600000e-07	-2.598684e-06	-9.030859e-10	-1.858791e+01	-5.793420e+01
4.700000e-07	-2.538428e-06	-8.870892e-10	-1.815691e+01	-5.744794e+01
4.800000e-07	-2.477395e-06	-8.693952e-10	-1.772036e+01	-5.693353e+01
4.900000e-07	-2.415516e-06	-8.624786e-10	-1.727774e+01	-5.638744e+01
5.000000e-07	-2.352745e-06	-8.553066e-10	-1.682876e+01	-5.580917e+01
5.100000e-07	-2.289326e-06	-8.445079e-10	-1.637513e+01	-5.520101e+01
5.200000e-07	-2.225130e-06	-8.366438e-10	-1.591595e+01	-5.456722e+01
5.300000e-07	-2.159701e-06	-8.271797e-10	-1.544795e+01	-5.391301e+01
5.400000e-07	-2.093161e-06	-8.141101e-10	-1.497200e+01	-5.324337e+01
5.500000e-07	-2.026010e-06	-8.048980e-10	-1.449168e+01	-5.256197e+01
5.600000e-07	-1.958454e-06	-8.005012e-10	-1.400847e+01	-5.187037e+01
5.700000e-07	-1.890332e-06	-7.862769e-10	-1.352120e+01	-5.116755e+01
5.800000e-07	-1.821555e-06	-7.652549e-10	-1.302925e+01	-5.044995e+01
5.900000e-07	-1.752169e-06	-7.600614e-10	-1.253295e+01	-4.971182e+01
6.000000e-07	-1.682141e-06	-7.566908e-10	-1.203205e+01	-4.894602e+01
6.100000e-07	-1.611435e-06	-7.342419e-10	-1.152630e+01	-4.814493e+01
6.200000e-07	-1.540229e-06	-7.112694e-10	-1.101698e+01	-4.730147e+01
6.300000e-07	-1.468706e-06	-7.032699e-10	-1.050539e+01	-4.640990e+01
6.400000e-07	-1.396804e-06	-6.943794e-10	-9.991082e+00	-4.546647e+01
6.500000e-07	-1.324353e-06	-6.733609e-10	-9.472853e+00	-4.446960e+01
6.600000e-07	-1.251209e-06	-6.517091e-10	-8.949674e+00	-4.341972e+01
6.700000e-07	-1.177318e-06	-6.365123e-10	-8.421143e+00	-4.231880e+01
6.800000e-07	-1.102750e-06	-6.205443e-10	-7.887768e+00	-4.116953e+01
6.900000e-07	-1.027683e-06	-6.009074e-10	-7.350829e+00	-3.997445e+01
7.000000e-07	-9.522441e-07	-5.805748e-10	-6.811229e+00	-3.873509e+01
7.100000e-07	-8.764913e-07	-5.582618e-10	-6.269383e+00	-3.745122e+01
7.200000e-07	-8.004534e-07	-5.363179e-10	-5.725497e+00	-3.612048e+01
7.300000e-07	-7.241076e-07	-5.193261e-10	-5.179410e+00	-3.473830e+01
7.400000e-07	-6.475027e-07	-5.006050e-10	-4.631469e+00	-3.329825e+01
7.500000e-07	-5.706690e-07	-4.726945e-10	-4.081892e+00	-3.179261e+01
7.600000e-07	-4.936148e-07	-4.437349e-10	-3.530737e+00	-3.021328e+01
7.700000e-07	-4.164370e-07	-4.205138e-10	-2.978698e+00	-2.855270e+01
7.800000e-07	-3.390996e-07	-3.953694e-10	-2.425518e+00	-2.680473e+01
7.900000e-07	-2.615882e-07	-3.627871e-10	-1.871093e+00	-2.496542e+01
8.000000e-07	-1.839971e-07	-3.289642e-10	-1.316098e+00	-2.303335e+01
8.100000e-07	-1.063761e-07	-3.010721e-10	-7.608885e-01	-2.100981e+01
8.200000e-07	-2.869945e-08	-2.722752e-10	-2.052819e-01	-1.889854e+01
8.300000e-07	4.903620e-08	-2.367231e-10	3.507470e-01	-1.670520e+01
8.400000e-07	1.267617e-07	-2.007119e-10	9.067034e-01	-1.443676e+01
8.500000e-07	2.043887e-07	-1.670087e-10	1.461955e+00	-1.210070e+01
8.600000e-07	2.819002e-07	-1.310505e-10	2.016381e+00	-9.704463e+00
8.700000e-07	3.593581e-07	-9.140388e-11	2.570423e+00	-7.254931e+00
8.800000e-07	4.367333e-07	-5.055961e-11	3.123874e+00	-4.758289e+00
8.900000e-07	5.138825e-07	-1.073667e-11	3.675708e+00	-2.220121e+00
9.000000e-07	5.907460e-07	2.838035e-11	4.225498e+00	3.542192e-01
9.100000e-07	6.673808e-07	6.880011e-11	4.773653e+00	2.959048e+00
9.200000e-07	7.437943e-07	1.107035e-10	5.320226e+00	5.587721e+00
9.300000e-07	8.199809e-07	1.532046e-10	5.865174e+00	8.232063e+00
9.400000e-07	8.958949e-07	1.932438e-10	6.408173e+00	1.088197e+01
9.500000e-07	9.714896e-07	2.315625e-10	6.948888e+00	1.352529e+01
9.600000e-07	1.046789e-06	2.726923e-10	7.487493e+00	1.614805e+01
9.700000e-07	1.121731e-06	3.158127e-10	8.023539e+00	1.873501e+01
9.800000e-07	1.196184e-06	3.548995e-10	8.556089e+00	2.127045e+01
9.900000e-07	1.269905e-06	3.912626e-10	9.083399e+00	2.373928e+01
1.000000e-06	1.342791e-06	4.303091e-10	9.604741e+00	2.612798e+01
1.010000e-06	1.415050e-06	4.681671e-10	1.012159e+01	2.842565e+01
1.020000e-06	1.486845e-06	5.005837e-10	1.063513e+01	3.062470e+01
1.030000e-06	1.558241e-06	5.313464e-10	1.114581e+01	3.272124e+01
1.040000e-06	1.629194e-06	5.623541e-10	1.165333e+01	3.471504e+01
1.050000e-06	1.699593e-06	5.917102e-10	1.215688e+01	3.660920e+01
1.060000e-06	1.769407e-06	6.185319e-10	1.265625e+01	3.840930e+01
1.070000e-06	1.838604e-06	6.442188e-10	1.315120e+01	4.012253e+01
1.080000e-06	1.907111e-06	6.715317e-10	1.364122e+01	4.175656e+01
1.090000e-06	1.975044e-06	6.968978e-10	1.412713e+01	4.331855e+01
1.100000e-06	2.042482e-06	7.182312e-10	1.460950e+01	4.481434e+01
1.110000e-06	2.109305e-06	7.395115e-10	1.508748e+01	4.624794e+01
1.120000e-06	2.175167e-06	7.604289e-10	1.555858e+01	4.762136e+01
1.130000e-06	2.239829e-06	7.796473e-10	1.602109e+01	4.893486e+01
1.140000e-06	2.303646e-06	7.987881e-10	1.647756e+01	5.018740e+01
1.150000e-06	2.366911e-06	8.172386e-10	1.693008e+01	5.137741e+01
1.160000e-06	2.429490e-06	8.330858e-10	1.737770e+01	5.250355e+01
1.170000e-06	2.491263e-06	8.488443e-10	1.781955e+01	5.356545e+01
1.180000e-06	2.552170e-06	8.658479e-10	1.825521e+01	5.456423e+01
1.190000e-06	2.612304e-06	8.810502e-10	1.868534e+01	5.550282e+01
1.200000e-06	2.671776e-06	8.944448e-10	1.911073e+01	5.638583e+01
1.210000e-06	2.730303e-06	9.075618e-10	1.952936e+01	5.721927e+01
1.220000e-06	2.787508e-06	9.213288e-10	1.993854e+01	5.800989e+01
1.230000e-06	2.843483e-06	9.334877e-10	2.033892e+01	5.876445e+01
1.240000e-06	2.898529e-06	9.433529e-10	2.073265e+01	5.948895e+01
1.250000e-06	2.952706e-06	9.538524e-10	2.112017e+01	6.018801e+01
1.260000e-06	3.005860e-06	9.640719e-10	2.150037e+01	6.086441e+01
1.270000e-06	3.057817e-06	9.730306e-10	2.187201e+01	6.151893e+01
1.280000e-06	3.108377e-06	9.823539e-10	2.223365e+01	6.215059e+01
1.290000e-06	3.157385e-06	9.924136e-10	2.258420e+01	6.275704e+01
1.300000e-06	3.205088e-06	1.001165e-09	2.292541e+01	6.333526e+01
1.310000e-06	3.251727e-06	1.008083e-09	2.325901e+01	6.388231e+01
1.320000e-06	3.297279e-06	1.015289e-09	2.358484e+01	6.439607e+01
1.330000e-06	3.341786e-06	1.023616e-09	2.390319e+01	6.487579e+01
1.340000e-06	3.385293e-06	1.030219e-09	2.421438e+01	6.532245e+01
1.350000e-06	3.427547e-06	1.035573e-09	2.451662e+01	6.573876e+01
1.360000e-06	3.468299e-06	1.042008e-09	2.480811e+01	6.612886e+01
1.370000e-06	3.507781e-06	1.049013e-09	2.509052e+01	6.649782e+01
1.380000e-06	3.546165e-06	1.055045e-09	2.536507e+01	6.685089e+01
1.390000e-06	3.583364e-06	1.057833e-09	2.563115e+01	6.719275e+01
1.400000e-06	3.619445e-06	1.060379e-09	2.588923e+01	6.752689e+01
1.410000e-06	3.654368e-06	1.065597e-09	2.613903e+01	6.785510e+01
1.420000e-06	3.687806e-06	1.071533e-09	2.637821e+01	6.817732e+01
1.430000e-06	3.719755e-06	1.075596e-09	2.660673e+01	6.849179e+01
1.440000e-06	3.750454e-06	1.078873e-09	2.682631e+01	6.879548e+01
1.450000e-06	3.779929e-06	1.083208e-09	2.703714e+01	6.908480e+01
1.460000e-06	3.808219e-06	1.087732e-09	2.723950e+01	6.935635e+01
1.470000e-06	3.835291e-06	1.092302e-09	2.743314e+01	6.960772e+01
1.480000e-06	3.860803e-06	1.097156e-09	2.761562e+01	6.983806e+01
1.490000e-06	3.884704e-06	1.102231e-09	2.778658e+01	7.004843e+01
1.500000e-06	3.907250e-06	1.106573e-09	2.794785e+01	7.024181e+01
1.510000e-06	3.928511e-06	1.109846e-09	2.809993e+01	7.042269e+01
1.520000e-06	3.948601e-06	1.112885e-09	2.824362e+01	7.059641e+01
1.530000e-06	3.967567e-06	1.115904e-09	2.837928e+01	7.076829e+01
1.540000e-06	3.985112e-06	1.118958e-09	2.850478e+01	7.094271e+01
1.550000e-06	4.001090e-06	1.121256e-09	2.861907e+01	7.112225e+01
1.560000e-06	4.015590e-06	1.123705e-09	2.872279e+01	7.130712e+01
1.570000e-06	4.028628e-06	1.127451e-09	2.881605e+01	7.149497e+01
1.580000e-06	4.040146e-06	1.130378e-09	2.889843e+01	7.168107e+01
1.590000e-06	4.049922e-06	1.132307e-09	2.896835e+01	7.185899e+01
1.600000e-06	4.058054e-06	1.134547e-09	2.902652e+01	7.202154e+01
1.610000e-06	4.064795e-06	1.137115e-09	2.907474e+01	7.216195e+01
1.620000e-06	4.070132e-06	1.138761e-09	2.911291e+01	7.227503e+01
1.630000e-06	4.074208e-06	1.140723e-09	2.914207e+01	7.235817e+01
1.640000e-06	4.076931e-06	1.142514e-09	2.916155e+01	7.241194e+01
1.650000e-06	4.078008e-06	1.143705e-09	2.916925e+01	7.244020e+01
1.660000e-06	4.077605e-06	1.147337e-09	2.916637e+01	7.244962e+01
1.670000e-06	4.075934e-06	1.150940e-09	2.915441e+01	7.244872e+01
1.680000e-06	4.073013e-06	1.151591e-09	2.913352e+01	7.244644e+01
1.690000e-06	4.068927e-06	1.150686e-09	2.910429e+01	7.245049e+01
1.700000e-06	4.063576e-06	1.150845e-09	2.906602e+01	7.246568e+01
1.710000e-06	4.056667e-06	1.151904e-09	2.901660e+01	7.249259e+01
1.720000e-06	4.048365e-06	1.152968e-09	2.895722e+01	7.252666e+01
1.730000e-06	4.038934e-06	1.160144e-09	2.888976e+01	7.255800e+01
1.740000e-06	4.028371e-06	1.175095e-09	2.881420e+01	7.257196e+01
1.750000e-06	4.016111e-06	1.169606e-09	2.872651e+01	7.255049e+01
1.760000e-06	4.001376e-06	1.147116e-09	2.862111e+01	7.247407e+01
1.770000e-06	3.984450e-06	1.126229e-09	2.850005e+01	7.232411e+01
1.780000e-06	3.966410e-06	1.131633e-09	2.837101e+01	7.208541e+01
1.790000e-06	3.948026e-06	1.155561e-09	2.823951e+01	7.174850e+01
1.800000e-06	3.928720e-06	1.118292e-09	2.810142e+01	7.131130e+01
1.810000e-06	3.907376e-06	1.089974e-09	2.794875e+01	7.078019e+01
1.820000e-06	3.884459e-06	1.118555e-09	2.778483e+01	7.016993e+01
1.830000e-06	3.860682e-06	1.080998e-09	2.761476e+01	6.950277e+01
1.840000e-06	3.835416e-06	1.069044e-09	2.743403e+01	6.880645e+01
1.850000e-06	3.808584e-06	1.091536e-09	2.724211e+01	6.811163e+01
1.860000e-06	3.780785e-06	1.003806e-09	2.704327e+01	6.744883e+01
1.870000e-06	3.751776e-06	9.861597e-10	2.683577e+01	6.684533e+01
1.880000e-06	3.721171e-06	1.039881e-09	2.661686e+01	6.632236e+01
1.890000e-06	3.689045e-06	9.226799e-10	2.638707e+01	6.589300e+01
1.900000e-06	3.655604e-06	8.532400e-10	2.614787e+01	6.556096e+01
1.910000e-06	3.621150e-06	9.805319e-10	2.590143e+01	6.532035e+01
1.920000e-06	3.585554e-06	9.789930e-10	2.564682e+01	6.515668e+01
1.930000e-06	3.548660e-06	8.941891e-10	2.538292e+01	6.504857e+01
1.940000e-06	3.510544e-06	9.315061e-10	2.511028e+01	6.497043e+01
1.950000e-06	3.470927e-06	9.468619e-10	2.482691e+01	6.489525e+01
1.960000e-06	3.429850e-06	9.055569e-10	2.453309e+01	6.479765e+01
1.970000e-06	3.387752e-06	9.078986e-10	2.423198e+01	6.465641e+01
1.980000e-06	3.344662e-06	9.344748e-10	2.392376e+01	6.445647e+01
1.990000e-06	3.300474e-06	9.105299e-10	2.360769e+01	6.418999e+01
2.000000e-06	3.255174e-06	8.768879e-10	2.328367e+01	6.385659e+01
2.010000e-06	3.208698e-06	9.105304e-10	2.295123e+01	6.346253e+01
2.020000e-06	3.160943e-06	9.205993e-10	2.260965e+01	6.301926e+01
2.030000e-06	3.111832e-06	8.757762e-10	2.225837e+01	6.254134e+01
2.040000e-06	3.061664e-06	8.673157e-10	2.189952e+01	6.204426e+01
2.050000e-06	3.010548e-06	8.892468e-10	2.153390e+01	6.154223e+01
2.060000e-06	2.958245e-06	8.923635e-10	2.115979e+01	6.104641e+01
2.070000e-06	2.904613e-06	8.545194e-10	2.077617e+01	6.056371e+01
2.080000e-06	2.849603e-06	8.406659e-10	2.038269e+01	6.009628e+01
2.090000e-06	2.793476e-06	8.676053e-10	1.998122e+01	5.964171e+01
2.100000e-06	2.736365e-06	8.578487e-10	1.957272e+01	5.919386e+01
2.110000e-06	2.678316e-06	8.305896e-10	1.915750e+01	5.874421e+01
2.120000e-06	2.619478e-06	8.244173e-10	1.873665e+01	5.828330e+01
2.130000e-06	2.559813e-06	8.355537e-10	1.830988e+01	5.780234e+01
2.140000e-06	2.499398e-06	8.290825e-10	1.787774e+01	5.729437e+01
2.150000e-06	2.438069e-06	8.045918e-10	1.743906e+01	5.675522e+01
2.160000e-06	2.375471e-06	8.059840e-10	1.699131e+01	5.618374e+01
2.170000e-06	2.311789e-06	8.038023e-10	1.653581e+01	5.558169e+01
2.180000e-06	2.247466e-06	7.864113e-10	1.607572e+01	5.495297e+01
2.190000e-06	2.182546e-06	7.811548e-10	1.561135e+01	5.430270e+01
2.200000e-06	2.116765e-06	7.791650e-10	1.514083e+01	5.363600e+01
2.210000e-06	2.050178e-06	7.639815e-10	1.466455e+01	5.295691e+01
2.220000e-06	1.982927e-06	7.459950e-10	1.418352e+01	5.226750e+01
2.230000e-06	1.915041e-06	7.495134e-10	1.369794e+01	5.156731e+01
2.240000e-06	1.846629e-06	7.437216e-10	1.320860e+01	5.085330e+01
2.250000e-06	1.777621e-06	7.141474e-10	1.271500e+01	5.012015e+01
2.260000e-06	1.707788e-06	7.037306e-10	1.221550e+01	4.936092e+01
2.270000e-06	1.636964e-06	7.075905e-10	1.170891e+01	4.856803e+01
2.280000e-06	1.565321e-06	6.939450e-10	1.119645e+01	4.773419e+01
2.290000e-06	1.493218e-06	6.718568e-10	1.068072e+01	4.685333e+01
2.300000e-06	1.420814e-06	6.624438e-10	1.016282e+01	4.592123e+01
2.310000e-06	1.348035e-06	6.559496e-10	9.642247e+00	4.493583e+01
2.320000e-06	1.274774e-06	6.400807e-10	9.118228e+00	4.389720e+01
2.330000e-06	1.201115e-06	6.253454e-10	8.591360e+00	4.280700e+01
2.340000e-06	1.127047e-06	6.103380e-10	8.061562e+00	4.166786e+01
2.350000e-06	1.052528e-06	5.919054e-10	7.528543e+00	4.048244e+01
2.360000e-06	9.776886e-07	5.741537e-10	6.993229e+00	3.925252e+01
2.370000e-06	9.025045e-07	5.579105e-10	6.455451e+00	3.797831e+01
2.380000e-06	8.269227e-07	5.383835e-10	5.914827e+00	3.665793e+01
2.390000e-06	7.510114e-07	5.125864e-10	5.371848e+00	3.528727e+01
2.400000e-06	6.748569e-07	4.916007e-10	4.827129e+00	3.386025e+01
2.410000e-06	5.984844e-07	4.750960e-10	4.280850e+00	3.236935e+01
2.420000e-06	5.219560e-07	4.527495e-10	3.733456e+00	3.080649e+01
2.430000e-06	4.452684e-07	4.233225e-10	3.184924e+00	2.916390e+01
2.440000e-06	3.683505e-07	3.979328e-10	2.634744e+00	2.743508e+01
2.450000e-06	2.912169e-07	3.752875e-10	2.083021e+00	2.561555e+01
2.460000e-06	2.139601e-07	3.436903e-10	1.530418e+00	2.370335e+01
2.470000e-06	1.365734e-07	3.108221e-10	9.768844e-01	2.169918e+01
2.480000e-06	5.903299e-08	2.826727e-10	4.222522e-01	1.960630e+01
2.490000e-06	-1.851620e-08	2.516912e-10	-1.324430e-01	1.743000e+01
2.500000e-06	-9.589544e-08	2.160879e-10	-6.859226e-01	1.517703e+01
2.510000e-06	-1.732539e-07	1.819697e-10	-1.239254e+00	1.285483e+01
2.520000e-06	-2.506502e-07	1.477405e-10	-1.792855e+00	1.047089e+01
2.530000e-06	-3.278014e-07	1.092894e-10	-2.344704e+00	8.032242e+00
2.540000e-06	-4.046695e-07	6.952389e-11	-2.894527e+00	5.545215e+00
2.550000e-06	-4.813708e-07	3.354380e-11	-3.443158e+00	3.015500e+00
2.560000e-06	-5.579266e-07	-3.208881e-12	-3.990747e+00	4.484588e-01
2.570000e-06	-6.342570e-07	-4.435340e-11	-4.536725e+00	-2.150348e+00
2.580000e-06	-7.103320e-07	-8.462505e-11	-5.080876e+00	-4.774534e+00
2.590000e-06	-7.861888e-07	-1.238856e-10	-5.623465e+00	-7.416293e+00
2.600000e-06	-8.617550e-07	-1.642082e-10	-6.163977e+00	-1.006595e+01
2.610000e-06	-9.369215e-07	-2.047920e-10	-6.701629e+00	-1.271180e+01
2.620000e-06	-1.011708e-06	-2.437648e-10	-7.236562e+00	-1.534022e+01
2.630000e-06	-1.086162e-06	-2.817835e-10	-7.769122e+00	-1.793616e+01
2.640000e-06	-1.160275e-06	-3.203867e-10	-8.299233e+00	-2.048395e+01
2.650000e-06	-1.233938e-06	-3.576282e-10	-8.826134e+00	-2.296825e+01
2.660000e-06	-1.307117e-06	-3.926978e-10	-9.349573e+00	-2.537513e+01
2.670000e-06	-1.379887e-06	-4.287172e-10	-9.870081e+00	-2.769306e+01
2.680000e-06	-1.452268e-06	-4.653058e-10	-1.038781e+01	-2.991370e+01
2.690000e-06	-1.524331e-06	-4.977994e-10	-1.090326e+01	-3.203234e+01
2.700000e-06	-1.596000e-06	-5.263399e-10	-1.141590e+01	-3.404799e+01
2.710000e-06	-1.666906e-06	-5.550887e-10	-1.192308e+01	-3.596309e+01
2.720000e-06	-1.736858e-06	-5.828775e-10	-1.242343e+01	-3.778278e+01
2.730000e-06	-1.805933e-06	-6.078388e-10	-1.291751e+01	-3.951398e+01
2.740000e-06	-1.874332e-06	-6.309376e-10	-1.340676e+01	-4.116434e+01
2.750000e-06	-1.942224e-06	-6.553089e-10	-1.389237e+01	-4.274121e+01
2.760000e-06	-2.009525e-06	-6.800963e-10	-1.437377e+01	-4.425078e+01
2.770000e-06	-2.076105e-06	-7.024029e-10	-1.485000e+01	-4.569746e+01
2.780000e-06	-2.141974e-06	-7.241047e-10	-1.532115e+01	-4.708370e+01
2.790000e-06	-2.207102e-06	-7.441207e-10	-1.578700e+01	-4.841008e+01
2.800000e-06	-2.271536e-06	-7.612960e-10	-1.624788e+01	-4.967581e+01
2.810000e-06	-2.335319e-06	-7.785097e-10	-1.670411e+01	-5.087934e+01
2.820000e-06	-2.398215e-06	-7.962937e-10	-1.715400e+01	-5.201924e+01
2.830000e-06	-2.459992e-06	-8.111074e-10	-1.759588e+01	-5.309485e+01
2.840000e-06	-2.520729e-06	-8.245443e-10	-1.803032e+01	-5.410697e+01
2.850000e-06	-2.580692e-06	-8.394684e-10	-1.845922e+01	-5.505812e+01
2.860000e-06	-2.639868e-06	-8.549062e-10	-1.888250e+01	-5.595257e+01
2.870000e-06	-2.698110e-06	-8.678779e-10	-1.929909e+01	-5.679607e+01
2.880000e-06	-2.755398e-06	-8.788985e-10	-1.970886e+01	-5.759528e+01
2.890000e-06	-2.811847e-06	-8.904313e-10	-2.011263e+01	-5.835702e+01
2.900000e-06	-2.867405e-06	-9.028309e-10	-2.051003e+01	-5.908751e+01
2.910000e-06	-2.921631e-06	-9.147192e-10	-2.089789e+01	-5.979172e+01
2.920000e-06	-2.974466e-06	-9.245902e-10	-2.127582e+01	-6.047283e+01
2.930000e-06	-3.026127e-06	-9.330758e-10	-2.164533e+01	-6.113206e+01
2.940000e-06	-3.076635e-06	-9.416041e-10	-2.200661e+01	-6.176878e+01
