# Temperatura_=_20.0
# Concentracion g/m^3_=_12600.0
# C_Vs_to_Am_M_A/Vsm_=_65563218390.804596
# pendiente_HvsI_1/m_=_3716.3
# ordenada_HvsI_A/m_=_1297.0
# frecuencia_Hz_=_302088.5067105468

Tiempo_(s)	Campo_(V.s)	Magnetizacion_(V.s)	Campo_(kA/m)	Magnetizacion_(A/m)
0.000000e+00	-6.834327e-06	-2.692947e-08	-4.742981e+01	-1.764402e+03
1.000000e-08	-6.830515e-06	-2.692663e-08	-4.740336e+01	-1.763796e+03
2.000000e-08	-6.824491e-06	-2.691076e-08	-4.736155e+01	-1.762858e+03
3.000000e-08	-6.816333e-06	-2.688666e-08	-4.730494e+01	-1.761584e+03
4.000000e-08	-6.805798e-06	-2.685895e-08	-4.723182e+01	-1.759978e+03
5.000000e-08	-6.792650e-06	-2.683374e-08	-4.714058e+01	-1.758050e+03
6.000000e-08	-6.776962e-06	-2.680181e-08	-4.703171e+01	-1.755816e+03
7.000000e-08	-6.759065e-06	-2.675297e-08	-4.690750e+01	-1.753297e+03
8.000000e-08	-6.739221e-06	-2.673718e-08	-4.676978e+01	-1.750518e+03
9.000000e-08	-6.716969e-06	-2.678108e-08	-4.661536e+01	-1.747505e+03
1.000000e-07	-6.691885e-06	-2.668665e-08	-4.644127e+01	-1.744286e+03
1.100000e-07	-6.664105e-06	-2.656364e-08	-4.624849e+01	-1.740882e+03
1.200000e-07	-6.633990e-06	-2.650718e-08	-4.603949e+01	-1.737314e+03
1.300000e-07	-6.601852e-06	-2.640922e-08	-4.581645e+01	-1.733591e+03
1.400000e-07	-6.567734e-06	-2.631347e-08	-4.557968e+01	-1.729717e+03
1.500000e-07	-6.531741e-06	-2.645088e-08	-4.532988e+01	-1.725688e+03
1.600000e-07	-6.493750e-06	-2.635660e-08	-4.506623e+01	-1.721488e+03
1.700000e-07	-6.453645e-06	-2.608641e-08	-4.478790e+01	-1.717097e+03
1.800000e-07	-6.411174e-06	-2.620156e-08	-4.449316e+01	-1.712486e+03
1.900000e-07	-6.366149e-06	-2.605103e-08	-4.418069e+01	-1.707624e+03
2.000000e-07	-6.318883e-06	-2.596072e-08	-4.385266e+01	-1.702478e+03
2.100000e-07	-6.268948e-06	-2.596343e-08	-4.350612e+01	-1.697013e+03
2.200000e-07	-6.216319e-06	-2.575094e-08	-4.314088e+01	-1.691200e+03
2.300000e-07	-6.161417e-06	-2.569834e-08	-4.275986e+01	-1.685013e+03
2.400000e-07	-6.104133e-06	-2.560059e-08	-4.236231e+01	-1.678432e+03
2.500000e-07	-6.044568e-06	-2.552451e-08	-4.194893e+01	-1.671446e+03
2.600000e-07	-5.982843e-06	-2.543546e-08	-4.152057e+01	-1.664048e+03
2.700000e-07	-5.918906e-06	-2.523661e-08	-4.107685e+01	-1.656243e+03
2.800000e-07	-5.852713e-06	-2.511504e-08	-4.061747e+01	-1.648038e+03
2.900000e-07	-5.784291e-06	-2.500713e-08	-4.014263e+01	-1.639446e+03
3.000000e-07	-5.713775e-06	-2.491922e-08	-3.965325e+01	-1.630485e+03
3.100000e-07	-5.641141e-06	-2.473149e-08	-3.914918e+01	-1.621171e+03
3.200000e-07	-5.566151e-06	-2.453454e-08	-3.862875e+01	-1.611520e+03
3.300000e-07	-5.488760e-06	-2.441647e-08	-3.809166e+01	-1.601546e+03
3.400000e-07	-5.409190e-06	-2.425890e-08	-3.753945e+01	-1.591256e+03
3.500000e-07	-5.327642e-06	-2.414458e-08	-3.697351e+01	-1.580654e+03
3.600000e-07	-5.244325e-06	-2.395928e-08	-3.639529e+01	-1.569736e+03
3.700000e-07	-5.159304e-06	-2.374453e-08	-3.580526e+01	-1.558491e+03
3.800000e-07	-5.072569e-06	-2.356425e-08	-3.520332e+01	-1.546905e+03
3.900000e-07	-4.984049e-06	-2.340629e-08	-3.458899e+01	-1.534959e+03
4.000000e-07	-4.893724e-06	-2.324976e-08	-3.396215e+01	-1.522631e+03
4.100000e-07	-4.801703e-06	-2.302741e-08	-3.332352e+01	-1.509898e+03
4.200000e-07	-4.708076e-06	-2.280324e-08	-3.267376e+01	-1.496740e+03
4.300000e-07	-4.612888e-06	-2.259301e-08	-3.201316e+01	-1.483137e+03
4.400000e-07	-4.515891e-06	-2.241010e-08	-3.134001e+01	-1.469075e+03
4.500000e-07	-4.417165e-06	-2.220431e-08	-3.065486e+01	-1.454543e+03
4.600000e-07	-4.316947e-06	-2.194920e-08	-2.995935e+01	-1.439532e+03
4.700000e-07	-4.215229e-06	-2.169727e-08	-2.925343e+01	-1.424039e+03
4.800000e-07	-4.112114e-06	-2.145715e-08	-2.853782e+01	-1.408061e+03
4.900000e-07	-4.007396e-06	-2.123162e-08	-2.781108e+01	-1.391595e+03
5.000000e-07	-3.901061e-06	-2.097344e-08	-2.707313e+01	-1.374637e+03
5.100000e-07	-3.793371e-06	-2.068489e-08	-2.632577e+01	-1.357180e+03
5.200000e-07	-3.684330e-06	-2.039311e-08	-2.556902e+01	-1.339212e+03
5.300000e-07	-3.573970e-06	-2.011847e-08	-2.480313e+01	-1.320720e+03
5.400000e-07	-3.462342e-06	-1.985106e-08	-2.402844e+01	-1.301682e+03
5.500000e-07	-3.349184e-06	-1.955236e-08	-2.324313e+01	-1.282077e+03
5.600000e-07	-3.234509e-06	-1.922948e-08	-2.244730e+01	-1.261880e+03
5.700000e-07	-3.118485e-06	-1.890049e-08	-2.164209e+01	-1.241066e+03
5.800000e-07	-3.001248e-06	-1.857974e-08	-2.082848e+01	-1.219612e+03
5.900000e-07	-2.883027e-06	-1.824993e-08	-2.000803e+01	-1.197500e+03
6.000000e-07	-2.763885e-06	-1.790335e-08	-1.918119e+01	-1.174713e+03
6.100000e-07	-2.643691e-06	-1.753539e-08	-1.834705e+01	-1.151242e+03
6.200000e-07	-2.522223e-06	-1.715708e-08	-1.750407e+01	-1.127080e+03
6.300000e-07	-2.399741e-06	-1.678454e-08	-1.665406e+01	-1.102222e+03
6.400000e-07	-2.276521e-06	-1.640786e-08	-1.579892e+01	-1.076667e+03
6.500000e-07	-2.152463e-06	-1.601312e-08	-1.493796e+01	-1.050409e+03
6.600000e-07	-2.027619e-06	-1.559377e-08	-1.407155e+01	-1.023441e+03
6.700000e-07	-1.902132e-06	-1.516583e-08	-1.320068e+01	-9.957477e+02
6.800000e-07	-1.776005e-06	-1.473165e-08	-1.232537e+01	-9.673102e+02
6.900000e-07	-1.649379e-06	-1.428983e-08	-1.144659e+01	-9.381006e+02
7.000000e-07	-1.522396e-06	-1.383580e-08	-1.056534e+01	-9.080858e+02
7.100000e-07	-1.394904e-06	-1.335851e-08	-9.680546e+00	-8.772287e+02
7.200000e-07	-1.266847e-06	-1.286133e-08	-8.791838e+00	-8.454913e+02
7.300000e-07	-1.138267e-06	-1.235943e-08	-7.899501e+00	-8.128375e+02
7.400000e-07	-1.009088e-06	-1.185992e-08	-7.003011e+00	-7.792370e+02
7.500000e-07	-8.793958e-07	-1.134127e-08	-6.102953e+00	-7.446676e+02
7.600000e-07	-7.493258e-07	-1.079138e-08	-5.200275e+00	-7.091167e+02
7.700000e-07	-6.190004e-07	-1.022087e-08	-4.295825e+00	-6.725817e+02
7.800000e-07	-4.885361e-07	-9.651592e-09	-3.390411e+00	-6.350682e+02
7.900000e-07	-3.579640e-07	-9.079685e-09	-2.484248e+00	-5.965869e+02
8.000000e-07	-2.273097e-07	-8.484251e-09	-1.577515e+00	-5.571490e+02
8.100000e-07	-9.660865e-08	-7.857574e-09	-6.704581e-01	-5.167613e+02
8.200000e-07	3.411680e-08	-7.213240e-09	2.367685e-01	-4.754201e+02
8.300000e-07	1.648585e-07	-6.571407e-09	1.144108e+00	-4.331070e+02
8.400000e-07	2.955854e-07	-5.924816e-09	2.051345e+00	-3.897859e+02
8.500000e-07	4.262931e-07	-5.253492e-09	2.958448e+00	-3.454018e+02
8.600000e-07	5.569747e-07	-4.544964e-09	3.865370e+00	-2.998832e+02
8.700000e-07	6.875843e-07	-3.819974e-09	4.771793e+00	-2.531467e+02
8.800000e-07	8.180458e-07	-3.092682e-09	5.677188e+00	-2.051054e+02
8.900000e-07	9.483205e-07	-2.350036e-09	6.581287e+00	-1.556784e+02
9.000000e-07	1.078277e-06	-1.572925e-09	7.483174e+00	-1.048033e+02
9.100000e-07	1.207670e-06	-7.607079e-10	8.381154e+00	-5.244751e+01
9.200000e-07	1.336344e-06	6.550114e-11	9.274143e+00	1.379953e+00
9.300000e-07	1.464295e-06	8.962330e-10	1.016212e+01	5.661954e+01
9.400000e-07	1.591612e-06	1.743250e-09	1.104569e+01	1.131551e+02
9.500000e-07	1.718481e-06	2.624005e-09	1.192616e+01	1.708119e+02
9.600000e-07	1.844986e-06	3.528066e-09	1.280409e+01	2.293590e+02
9.700000e-07	1.970934e-06	4.433467e-09	1.367816e+01	2.885163e+02
9.800000e-07	2.096149e-06	5.331708e-09	1.454714e+01	3.479650e+02
9.900000e-07	2.220540e-06	6.233981e-09	1.541041e+01	4.073623e+02
1.000000e-06	2.344065e-06	7.144362e-09	1.626767e+01	4.663567e+02
1.010000e-06	2.466889e-06	8.043040e-09	1.712006e+01	5.246050e+02
1.020000e-06	2.589020e-06	8.914989e-09	1.796764e+01	5.817880e+02
1.030000e-06	2.709928e-06	9.753016e-09	1.880673e+01	6.376239e+02
1.040000e-06	2.829484e-06	1.056858e-08	1.963645e+01	6.918786e+02
1.050000e-06	2.948085e-06	1.136773e-08	2.045953e+01	7.443722e+02
1.060000e-06	3.065720e-06	1.214484e-08	2.127591e+01	7.949812e+02
1.070000e-06	3.182233e-06	1.288252e-08	2.208450e+01	8.436362e+02
1.080000e-06	3.297586e-06	1.358038e-08	2.288505e+01	8.903164e+02
1.090000e-06	3.411613e-06	1.425402e-08	2.367638e+01	9.350411e+02
1.100000e-06	3.524039e-06	1.491249e-08	2.445662e+01	9.778603e+02
1.110000e-06	3.635096e-06	1.554884e-08	2.522734e+01	1.018843e+03
1.120000e-06	3.745083e-06	1.614871e-08	2.599065e+01	1.058070e+03
1.130000e-06	3.853889e-06	1.671555e-08	2.674575e+01	1.095620e+03
1.140000e-06	3.961468e-06	1.725876e-08	2.749235e+01	1.131572e+03
1.150000e-06	4.067754e-06	1.778745e-08	2.822996e+01	1.165992e+03
1.160000e-06	4.172447e-06	1.829245e-08	2.895653e+01	1.198938e+03
1.170000e-06	4.275527e-06	1.876681e-08	2.967190e+01	1.230461e+03
1.180000e-06	4.377153e-06	1.921347e-08	3.037718e+01	1.260603e+03
1.190000e-06	4.477259e-06	1.964598e-08	3.107191e+01	1.289403e+03
1.200000e-06	4.575864e-06	2.006903e-08	3.175622e+01	1.316901e+03
1.210000e-06	4.672607e-06	2.047369e-08	3.242761e+01	1.343140e+03
1.220000e-06	4.767492e-06	2.085241e-08	3.308610e+01	1.368166e+03
1.230000e-06	4.860867e-06	2.120992e-08	3.373412e+01	1.392033e+03
1.240000e-06	4.952633e-06	2.155652e-08	3.437097e+01	1.414799e+03
1.250000e-06	5.042700e-06	2.189465e-08	3.499603e+01	1.436525e+03
1.260000e-06	5.130815e-06	2.221677e-08	3.560754e+01	1.457274e+03
1.270000e-06	5.216989e-06	2.251628e-08	3.620559e+01	1.477104e+03
1.280000e-06	5.301416e-06	2.279923e-08	3.679150e+01	1.496070e+03
1.290000e-06	5.384064e-06	2.307606e-08	3.736508e+01	1.514218e+03
1.300000e-06	5.464708e-06	2.334596e-08	3.792474e+01	1.531587e+03
1.310000e-06	5.543275e-06	2.360067e-08	3.846999e+01	1.548204e+03
1.320000e-06	5.619886e-06	2.383734e-08	3.900167e+01	1.564090e+03
1.330000e-06	5.694391e-06	2.406195e-08	3.951873e+01	1.579258e+03
1.340000e-06	5.766625e-06	2.428221e-08	4.002003e+01	1.593718e+03
1.350000e-06	5.836702e-06	2.449555e-08	4.050635e+01	1.607478e+03
1.360000e-06	5.904760e-06	2.469223e-08	4.097867e+01	1.620546e+03
1.370000e-06	5.970667e-06	2.487246e-08	4.143607e+01	1.632935e+03
1.380000e-06	6.034387e-06	2.504632e-08	4.187828e+01	1.644661e+03
1.390000e-06	6.096062e-06	2.521736e-08	4.230630e+01	1.655744e+03
1.400000e-06	6.155783e-06	2.538257e-08	4.272076e+01	1.666210e+03
1.410000e-06	6.213303e-06	2.553773e-08	4.311995e+01	1.676085e+03
1.420000e-06	6.268587e-06	2.568315e-08	4.350361e+01	1.685398e+03
1.430000e-06	6.321641e-06	2.582016e-08	4.387180e+01	1.694176e+03
1.440000e-06	6.372113e-06	2.595004e-08	4.422208e+01	1.702443e+03
1.450000e-06	6.419919e-06	2.607198e-08	4.455385e+01	1.710218e+03
1.460000e-06	6.465362e-06	2.618340e-08	4.486922e+01	1.717515e+03
1.470000e-06	6.508711e-06	2.628186e-08	4.517006e+01	1.724344e+03
1.480000e-06	6.549699e-06	2.637368e-08	4.545451e+01	1.730709e+03
1.490000e-06	6.588286e-06	2.646330e-08	4.572230e+01	1.736611e+03
1.500000e-06	6.624725e-06	2.654757e-08	4.597519e+01	1.742050e+03
1.510000e-06	6.658860e-06	2.662348e-08	4.621209e+01	1.747030e+03
1.520000e-06	6.690558e-06	2.669081e-08	4.643206e+01	1.751552e+03
1.530000e-06	6.719938e-06	2.675291e-08	4.663596e+01	1.755626e+03
1.540000e-06	6.747135e-06	2.681065e-08	4.682471e+01	1.759263e+03
1.550000e-06	6.771732e-06	2.686489e-08	4.699540e+01	1.762479e+03
1.560000e-06	6.793691e-06	2.691112e-08	4.714780e+01	1.765294e+03
1.570000e-06	6.813417e-06	2.694694e-08	4.728470e+01	1.767731e+03
1.580000e-06	6.830735e-06	2.697717e-08	4.740489e+01	1.769810e+03
1.590000e-06	6.845503e-06	2.700722e-08	4.750737e+01	1.771552e+03
1.600000e-06	6.857749e-06	2.703423e-08	4.759236e+01	1.772972e+03
1.610000e-06	6.867205e-06	2.705059e-08	4.765798e+01	1.774083e+03
1.620000e-06	6.874004e-06	2.705789e-08	4.770517e+01	1.774889e+03
1.630000e-06	6.878509e-06	2.706307e-08	4.773644e+01	1.775392e+03
1.640000e-06	6.880572e-06	2.706926e-08	4.775075e+01	1.775586e+03
1.650000e-06	6.880180e-06	2.707376e-08	4.774803e+01	1.775466e+03
1.660000e-06	6.877539e-06	2.705764e-08	4.772970e+01	1.775022e+03
1.670000e-06	6.872717e-06	2.703970e-08	4.769624e+01	1.774247e+03
1.680000e-06	6.865507e-06	2.702031e-08	4.764620e+01	1.773138e+03
1.690000e-06	6.855999e-06	2.700242e-08	4.758022e+01	1.771695e+03
1.700000e-06	6.844344e-06	2.698748e-08	4.749933e+01	1.769924e+03
1.710000e-06	6.830287e-06	2.696962e-08	4.740178e+01	1.767838e+03
1.720000e-06	6.813929e-06	2.696323e-08	4.728825e+01	1.765456e+03
1.730000e-06	6.795552e-06	2.688254e-08	4.716072e+01	1.762801e+03
1.740000e-06	6.774771e-06	2.673381e-08	4.701650e+01	1.759899e+03
1.750000e-06	6.750733e-06	2.674328e-08	4.684968e+01	1.756777e+03
1.760000e-06	6.723525e-06	2.673829e-08	4.666085e+01	1.753460e+03
1.770000e-06	6.693898e-06	2.668676e-08	4.645525e+01	1.749970e+03
1.780000e-06	6.662245e-06	2.675220e-08	4.623557e+01	1.746320e+03
1.790000e-06	6.629040e-06	2.658371e-08	4.600513e+01	1.742520e+03
1.800000e-06	6.594258e-06	2.631226e-08	4.576375e+01	1.738567e+03
1.810000e-06	6.557057e-06	2.648279e-08	4.550557e+01	1.734452e+03
1.820000e-06	6.517447e-06	2.634653e-08	4.523069e+01	1.730157e+03
1.830000e-06	6.475781e-06	2.630871e-08	4.494152e+01	1.725657e+03
1.840000e-06	6.431866e-06	2.639467e-08	4.463676e+01	1.720922e+03
1.850000e-06	6.385791e-06	2.602323e-08	4.431700e+01	1.715919e+03
1.860000e-06	6.337337e-06	2.612463e-08	4.398074e+01	1.710615e+03
1.870000e-06	6.286512e-06	2.606890e-08	4.362801e+01	1.704977e+03
1.880000e-06	6.233317e-06	2.589620e-08	4.325884e+01	1.698977e+03
1.890000e-06	6.177334e-06	2.587098e-08	4.287032e+01	1.692593e+03
1.900000e-06	6.118988e-06	2.557673e-08	4.246541e+01	1.685807e+03
1.910000e-06	6.058491e-06	2.562037e-08	4.204556e+01	1.678613e+03
1.920000e-06	5.995605e-06	2.553736e-08	4.160914e+01	1.671008e+03
1.930000e-06	5.930474e-06	2.534615e-08	4.115713e+01	1.662999e+03
1.940000e-06	5.863175e-06	2.527127e-08	4.069008e+01	1.654596e+03
1.950000e-06	5.793737e-06	2.500626e-08	4.020818e+01	1.645815e+03
1.960000e-06	5.721975e-06	2.499381e-08	3.971016e+01	1.636672e+03
1.970000e-06	5.647979e-06	2.482097e-08	3.919663e+01	1.627185e+03
1.980000e-06	5.571894e-06	2.471135e-08	3.866860e+01	1.617369e+03
1.990000e-06	5.493482e-06	2.455683e-08	3.812443e+01	1.607233e+03
2.000000e-06	5.413016e-06	2.428078e-08	3.756600e+01	1.596785e+03
2.010000e-06	5.330738e-06	2.422046e-08	3.699500e+01	1.586023e+03
2.020000e-06	5.246706e-06	2.404091e-08	3.641182e+01	1.574940e+03
2.030000e-06	5.160680e-06	2.391379e-08	3.581481e+01	1.563525e+03
2.040000e-06	5.072650e-06	2.365727e-08	3.520388e+01	1.551759e+03
2.050000e-06	4.982974e-06	2.343827e-08	3.458153e+01	1.539621e+03
2.060000e-06	4.891718e-06	2.330541e-08	3.394823e+01	1.527091e+03
2.070000e-06	4.798880e-06	2.312676e-08	3.330393e+01	1.514146e+03
2.080000e-06	4.704158e-06	2.293284e-08	3.264657e+01	1.500765e+03
2.090000e-06	4.607660e-06	2.263065e-08	3.197688e+01	1.486931e+03
2.100000e-06	4.509649e-06	2.242822e-08	3.129669e+01	1.472632e+03
2.110000e-06	4.410244e-06	2.224143e-08	3.060683e+01	1.457859e+03
2.120000e-06	4.309394e-06	2.206079e-08	2.990693e+01	1.442605e+03
2.130000e-06	4.206752e-06	2.179535e-08	2.919460e+01	1.426867e+03
2.140000e-06	4.102472e-06	2.149109e-08	2.847091e+01	1.410642e+03
2.150000e-06	3.996788e-06	2.124647e-08	2.773747e+01	1.393928e+03
2.160000e-06	3.889770e-06	2.102881e-08	2.699477e+01	1.376719e+03
2.170000e-06	3.781504e-06	2.079282e-08	2.624341e+01	1.359006e+03
2.180000e-06	3.671826e-06	2.046523e-08	2.548225e+01	1.340776e+03
2.190000e-06	3.560654e-06	2.014856e-08	2.471072e+01	1.322011e+03
2.200000e-06	3.448131e-06	1.986814e-08	2.392982e+01	1.302690e+03
2.210000e-06	3.334265e-06	1.961228e-08	2.313960e+01	1.282789e+03
2.220000e-06	3.219080e-06	1.929608e-08	2.234022e+01	1.262284e+03
2.230000e-06	3.102583e-06	1.894237e-08	2.153174e+01	1.241150e+03
2.240000e-06	2.984613e-06	1.858777e-08	2.071303e+01	1.219366e+03
2.250000e-06	2.865402e-06	1.826411e-08	1.988571e+01	1.196916e+03
2.260000e-06	2.745320e-06	1.793936e-08	1.905235e+01	1.173786e+03
2.270000e-06	2.624253e-06	1.757236e-08	1.821215e+01	1.149967e+03
2.280000e-06	2.502105e-06	1.718150e-08	1.736446e+01	1.125455e+03
2.290000e-06	2.379091e-06	1.678874e-08	1.651074e+01	1.100246e+03
2.300000e-06	2.255455e-06	1.640846e-08	1.565272e+01	1.074337e+03
2.310000e-06	2.131238e-06	1.600969e-08	1.479066e+01	1.047723e+03
2.320000e-06	2.006217e-06	1.559582e-08	1.392303e+01	1.020391e+03
2.330000e-06	1.880162e-06	1.516245e-08	1.304821e+01	9.923265e+02
2.340000e-06	1.753258e-06	1.471606e-08	1.216750e+01	9.635041e+02
2.350000e-06	1.625897e-06	1.425249e-08	1.128363e+01	9.338937e+02
2.360000e-06	1.498183e-06	1.378953e-08	1.039730e+01	9.034599e+02
2.370000e-06	1.370059e-06	1.332602e-08	9.508125e+00	8.721647e+02
2.380000e-06	1.241453e-06	1.283818e-08	8.615610e+00	8.399706e+02
2.390000e-06	1.112322e-06	1.231836e-08	7.719447e+00	8.068442e+02
2.400000e-06	9.827879e-07	1.178446e-08	6.820488e+00	7.727588e+02
2.410000e-06	8.530015e-07	1.126535e-08	5.919779e+00	7.376969e+02
2.420000e-06	7.229404e-07	1.074271e-08	5.017162e+00	7.016511e+02
2.430000e-06	5.926232e-07	1.018242e-08	4.112769e+00	6.646230e+02
2.440000e-06	4.621420e-07	9.577764e-09	3.207237e+00	6.266214e+02
2.450000e-06	3.315053e-07	8.967223e-09	2.300626e+00	5.876580e+02
2.460000e-06	2.007261e-07	8.378373e-09	1.393027e+00	5.477422e+02
2.470000e-06	6.986340e-08	7.779393e-09	4.848478e-01	5.068763e+02
2.480000e-06	-6.105195e-08	7.130742e-09	-4.236968e-01	4.650499e+02
2.490000e-06	-1.919609e-07	6.442917e-09	-1.332197e+00	4.222358e+02
2.500000e-06	-3.227991e-07	5.767031e-09	-2.240206e+00	3.783886e+02
2.510000e-06	-4.535595e-07	5.112326e-09	-3.147675e+00	3.334444e+02
2.520000e-06	-5.841696e-07	4.428582e-09	-4.054102e+00	2.873250e+02
2.530000e-06	-7.145519e-07	3.685797e-09	-4.958947e+00	2.399442e+02
2.540000e-06	-8.446906e-07	2.912881e-09	-5.862102e+00	1.912167e+02
2.550000e-06	-9.745545e-07	2.152428e-09	-6.763349e+00	1.410692e+02
2.560000e-06	-1.104101e-06	1.396716e-09	-7.662397e+00	8.945277e+01
2.570000e-06	-1.233247e-06	5.997570e-10	-8.558656e+00	3.635438e+01
2.580000e-06	-1.361887e-06	-2.505287e-10	-9.451414e+00	-1.819269e+01
2.590000e-06	-1.489949e-06	-1.119474e-09	-1.034016e+01	-7.410111e+01
2.600000e-06	-1.617574e-06	-1.976996e-09	-1.122586e+01	-1.312254e+02
2.610000e-06	-1.744871e-06	-2.837865e-09	-1.210930e+01	-1.893622e+02
2.620000e-06	-1.871613e-06	-3.736230e-09	-1.298888e+01	-2.482548e+02
2.630000e-06	-1.997496e-06	-4.667752e-09	-1.386250e+01	-3.076021e+02
2.640000e-06	-2.122245e-06	-5.594255e-09	-1.472825e+01	-3.670716e+02
2.650000e-06	-2.246008e-06	-6.490301e-09	-1.558716e+01	-4.263139e+02
2.660000e-06	-2.369094e-06	-7.371749e-09	-1.644137e+01	-4.849797e+02
2.670000e-06	-2.491386e-06	-8.258346e-09	-1.729007e+01	-5.427358e+02
2.680000e-06	-2.612682e-06	-9.137617e-09	-1.813186e+01	-5.992804e+02
2.690000e-06	-2.732928e-06	-9.983014e-09	-1.896636e+01	-6.543543e+02
2.700000e-06	-2.852290e-06	-1.078327e-08	-1.979472e+01	-7.077500e+02
2.710000e-06	-2.970621e-06	-1.155417e-08	-2.061593e+01	-7.593160e+02
2.720000e-06	-3.087494e-06	-1.231300e-08	-2.142702e+01	-8.089561e+02
2.730000e-06	-3.203037e-06	-1.305488e-08	-2.222888e+01	-8.566262e+02
2.740000e-06	-3.317412e-06	-1.376214e-08	-2.302264e+01	-9.023268e+02
2.750000e-06	-3.430489e-06	-1.442489e-08	-2.380739e+01	-9.460937e+02
2.760000e-06	-3.542095e-06	-1.505626e-08	-2.458193e+01	-9.879879e+02
2.770000e-06	-3.652312e-06	-1.567449e-08	-2.534682e+01	-1.028085e+03
2.780000e-06	-3.761297e-06	-1.627852e-08	-2.610317e+01	-1.066466e+03
2.790000e-06	-3.869121e-06	-1.685000e-08	-2.685146e+01	-1.103211e+03
2.800000e-06	-3.975835e-06	-1.737924e-08	-2.759205e+01	-1.138391e+03
2.810000e-06	-4.081193e-06	-1.788138e-08	-2.832323e+01	-1.172071e+03
2.820000e-06	-4.185071e-06	-1.837575e-08	-2.904414e+01	-1.204303e+03
2.830000e-06	-4.287314e-06	-1.885946e-08	-2.975370e+01	-1.235133e+03
2.840000e-06	-4.387835e-06	-1.931208e-08	-3.045131e+01	-1.264601e+03
2.850000e-06	-4.486907e-06	-1.972931e-08	-3.113886e+01	-1.292748e+03
2.860000e-06	-4.584581e-06	-2.012865e-08	-3.181672e+01	-1.319613e+03
2.870000e-06	-4.680663e-06	-2.052763e-08	-3.248351e+01	-1.345242e+03
2.880000e-06	-4.775003e-06	-2.091687e-08	-3.313823e+01	-1.369684e+03
2.890000e-06	-4.867519e-06	-2.127350e-08	-3.378028e+01	-1.392996e+03
2.900000e-06	-4.958389e-06	-2.159849e-08	-3.441092e+01	-1.415237e+03
2.910000e-06	-5.047544e-06	-2.191460e-08	-3.502965e+01	-1.436469e+03
2.920000e-06	-5.134790e-06	-2.223261e-08	-3.563513e+01	-1.456754e+03
2.930000e-06	-5.220025e-06	-2.254132e-08	-3.622665e+01	-1.476149e+03
2.940000e-06	-5.303330e-06	-2.282512e-08	-3.680479e+01	-1.494703e+03
