# Temperatura_=_20.0
# Concentracion g/m^3_=_12600.0
# C_Vs_to_Am_M_A/Vsm_=_65563218390.804596
# pendiente_HvsI_1/m_=_3716.3
# ordenada_HvsI_A/m_=_1297.0
# frecuencia_Hz_=_302086.7076688442

Tiempo_(s)	Campo_(V.s)	Magnetizacion_(V.s)	Campo_(kA/m)	Magnetizacion_(A/m)
0.000000e+00	-6.791532e-06	-2.690723e-08	-4.742511e+01	-1.762492e+03
1.000000e-08	-6.787547e-06	-2.689263e-08	-4.739728e+01	-1.761910e+03
2.000000e-08	-6.781457e-06	-2.687918e-08	-4.735475e+01	-1.760980e+03
3.000000e-08	-6.773220e-06	-2.686465e-08	-4.729724e+01	-1.759698e+03
4.000000e-08	-6.762543e-06	-2.683976e-08	-4.722268e+01	-1.758069e+03
5.000000e-08	-6.749320e-06	-2.681000e-08	-4.713034e+01	-1.756110e+03
6.000000e-08	-6.733619e-06	-2.677073e-08	-4.702070e+01	-1.753846e+03
7.000000e-08	-6.715639e-06	-2.672490e-08	-4.689515e+01	-1.751313e+03
8.000000e-08	-6.695598e-06	-2.672798e-08	-4.675520e+01	-1.748551e+03
9.000000e-08	-6.673207e-06	-2.674534e-08	-4.659885e+01	-1.745601e+03
1.000000e-07	-6.648041e-06	-2.665833e-08	-4.642311e+01	-1.742503e+03
1.100000e-07	-6.620224e-06	-2.654733e-08	-4.622887e+01	-1.739290e+03
1.200000e-07	-6.590121e-06	-2.646964e-08	-4.601866e+01	-1.735982e+03
1.300000e-07	-6.558005e-06	-2.637175e-08	-4.579440e+01	-1.732588e+03
1.400000e-07	-6.523995e-06	-2.632629e-08	-4.555690e+01	-1.729101e+03
1.500000e-07	-6.488115e-06	-2.643925e-08	-4.530635e+01	-1.725498e+03
1.600000e-07	-6.450238e-06	-2.625560e-08	-4.504186e+01	-1.721743e+03
1.700000e-07	-6.410249e-06	-2.611806e-08	-4.476262e+01	-1.717790e+03
1.800000e-07	-6.367879e-06	-2.620657e-08	-4.446675e+01	-1.713586e+03
1.900000e-07	-6.322983e-06	-2.604036e-08	-4.415324e+01	-1.709077e+03
2.000000e-07	-6.275760e-06	-2.600868e-08	-4.382349e+01	-1.704210e+03
2.100000e-07	-6.226020e-06	-2.591338e-08	-4.347615e+01	-1.698941e+03
2.200000e-07	-6.173661e-06	-2.574097e-08	-4.311053e+01	-1.693236e+03
2.300000e-07	-6.118948e-06	-2.571816e-08	-4.272847e+01	-1.687073e+03
2.400000e-07	-6.061905e-06	-2.562006e-08	-4.233014e+01	-1.680445e+03
2.500000e-07	-6.002533e-06	-2.553659e-08	-4.191555e+01	-1.673356e+03
2.600000e-07	-5.940991e-06	-2.539059e-08	-4.148580e+01	-1.665822e+03
2.700000e-07	-5.877283e-06	-2.520873e-08	-4.104093e+01	-1.657870e+03
2.800000e-07	-5.811374e-06	-2.513405e-08	-4.058069e+01	-1.649527e+03
2.900000e-07	-5.743293e-06	-2.504706e-08	-4.010528e+01	-1.640824e+03
3.000000e-07	-5.673076e-06	-2.492097e-08	-3.961496e+01	-1.631790e+03
3.100000e-07	-5.600605e-06	-2.470050e-08	-3.910890e+01	-1.622445e+03
3.200000e-07	-5.525831e-06	-2.455012e-08	-3.858675e+01	-1.612805e+03
3.300000e-07	-5.448807e-06	-2.444244e-08	-3.804889e+01	-1.602875e+03
3.400000e-07	-5.369589e-06	-2.429517e-08	-3.749571e+01	-1.592650e+03
3.500000e-07	-5.288362e-06	-2.414629e-08	-3.692850e+01	-1.582119e+03
3.600000e-07	-5.205372e-06	-2.392959e-08	-3.634899e+01	-1.571263e+03
3.700000e-07	-5.120685e-06	-2.375323e-08	-3.575762e+01	-1.560059e+03
3.800000e-07	-5.034305e-06	-2.360122e-08	-3.515443e+01	-1.548483e+03
3.900000e-07	-4.946225e-06	-2.343482e-08	-3.453937e+01	-1.536511e+03
4.000000e-07	-4.856403e-06	-2.322603e-08	-3.391215e+01	-1.524122e+03
4.100000e-07	-4.764871e-06	-2.299626e-08	-3.327298e+01	-1.511299e+03
4.200000e-07	-4.671683e-06	-2.280442e-08	-3.262225e+01	-1.498031e+03
4.300000e-07	-4.576900e-06	-2.262594e-08	-3.196038e+01	-1.484311e+03
4.400000e-07	-4.480470e-06	-2.242563e-08	-3.128702e+01	-1.470137e+03
4.500000e-07	-4.382343e-06	-2.217496e-08	-3.060180e+01	-1.455510e+03
4.600000e-07	-4.282617e-06	-2.192117e-08	-2.990541e+01	-1.440430e+03
4.700000e-07	-4.181364e-06	-2.170176e-08	-2.919837e+01	-1.424900e+03
4.800000e-07	-4.078646e-06	-2.148836e-08	-2.848109e+01	-1.408916e+03
4.900000e-07	-3.974411e-06	-2.124078e-08	-2.775322e+01	-1.392474e+03
5.000000e-07	-3.868679e-06	-2.095099e-08	-2.701489e+01	-1.375561e+03
5.100000e-07	-3.761529e-06	-2.066366e-08	-2.626667e+01	-1.358162e+03
5.200000e-07	-3.652957e-06	-2.040571e-08	-2.550851e+01	-1.340256e+03
5.300000e-07	-3.543145e-06	-2.015020e-08	-2.474170e+01	-1.321817e+03
5.400000e-07	-3.432138e-06	-1.985797e-08	-2.396654e+01	-1.302820e+03
5.500000e-07	-3.319759e-06	-1.953116e-08	-2.318180e+01	-1.283235e+03
5.600000e-07	-3.205856e-06	-1.921245e-08	-2.238642e+01	-1.263039e+03
5.700000e-07	-3.090544e-06	-1.891554e-08	-2.158119e+01	-1.242208e+03
5.800000e-07	-2.974008e-06	-1.860495e-08	-2.076743e+01	-1.220723e+03
5.900000e-07	-2.856385e-06	-1.825683e-08	-1.994607e+01	-1.198573e+03
6.000000e-07	-2.737795e-06	-1.788890e-08	-1.911796e+01	-1.175749e+03
6.100000e-07	-2.618187e-06	-1.752986e-08	-1.828274e+01	-1.152248e+03
6.200000e-07	-2.497531e-06	-1.717922e-08	-1.744020e+01	-1.128066e+03
6.300000e-07	-2.375814e-06	-1.681417e-08	-1.659026e+01	-1.103203e+03
6.400000e-07	-2.253181e-06	-1.641570e-08	-1.573391e+01	-1.077656e+03
6.500000e-07	-2.129858e-06	-1.599839e-08	-1.487275e+01	-1.051419e+03
6.600000e-07	-2.005779e-06	-1.558884e-08	-1.400630e+01	-1.024477e+03
6.700000e-07	-1.880924e-06	-1.518490e-08	-1.313445e+01	-9.968124e+02
6.800000e-07	-1.755501e-06	-1.475732e-08	-1.225862e+01	-9.683982e+02
6.900000e-07	-1.629604e-06	-1.429770e-08	-1.137949e+01	-9.392022e+02
7.000000e-07	-1.503206e-06	-1.382729e-08	-1.049685e+01	-9.091878e+02
7.100000e-07	-1.376276e-06	-1.335616e-08	-9.610500e+00	-8.783167e+02
7.200000e-07	-1.248864e-06	-1.288159e-08	-8.720789e+00	-8.465516e+02
7.300000e-07	-1.121005e-06	-1.238792e-08	-7.827950e+00	-8.138594e+02
7.400000e-07	-9.927666e-07	-1.186831e-08	-6.932466e+00	-7.802134e+02
7.500000e-07	-8.641671e-07	-1.133007e-08	-6.034458e+00	-7.455958e+02
7.600000e-07	-7.352008e-07	-1.078769e-08	-5.133890e+00	-7.099973e+02
7.700000e-07	-6.059470e-07	-1.024275e-08	-4.231314e+00	-6.734170e+02
7.800000e-07	-4.764683e-07	-9.680457e-09	-3.327167e+00	-6.358597e+02
7.900000e-07	-3.467900e-07	-9.089799e-09	-2.421626e+00	-5.973327e+02
8.000000e-07	-2.169401e-07	-8.477079e-09	-1.514888e+00	-5.578408e+02
8.100000e-07	-8.697991e-08	-7.860148e-09	-6.073787e-01	-5.173819e+02
8.200000e-07	4.308313e-08	-7.237723e-09	3.008484e-01	-4.759423e+02
8.300000e-07	1.731920e-07	-6.594683e-09	1.209396e+00	-4.334928e+02
8.400000e-07	3.032574e-07	-5.920748e-09	2.117640e+00	-3.899872e+02
8.500000e-07	4.332744e-07	-5.228689e-09	3.025545e+00	-3.453627e+02
8.600000e-07	5.631732e-07	-4.531055e-09	3.932625e+00	-2.995425e+02
8.700000e-07	6.928548e-07	-3.823580e-09	4.838189e+00	-2.524419e+02
8.800000e-07	8.223087e-07	-3.088907e-09	5.742162e+00	-2.039763e+02
8.900000e-07	9.514442e-07	-2.317586e-09	6.643912e+00	-1.540712e+02
9.000000e-07	1.080150e-06	-1.523884e-09	7.542665e+00	-1.026737e+02
9.100000e-07	1.208358e-06	-7.216497e-10	8.437938e+00	-4.976341e+01
9.200000e-07	1.336059e-06	9.274468e-11	9.329666e+00	4.636781e+00
9.300000e-07	1.463281e-06	9.386351e-10	1.021806e+01	6.045288e+01
9.400000e-07	1.590013e-06	1.818698e-09	1.110303e+01	1.175546e+02
9.500000e-07	1.716239e-06	2.714478e-09	1.198445e+01	1.757541e+02
9.600000e-07	1.841915e-06	3.609397e-09	1.286205e+01	2.348091e+02
9.700000e-07	1.966965e-06	4.508825e-09	1.373527e+01	2.944299e+02
9.800000e-07	2.091264e-06	5.425053e-09	1.460325e+01	3.542903e+02
9.900000e-07	2.214782e-06	6.350125e-09	1.546577e+01	4.140418e+02
1.000000e-06	2.337601e-06	7.261915e-09	1.632342e+01	4.733290e+02
1.010000e-06	2.459677e-06	8.145449e-09	1.717586e+01	5.318061e+02
1.020000e-06	2.580769e-06	9.010078e-09	1.802145e+01	5.891523e+02
1.030000e-06	2.700675e-06	9.861835e-09	1.885875e+01	6.450853e+02
1.040000e-06	2.819514e-06	1.069310e-08	1.968860e+01	6.993718e+02
1.050000e-06	2.937415e-06	1.148879e-08	2.051190e+01	7.518335e+02
1.060000e-06	3.054222e-06	1.224614e-08	2.132756e+01	8.023497e+02
1.070000e-06	3.169843e-06	1.297673e-08	2.213494e+01	8.508552e+02
1.080000e-06	3.284270e-06	1.368684e-08	2.293398e+01	8.973348e+02
1.090000e-06	3.397344e-06	1.437146e-08	2.372357e+01	9.418151e+02
1.100000e-06	3.509024e-06	1.501979e-08	2.450343e+01	9.843539e+02
1.110000e-06	3.619494e-06	1.563376e-08	2.527484e+01	1.025030e+03
1.120000e-06	3.728768e-06	1.622320e-08	2.603790e+01	1.063932e+03
1.130000e-06	3.836822e-06	1.679570e-08	2.679244e+01	1.101149e+03
1.140000e-06	3.943702e-06	1.734499e-08	2.753878e+01	1.136767e+03
1.150000e-06	4.049262e-06	1.786206e-08	2.827590e+01	1.170860e+03
1.160000e-06	4.153251e-06	1.834829e-08	2.900205e+01	1.203491e+03
1.170000e-06	4.255681e-06	1.881663e-08	2.971732e+01	1.234711e+03
1.180000e-06	4.356604e-06	1.927230e-08	3.042206e+01	1.264564e+03
1.190000e-06	4.456004e-06	1.970806e-08	3.111617e+01	1.293088e+03
1.200000e-06	4.553840e-06	2.011735e-08	3.179936e+01	1.320320e+03
1.210000e-06	4.649897e-06	2.050541e-08	3.247012e+01	1.346300e+03
1.220000e-06	4.744187e-06	2.088285e-08	3.312854e+01	1.371072e+03
1.230000e-06	4.836889e-06	2.125122e-08	3.377588e+01	1.394686e+03
1.240000e-06	4.928014e-06	2.160042e-08	3.441220e+01	1.417199e+03
1.250000e-06	5.017346e-06	2.192461e-08	3.503601e+01	1.438672e+03
1.260000e-06	5.104757e-06	2.223263e-08	3.564640e+01	1.459168e+03
1.270000e-06	5.190368e-06	2.253408e-08	3.624422e+01	1.478749e+03
1.280000e-06	5.274231e-06	2.282679e-08	3.682983e+01	1.497471e+03
1.290000e-06	5.356226e-06	2.310083e-08	3.740240e+01	1.515385e+03
1.300000e-06	5.436207e-06	2.335464e-08	3.796090e+01	1.532531e+03
1.310000e-06	5.514149e-06	2.359752e-08	3.850517e+01	1.548939e+03
1.320000e-06	5.590127e-06	2.383806e-08	3.903572e+01	1.564631e+03
1.330000e-06	5.664017e-06	2.407153e-08	3.955169e+01	1.579619e+03
1.340000e-06	5.735661e-06	2.428765e-08	4.005199e+01	1.593912e+03
1.350000e-06	5.805172e-06	2.448581e-08	4.053738e+01	1.607515e+03
1.360000e-06	5.872668e-06	2.467593e-08	4.100870e+01	1.620435e+03
1.370000e-06	5.938003e-06	2.486352e-08	4.146494e+01	1.632681e+03
1.380000e-06	6.001182e-06	2.504296e-08	4.190611e+01	1.644267e+03
1.390000e-06	6.062364e-06	2.520792e-08	4.233334e+01	1.655213e+03
1.400000e-06	6.121559e-06	2.536360e-08	4.274671e+01	1.665544e+03
1.410000e-06	6.178596e-06	2.551728e-08	4.314499e+01	1.675289e+03
1.420000e-06	6.233402e-06	2.566738e-08	4.352770e+01	1.684479e+03
1.430000e-06	6.285913e-06	2.580725e-08	4.389438e+01	1.693142e+03
1.440000e-06	6.335832e-06	2.593206e-08	4.424297e+01	1.701305e+03
1.450000e-06	6.383210e-06	2.604425e-08	4.457380e+01	1.708989e+03
1.460000e-06	6.428332e-06	2.615130e-08	4.488889e+01	1.716209e+03
1.470000e-06	6.471291e-06	2.625508e-08	4.518887e+01	1.722971e+03
1.480000e-06	6.511863e-06	2.634990e-08	4.547218e+01	1.729280e+03
1.490000e-06	6.550031e-06	2.643379e-08	4.573871e+01	1.735132e+03
1.500000e-06	6.586057e-06	2.651029e-08	4.599028e+01	1.740525e+03
1.510000e-06	6.619834e-06	2.658463e-08	4.622614e+01	1.745457e+03
1.520000e-06	6.651202e-06	2.665686e-08	4.644519e+01	1.749927e+03
1.530000e-06	6.680292e-06	2.672194e-08	4.664832e+01	1.753942e+03
1.540000e-06	6.707050e-06	2.677699e-08	4.683517e+01	1.757515e+03
1.550000e-06	6.731271e-06	2.682433e-08	4.700431e+01	1.760663e+03
1.560000e-06	6.753039e-06	2.686890e-08	4.715631e+01	1.763410e+03
1.570000e-06	6.772601e-06	2.690991e-08	4.729291e+01	1.765783e+03
1.580000e-06	6.789761e-06	2.694361e-08	4.741274e+01	1.767808e+03
1.590000e-06	6.804241e-06	2.696861e-08	4.751385e+01	1.769509e+03
1.600000e-06	6.816110e-06	2.698798e-08	4.759673e+01	1.770908e+03
1.610000e-06	6.825313e-06	2.700395e-08	4.766100e+01	1.772015e+03
1.620000e-06	6.831942e-06	2.701639e-08	4.770729e+01	1.772835e+03
1.630000e-06	6.836261e-06	2.702319e-08	4.773745e+01	1.773366e+03
1.640000e-06	6.838166e-06	2.702473e-08	4.775075e+01	1.773597e+03
1.650000e-06	6.837581e-06	2.702303e-08	4.774667e+01	1.773513e+03
1.660000e-06	6.834749e-06	2.701061e-08	4.772689e+01	1.773099e+03
1.670000e-06	6.829770e-06	2.699957e-08	4.769212e+01	1.772341e+03
1.680000e-06	6.822485e-06	2.698167e-08	4.764125e+01	1.771233e+03
1.690000e-06	6.812948e-06	2.695953e-08	4.757465e+01	1.769773e+03
1.700000e-06	6.801270e-06	2.694043e-08	4.749311e+01	1.767974e+03
1.710000e-06	6.787136e-06	2.692518e-08	4.739441e+01	1.765856e+03
1.720000e-06	6.770648e-06	2.691688e-08	4.727927e+01	1.763451e+03
1.730000e-06	6.752172e-06	2.683075e-08	4.715026e+01	1.760795e+03
1.740000e-06	6.731207e-06	2.673069e-08	4.700386e+01	1.757931e+03
1.750000e-06	6.707037e-06	2.672107e-08	4.683508e+01	1.754900e+03
1.760000e-06	6.679957e-06	2.669834e-08	4.664598e+01	1.751739e+03
1.770000e-06	6.650496e-06	2.667938e-08	4.644025e+01	1.748474e+03
1.780000e-06	6.618960e-06	2.671520e-08	4.622004e+01	1.745121e+03
1.790000e-06	6.585861e-06	2.648464e-08	4.598891e+01	1.741680e+03
1.800000e-06	6.551066e-06	2.632395e-08	4.574594e+01	1.738136e+03
1.810000e-06	6.513879e-06	2.648492e-08	4.548627e+01	1.734459e+03
1.820000e-06	6.474387e-06	2.636659e-08	4.521049e+01	1.730609e+03
1.830000e-06	6.432814e-06	2.640852e-08	4.492019e+01	1.726535e+03
1.840000e-06	6.389008e-06	2.634733e-08	4.461429e+01	1.722183e+03
1.850000e-06	6.343049e-06	2.609846e-08	4.429336e+01	1.717498e+03
1.860000e-06	6.294733e-06	2.624356e-08	4.395597e+01	1.712433e+03
1.870000e-06	6.244075e-06	2.611546e-08	4.360223e+01	1.706947e+03
1.880000e-06	6.190982e-06	2.596483e-08	4.323148e+01	1.701013e+03
1.890000e-06	6.135124e-06	2.583355e-08	4.284143e+01	1.694615e+03
1.900000e-06	6.076899e-06	2.564123e-08	4.243484e+01	1.687752e+03
1.910000e-06	6.016485e-06	2.573452e-08	4.201297e+01	1.680436e+03
1.920000e-06	5.953828e-06	2.556368e-08	4.157544e+01	1.672687e+03
1.930000e-06	5.888998e-06	2.537247e-08	4.112274e+01	1.664533e+03
1.940000e-06	5.822005e-06	2.523568e-08	4.065492e+01	1.656004e+03
1.950000e-06	5.752856e-06	2.507457e-08	4.017206e+01	1.647130e+03
1.960000e-06	5.681338e-06	2.506011e-08	3.967265e+01	1.637935e+03
1.970000e-06	5.607662e-06	2.485808e-08	3.915817e+01	1.628439e+03
1.980000e-06	5.531911e-06	2.473003e-08	3.862921e+01	1.618652e+03
1.990000e-06	5.453858e-06	2.452487e-08	3.808416e+01	1.608573e+03
2.000000e-06	5.373705e-06	2.434993e-08	3.752446e+01	1.598194e+03
2.010000e-06	5.291698e-06	2.428551e-08	3.695180e+01	1.587501e+03
2.020000e-06	5.207999e-06	2.408746e-08	3.636733e+01	1.576471e+03
2.030000e-06	5.122400e-06	2.390531e-08	3.576960e+01	1.565082e+03
2.040000e-06	5.034783e-06	2.364356e-08	3.515777e+01	1.553308e+03
2.050000e-06	4.945442e-06	2.349873e-08	3.453391e+01	1.541127e+03
2.060000e-06	4.854582e-06	2.337319e-08	3.389943e+01	1.528520e+03
2.070000e-06	4.762122e-06	2.317093e-08	3.325378e+01	1.515474e+03
2.080000e-06	4.667897e-06	2.291110e-08	3.259581e+01	1.501978e+03
2.090000e-06	4.571953e-06	2.263999e-08	3.192584e+01	1.488029e+03
2.100000e-06	4.474433e-06	2.248969e-08	3.124486e+01	1.473625e+03
2.110000e-06	4.375561e-06	2.231241e-08	3.055444e+01	1.458769e+03
2.120000e-06	4.275240e-06	2.207625e-08	2.985390e+01	1.443462e+03
2.130000e-06	4.173193e-06	2.176061e-08	2.914131e+01	1.427703e+03
2.140000e-06	4.069456e-06	2.150007e-08	2.841691e+01	1.411489e+03
2.150000e-06	3.964261e-06	2.131057e-08	2.768234e+01	1.394810e+03
2.160000e-06	3.857791e-06	2.108963e-08	2.693887e+01	1.377654e+03
2.170000e-06	3.750058e-06	2.078055e-08	2.618656e+01	1.360002e+03
2.180000e-06	3.640967e-06	2.043162e-08	2.542479e+01	1.341830e+03
2.190000e-06	3.530470e-06	2.016441e-08	2.465319e+01	1.323113e+03
2.200000e-06	3.418610e-06	1.993436e-08	2.387207e+01	1.303823e+03
2.210000e-06	3.305379e-06	1.965287e-08	2.308138e+01	1.283933e+03
2.220000e-06	3.190900e-06	1.928330e-08	2.228198e+01	1.263419e+03
2.230000e-06	3.075158e-06	1.892510e-08	2.147376e+01	1.242261e+03
2.240000e-06	2.958046e-06	1.861812e-08	2.065597e+01	1.220443e+03
2.250000e-06	2.839692e-06	1.832141e-08	1.982950e+01	1.197954e+03
2.260000e-06	2.720251e-06	1.796410e-08	1.899545e+01	1.174789e+03
2.270000e-06	2.599796e-06	1.755987e-08	1.815431e+01	1.150945e+03
2.280000e-06	2.478298e-06	1.717346e-08	1.730590e+01	1.126421e+03
2.290000e-06	2.355968e-06	1.681556e-08	1.645167e+01	1.101214e+03
2.300000e-06	2.232983e-06	1.644465e-08	1.559286e+01	1.075321e+03
2.310000e-06	2.109352e-06	1.602696e-08	1.472956e+01	1.048730e+03
2.320000e-06	1.985069e-06	1.559014e-08	1.386169e+01	1.021428e+03
2.330000e-06	1.859960e-06	1.515842e-08	1.298806e+01	9.933894e+02
2.340000e-06	1.734042e-06	1.473222e-08	1.210878e+01	9.645861e+02
2.350000e-06	1.607446e-06	1.428718e-08	1.122476e+01	9.349832e+02
2.360000e-06	1.480308e-06	1.381969e-08	1.033695e+01	9.045428e+02
2.370000e-06	1.352772e-06	1.333089e-08	9.446375e+00	8.732267e+02
2.380000e-06	1.224846e-06	1.283038e-08	8.553072e+00	8.409993e+02
2.390000e-06	1.096578e-06	1.233034e-08	7.657381e+00	8.078306e+02
2.400000e-06	9.679716e-07	1.182637e-08	6.759323e+00	7.736980e+02
2.410000e-06	8.389593e-07	1.130064e-08	5.858433e+00	7.385881e+02
2.420000e-06	7.096456e-07	1.073912e-08	4.955439e+00	7.024959e+02
2.430000e-06	5.800734e-07	1.015994e-08	4.050639e+00	6.654238e+02
2.440000e-06	4.502956e-07	9.584877e-09	3.144404e+00	6.273783e+02
2.450000e-06	3.203640e-07	9.008303e-09	2.237094e+00	5.883661e+02
2.460000e-06	1.902460e-07	8.401912e-09	1.328484e+00	5.483891e+02
2.470000e-06	6.006160e-08	7.755144e-09	4.194087e-01	5.074400e+02
2.480000e-06	-7.011793e-08	7.097092e-09	-4.896319e-01	4.654976e+02
2.490000e-06	-2.002668e-07	6.452241e-09	-1.398458e+00	4.225244e+02
2.500000e-06	-3.303588e-07	5.803227e-09	-2.306888e+00	3.784657e+02
2.510000e-06	-4.603824e-07	5.110458e-09	-3.214839e+00	3.332512e+02
2.520000e-06	-5.902396e-07	4.374797e-09	-4.121629e+00	2.867991e+02
2.530000e-06	-7.198632e-07	3.637654e-09	-5.026788e+00	2.390237e+02
2.540000e-06	-8.492562e-07	2.910408e-09	-5.930336e+00	1.898441e+02
2.550000e-06	-9.783938e-07	2.157011e-09	-6.832101e+00	1.391952e+02
2.560000e-06	-1.107114e-06	1.348922e-09	-7.730953e+00	8.703887e+01
2.570000e-06	-1.235354e-06	5.093891e-10	-8.626449e+00	3.337528e+01
2.580000e-06	-1.363198e-06	-3.239195e-10	-9.519180e+00	-2.174804e+01
2.590000e-06	-1.490643e-06	-1.156569e-09	-1.040912e+01	-7.822932e+01
2.600000e-06	-1.617682e-06	-2.025325e-09	-1.129624e+01	-1.359094e+02
2.610000e-06	-1.744147e-06	-2.938485e-09	-1.217934e+01	-1.945726e+02
2.620000e-06	-1.869772e-06	-3.863908e-09	-1.305657e+01	-2.539518e+02
2.630000e-06	-1.994505e-06	-4.772146e-09	-1.392758e+01	-3.137374e+02
2.640000e-06	-2.118384e-06	-5.671260e-09	-1.479263e+01	-3.735902e+02
2.650000e-06	-2.241479e-06	-6.583897e-09	-1.565220e+01	-4.331562e+02
2.660000e-06	-2.363869e-06	-7.505410e-09	-1.650684e+01	-4.920828e+02
2.670000e-06	-2.485362e-06	-8.403106e-09	-1.735522e+01	-5.500349e+02
2.680000e-06	-2.605776e-06	-9.254798e-09	-1.819607e+01	-6.067094e+02
2.690000e-06	-2.725260e-06	-1.007670e-08	-1.903043e+01	-6.618475e+02
2.700000e-06	-2.843726e-06	-1.089091e-08	-1.985767e+01	-7.152427e+02
2.710000e-06	-2.960939e-06	-1.169096e-08	-2.067616e+01	-7.667457e+02
2.720000e-06	-3.076871e-06	-1.245112e-08	-2.148572e+01	-8.162638e+02
2.730000e-06	-3.191560e-06	-1.316350e-08	-2.228659e+01	-8.637580e+02
2.740000e-06	-3.305012e-06	-1.384820e-08	-2.307882e+01	-9.092349e+02
2.750000e-06	-3.417057e-06	-1.452196e-08	-2.386123e+01	-9.527381e+02
2.760000e-06	-3.527733e-06	-1.517749e-08	-2.463408e+01	-9.943373e+02
2.770000e-06	-3.637216e-06	-1.579488e-08	-2.539859e+01	-1.034117e+03
2.780000e-06	-3.745562e-06	-1.637106e-08	-2.615517e+01	-1.072168e+03
2.790000e-06	-3.852815e-06	-1.692192e-08	-2.690411e+01	-1.108579e+03
2.800000e-06	-3.958847e-06	-1.746278e-08	-2.764454e+01	-1.143428e+03
2.810000e-06	-4.063417e-06	-1.798739e-08	-2.837475e+01	-1.176785e+03
2.820000e-06	-4.166418e-06	-1.847554e-08	-2.909400e+01	-1.208707e+03
2.830000e-06	-4.267762e-06	-1.892674e-08	-2.980168e+01	-1.239241e+03
2.840000e-06	-4.367598e-06	-1.936096e-08	-3.049883e+01	-1.268428e+03
2.850000e-06	-4.466064e-06	-1.979249e-08	-3.118642e+01	-1.296304e+03
2.860000e-06	-4.563035e-06	-2.021002e-08	-3.186357e+01	-1.322907e+03
2.870000e-06	-4.658411e-06	-2.059512e-08	-3.252957e+01	-1.348279e+03
2.880000e-06	-4.752023e-06	-2.095206e-08	-3.318326e+01	-1.372468e+03
2.890000e-06	-4.843912e-06	-2.129980e-08	-3.382492e+01	-1.395527e+03
2.900000e-06	-4.934141e-06	-2.164520e-08	-3.445499e+01	-1.417514e+03
2.910000e-06	-5.022590e-06	-2.197552e-08	-3.507263e+01	-1.438494e+03
2.920000e-06	-5.109128e-06	-2.227790e-08	-3.567692e+01	-1.458527e+03
2.930000e-06	-5.193687e-06	-2.256176e-08	-3.626739e+01	-1.477674e+03
2.940000e-06	-5.276428e-06	-2.284392e-08	-3.684517e+01	-1.495989e+03
