# Temperatura_=_20.0
# Concentracion g/m^3_=_12600.0
# C_Vs_to_Am_M_A/Vsm_=_65563218390.804596
# pendiente_HvsI_1/m_=_3716.3
# ordenada_HvsI_A/m_=_1297.0
# frecuencia_Hz_=_302084.8361285044

Tiempo_(s)	Campo_(V.s)	Magnetizacion_(V.s)	Campo_(kA/m)	Magnetizacion_(A/m)
0.000000e+00	-6.741786e-06	-2.671811e-08	-4.742436e+01	-1.748742e+03
1.000000e-08	-6.737763e-06	-2.670697e-08	-4.739605e+01	-1.748165e+03
2.000000e-08	-6.731663e-06	-2.669373e-08	-4.735314e+01	-1.747231e+03
3.000000e-08	-6.723441e-06	-2.667696e-08	-4.729531e+01	-1.745933e+03
4.000000e-08	-6.712797e-06	-2.664928e-08	-4.722043e+01	-1.744275e+03
5.000000e-08	-6.699609e-06	-2.661931e-08	-4.712766e+01	-1.742275e+03
6.000000e-08	-6.683955e-06	-2.657882e-08	-4.701755e+01	-1.739960e+03
7.000000e-08	-6.666093e-06	-2.652708e-08	-4.689190e+01	-1.737368e+03
8.000000e-08	-6.646212e-06	-2.652818e-08	-4.675205e+01	-1.734546e+03
9.000000e-08	-6.623952e-06	-2.656367e-08	-4.659546e+01	-1.731540e+03
1.000000e-07	-6.598923e-06	-2.647334e-08	-4.641940e+01	-1.728395e+03
1.100000e-07	-6.571210e-06	-2.635202e-08	-4.622445e+01	-1.725148e+03
1.200000e-07	-6.541205e-06	-2.627297e-08	-4.601339e+01	-1.721824e+03
1.300000e-07	-6.509285e-06	-2.616225e-08	-4.578885e+01	-1.718429e+03
1.400000e-07	-6.475511e-06	-2.611087e-08	-4.555127e+01	-1.714956e+03
1.500000e-07	-6.439831e-06	-2.626310e-08	-4.530028e+01	-1.711379e+03
1.600000e-07	-6.402091e-06	-2.606937e-08	-4.503481e+01	-1.707655e+03
1.700000e-07	-6.362352e-06	-2.588897e-08	-4.475527e+01	-1.703733e+03
1.800000e-07	-6.320338e-06	-2.601210e-08	-4.445973e+01	-1.699553e+03
1.900000e-07	-6.275737e-06	-2.582131e-08	-4.414598e+01	-1.695055e+03
2.000000e-07	-6.228943e-06	-2.578457e-08	-4.381682e+01	-1.690183e+03
2.100000e-07	-6.179620e-06	-2.571312e-08	-4.346986e+01	-1.684890e+03
2.200000e-07	-6.127557e-06	-2.551001e-08	-4.310363e+01	-1.679142e+03
2.300000e-07	-6.073158e-06	-2.549536e-08	-4.272096e+01	-1.672919e+03
2.400000e-07	-6.016435e-06	-2.541024e-08	-4.232195e+01	-1.666218e+03
2.500000e-07	-5.957414e-06	-2.532268e-08	-4.190678e+01	-1.659048e+03
2.600000e-07	-5.896205e-06	-2.516802e-08	-4.147621e+01	-1.651432e+03
2.700000e-07	-5.832907e-06	-2.498463e-08	-4.103095e+01	-1.643399e+03
2.800000e-07	-5.767449e-06	-2.491935e-08	-4.057049e+01	-1.634984e+03
2.900000e-07	-5.699778e-06	-2.482562e-08	-4.009446e+01	-1.626219e+03
3.000000e-07	-5.630029e-06	-2.470228e-08	-3.960382e+01	-1.617134e+03
3.100000e-07	-5.558114e-06	-2.446903e-08	-3.909794e+01	-1.607750e+03
3.200000e-07	-5.483955e-06	-2.430535e-08	-3.857628e+01	-1.598079e+03
3.300000e-07	-5.407527e-06	-2.421599e-08	-3.803866e+01	-1.588126e+03
3.400000e-07	-5.328920e-06	-2.406842e-08	-3.748570e+01	-1.577881e+03
3.500000e-07	-5.248232e-06	-2.391502e-08	-3.691811e+01	-1.567332e+03
3.600000e-07	-5.165663e-06	-2.369371e-08	-3.633729e+01	-1.556457e+03
3.700000e-07	-5.081440e-06	-2.351754e-08	-3.574483e+01	-1.545235e+03
3.800000e-07	-4.995563e-06	-2.336890e-08	-3.514074e+01	-1.533640e+03
3.900000e-07	-4.908069e-06	-2.320070e-08	-3.452527e+01	-1.521652e+03
4.000000e-07	-4.818958e-06	-2.299287e-08	-3.389843e+01	-1.509253e+03
4.100000e-07	-4.728054e-06	-2.276181e-08	-3.325898e+01	-1.496428e+03
4.200000e-07	-4.635391e-06	-2.257737e-08	-3.260715e+01	-1.483170e+03
4.300000e-07	-4.541179e-06	-2.239984e-08	-3.194442e+01	-1.469473e+03
4.400000e-07	-4.445375e-06	-2.219408e-08	-3.127050e+01	-1.455336e+03
4.500000e-07	-4.347886e-06	-2.193975e-08	-3.058472e+01	-1.440757e+03
4.600000e-07	-4.248740e-06	-2.168787e-08	-2.988730e+01	-1.425737e+03
4.700000e-07	-4.148085e-06	-2.147597e-08	-2.917925e+01	-1.410272e+03
4.800000e-07	-4.046080e-06	-2.126063e-08	-2.846171e+01	-1.394357e+03
4.900000e-07	-3.942656e-06	-2.100604e-08	-2.773418e+01	-1.377980e+03
5.000000e-07	-3.837732e-06	-2.071426e-08	-2.699610e+01	-1.361128e+03
5.100000e-07	-3.731254e-06	-2.043650e-08	-2.624710e+01	-1.343783e+03
5.200000e-07	-3.623369e-06	-2.018609e-08	-2.548819e+01	-1.325922e+03
5.300000e-07	-3.514328e-06	-1.992863e-08	-2.472115e+01	-1.307522e+03
5.400000e-07	-3.404083e-06	-1.963326e-08	-2.394565e+01	-1.288559e+03
5.500000e-07	-3.292475e-06	-1.930832e-08	-2.316055e+01	-1.269011e+03
5.600000e-07	-3.179577e-06	-1.899750e-08	-2.236638e+01	-1.248858e+03
5.700000e-07	-3.065376e-06	-1.870166e-08	-2.156305e+01	-1.228081e+03
5.800000e-07	-2.949724e-06	-1.838405e-08	-2.074951e+01	-1.206669e+03
5.900000e-07	-2.832837e-06	-1.803021e-08	-1.992728e+01	-1.184612e+03
6.000000e-07	-2.714965e-06	-1.766782e-08	-1.909813e+01	-1.161903e+03
6.100000e-07	-2.596132e-06	-1.731762e-08	-1.826220e+01	-1.138539e+03
6.200000e-07	-2.476312e-06	-1.696847e-08	-1.741935e+01	-1.114516e+03
6.300000e-07	-2.355575e-06	-1.660166e-08	-1.657004e+01	-1.089832e+03
6.400000e-07	-2.233989e-06	-1.620608e-08	-1.571475e+01	-1.064478e+03
6.500000e-07	-2.111543e-06	-1.580063e-08	-1.485341e+01	-1.038446e+03
6.600000e-07	-1.988208e-06	-1.539958e-08	-1.398583e+01	-1.011718e+03
6.700000e-07	-1.864119e-06	-1.499375e-08	-1.311294e+01	-9.842750e+02
6.800000e-07	-1.739500e-06	-1.456112e-08	-1.223632e+01	-9.560903e+02
6.900000e-07	-1.614389e-06	-1.410283e-08	-1.135624e+01	-9.271337e+02
7.000000e-07	-1.488747e-06	-1.364256e-08	-1.047243e+01	-8.973721e+02
7.100000e-07	-1.362638e-06	-1.318155e-08	-9.585325e+00	-8.667720e+02
7.200000e-07	-1.236169e-06	-1.270871e-08	-8.695693e+00	-8.353015e+02
7.300000e-07	-1.109301e-06	-1.221401e-08	-7.803255e+00	-8.029329e+02
7.400000e-07	-9.819622e-07	-1.170302e-08	-6.907506e+00	-7.696448e+02
7.500000e-07	-8.541911e-07	-1.117943e-08	-6.008714e+00	-7.354230e+02
7.600000e-07	-7.260564e-07	-1.064483e-08	-5.107364e+00	-7.002615e+02
7.700000e-07	-5.976627e-07	-1.009853e-08	-4.204193e+00	-6.641615e+02
7.800000e-07	-4.691249e-07	-9.536827e-09	-3.300008e+00	-6.271293e+02
7.900000e-07	-3.404985e-07	-8.955941e-09	-2.395199e+00	-5.891740e+02
8.000000e-07	-2.117802e-07	-8.358333e-09	-1.489744e+00	-5.503029e+02
8.100000e-07	-8.301673e-08	-7.753125e-09	-5.839721e-01	-5.105181e+02
8.200000e-07	4.578440e-08	-7.137860e-09	3.220653e-01	-4.698117e+02
8.300000e-07	1.746176e-07	-6.505543e-09	1.228328e+00	-4.281627e+02
8.400000e-07	3.034131e-07	-5.849881e-09	2.134326e+00	-3.855349e+02
8.500000e-07	4.321296e-07	-5.177872e-09	3.039768e+00	-3.418762e+02
8.600000e-07	5.607822e-07	-4.494094e-09	3.944761e+00	-2.971211e+02
8.700000e-07	6.893461e-07	-3.798247e-09	4.849129e+00	-2.511943e+02
8.800000e-07	8.177607e-07	-3.080517e-09	5.752448e+00	-2.040178e+02
8.900000e-07	9.459808e-07	-2.335150e-09	6.654398e+00	-1.555190e+02
9.000000e-07	1.073923e-06	-1.569459e-09	7.554394e+00	-1.056410e+02
9.100000e-07	1.201384e-06	-7.897043e-10	8.451007e+00	-5.435289e+01
9.200000e-07	1.328283e-06	4.726805e-12	9.343663e+00	-1.659538e+00
9.300000e-07	1.454690e-06	8.249892e-10	1.023286e+01	5.238955e+01
9.400000e-07	1.580572e-06	1.672032e-09	1.111836e+01	1.076943e+02
9.500000e-07	1.705944e-06	2.538070e-09	1.200028e+01	1.641013e+02
9.600000e-07	1.830815e-06	3.409857e-09	1.287866e+01	2.214045e+02
9.700000e-07	1.955131e-06	4.286901e-09	1.375315e+01	2.793501e+02
9.800000e-07	2.078803e-06	5.177049e-09	1.462311e+01	3.376452e+02
9.900000e-07	2.201585e-06	6.078248e-09	1.548681e+01	3.959695e+02
1.000000e-06	2.323326e-06	6.973873e-09	1.634318e+01	4.539897e+02
1.010000e-06	2.444204e-06	7.844930e-09	1.719349e+01	5.113741e+02
1.020000e-06	2.564317e-06	8.696576e-09	1.803841e+01	5.678082e+02
1.030000e-06	2.683445e-06	9.532870e-09	1.887640e+01	6.230085e+02
1.040000e-06	2.801497e-06	1.035179e-08	1.970682e+01	6.767332e+02
1.050000e-06	2.918576e-06	1.114251e-08	2.053040e+01	7.287906e+02
1.060000e-06	3.034548e-06	1.190227e-08	2.134619e+01	7.790427e+02
1.070000e-06	3.149215e-06	1.263387e-08	2.215280e+01	8.274052e+02
1.080000e-06	3.262550e-06	1.334032e-08	2.295005e+01	8.738438e+02
1.090000e-06	3.374705e-06	1.402196e-08	2.373899e+01	9.183668e+02
1.100000e-06	3.485627e-06	1.467181e-08	2.451926e+01	9.610163e+02
1.110000e-06	3.595315e-06	1.528822e-08	2.529085e+01	1.001858e+03
1.120000e-06	3.703896e-06	1.587829e-08	2.605465e+01	1.040969e+03
1.130000e-06	3.811298e-06	1.645081e-08	2.681015e+01	1.078433e+03
1.140000e-06	3.917282e-06	1.700119e-08	2.755569e+01	1.114328e+03
1.150000e-06	4.021849e-06	1.752404e-08	2.829125e+01	1.148724e+03
1.160000e-06	4.125007e-06	1.801757e-08	2.901691e+01	1.181679e+03
1.170000e-06	4.226641e-06	1.849270e-08	2.973185e+01	1.213240e+03
1.180000e-06	4.326895e-06	1.895278e-08	3.043707e+01	1.243448e+03
1.190000e-06	4.425552e-06	1.939266e-08	3.113106e+01	1.272334e+03
1.200000e-06	4.522513e-06	1.980797e-08	3.181312e+01	1.299930e+03
1.210000e-06	4.617815e-06	2.020276e-08	3.248351e+01	1.326270e+03
1.220000e-06	4.711504e-06	2.058389e-08	3.314256e+01	1.351394e+03
1.230000e-06	4.803716e-06	2.095248e-08	3.379121e+01	1.375347e+03
1.240000e-06	4.894201e-06	2.130327e-08	3.442772e+01	1.398184e+03
1.250000e-06	4.982835e-06	2.163384e-08	3.505121e+01	1.419964e+03
1.260000e-06	5.069629e-06	2.195007e-08	3.566175e+01	1.440750e+03
1.270000e-06	5.154596e-06	2.225648e-08	3.625944e+01	1.460605e+03
1.280000e-06	5.237864e-06	2.255174e-08	3.684518e+01	1.479588e+03
1.290000e-06	5.319286e-06	2.282942e-08	3.741793e+01	1.497752e+03
1.300000e-06	5.398639e-06	2.308809e-08	3.797613e+01	1.515139e+03
1.310000e-06	5.476006e-06	2.333475e-08	3.852037e+01	1.531782e+03
1.320000e-06	5.551335e-06	2.357685e-08	3.905026e+01	1.547702e+03
1.330000e-06	5.624445e-06	2.380970e-08	3.956454e+01	1.562912e+03
1.340000e-06	5.695410e-06	2.402767e-08	4.006373e+01	1.577420e+03
1.350000e-06	5.764349e-06	2.423201e-08	4.054868e+01	1.591229e+03
1.360000e-06	5.831258e-06	2.442831e-08	4.101935e+01	1.604343e+03
1.370000e-06	5.896056e-06	2.461983e-08	4.147516e+01	1.616769e+03
1.380000e-06	5.958778e-06	2.480074e-08	4.191637e+01	1.628521e+03
1.390000e-06	6.019570e-06	2.496682e-08	4.234400e+01	1.639618e+03
1.400000e-06	6.078376e-06	2.512395e-08	4.275767e+01	1.650086e+03
1.410000e-06	6.134976e-06	2.527791e-08	4.315582e+01	1.659956e+03
1.420000e-06	6.189334e-06	2.542634e-08	4.353819e+01	1.669262e+03
1.430000e-06	6.241370e-06	2.556504e-08	4.390423e+01	1.678035e+03
1.440000e-06	6.290782e-06	2.569122e-08	4.425182e+01	1.686307e+03
1.450000e-06	6.337693e-06	2.580645e-08	4.458180e+01	1.694099e+03
1.460000e-06	6.382472e-06	2.591654e-08	4.489680e+01	1.701430e+03
1.470000e-06	6.425059e-06	2.602229e-08	4.519637e+01	1.708308e+03
1.480000e-06	6.465232e-06	2.611909e-08	4.547897e+01	1.714733e+03
1.490000e-06	6.503094e-06	2.620530e-08	4.574530e+01	1.720703e+03
1.500000e-06	6.538846e-06	2.628460e-08	4.599679e+01	1.726209e+03
1.510000e-06	6.572272e-06	2.636010e-08	4.623192e+01	1.731245e+03
1.520000e-06	6.603318e-06	2.643122e-08	4.645031e+01	1.735810e+03
1.530000e-06	6.632178e-06	2.649517e-08	4.665333e+01	1.739904e+03
1.540000e-06	6.658729e-06	2.654991e-08	4.684010e+01	1.743540e+03
1.550000e-06	6.682697e-06	2.659837e-08	4.700870e+01	1.746733e+03
1.560000e-06	6.704187e-06	2.664385e-08	4.715987e+01	1.749510e+03
1.570000e-06	6.723483e-06	2.668392e-08	4.729561e+01	1.751899e+03
1.580000e-06	6.740372e-06	2.671577e-08	4.741441e+01	1.753931e+03
1.590000e-06	6.754662e-06	2.674061e-08	4.751493e+01	1.755634e+03
1.600000e-06	6.766441e-06	2.676163e-08	4.759779e+01	1.757031e+03
1.610000e-06	6.775537e-06	2.677834e-08	4.766177e+01	1.758139e+03
1.620000e-06	6.782054e-06	2.678917e-08	4.770761e+01	1.758964e+03
1.630000e-06	6.786333e-06	2.679456e-08	4.773771e+01	1.759503e+03
1.640000e-06	6.788186e-06	2.679680e-08	4.775075e+01	1.759744e+03
1.650000e-06	6.787552e-06	2.679701e-08	4.774629e+01	1.759671e+03
1.660000e-06	6.784752e-06	2.678335e-08	4.772659e+01	1.759265e+03
1.670000e-06	6.779831e-06	2.677184e-08	4.769198e+01	1.758508e+03
1.680000e-06	6.772563e-06	2.675402e-08	4.764085e+01	1.757390e+03
1.690000e-06	6.763044e-06	2.673272e-08	4.757389e+01	1.755908e+03
1.700000e-06	6.751346e-06	2.671495e-08	4.749160e+01	1.754074e+03
1.710000e-06	6.737232e-06	2.669961e-08	4.739232e+01	1.751910e+03
1.720000e-06	6.720836e-06	2.669696e-08	4.727698e+01	1.749448e+03
1.730000e-06	6.702454e-06	2.660625e-08	4.714768e+01	1.746733e+03
1.740000e-06	6.681663e-06	2.648461e-08	4.700143e+01	1.743811e+03
1.750000e-06	6.657689e-06	2.648127e-08	4.683278e+01	1.740728e+03
1.760000e-06	6.630722e-06	2.646262e-08	4.664309e+01	1.737526e+03
1.770000e-06	6.601408e-06	2.644469e-08	4.643688e+01	1.734235e+03
1.780000e-06	6.570091e-06	2.650605e-08	4.621658e+01	1.730873e+03
1.790000e-06	6.537228e-06	2.624979e-08	4.598541e+01	1.727440e+03
1.800000e-06	6.502652e-06	2.606654e-08	4.574219e+01	1.723916e+03
1.810000e-06	6.465621e-06	2.628486e-08	4.548170e+01	1.720269e+03
1.820000e-06	6.426332e-06	2.614097e-08	4.520532e+01	1.716451e+03
1.830000e-06	6.385000e-06	2.619075e-08	4.491458e+01	1.712405e+03
1.840000e-06	6.341443e-06	2.616076e-08	4.460818e+01	1.708071e+03
1.850000e-06	6.295792e-06	2.585346e-08	4.428706e+01	1.703390e+03
1.860000e-06	6.247745e-06	2.603981e-08	4.394907e+01	1.698311e+03
1.870000e-06	6.197346e-06	2.590790e-08	4.359455e+01	1.692791e+03
1.880000e-06	6.144574e-06	2.572356e-08	4.322333e+01	1.686804e+03
1.890000e-06	6.089062e-06	2.560991e-08	4.283284e+01	1.680339e+03
1.900000e-06	6.031223e-06	2.540869e-08	4.242597e+01	1.673399e+03
1.910000e-06	5.971263e-06	2.554567e-08	4.200419e+01	1.666000e+03
1.920000e-06	5.909099e-06	2.535396e-08	4.156691e+01	1.658169e+03
1.930000e-06	5.844744e-06	2.512542e-08	4.111421e+01	1.649939e+03
1.940000e-06	5.778171e-06	2.500983e-08	4.064591e+01	1.641342e+03
1.950000e-06	5.709468e-06	2.484792e-08	4.016262e+01	1.632412e+03
1.960000e-06	5.638415e-06	2.487272e-08	3.966281e+01	1.623173e+03
1.970000e-06	5.565172e-06	2.463833e-08	3.914759e+01	1.613642e+03
1.980000e-06	5.489958e-06	2.448802e-08	3.861851e+01	1.603828e+03
1.990000e-06	5.412575e-06	2.429635e-08	3.807417e+01	1.593728e+03
2.000000e-06	5.333076e-06	2.412761e-08	3.751494e+01	1.583331e+03
2.010000e-06	5.251648e-06	2.408949e-08	3.694214e+01	1.572619e+03
2.020000e-06	5.168530e-06	2.385606e-08	3.635745e+01	1.561571e+03
2.030000e-06	5.083548e-06	2.366821e-08	3.575966e+01	1.550163e+03
2.040000e-06	4.996581e-06	2.341783e-08	3.514790e+01	1.538372e+03
2.050000e-06	4.907868e-06	2.329481e-08	3.452386e+01	1.526178e+03
2.060000e-06	4.817604e-06	2.316886e-08	3.388891e+01	1.513565e+03
2.070000e-06	4.725813e-06	2.293244e-08	3.324321e+01	1.500522e+03
2.080000e-06	4.632276e-06	2.267733e-08	3.258524e+01	1.487042e+03
2.090000e-06	4.536933e-06	2.242375e-08	3.191456e+01	1.473122e+03
2.100000e-06	4.439994e-06	2.229582e-08	3.123265e+01	1.458762e+03
2.110000e-06	4.341665e-06	2.209712e-08	3.054097e+01	1.443961e+03
2.120000e-06	4.241918e-06	2.183897e-08	2.983931e+01	1.428716e+03
2.130000e-06	4.140623e-06	2.153271e-08	2.912676e+01	1.413025e+03
2.140000e-06	4.037715e-06	2.129552e-08	2.840287e+01	1.396878e+03
2.150000e-06	3.933234e-06	2.111188e-08	2.766790e+01	1.380263e+03
2.160000e-06	3.827396e-06	2.086815e-08	2.692340e+01	1.363165e+03
2.170000e-06	3.720329e-06	2.055268e-08	2.617025e+01	1.345562e+03
2.180000e-06	3.611987e-06	2.021792e-08	2.540812e+01	1.327432e+03
2.190000e-06	3.502346e-06	1.997021e-08	2.463687e+01	1.308751e+03
2.200000e-06	3.391395e-06	1.973317e-08	2.385640e+01	1.289496e+03
2.210000e-06	3.279067e-06	1.943389e-08	2.306624e+01	1.269645e+03
2.220000e-06	3.165388e-06	1.906241e-08	2.226657e+01	1.249180e+03
2.230000e-06	3.050413e-06	1.872398e-08	2.145780e+01	1.228084e+03
2.240000e-06	2.934196e-06	1.842615e-08	2.064028e+01	1.206348e+03
2.250000e-06	2.816875e-06	1.811741e-08	1.981500e+01	1.183963e+03
2.260000e-06	2.698450e-06	1.774839e-08	1.898195e+01	1.160925e+03
2.270000e-06	2.578796e-06	1.735262e-08	1.814026e+01	1.137229e+03
2.280000e-06	2.458072e-06	1.698552e-08	1.729103e+01	1.112874e+03
2.290000e-06	2.336594e-06	1.663197e-08	1.643651e+01	1.087854e+03
2.300000e-06	2.214409e-06	1.625115e-08	1.557701e+01	1.062160e+03
2.310000e-06	2.091554e-06	1.582611e-08	1.471281e+01	1.035779e+03
2.320000e-06	1.968012e-06	1.540003e-08	1.384376e+01	1.008695e+03
2.330000e-06	1.843635e-06	1.498259e-08	1.296885e+01	9.808818e+02
2.340000e-06	1.718607e-06	1.455875e-08	1.208935e+01	9.523127e+02
2.350000e-06	1.593161e-06	1.410500e-08	1.120692e+01	9.229554e+02
2.360000e-06	1.467312e-06	1.363507e-08	1.032165e+01	8.927763e+02
2.370000e-06	1.340995e-06	1.315886e-08	9.433079e+00	8.617423e+02
2.380000e-06	1.214083e-06	1.267466e-08	8.540335e+00	8.298235e+02
2.390000e-06	1.086629e-06	1.217726e-08	7.643771e+00	7.969949e+02
2.400000e-06	9.587333e-07	1.166455e-08	6.744104e+00	7.632388e+02
2.410000e-06	8.304507e-07	1.113978e-08	5.841714e+00	7.285450e+02
2.420000e-06	7.018899e-07	1.059511e-08	4.937367e+00	6.929113e+02
2.430000e-06	5.731220e-07	1.003450e-08	4.031564e+00	6.563417e+02
2.440000e-06	4.441789e-07	9.462475e-09	3.124527e+00	6.188444e+02
2.450000e-06	3.150917e-07	8.881477e-09	2.216478e+00	5.804281e+02
2.460000e-06	1.859394e-07	8.284947e-09	1.307971e+00	5.410981e+02
2.470000e-06	5.671145e-08	7.664132e-09	3.989304e-01	5.008518e+02
2.480000e-06	-7.259944e-08	7.027472e-09	-5.106928e-01	4.596752e+02
2.490000e-06	-2.018751e-07	6.386273e-09	-1.420068e+00	4.175398e+02
2.500000e-06	-3.310710e-07	5.738638e-09	-2.328883e+00	3.744016e+02
2.510000e-06	-4.601611e-07	5.065290e-09	-3.236953e+00	3.302012e+02
2.520000e-06	-5.891649e-07	4.360525e-09	-4.144416e+00	2.848676e+02
2.530000e-06	-7.180668e-07	3.643661e-09	-5.051162e+00	2.383231e+02
2.540000e-06	-8.467682e-07	2.923378e-09	-5.956498e+00	1.904914e+02
2.550000e-06	-9.751815e-07	2.184075e-09	-6.859808e+00	1.413063e+02
2.560000e-06	-1.103156e-06	1.409899e-09	-7.760028e+00	9.072269e+01
2.570000e-06	-1.230609e-06	6.081049e-10	-8.656581e+00	3.872629e+01
2.580000e-06	-1.357505e-06	-2.011055e-10	-9.549221e+00	-1.465660e+01
2.590000e-06	-1.483776e-06	-1.019361e-09	-1.043746e+01	-6.935178e+01
2.600000e-06	-1.609472e-06	-1.864908e-09	-1.132166e+01	-1.252326e+02
2.610000e-06	-1.734672e-06	-2.741338e-09	-1.220236e+01	-1.821190e+02
2.620000e-06	-1.859299e-06	-3.633757e-09	-1.307903e+01	-2.397802e+02
2.630000e-06	-1.983193e-06	-4.522214e-09	-1.395055e+01	-2.979416e+02
2.640000e-06	-2.106154e-06	-5.406017e-09	-1.481551e+01	-3.562950e+02
2.650000e-06	-2.228219e-06	-6.294593e-09	-1.567416e+01	-4.145116e+02
2.660000e-06	-2.349604e-06	-7.187957e-09	-1.652803e+01	-4.722570e+02
2.670000e-06	-2.470296e-06	-8.067315e-09	-1.737702e+01	-5.292064e+02
2.680000e-06	-2.590049e-06	-8.912517e-09	-1.821941e+01	-5.850591e+02
2.690000e-06	-2.708592e-06	-9.730155e-09	-1.905329e+01	-6.395513e+02
2.700000e-06	-2.825956e-06	-1.053485e-08	-1.987888e+01	-6.924654e+02
2.710000e-06	-2.942249e-06	-1.132491e-08	-2.069693e+01	-7.436364e+02
2.720000e-06	-3.057347e-06	-1.208331e-08	-2.150658e+01	-7.929534e+02
2.730000e-06	-3.171142e-06	-1.280125e-08	-2.230705e+01	-8.403578e+02
2.740000e-06	-3.283497e-06	-1.348869e-08	-2.309740e+01	-8.858376e+02
2.750000e-06	-3.394556e-06	-1.415944e-08	-2.387863e+01	-9.294194e+02
2.760000e-06	-3.504404e-06	-1.481225e-08	-2.465134e+01	-9.711580e+02
2.770000e-06	-3.613112e-06	-1.543168e-08	-2.541604e+01	-1.011127e+03
2.780000e-06	-3.720798e-06	-1.601356e-08	-2.617354e+01	-1.049407e+03
2.790000e-06	-3.827260e-06	-1.657133e-08	-2.692244e+01	-1.086079e+03
2.800000e-06	-3.932468e-06	-1.711852e-08	-2.766252e+01	-1.121219e+03
2.810000e-06	-4.036239e-06	-1.764847e-08	-2.839248e+01	-1.154890e+03
2.820000e-06	-4.138367e-06	-1.814228e-08	-2.911089e+01	-1.187145e+03
2.830000e-06	-4.239024e-06	-1.859987e-08	-2.981895e+01	-1.218028e+03
2.840000e-06	-4.338238e-06	-1.904142e-08	-3.051686e+01	-1.247573e+03
2.850000e-06	-4.435977e-06	-1.947862e-08	-3.120440e+01	-1.275813e+03
2.860000e-06	-4.532291e-06	-1.989976e-08	-3.188190e+01	-1.302779e+03
2.870000e-06	-4.626895e-06	-2.028940e-08	-3.254738e+01	-1.328508e+03
2.880000e-06	-4.719777e-06	-2.065183e-08	-3.320076e+01	-1.353042e+03
2.890000e-06	-4.810978e-06	-2.100660e-08	-3.384230e+01	-1.376433e+03
2.900000e-06	-4.900448e-06	-2.135817e-08	-3.447166e+01	-1.398736e+03
2.910000e-06	-4.988208e-06	-2.169285e-08	-3.508900e+01	-1.420013e+03
2.920000e-06	-5.074019e-06	-2.199972e-08	-3.569263e+01	-1.440328e+03
2.930000e-06	-5.157938e-06	-2.228914e-08	-3.628295e+01	-1.459743e+03
2.940000e-06	-5.240112e-06	-2.257711e-08	-3.686099e+01	-1.478313e+03
