# Temperatura_=_20.0
# Concentracion g/m^3_=_12600.0
# C_Vs_to_Am_M_A/Vsm_=_65563218390.804596
# pendiente_HvsI_1/m_=_3716.3
# ordenada_HvsI_A/m_=_1297.0
# frecuencia_Hz_=_302072.36313055945

Tiempo_(s)	Campo_(V.s)	Magnetizacion_(V.s)	Campo_(kA/m)	Magnetizacion_(A/m)
0.000000e+00	-6.755854e-06	-3.440688e-08	-4.744749e+01	-2.253575e+03
1.000000e-08	-6.753814e-06	-3.440419e-08	-4.743316e+01	-2.253004e+03
2.000000e-08	-6.749468e-06	-3.439416e-08	-4.740265e+01	-2.252031e+03
3.000000e-08	-6.743087e-06	-3.437523e-08	-4.735783e+01	-2.250664e+03
4.000000e-08	-6.734590e-06	-3.434684e-08	-4.729816e+01	-2.248921e+03
5.000000e-08	-6.723654e-06	-3.430944e-08	-4.722135e+01	-2.246823e+03
6.000000e-08	-6.710145e-06	-3.427321e-08	-4.712647e+01	-2.244397e+03
7.000000e-08	-6.694217e-06	-3.422350e-08	-4.701460e+01	-2.241669e+03
8.000000e-08	-6.676112e-06	-3.415055e-08	-4.688745e+01	-2.238661e+03
9.000000e-08	-6.655983e-06	-3.413856e-08	-4.674609e+01	-2.235392e+03
1.000000e-07	-6.633459e-06	-3.415916e-08	-4.658789e+01	-2.231875e+03
1.100000e-07	-6.608168e-06	-3.406411e-08	-4.641027e+01	-2.228115e+03
1.200000e-07	-6.580193e-06	-3.395267e-08	-4.621380e+01	-2.224113e+03
1.300000e-07	-6.549926e-06	-3.385622e-08	-4.600122e+01	-2.219864e+03
1.400000e-07	-6.517674e-06	-3.370582e-08	-4.577472e+01	-2.215358e+03
1.500000e-07	-6.483532e-06	-3.365448e-08	-4.553493e+01	-2.210587e+03
1.600000e-07	-6.447550e-06	-3.382096e-08	-4.528222e+01	-2.205539e+03
1.700000e-07	-6.409567e-06	-3.357529e-08	-4.501546e+01	-2.200203e+03
1.800000e-07	-6.369504e-06	-3.335181e-08	-4.473409e+01	-2.194569e+03
1.900000e-07	-6.327076e-06	-3.341150e-08	-4.443611e+01	-2.188626e+03
2.000000e-07	-6.282153e-06	-3.320489e-08	-4.412061e+01	-2.182363e+03
2.100000e-07	-6.234970e-06	-3.322142e-08	-4.378924e+01	-2.175767e+03
2.200000e-07	-6.185182e-06	-3.310854e-08	-4.343957e+01	-2.168823e+03
2.300000e-07	-6.132714e-06	-3.287044e-08	-4.307107e+01	-2.161512e+03
2.400000e-07	-6.077915e-06	-3.284196e-08	-4.268622e+01	-2.153815e+03
2.500000e-07	-6.020783e-06	-3.272190e-08	-4.228497e+01	-2.145710e+03
2.600000e-07	-5.961346e-06	-3.263371e-08	-4.186753e+01	-2.137177e+03
2.700000e-07	-5.899780e-06	-3.246671e-08	-4.143514e+01	-2.128199e+03
2.800000e-07	-5.836071e-06	-3.222504e-08	-4.098771e+01	-2.118763e+03
2.900000e-07	-5.770110e-06	-3.210663e-08	-4.052445e+01	-2.108864e+03
3.000000e-07	-5.701949e-06	-3.202508e-08	-4.004574e+01	-2.098502e+03
3.100000e-07	-5.631737e-06	-3.190367e-08	-3.955263e+01	-2.087687e+03
3.200000e-07	-5.559410e-06	-3.160698e-08	-3.904467e+01	-2.076434e+03
3.300000e-07	-5.484867e-06	-3.139397e-08	-3.852114e+01	-2.064762e+03
3.400000e-07	-5.408084e-06	-3.127725e-08	-3.798188e+01	-2.052689e+03
3.500000e-07	-5.329143e-06	-3.111703e-08	-3.742746e+01	-2.040233e+03
3.600000e-07	-5.248165e-06	-3.094676e-08	-3.685874e+01	-2.027404e+03
3.700000e-07	-5.165344e-06	-3.067725e-08	-3.627708e+01	-2.014203e+03
3.800000e-07	-5.080852e-06	-3.043912e-08	-3.568367e+01	-2.000622e+03
3.900000e-07	-4.994691e-06	-3.024593e-08	-3.507855e+01	-1.986641e+03
4.000000e-07	-4.906881e-06	-3.006927e-08	-3.446185e+01	-1.972232e+03
4.100000e-07	-4.817358e-06	-2.984126e-08	-3.383311e+01	-1.957359e+03
4.200000e-07	-4.726084e-06	-2.955976e-08	-3.319208e+01	-1.941986e+03
4.300000e-07	-4.633164e-06	-2.931215e-08	-3.253948e+01	-1.926077e+03
4.400000e-07	-4.538675e-06	-2.908739e-08	-3.187587e+01	-1.909600e+03
4.500000e-07	-4.442524e-06	-2.885245e-08	-3.120059e+01	-1.892532e+03
4.600000e-07	-4.344705e-06	-2.855736e-08	-3.051359e+01	-1.874860e+03
4.700000e-07	-4.245331e-06	-2.825220e-08	-2.981567e+01	-1.856580e+03
4.800000e-07	-4.144447e-06	-2.797687e-08	-2.910714e+01	-1.837695e+03
4.900000e-07	-4.042127e-06	-2.770124e-08	-2.838853e+01	-1.818214e+03
5.000000e-07	-3.938380e-06	-2.740057e-08	-2.765990e+01	-1.798144e+03
5.100000e-07	-3.833160e-06	-2.706643e-08	-2.692092e+01	-1.777489e+03
5.200000e-07	-3.726423e-06	-2.672856e-08	-2.617129e+01	-1.756247e+03
5.300000e-07	-3.618248e-06	-2.640466e-08	-2.541156e+01	-1.734400e+03
5.400000e-07	-3.508829e-06	-2.608035e-08	-2.464309e+01	-1.711923e+03
5.500000e-07	-3.398219e-06	-2.572631e-08	-2.386626e+01	-1.688777e+03
5.600000e-07	-3.286301e-06	-2.534336e-08	-2.308024e+01	-1.664916e+03
5.700000e-07	-3.172986e-06	-2.496170e-08	-2.228441e+01	-1.640290e+03
5.800000e-07	-3.058249e-06	-2.458369e-08	-2.147860e+01	-1.614849e+03
5.900000e-07	-2.942168e-06	-2.418357e-08	-2.066334e+01	-1.588548e+03
6.000000e-07	-2.824959e-06	-2.375858e-08	-1.984016e+01	-1.561355e+03
6.100000e-07	-2.706818e-06	-2.332807e-08	-1.901044e+01	-1.533247e+03
6.200000e-07	-2.587780e-06	-2.289419e-08	-1.817441e+01	-1.504214e+03
6.300000e-07	-2.467726e-06	-2.244235e-08	-1.733125e+01	-1.474259e+03
6.400000e-07	-2.346661e-06	-2.196985e-08	-1.648099e+01	-1.443389e+03
6.500000e-07	-2.224746e-06	-2.148338e-08	-1.562476e+01	-1.411611e+03
6.600000e-07	-2.102032e-06	-2.099186e-08	-1.476293e+01	-1.378928e+03
6.700000e-07	-1.978501e-06	-2.048784e-08	-1.389534e+01	-1.345329e+03
6.800000e-07	-1.854264e-06	-1.995816e-08	-1.302281e+01	-1.310785e+03
6.900000e-07	-1.729436e-06	-1.940335e-08	-1.214612e+01	-1.275251e+03
7.000000e-07	-1.604091e-06	-1.883937e-08	-1.126580e+01	-1.238662e+03
7.100000e-07	-1.478267e-06	-1.827381e-08	-1.038212e+01	-1.200935e+03
7.200000e-07	-1.351943e-06	-1.768161e-08	-9.494923e+00	-1.161984e+03
7.300000e-07	-1.225128e-06	-1.705437e-08	-8.604280e+00	-1.121716e+03
7.400000e-07	-1.097928e-06	-1.640969e-08	-7.710930e+00	-1.080049e+03
7.500000e-07	-9.704285e-07	-1.576347e-08	-6.815482e+00	-1.036918e+03
7.600000e-07	-8.425720e-07	-1.509923e-08	-5.917524e+00	-9.922741e+02
7.700000e-07	-7.143469e-07	-1.439324e-08	-5.016978e+00	-9.460958e+02
7.800000e-07	-5.858213e-07	-1.365237e-08	-4.114321e+00	-8.983804e+02
7.900000e-07	-4.570502e-07	-1.290327e-08	-3.209940e+00	-8.491402e+02
8.000000e-07	-3.281197e-07	-1.215037e-08	-2.304440e+00	-7.983927e+02
8.100000e-07	-1.990636e-07	-1.136629e-08	-1.398057e+00	-7.461477e+02
8.200000e-07	-6.991417e-08	-1.053480e-08	-4.910189e-01	-6.923952e+02
8.300000e-07	5.925794e-08	-9.670460e-09	4.161784e-01	-6.370933e+02
8.400000e-07	1.884539e-07	-8.798951e-09	1.323544e+00	-5.801606e+02
8.500000e-07	3.176152e-07	-7.915461e-09	2.230665e+00	-5.214736e+02
8.600000e-07	4.466711e-07	-6.993757e-09	3.137046e+00	-4.608705e+02
8.700000e-07	5.756268e-07	-6.019334e-09	4.042723e+00	-3.981624e+02
8.800000e-07	7.044812e-07	-5.010413e-09	4.947690e+00	-3.331510e+02
8.900000e-07	8.331184e-07	-3.986922e-09	5.851130e+00	-2.656516e+02
9.000000e-07	9.614011e-07	-2.937380e-09	6.752081e+00	-1.955198e+02
9.100000e-07	1.089337e-06	-1.836584e-09	7.650594e+00	-1.226781e+02
9.200000e-07	1.216863e-06	-6.777780e-10	8.546229e+00	-4.714030e+01
9.300000e-07	1.343863e-06	5.165526e-10	9.438175e+00	3.096923e+01
9.400000e-07	1.470329e-06	1.728654e-09	1.032636e+01	1.114050e+02
9.500000e-07	1.596321e-06	2.968404e-09	1.121123e+01	1.937989e+02
9.600000e-07	1.721878e-06	4.254705e-09	1.209304e+01	2.776693e+02
9.700000e-07	1.846934e-06	5.572821e-09	1.297133e+01	3.624406e+02
9.800000e-07	1.971320e-06	6.884050e-09	1.384491e+01	4.474703e+02
9.900000e-07	2.094933e-06	8.168149e-09	1.471306e+01	5.320835e+02
1.000000e-06	2.217734e-06	9.432533e-09	1.557552e+01	6.156095e+02
1.010000e-06	2.339679e-06	1.068522e-08	1.643196e+01	6.974182e+02
1.020000e-06	2.460791e-06	1.190638e-08	1.728255e+01	7.769528e+02
1.030000e-06	2.580982e-06	1.307015e-08	1.812667e+01	8.537552e+02
1.040000e-06	2.700122e-06	1.416649e-08	1.896341e+01	9.274836e+02
1.050000e-06	2.818223e-06	1.521617e-08	1.979285e+01	9.979188e+02
1.060000e-06	2.935324e-06	1.623629e-08	2.061527e+01	1.064961e+03
1.070000e-06	3.051357e-06	1.721788e-08	2.143019e+01	1.128619e+03
1.080000e-06	3.166171e-06	1.813879e-08	2.223655e+01	1.188988e+03
1.090000e-06	3.279637e-06	1.899931e-08	2.303344e+01	1.246229e+03
1.100000e-06	3.391743e-06	1.982466e-08	2.382078e+01	1.300540e+03
1.110000e-06	3.502600e-06	2.062647e-08	2.459935e+01	1.352136e+03
1.120000e-06	3.612336e-06	2.139033e-08	2.537004e+01	1.401223e+03
1.130000e-06	3.720951e-06	2.209854e-08	2.613286e+01	1.447987e+03
1.140000e-06	3.828365e-06	2.276163e-08	2.688725e+01	1.492582e+03
1.150000e-06	3.934431e-06	2.340243e-08	2.763217e+01	1.535130e+03
1.160000e-06	4.038989e-06	2.402697e-08	2.836650e+01	1.575718e+03
1.170000e-06	4.142020e-06	2.461727e-08	2.909010e+01	1.614412e+03
1.180000e-06	4.243649e-06	2.516404e-08	2.980386e+01	1.651264e+03
1.190000e-06	4.343917e-06	2.567827e-08	3.050806e+01	1.686320e+03
1.200000e-06	4.442649e-06	2.618190e-08	3.120147e+01	1.719630e+03
1.210000e-06	4.539639e-06	2.667432e-08	3.188265e+01	1.751257e+03
1.220000e-06	4.634843e-06	2.713732e-08	3.255128e+01	1.781277e+03
1.230000e-06	4.728439e-06	2.756436e-08	3.320862e+01	1.809782e+03
1.240000e-06	4.820536e-06	2.796874e-08	3.385543e+01	1.836873e+03
1.250000e-06	4.911023e-06	2.836623e-08	3.449093e+01	1.862657e+03
1.260000e-06	4.999628e-06	2.875428e-08	3.511322e+01	1.887238e+03
1.270000e-06	5.086297e-06	2.911821e-08	3.572191e+01	1.910711e+03
1.280000e-06	5.171195e-06	2.945344e-08	3.631817e+01	1.933158e+03
1.290000e-06	5.254351e-06	2.977331e-08	3.690219e+01	1.954643e+03
1.300000e-06	5.335632e-06	3.008908e-08	3.747304e+01	1.975209e+03
1.310000e-06	5.414905e-06	3.039478e-08	3.802978e+01	1.994885e+03
1.320000e-06	5.492181e-06	3.067862e-08	3.857250e+01	2.013682e+03
1.330000e-06	5.567412e-06	3.094036e-08	3.910086e+01	2.031608e+03
1.340000e-06	5.640446e-06	3.119054e-08	3.961380e+01	2.048666e+03
1.350000e-06	5.711344e-06	3.143723e-08	4.011172e+01	2.064863e+03
1.360000e-06	5.780292e-06	3.167588e-08	4.059596e+01	2.080213e+03
1.370000e-06	5.847222e-06	3.189700e-08	4.106602e+01	2.094742e+03
1.380000e-06	5.911920e-06	3.210021e-08	4.152041e+01	2.108484e+03
1.390000e-06	5.974500e-06	3.229527e-08	4.195991e+01	2.121482e+03
1.400000e-06	6.035182e-06	3.248755e-08	4.238609e+01	2.133783e+03
1.410000e-06	6.093881e-06	3.267192e-08	4.279834e+01	2.145435e+03
1.420000e-06	6.150364e-06	3.284161e-08	4.319504e+01	2.156481e+03
1.430000e-06	6.204594e-06	3.299829e-08	4.357590e+01	2.166954e+03
1.440000e-06	6.256448e-06	3.314926e-08	4.394008e+01	2.176878e+03
1.450000e-06	6.305643e-06	3.329688e-08	4.428559e+01	2.186263e+03
1.460000e-06	6.352356e-06	3.343486e-08	4.461366e+01	2.195110e+03
1.470000e-06	6.396919e-06	3.355790e-08	4.492664e+01	2.203409e+03
1.480000e-06	6.439333e-06	3.366754e-08	4.522451e+01	2.211148e+03
1.490000e-06	6.479351e-06	3.377059e-08	4.550557e+01	2.218313e+03
1.500000e-06	6.517068e-06	3.387077e-08	4.577046e+01	2.224896e+03
1.510000e-06	6.552679e-06	3.396333e-08	4.602056e+01	2.230896e+03
1.520000e-06	6.585924e-06	3.404503e-08	4.625405e+01	2.236321e+03
1.530000e-06	6.616792e-06	3.411822e-08	4.647084e+01	2.241192e+03
1.540000e-06	6.645455e-06	3.418668e-08	4.667215e+01	2.245537e+03
1.550000e-06	6.671777e-06	3.425108e-08	4.685701e+01	2.249391e+03
1.560000e-06	6.695545e-06	3.430771e-08	4.702393e+01	2.252792e+03
1.570000e-06	6.716876e-06	3.435257e-08	4.717374e+01	2.255776e+03
1.580000e-06	6.735998e-06	3.438872e-08	4.730804e+01	2.258374e+03
1.590000e-06	6.752682e-06	3.442274e-08	4.742521e+01	2.260609e+03
1.600000e-06	6.766776e-06	3.445415e-08	4.752420e+01	2.262493e+03
1.610000e-06	6.778289e-06	3.447849e-08	4.760506e+01	2.264031e+03
1.620000e-06	6.787069e-06	3.449274e-08	4.766672e+01	2.265215e+03
1.630000e-06	6.793348e-06	3.450050e-08	4.771082e+01	2.266034e+03
1.640000e-06	6.797408e-06	3.450686e-08	4.773934e+01	2.266474e+03
1.650000e-06	6.799033e-06	3.451318e-08	4.775075e+01	2.266521e+03
1.660000e-06	6.798201e-06	3.451262e-08	4.774490e+01	2.266166e+03
1.670000e-06	6.795164e-06	3.449215e-08	4.772357e+01	2.265405e+03
1.680000e-06	6.789957e-06	3.447185e-08	4.768700e+01	2.264246e+03
1.690000e-06	6.782432e-06	3.444838e-08	4.763415e+01	2.262699e+03
1.700000e-06	6.772684e-06	3.442736e-08	4.756569e+01	2.260787e+03
1.710000e-06	6.760750e-06	3.440824e-08	4.748188e+01	2.258531e+03
1.720000e-06	6.746380e-06	3.439195e-08	4.738095e+01	2.255960e+03
1.730000e-06	6.729769e-06	3.439662e-08	4.726429e+01	2.253097e+03
1.740000e-06	6.711168e-06	3.429896e-08	4.713366e+01	2.249964e+03
1.750000e-06	6.690046e-06	3.416451e-08	4.698531e+01	2.246577e+03
1.760000e-06	6.665713e-06	3.413997e-08	4.681442e+01	2.242945e+03
1.770000e-06	6.638434e-06	3.409517e-08	4.662283e+01	2.239071e+03
1.780000e-06	6.608790e-06	3.407963e-08	4.641464e+01	2.234953e+03
1.790000e-06	6.577217e-06	3.414924e-08	4.619290e+01	2.230584e+03
1.800000e-06	6.544192e-06	3.384371e-08	4.596096e+01	2.225954e+03
1.810000e-06	6.509399e-06	3.363168e-08	4.571660e+01	2.221054e+03
1.820000e-06	6.472095e-06	3.385958e-08	4.545461e+01	2.215871e+03
1.830000e-06	6.432549e-06	3.369963e-08	4.517687e+01	2.210396e+03
1.840000e-06	6.390926e-06	3.375511e-08	4.488454e+01	2.204618e+03
1.850000e-06	6.347074e-06	3.364082e-08	4.457656e+01	2.198526e+03
1.860000e-06	6.301069e-06	3.325321e-08	4.425346e+01	2.192109e+03
1.870000e-06	6.252634e-06	3.342852e-08	4.391329e+01	2.185351e+03
1.880000e-06	6.201925e-06	3.328295e-08	4.355715e+01	2.178237e+03
1.890000e-06	6.148804e-06	3.312418e-08	4.318408e+01	2.170747e+03
1.900000e-06	6.092959e-06	3.296322e-08	4.279187e+01	2.162861e+03
1.910000e-06	6.034860e-06	3.270542e-08	4.238383e+01	2.154558e+03
1.920000e-06	5.974622e-06	3.285314e-08	4.196077e+01	2.145819e+03
1.930000e-06	5.912119e-06	3.268094e-08	4.152180e+01	2.136627e+03
1.940000e-06	5.847366e-06	3.242734e-08	4.106703e+01	2.126974e+03
1.950000e-06	5.780429e-06	3.220856e-08	4.059692e+01	2.116858e+03
1.960000e-06	5.711422e-06	3.202924e-08	4.011227e+01	2.106282e+03
1.970000e-06	5.640139e-06	3.208506e-08	3.961164e+01	2.095260e+03
1.980000e-06	5.566677e-06	3.183807e-08	3.909570e+01	2.083808e+03
1.990000e-06	5.491088e-06	3.164204e-08	3.856483e+01	2.071945e+03
2.000000e-06	5.413239e-06	3.136645e-08	3.801808e+01	2.059691e+03
2.010000e-06	5.333343e-06	3.117496e-08	3.745696e+01	2.047059e+03
2.020000e-06	5.251608e-06	3.114352e-08	3.688292e+01	2.034056e+03
2.030000e-06	5.168196e-06	3.090589e-08	3.629711e+01	2.020678e+03
2.040000e-06	5.082881e-06	3.065381e-08	3.569792e+01	2.006912e+03
2.050000e-06	4.995586e-06	3.032544e-08	3.508484e+01	1.992734e+03
2.060000e-06	4.906610e-06	3.017959e-08	3.445994e+01	1.978113e+03
2.070000e-06	4.816101e-06	3.004229e-08	3.382428e+01	1.963011e+03
2.080000e-06	4.724018e-06	2.977347e-08	3.317757e+01	1.947391e+03
2.090000e-06	4.630142e-06	2.944103e-08	3.251826e+01	1.931219e+03
2.100000e-06	4.534492e-06	2.913501e-08	3.184649e+01	1.914468e+03
2.110000e-06	4.437267e-06	2.897621e-08	3.116367e+01	1.897119e+03
2.120000e-06	4.338689e-06	2.874525e-08	3.047134e+01	1.879163e+03
2.130000e-06	4.238755e-06	2.844199e-08	2.976949e+01	1.860599e+03
2.140000e-06	4.137188e-06	2.807390e-08	2.905617e+01	1.841434e+03
2.150000e-06	4.033907e-06	2.778031e-08	2.833080e+01	1.821677e+03
2.160000e-06	3.929052e-06	2.754567e-08	2.759439e+01	1.801333e+03
2.170000e-06	3.822857e-06	2.725296e-08	2.684856e+01	1.780405e+03
2.180000e-06	3.715448e-06	2.687269e-08	2.609421e+01	1.758882e+03
2.190000e-06	3.606727e-06	2.647279e-08	2.533065e+01	1.736745e+03
2.200000e-06	3.496682e-06	2.615790e-08	2.455778e+01	1.713961e+03
2.210000e-06	3.385331e-06	2.585247e-08	2.377575e+01	1.690487e+03
2.220000e-06	3.272592e-06	2.548393e-08	2.298396e+01	1.666276e+03
2.230000e-06	3.158598e-06	2.504836e-08	2.218336e+01	1.641275e+03
2.240000e-06	3.043345e-06	2.464279e-08	2.137392e+01	1.615438e+03
2.250000e-06	2.926807e-06	2.426151e-08	2.055545e+01	1.588724e+03
2.260000e-06	2.809136e-06	2.386393e-08	1.972903e+01	1.561106e+03
2.270000e-06	2.690325e-06	2.341291e-08	1.889460e+01	1.532567e+03
2.280000e-06	2.570435e-06	2.294634e-08	1.805259e+01	1.503103e+03
2.290000e-06	2.449529e-06	2.249906e-08	1.720345e+01	1.472720e+03
2.300000e-06	2.327735e-06	2.204324e-08	1.634807e+01	1.441426e+03
2.310000e-06	2.205290e-06	2.154874e-08	1.548812e+01	1.409227e+03
2.320000e-06	2.082186e-06	2.102387e-08	1.462354e+01	1.376118e+03
2.330000e-06	1.958360e-06	2.051334e-08	1.375389e+01	1.342083e+03
2.340000e-06	1.833808e-06	2.000014e-08	1.287914e+01	1.307085e+03
2.350000e-06	1.708544e-06	1.944478e-08	1.199939e+01	1.271068e+03
2.360000e-06	1.582716e-06	1.884312e-08	1.111568e+01	1.233959e+03
2.370000e-06	1.456471e-06	1.824811e-08	1.022904e+01	1.195673e+03
2.380000e-06	1.329814e-06	1.766765e-08	9.339508e+00	1.156119e+03
2.390000e-06	1.202718e-06	1.705868e-08	8.446888e+00	1.115210e+03
2.400000e-06	1.075199e-06	1.639242e-08	7.551301e+00	1.072868e+03
2.410000e-06	9.472422e-07	1.569933e-08	6.652640e+00	1.029037e+03
2.420000e-06	8.188519e-07	1.502593e-08	5.750934e+00	9.836805e+02
2.430000e-06	6.901569e-07	1.435075e-08	4.847087e+00	9.367857e+02
2.440000e-06	5.612229e-07	1.362279e-08	3.941562e+00	8.883583e+02
2.450000e-06	4.320688e-07	1.283128e-08	3.034491e+00	8.384143e+02
2.460000e-06	3.027860e-07	1.202518e-08	2.126517e+00	7.869692e+02
2.470000e-06	1.733719e-07	1.124127e-08	1.217620e+00	7.340253e+02
2.480000e-06	4.387960e-08	1.044280e-08	3.081738e-01	6.795589e+02
2.490000e-06	-8.563767e-08	9.576125e-09	-6.014477e-01	6.235105e+02
2.500000e-06	-2.151432e-07	8.649264e-09	-1.510986e+00	5.657792e+02
2.510000e-06	-3.445902e-07	7.721482e-09	-2.420115e+00	5.062227e+02
2.520000e-06	-4.739485e-07	6.809267e-09	-3.328619e+00	4.446649e+02
2.530000e-06	-6.031181e-07	5.862395e-09	-4.235800e+00	3.809099e+02
2.540000e-06	-7.320868e-07	4.840022e-09	-5.141568e+00	3.147625e+02
2.550000e-06	-8.608067e-07	3.762868e-09	-6.045590e+00	2.460534e+02
2.560000e-06	-9.892373e-07	2.678766e-09	-6.947579e+00	1.746661e+02
2.570000e-06	-1.117277e-06	1.589248e-09	-7.846825e+00	1.005626e+02
2.580000e-06	-1.244831e-06	4.479760e-10	-8.742654e+00	2.380613e+01
2.590000e-06	-1.371903e-06	-7.722143e-10	-9.635105e+00	-5.542348e+01
2.600000e-06	-1.498446e-06	-2.040834e-09	-1.052384e+01	-1.368234e+02
2.610000e-06	-1.624475e-06	-3.309568e-09	-1.140896e+01	-2.199709e+02
2.620000e-06	-1.749891e-06	-4.572896e-09	-1.228978e+01	-3.043380e+02
2.630000e-06	-1.874581e-06	-5.865857e-09	-1.316550e+01	-3.893139e+02
2.640000e-06	-1.998464e-06	-7.196823e-09	-1.403555e+01	-4.742367e+02
2.650000e-06	-2.121461e-06	-8.518533e-09	-1.489938e+01	-5.584289e+02
2.660000e-06	-2.243715e-06	-9.779497e-09	-1.575799e+01	-6.412342e+02
2.670000e-06	-2.365301e-06	-1.098252e-08	-1.661190e+01	-7.220528e+02
2.680000e-06	-2.486023e-06	-1.216711e-08	-1.745976e+01	-8.003711e+02
2.690000e-06	-2.605742e-06	-1.333950e-08	-1.830056e+01	-8.757834e+02
2.700000e-06	-2.724418e-06	-1.445870e-08	-1.913405e+01	-9.480046e+02
2.710000e-06	-2.842003e-06	-1.549221e-08	-1.995987e+01	-1.016872e+03
2.720000e-06	-2.958358e-06	-1.646024e-08	-2.077704e+01	-1.082338e+03
2.730000e-06	-3.073413e-06	-1.740779e-08	-2.158509e+01	-1.144454e+03
2.740000e-06	-3.187254e-06	-1.833888e-08	-2.238462e+01	-1.203350e+03
2.750000e-06	-3.299863e-06	-1.921374e-08	-2.317549e+01	-1.259207e+03
2.760000e-06	-3.411127e-06	-2.001238e-08	-2.395691e+01	-1.312232e+03
2.770000e-06	-3.521063e-06	-2.076655e-08	-2.472902e+01	-1.362641e+03
2.780000e-06	-3.629886e-06	-2.151343e-08	-2.549329e+01	-1.410630e+03
2.790000e-06	-3.737615e-06	-2.224374e-08	-2.624990e+01	-1.456372e+03
2.800000e-06	-3.844150e-06	-2.291995e-08	-2.699811e+01	-1.500006e+03
2.810000e-06	-3.949379e-06	-2.353542e-08	-2.773715e+01	-1.541636e+03
2.820000e-06	-4.053167e-06	-2.412514e-08	-2.846607e+01	-1.581340e+03
2.830000e-06	-4.155444e-06	-2.471477e-08	-2.918438e+01	-1.619175e+03
2.840000e-06	-4.256141e-06	-2.528566e-08	-2.989159e+01	-1.655189e+03
2.850000e-06	-4.355303e-06	-2.580493e-08	-3.058802e+01	-1.689429e+03
2.860000e-06	-4.453020e-06	-2.627810e-08	-3.127431e+01	-1.721951e+03
2.870000e-06	-4.549283e-06	-2.673991e-08	-3.195038e+01	-1.752824e+03
2.880000e-06	-4.643935e-06	-2.720428e-08	-3.261514e+01	-1.782131e+03
2.890000e-06	-4.736832e-06	-2.764829e-08	-3.326757e+01	-1.809968e+03
2.900000e-06	-4.827994e-06	-2.804971e-08	-3.390781e+01	-1.836441e+03
2.910000e-06	-4.917440e-06	-2.841929e-08	-3.453601e+01	-1.861655e+03
2.920000e-06	-5.005107e-06	-2.878720e-08	-3.515171e+01	-1.885712e+03
2.930000e-06	-5.090857e-06	-2.915798e-08	-3.575394e+01	-1.908702e+03
2.940000e-06	-5.174702e-06	-2.950759e-08	-3.634280e+01	-1.930698e+03
