# Temperatura_=_20.0
# Concentracion g/m^3_=_9000.0
# C_Vs_to_Am_M_A/Vsm_=_65563218390.804596
# pendiente_HvsI_1/m_=_3716.3
# ordenada_HvsI_A/m_=_1297.0
# frecuencia_Hz_=_300769.02893965604

Tiempo_(s)	Campo_(V.s)	Magnetizacion_(V.s)	Campo_(kA/m)	Magnetizacion_(A/m)
0.000000e+00	-4.057132e-06	-3.290706e-09	-5.686465e+01	-2.123859e+02
1.000000e-08	-4.056382e-06	-3.292400e-09	-5.685413e+01	-2.123562e+02
2.000000e-08	-4.054114e-06	-3.291467e-09	-5.682235e+01	-2.123362e+02
3.000000e-08	-4.050440e-06	-3.290403e-09	-5.677085e+01	-2.123271e+02
4.000000e-08	-4.045598e-06	-3.289762e-09	-5.670300e+01	-2.123247e+02
5.000000e-08	-4.039481e-06	-3.290181e-09	-5.661725e+01	-2.123199e+02
6.000000e-08	-4.032114e-06	-3.291536e-09	-5.651399e+01	-2.123001e+02
7.000000e-08	-4.023547e-06	-3.287546e-09	-5.639393e+01	-2.122512e+02
8.000000e-08	-4.013418e-06	-3.283269e-09	-5.625196e+01	-2.121601e+02
9.000000e-08	-4.001508e-06	-3.298150e-09	-5.608502e+01	-2.120170e+02
1.000000e-07	-3.987641e-06	-3.313153e-09	-5.589066e+01	-2.118177e+02
1.100000e-07	-3.971636e-06	-3.323350e-09	-5.566634e+01	-2.115649e+02
1.200000e-07	-3.954129e-06	-3.286777e-09	-5.542096e+01	-2.112685e+02
1.300000e-07	-3.935598e-06	-3.245861e-09	-5.516123e+01	-2.109449e+02
1.400000e-07	-3.916086e-06	-3.288551e-09	-5.488775e+01	-2.106154e+02
1.500000e-07	-3.895572e-06	-3.322085e-09	-5.460023e+01	-2.103033e+02
1.600000e-07	-3.874011e-06	-3.283294e-09	-5.429804e+01	-2.100311e+02
1.700000e-07	-3.851265e-06	-3.197526e-09	-5.397922e+01	-2.098166e+02
1.800000e-07	-3.826785e-06	-3.167212e-09	-5.363611e+01	-2.096701e+02
1.900000e-07	-3.800660e-06	-3.308637e-09	-5.326995e+01	-2.095924e+02
2.000000e-07	-3.773520e-06	-3.390534e-09	-5.288956e+01	-2.095731e+02
2.100000e-07	-3.745131e-06	-3.193322e-09	-5.249165e+01	-2.095912e+02
2.200000e-07	-3.715253e-06	-3.109573e-09	-5.207289e+01	-2.096164e+02
2.300000e-07	-3.684305e-06	-3.263814e-09	-5.163912e+01	-2.096119e+02
2.400000e-07	-3.652266e-06	-3.292677e-09	-5.119006e+01	-2.095381e+02
2.500000e-07	-3.618757e-06	-3.125910e-09	-5.072039e+01	-2.093570e+02
2.600000e-07	-3.583697e-06	-2.963258e-09	-5.022899e+01	-2.090358e+02
2.700000e-07	-3.547312e-06	-3.003325e-09	-4.971902e+01	-2.085509e+02
2.800000e-07	-3.509808e-06	-3.196068e-09	-4.919336e+01	-2.078902e+02
2.900000e-07	-3.471133e-06	-3.186123e-09	-4.865130e+01	-2.070547e+02
3.000000e-07	-3.431296e-06	-2.961421e-09	-4.809294e+01	-2.060578e+02
3.100000e-07	-3.390248e-06	-2.906540e-09	-4.751762e+01	-2.049237e+02
3.200000e-07	-3.347707e-06	-3.045378e-09	-4.692137e+01	-2.036846e+02
3.300000e-07	-3.303848e-06	-3.148384e-09	-4.630664e+01	-2.023766e+02
3.400000e-07	-3.258945e-06	-3.055716e-09	-4.567728e+01	-2.010356e+02
3.500000e-07	-3.212914e-06	-2.852913e-09	-4.503211e+01	-1.996932e+02
3.600000e-07	-3.165655e-06	-2.847942e-09	-4.436973e+01	-1.983736e+02
3.700000e-07	-3.117339e-06	-3.063755e-09	-4.369254e+01	-1.970907e+02
3.800000e-07	-3.067778e-06	-3.081132e-09	-4.299789e+01	-1.958476e+02
3.900000e-07	-3.016526e-06	-2.835100e-09	-4.227955e+01	-1.946368e+02
4.000000e-07	-2.963814e-06	-2.770375e-09	-4.154073e+01	-1.934417e+02
4.100000e-07	-2.910123e-06	-2.935691e-09	-4.078820e+01	-1.922395e+02
4.200000e-07	-2.855561e-06	-2.975699e-09	-4.002347e+01	-1.910044e+02
4.300000e-07	-2.800057e-06	-2.845767e-09	-3.924553e+01	-1.897113e+02
4.400000e-07	-2.743595e-06	-2.756150e-09	-3.845415e+01	-1.883384e+02
4.500000e-07	-2.686008e-06	-2.762624e-09	-3.764701e+01	-1.868705e+02
4.600000e-07	-2.627206e-06	-2.820201e-09	-3.682285e+01	-1.852994e+02
4.700000e-07	-2.567420e-06	-2.822738e-09	-3.598489e+01	-1.836251e+02
4.800000e-07	-2.506860e-06	-2.711051e-09	-3.513607e+01	-1.818547e+02
4.900000e-07	-2.445445e-06	-2.618210e-09	-3.427529e+01	-1.800003e+02
5.000000e-07	-2.383153e-06	-2.684939e-09	-3.340220e+01	-1.780773e+02
5.100000e-07	-2.320141e-06	-2.740526e-09	-3.251903e+01	-1.761011e+02
5.200000e-07	-2.256445e-06	-2.614527e-09	-3.162626e+01	-1.740850e+02
5.300000e-07	-2.191888e-06	-2.512162e-09	-3.072145e+01	-1.720382e+02
5.400000e-07	-2.126270e-06	-2.564294e-09	-2.980174e+01	-1.699639e+02
5.500000e-07	-2.059708e-06	-2.592049e-09	-2.886880e+01	-1.678597e+02
5.600000e-07	-1.992450e-06	-2.496721e-09	-2.792612e+01	-1.657173e+02
5.700000e-07	-1.924569e-06	-2.420140e-09	-2.697470e+01	-1.635241e+02
5.800000e-07	-1.856107e-06	-2.419526e-09	-2.601514e+01	-1.612647e+02
5.900000e-07	-1.787114e-06	-2.417353e-09	-2.504815e+01	-1.589229e+02
6.000000e-07	-1.717536e-06	-2.376557e-09	-2.407294e+01	-1.564838e+02
6.100000e-07	-1.647305e-06	-2.306465e-09	-2.308858e+01	-1.539348e+02
6.200000e-07	-1.576448e-06	-2.251459e-09	-2.209545e+01	-1.512668e+02
6.300000e-07	-1.505104e-06	-2.245455e-09	-2.109550e+01	-1.484742e+02
6.400000e-07	-1.433380e-06	-2.234984e-09	-2.009021e+01	-1.455550e+02
6.500000e-07	-1.361276e-06	-2.154303e-09	-1.907961e+01	-1.425091e+02
6.600000e-07	-1.288635e-06	-2.069527e-09	-1.806147e+01	-1.393371e+02
6.700000e-07	-1.215268e-06	-2.051023e-09	-1.703316e+01	-1.360390e+02
6.800000e-07	-1.141283e-06	-2.042708e-09	-1.599619e+01	-1.326128e+02
6.900000e-07	-1.066750e-06	-1.970715e-09	-1.495153e+01	-1.290532e+02
7.000000e-07	-9.916431e-07	-1.871056e-09	-1.389884e+01	-1.253515e+02
7.100000e-07	-9.160809e-07	-1.818009e-09	-1.283976e+01	-1.214953e+02
7.200000e-07	-8.402505e-07	-1.797974e-09	-1.177693e+01	-1.174695e+02
7.300000e-07	-7.642386e-07	-1.740928e-09	-1.071155e+01	-1.132573e+02
7.400000e-07	-6.880182e-07	-1.634131e-09	-9.643243e+00	-1.088416e+02
7.500000e-07	-6.114794e-07	-1.546671e-09	-8.570479e+00	-1.042065e+02
7.600000e-07	-5.345741e-07	-1.503341e-09	-7.492575e+00	-9.933825e+01
7.700000e-07	-4.575041e-07	-1.449239e-09	-6.412365e+00	-9.422673e+01
7.800000e-07	-3.803895e-07	-1.348565e-09	-5.331528e+00	-8.886545e+01
7.900000e-07	-3.031178e-07	-1.239615e-09	-4.248491e+00	-8.325177e+01
8.000000e-07	-2.256666e-07	-1.160858e-09	-3.162937e+00	-7.738634e+01
8.100000e-07	-1.481800e-07	-1.089650e-09	-2.076887e+00	-7.127244e+01
8.200000e-07	-7.070109e-08	-9.929000e-10	-9.909444e-01	-6.491508e+01
8.300000e-07	6.833364e-09	-8.713789e-10	9.577623e-02	-5.832024e+01
8.400000e-07	8.439272e-08	-7.559409e-10	1.182846e+00	-5.149439e+01
8.500000e-07	1.619171e-07	-6.628500e-10	2.269425e+00	-4.444435e+01
8.600000e-07	2.393510e-07	-5.684343e-10	3.354737e+00	-3.717770e+01
8.700000e-07	3.166404e-07	-4.413724e-10	4.438023e+00	-2.970352e+01
8.800000e-07	3.938038e-07	-3.035630e-10	5.519543e+00	-2.203357e+01
8.900000e-07	4.708234e-07	-1.941645e-10	6.599048e+00	-1.418352e+01
9.000000e-07	5.476863e-07	-9.157389e-11	7.676357e+00	-6.174140e+00
9.100000e-07	6.243507e-07	4.033851e-11	8.750882e+00	1.967770e+00
9.200000e-07	7.007258e-07	1.852265e-10	9.821353e+00	1.020901e+01
9.300000e-07	7.767909e-07	3.085567e-10	1.088748e+01	1.851018e+01
9.400000e-07	8.526080e-07	4.189954e-10	1.195013e+01	2.682663e+01
9.500000e-07	9.282128e-07	5.419627e-10	1.300980e+01	3.510998e+01
9.600000e-07	1.003561e-06	6.766011e-10	1.406588e+01	4.331018e+01
9.700000e-07	1.078526e-06	8.052018e-10	1.511660e+01	5.137791e+01
9.800000e-07	1.152936e-06	9.212088e-10	1.615952e+01	5.926696e+01
9.900000e-07	1.226639e-06	1.031673e-09	1.719254e+01	6.693645e+01
1.000000e-06	1.299585e-06	1.147270e-09	1.821494e+01	7.435261e+01
1.010000e-06	1.371921e-06	1.265876e-09	1.922880e+01	8.148991e+01
1.020000e-06	1.443805e-06	1.368693e-09	2.023633e+01	8.833151e+01
1.030000e-06	1.515340e-06	1.457550e-09	2.123896e+01	9.486893e+01
1.040000e-06	1.586488e-06	1.551546e-09	2.223618e+01	1.011012e+02
1.050000e-06	1.657055e-06	1.653234e-09	2.322524e+01	1.070334e+02
1.060000e-06	1.727012e-06	1.742102e-09	2.420575e+01	1.126752e+02
1.070000e-06	1.796366e-06	1.814142e-09	2.517782e+01	1.180386e+02
1.080000e-06	1.865061e-06	1.887442e-09	2.614065e+01	1.231374e+02
1.090000e-06	1.933177e-06	1.967185e-09	2.709535e+01	1.279848e+02
1.100000e-06	2.000795e-06	2.040001e-09	2.804309e+01	1.325937e+02
1.110000e-06	2.067868e-06	2.099966e-09	2.898318e+01	1.369756e+02
1.120000e-06	2.134050e-06	2.156484e-09	2.991079e+01	1.411410e+02
1.130000e-06	2.199086e-06	2.216426e-09	3.082232e+01	1.450997e+02
1.140000e-06	2.263221e-06	2.276179e-09	3.172124e+01	1.488611e+02
1.150000e-06	2.326739e-06	2.329188e-09	3.261151e+01	1.524349e+02
1.160000e-06	2.389563e-06	2.374895e-09	3.349205e+01	1.558312e+02
1.170000e-06	2.451565e-06	2.419728e-09	3.436107e+01	1.590606e+02
1.180000e-06	2.512738e-06	2.467538e-09	3.521847e+01	1.621343e+02
1.190000e-06	2.573121e-06	2.514627e-09	3.606479e+01	1.650631e+02
1.200000e-06	2.632843e-06	2.553304e-09	3.690185e+01	1.678575e+02
1.210000e-06	2.691759e-06	2.585876e-09	3.772762e+01	1.705264e+02
1.220000e-06	2.749388e-06	2.622843e-09	3.853534e+01	1.730771e+02
1.230000e-06	2.805747e-06	2.663950e-09	3.932527e+01	1.755148e+02
1.240000e-06	2.861206e-06	2.699247e-09	4.010258e+01	1.778423e+02
1.250000e-06	2.915767e-06	2.727529e-09	4.086731e+01	1.800608e+02
1.260000e-06	2.969350e-06	2.756440e-09	4.161833e+01	1.821700e+02
1.270000e-06	3.021846e-06	2.788029e-09	4.235410e+01	1.841692e+02
1.280000e-06	3.073028e-06	2.818323e-09	4.307147e+01	1.860580e+02
1.290000e-06	3.122692e-06	2.843370e-09	4.376757e+01	1.878374e+02
1.300000e-06	3.170995e-06	2.865399e-09	4.444458e+01	1.895101e+02
1.310000e-06	3.218188e-06	2.886961e-09	4.510604e+01	1.910811e+02
1.320000e-06	3.264321e-06	2.910111e-09	4.575263e+01	1.925575e+02
1.330000e-06	3.309390e-06	2.933333e-09	4.638431e+01	1.939479e+02
1.340000e-06	3.353431e-06	2.954164e-09	4.700159e+01	1.952621e+02
1.350000e-06	3.396423e-06	2.972562e-09	4.760417e+01	1.965096e+02
1.360000e-06	3.437932e-06	2.991048e-09	4.818595e+01	1.976992e+02
1.370000e-06	3.478014e-06	3.009732e-09	4.874775e+01	1.988374e+02
1.380000e-06	3.516993e-06	3.026996e-09	4.929407e+01	1.999284e+02
1.390000e-06	3.554787e-06	3.041728e-09	4.982379e+01	2.009737e+02
1.400000e-06	3.591422e-06	3.055367e-09	5.033728e+01	2.019720e+02
1.410000e-06	3.626991e-06	3.069346e-09	5.083581e+01	2.029204e+02
1.420000e-06	3.661204e-06	3.081690e-09	5.131534e+01	2.038151e+02
1.430000e-06	3.693874e-06	3.094306e-09	5.177324e+01	2.046522e+02
1.440000e-06	3.725277e-06	3.107701e-09	5.221338e+01	2.054295e+02
1.450000e-06	3.755464e-06	3.119086e-09	5.263648e+01	2.061466e+02
1.460000e-06	3.784412e-06	3.128936e-09	5.304221e+01	2.068061e+02
1.470000e-06	3.812225e-06	3.138326e-09	5.343204e+01	2.074132e+02
1.480000e-06	3.838596e-06	3.148932e-09	5.380166e+01	2.079753e+02
1.490000e-06	3.863321e-06	3.158848e-09	5.414820e+01	2.085014e+02
1.500000e-06	3.886671e-06	3.167498e-09	5.447547e+01	2.090006e+02
1.510000e-06	3.908739e-06	3.175290e-09	5.478478e+01	2.094807e+02
1.520000e-06	3.929557e-06	3.182198e-09	5.507656e+01	2.099475e+02
1.530000e-06	3.949224e-06	3.188847e-09	5.535222e+01	2.104030e+02
1.540000e-06	3.967565e-06	3.193739e-09	5.560928e+01	2.108458e+02
1.550000e-06	3.984359e-06	3.197494e-09	5.584466e+01	2.112707e+02
1.560000e-06	3.999604e-06	3.201149e-09	5.605834e+01	2.116697e+02
1.570000e-06	4.013384e-06	3.207252e-09	5.625148e+01	2.120330e+02
1.580000e-06	4.025747e-06	3.213789e-09	5.642476e+01	2.123507e+02
1.590000e-06	4.036418e-06	3.217537e-09	5.657433e+01	2.126147e+02
1.600000e-06	4.045301e-06	3.219594e-09	5.669883e+01	2.128197e+02
1.610000e-06	4.052732e-06	3.222225e-09	5.680297e+01	2.129646e+02
1.620000e-06	4.058850e-06	3.224977e-09	5.688873e+01	2.130529e+02
1.630000e-06	4.063699e-06	3.224151e-09	5.695669e+01	2.130926e+02
1.640000e-06	4.067306e-06	3.222311e-09	5.700725e+01	2.130951e+02
1.650000e-06	4.069341e-06	3.222999e-09	5.703577e+01	2.130736e+02
1.660000e-06	4.069750e-06	3.225928e-09	5.704150e+01	2.130415e+02
1.670000e-06	4.068806e-06	3.226999e-09	5.702827e+01	2.130102e+02
1.680000e-06	4.066588e-06	3.225914e-09	5.699719e+01	2.129873e+02
1.690000e-06	4.063190e-06	3.223933e-09	5.694956e+01	2.129756e+02
1.700000e-06	4.058652e-06	3.223658e-09	5.688595e+01	2.129721e+02
1.710000e-06	4.052647e-06	3.222239e-09	5.680179e+01	2.129689e+02
1.720000e-06	4.045157e-06	3.217233e-09	5.669681e+01	2.129540e+02
1.730000e-06	4.036515e-06	3.215664e-09	5.657569e+01	2.129136e+02
1.740000e-06	4.026719e-06	3.207872e-09	5.643839e+01	2.128340e+02
1.750000e-06	4.015502e-06	3.185401e-09	5.628116e+01	2.127044e+02
1.760000e-06	4.002184e-06	3.166475e-09	5.609450e+01	2.125191e+02
1.770000e-06	3.986417e-06	3.156578e-09	5.587350e+01	2.122790e+02
1.780000e-06	3.968911e-06	3.214248e-09	5.562815e+01	2.119920e+02
1.790000e-06	3.950793e-06	3.236149e-09	5.537420e+01	2.116733e+02
1.800000e-06	3.932330e-06	3.167695e-09	5.511543e+01	2.113430e+02
1.810000e-06	3.912378e-06	3.153926e-09	5.483578e+01	2.110243e+02
1.820000e-06	3.890230e-06	3.188549e-09	5.452536e+01	2.107401e+02
1.830000e-06	3.866952e-06	3.298447e-09	5.419909e+01	2.105097e+02
1.840000e-06	3.842729e-06	3.263601e-09	5.385958e+01	2.103457e+02
1.850000e-06	3.816716e-06	3.010214e-09	5.349499e+01	2.102512e+02
1.860000e-06	3.789421e-06	3.038724e-09	5.311242e+01	2.102188e+02
1.870000e-06	3.761252e-06	3.253580e-09	5.271761e+01	2.102299e+02
1.880000e-06	3.731671e-06	3.161830e-09	5.230300e+01	2.102565e+02
1.890000e-06	3.700464e-06	3.061132e-09	5.186560e+01	2.102629e+02
1.900000e-06	3.667838e-06	3.235077e-09	5.140831e+01	2.102101e+02
1.910000e-06	3.634075e-06	3.377252e-09	5.093509e+01	2.100591e+02
1.920000e-06	3.599251e-06	3.380821e-09	5.044701e+01	2.097754e+02
1.930000e-06	3.563099e-06	3.262024e-09	4.994029e+01	2.093329e+02
1.940000e-06	3.525693e-06	3.122875e-09	4.941602e+01	2.087165e+02
1.950000e-06	3.487061e-06	3.201544e-09	4.887454e+01	2.079239e+02
1.960000e-06	3.446869e-06	3.320360e-09	4.831121e+01	2.069653e+02
1.970000e-06	3.405393e-06	3.284915e-09	4.772989e+01	2.058627e+02
1.980000e-06	3.362967e-06	3.147267e-09	4.713525e+01	2.046464e+02
1.990000e-06	3.319427e-06	3.024209e-09	4.652499e+01	2.033520e+02
2.000000e-06	3.274787e-06	3.172771e-09	4.589932e+01	2.020159e+02
2.010000e-06	3.229067e-06	3.292707e-09	4.525851e+01	2.006712e+02
2.020000e-06	3.182149e-06	3.068598e-09	4.460091e+01	1.993441e+02
2.030000e-06	3.133897e-06	2.922045e-09	4.392461e+01	1.980512e+02
2.040000e-06	3.084426e-06	3.053868e-09	4.323123e+01	1.967984e+02
2.050000e-06	3.034013e-06	3.153945e-09	4.252464e+01	1.955806e+02
2.060000e-06	2.982495e-06	3.034347e-09	4.180257e+01	1.943834e+02
2.070000e-06	2.929669e-06	2.926904e-09	4.106216e+01	1.931852e+02
2.080000e-06	2.875425e-06	2.945198e-09	4.030188e+01	1.919607e+02
2.090000e-06	2.819941e-06	2.963908e-09	3.952421e+01	1.906842e+02
2.100000e-06	2.763554e-06	2.985541e-09	3.873389e+01	1.893329e+02
2.110000e-06	2.706200e-06	2.925999e-09	3.793002e+01	1.878897e+02
2.120000e-06	2.647925e-06	2.812184e-09	3.711324e+01	1.863446e+02
2.130000e-06	2.588835e-06	2.832097e-09	3.628505e+01	1.846956e+02
2.140000e-06	2.528929e-06	2.889422e-09	3.544540e+01	1.829481e+02
2.150000e-06	2.468234e-06	2.835089e-09	3.459470e+01	1.811133e+02
2.160000e-06	2.406518e-06	2.710728e-09	3.372968e+01	1.792058e+02
2.170000e-06	2.343613e-06	2.697793e-09	3.284802e+01	1.772414e+02
2.180000e-06	2.279812e-06	2.766640e-09	3.195378e+01	1.752342e+02
2.190000e-06	2.215403e-06	2.705058e-09	3.105103e+01	1.731944e+02
2.200000e-06	2.150259e-06	2.601579e-09	3.013796e+01	1.711269e+02
2.210000e-06	2.084261e-06	2.580365e-09	2.921294e+01	1.690307e+02
2.220000e-06	2.017567e-06	2.600213e-09	2.827817e+01	1.668987e+02
2.230000e-06	1.950240e-06	2.569102e-09	2.733452e+01	1.647195e+02
2.240000e-06	1.882278e-06	2.486262e-09	2.638196e+01	1.624780e+02
2.250000e-06	1.813671e-06	2.444619e-09	2.542036e+01	1.601582e+02
2.260000e-06	1.744375e-06	2.428064e-09	2.444911e+01	1.577447e+02
2.270000e-06	1.674306e-06	2.404518e-09	2.346703e+01	1.552240e+02
2.280000e-06	1.603355e-06	2.351761e-09	2.247258e+01	1.525863e+02
2.290000e-06	1.531704e-06	2.284298e-09	2.146832e+01	1.498251e+02
2.300000e-06	1.459667e-06	2.246697e-09	2.045865e+01	1.469375e+02
2.310000e-06	1.387290e-06	2.225619e-09	1.944422e+01	1.439231e+02
2.320000e-06	1.314497e-06	2.187510e-09	1.842395e+01	1.407824e+02
2.330000e-06	1.241243e-06	2.105131e-09	1.739722e+01	1.375159e+02
2.340000e-06	1.167477e-06	2.030006e-09	1.636332e+01	1.341220e+02
2.350000e-06	1.093252e-06	2.006979e-09	1.532299e+01	1.305963e+02
2.360000e-06	1.018699e-06	1.979630e-09	1.427806e+01	1.269311e+02
2.370000e-06	9.438360e-07	1.893729e-09	1.322878e+01	1.231147e+02
2.380000e-06	8.685391e-07	1.798853e-09	1.217342e+01	1.191327e+02
2.390000e-06	7.928933e-07	1.759335e-09	1.111317e+01	1.149686e+02
2.400000e-06	7.170322e-07	1.721717e-09	1.004990e+01	1.106053e+02
2.410000e-06	6.409008e-07	1.631305e-09	8.982848e+00	1.060263e+02
2.420000e-06	5.645364e-07	1.530829e-09	7.912526e+00	1.012173e+02
2.430000e-06	4.879932e-07	1.459121e-09	6.839699e+00	9.616727e+01
2.440000e-06	4.112272e-07	1.396316e-09	5.763749e+00	9.086873e+01
2.450000e-06	3.342590e-07	1.317826e-09	4.684965e+00	8.531810e+01
2.460000e-06	2.571128e-07	1.220933e-09	3.603686e+00	7.951528e+01
2.470000e-06	1.797976e-07	1.118027e-09	2.520039e+00	7.346298e+01
2.480000e-06	1.023376e-07	1.027901e-09	1.434361e+00	6.716585e+01
2.490000e-06	2.480825e-08	9.472677e-10	3.477118e-01	6.062968e+01
2.500000e-06	-5.260971e-08	8.447975e-10	-7.373763e-01	5.386086e+01
2.510000e-06	-1.300000e-07	7.181034e-10	-1.822076e+00	4.686610e+01
2.520000e-06	-2.074150e-07	6.048618e-10	-2.907122e+00	3.965272e+01
2.530000e-06	-2.845973e-07	5.102475e-10	-3.988908e+00	3.222934e+01
2.540000e-06	-3.614439e-07	3.973902e-10	-5.065987e+00	2.460694e+01
2.550000e-06	-4.380698e-07	2.604584e-10	-6.139974e+00	1.680008e+01
2.560000e-06	-5.145223e-07	1.340214e-10	-7.211530e+00	8.828159e+00
2.570000e-06	-5.907739e-07	2.364464e-11	-8.280270e+00	7.164172e-01
2.580000e-06	-6.667443e-07	-9.595250e-11	-9.345070e+00	-7.503553e+00
2.590000e-06	-7.424509e-07	-2.306645e-10	-1.040617e+01	-1.579385e+01
2.600000e-06	-8.179290e-07	-3.617997e-10	-1.146407e+01	-2.411101e+01
2.610000e-06	-8.930764e-07	-4.823070e-10	-1.251733e+01	-3.240740e+01
2.620000e-06	-9.678724e-07	-6.019151e-10	-1.356567e+01	-4.063318e+01
2.630000e-06	-1.042296e-06	-7.251392e-10	-1.460880e+01	-4.873863e+01
2.640000e-06	-1.116362e-06	-8.511391e-10	-1.564690e+01	-5.667652e+01
2.650000e-06	-1.190126e-06	-9.715798e-10	-1.668078e+01	-6.440448e+01
2.660000e-06	-1.263475e-06	-1.082398e-09	-1.770883e+01	-7.188680e+01
2.670000e-06	-1.336287e-06	-1.189939e-09	-1.872936e+01	-7.909584e+01
2.680000e-06	-1.408633e-06	-1.301207e-09	-1.974336e+01	-8.601258e+01
2.690000e-06	-1.480649e-06	-1.408744e-09	-2.075273e+01	-9.262651e+01
2.700000e-06	-1.552356e-06	-1.500710e-09	-2.175777e+01	-9.893491e+01
2.710000e-06	-1.623615e-06	-1.584715e-09	-2.275655e+01	-1.049415e+02
2.720000e-06	-1.694144e-06	-1.674649e-09	-2.374507e+01	-1.106549e+02
2.730000e-06	-1.763692e-06	-1.764892e-09	-2.471985e+01	-1.160868e+02
2.740000e-06	-1.832336e-06	-1.842873e-09	-2.568197e+01	-1.212505e+02
2.750000e-06	-1.900376e-06	-1.914281e-09	-2.663562e+01	-1.261597e+02
2.760000e-06	-1.967900e-06	-1.987416e-09	-2.758203e+01	-1.308272e+02
2.770000e-06	-2.034750e-06	-2.060432e-09	-2.851900e+01	-1.352649e+02
2.780000e-06	-2.100945e-06	-2.127658e-09	-2.944678e+01	-1.394836e+02
2.790000e-06	-2.166458e-06	-2.189479e-09	-3.036502e+01	-1.434932e+02
2.800000e-06	-2.231177e-06	-2.246505e-09	-3.127212e+01	-1.473031e+02
2.810000e-06	-2.295236e-06	-2.302547e-09	-3.216997e+01	-1.509230e+02
2.820000e-06	-2.358650e-06	-2.360761e-09	-3.305878e+01	-1.543627e+02
2.830000e-06	-2.421060e-06	-2.415667e-09	-3.393351e+01	-1.576330e+02
2.840000e-06	-2.482249e-06	-2.464079e-09	-3.479113e+01	-1.607446e+02
2.850000e-06	-2.542519e-06	-2.509468e-09	-3.563587e+01	-1.637088e+02
2.860000e-06	-2.602031e-06	-2.556509e-09	-3.646999e+01	-1.665360e+02
2.870000e-06	-2.660638e-06	-2.603841e-09	-3.729142e+01	-1.692356e+02
2.880000e-06	-2.718332e-06	-2.647139e-09	-3.810007e+01	-1.718154e+02
2.890000e-06	-2.775112e-06	-2.686006e-09	-3.889589e+01	-1.742811e+02
2.900000e-06	-2.831050e-06	-2.722131e-09	-3.967992e+01	-1.766361e+02
2.910000e-06	-2.886028e-06	-2.757813e-09	-4.045049e+01	-1.788819e+02
2.920000e-06	-2.939588e-06	-2.791103e-09	-4.120118e+01	-1.810186e+02
2.930000e-06	-2.991725e-06	-2.820210e-09	-4.193194e+01	-1.830455e+02
2.940000e-06	-3.042737e-06	-2.848433e-09	-4.264691e+01	-1.849620e+02
