# Temperatura_=_20.0
# Concentracion g/m^3_=_9000.0
# C_Vs_to_Am_M_A/Vsm_=_65563218390.804596
# pendiente_HvsI_1/m_=_3716.3
# ordenada_HvsI_A/m_=_1297.0
# frecuencia_Hz_=_300772.7715319761

Tiempo_(s)	Campo_(V.s)	Magnetizacion_(V.s)	Campo_(kA/m)	Magnetizacion_(A/m)
0.000000e+00	-4.025976e-06	-3.308778e-09	-5.684251e+01	-2.137417e+02
1.000000e-08	-4.024075e-06	-3.308352e-09	-5.681567e+01	-2.137440e+02
2.000000e-08	-4.020676e-06	-3.308199e-09	-5.676768e+01	-2.137442e+02
3.000000e-08	-4.016099e-06	-3.307234e-09	-5.670306e+01	-2.137404e+02
4.000000e-08	-4.010281e-06	-3.307225e-09	-5.662091e+01	-2.137269e+02
5.000000e-08	-4.003234e-06	-3.309743e-09	-5.652142e+01	-2.136955e+02
6.000000e-08	-3.995000e-06	-3.312080e-09	-5.640517e+01	-2.136363e+02
7.000000e-08	-3.985237e-06	-3.312715e-09	-5.626732e+01	-2.135402e+02
8.000000e-08	-3.973743e-06	-3.306680e-09	-5.610504e+01	-2.134000e+02
9.000000e-08	-3.960404e-06	-3.309127e-09	-5.591671e+01	-2.132125e+02
1.000000e-07	-3.944936e-06	-3.323938e-09	-5.569832e+01	-2.129794e+02
1.100000e-07	-3.927747e-06	-3.313588e-09	-5.545562e+01	-2.127080e+02
1.200000e-07	-3.909493e-06	-3.309041e-09	-5.519790e+01	-2.124108e+02
1.300000e-07	-3.890384e-06	-3.285323e-09	-5.492810e+01	-2.121038e+02
1.400000e-07	-3.870287e-06	-3.288444e-09	-5.464435e+01	-2.118050e+02
1.500000e-07	-3.849164e-06	-3.338353e-09	-5.434612e+01	-2.115320e+02
1.600000e-07	-3.826955e-06	-3.232927e-09	-5.403256e+01	-2.112987e+02
1.700000e-07	-3.803074e-06	-3.165836e-09	-5.369538e+01	-2.111135e+02
1.800000e-07	-3.777450e-06	-3.327737e-09	-5.333359e+01	-2.109768e+02
1.900000e-07	-3.750735e-06	-3.375795e-09	-5.295641e+01	-2.108806e+02
2.000000e-07	-3.722863e-06	-3.210837e-09	-5.256288e+01	-2.108077e+02
2.100000e-07	-3.693527e-06	-3.185218e-09	-5.214869e+01	-2.107334e+02
2.200000e-07	-3.663056e-06	-3.279349e-09	-5.171847e+01	-2.106273e+02
2.300000e-07	-3.631582e-06	-3.291717e-09	-5.127409e+01	-2.104563e+02
2.400000e-07	-3.598782e-06	-3.173425e-09	-5.081098e+01	-2.101881e+02
2.500000e-07	-3.564385e-06	-3.000151e-09	-5.032533e+01	-2.097945e+02
2.600000e-07	-3.528536e-06	-3.027238e-09	-4.981919e+01	-2.092546e+02
2.700000e-07	-3.491558e-06	-3.180458e-09	-4.929710e+01	-2.085570e+02
2.800000e-07	-3.453429e-06	-3.201993e-09	-4.875875e+01	-2.077010e+02
2.900000e-07	-3.414124e-06	-3.041974e-09	-4.820382e+01	-2.066968e+02
3.000000e-07	-3.373707e-06	-2.909341e-09	-4.763317e+01	-2.055639e+02
3.100000e-07	-3.331873e-06	-3.017372e-09	-4.704251e+01	-2.043290e+02
3.200000e-07	-3.288595e-06	-3.190966e-09	-4.643147e+01	-2.030229e+02
3.300000e-07	-3.244254e-06	-3.093455e-09	-4.580543e+01	-2.016768e+02
3.400000e-07	-3.198807e-06	-2.864967e-09	-4.516377e+01	-2.003190e+02
3.500000e-07	-3.152067e-06	-2.871315e-09	-4.450384e+01	-1.989718e+02
3.600000e-07	-3.104238e-06	-3.065683e-09	-4.382855e+01	-1.976491e+02
3.700000e-07	-3.055331e-06	-3.084120e-09	-4.313804e+01	-1.963558e+02
3.800000e-07	-3.004920e-06	-2.876921e-09	-4.242629e+01	-1.950877e+02
3.900000e-07	-2.952834e-06	-2.795141e-09	-4.169089e+01	-1.938324e+02
4.000000e-07	-2.899585e-06	-2.909328e-09	-4.093906e+01	-1.925717e+02
4.100000e-07	-2.845498e-06	-2.975916e-09	-4.017541e+01	-1.912845e+02
4.200000e-07	-2.790496e-06	-2.889819e-09	-3.939885e+01	-1.899494e+02
4.300000e-07	-2.734690e-06	-2.777939e-09	-3.861093e+01	-1.885475e+02
4.400000e-07	-2.677914e-06	-2.753674e-09	-3.780931e+01	-1.870649e+02
4.500000e-07	-2.619818e-06	-2.817745e-09	-3.698906e+01	-1.854935e+02
4.600000e-07	-2.560572e-06	-2.854754e-09	-3.615256e+01	-1.838320e+02
4.700000e-07	-2.500594e-06	-2.736075e-09	-3.530573e+01	-1.820850e+02
4.800000e-07	-2.439874e-06	-2.610720e-09	-3.444844e+01	-1.802619e+02
4.900000e-07	-2.378279e-06	-2.681239e-09	-3.357878e+01	-1.783744e+02
5.000000e-07	-2.315871e-06	-2.762853e-09	-3.269765e+01	-1.764349e+02
5.100000e-07	-2.252686e-06	-2.639258e-09	-3.180553e+01	-1.744538e+02
5.200000e-07	-2.188774e-06	-2.518969e-09	-3.090316e+01	-1.724381e+02
5.300000e-07	-2.123993e-06	-2.565812e-09	-2.998853e+01	-1.703895e+02
5.400000e-07	-2.058145e-06	-2.602330e-09	-2.905883e+01	-1.683049e+02
5.500000e-07	-1.991406e-06	-2.519181e-09	-2.811655e+01	-1.661761e+02
5.600000e-07	-1.924044e-06	-2.442537e-09	-2.716546e+01	-1.639910e+02
5.700000e-07	-1.856195e-06	-2.427569e-09	-2.620751e+01	-1.617350e+02
5.800000e-07	-1.787843e-06	-2.415782e-09	-2.524245e+01	-1.593932e+02
5.900000e-07	-1.718907e-06	-2.392974e-09	-2.426915e+01	-1.569516e+02
6.000000e-07	-1.649327e-06	-2.334655e-09	-2.328675e+01	-1.543987e+02
6.100000e-07	-1.579107e-06	-2.260697e-09	-2.229531e+01	-1.517266e+02
6.200000e-07	-1.508314e-06	-2.240618e-09	-2.129579e+01	-1.489310e+02
6.300000e-07	-1.436999e-06	-2.249279e-09	-2.028890e+01	-1.460108e+02
6.400000e-07	-1.365341e-06	-2.185867e-09	-1.927717e+01	-1.429671e+02
6.500000e-07	-1.293398e-06	-2.083768e-09	-1.826141e+01	-1.398022e+02
6.600000e-07	-1.220889e-06	-2.051177e-09	-1.723766e+01	-1.365174e+02
6.700000e-07	-1.147795e-06	-2.049789e-09	-1.620565e+01	-1.331122e+02
6.800000e-07	-1.074135e-06	-1.988830e-09	-1.516565e+01	-1.295828e+02
6.900000e-07	-9.997822e-07	-1.888560e-09	-1.411587e+01	-1.259215e+02
7.000000e-07	-9.248463e-07	-1.828676e-09	-1.305785e+01	-1.221167e+02
7.100000e-07	-8.495662e-07	-1.805899e-09	-1.199497e+01	-1.181533e+02
7.200000e-07	-7.740613e-07	-1.754413e-09	-1.092893e+01	-1.140137e+02
7.300000e-07	-6.983642e-07	-1.658266e-09	-9.860163e+00	-1.096792e+02
7.400000e-07	-6.224798e-07	-1.569779e-09	-8.788755e+00	-1.051318e+02
7.500000e-07	-5.462859e-07	-1.516572e-09	-7.712978e+00	-1.003549e+02
7.600000e-07	-4.698511e-07	-1.460663e-09	-6.633799e+00	-9.533522e+01
7.700000e-07	-3.933653e-07	-1.370466e-09	-5.553901e+00	-9.006314e+01
7.800000e-07	-3.167039e-07	-1.266563e-09	-4.471523e+00	-8.453317e+01
7.900000e-07	-2.398247e-07	-1.180581e-09	-3.386071e+00	-7.874375e+01
8.000000e-07	-1.629005e-07	-1.105846e-09	-2.299982e+00	-7.269675e+01
8.100000e-07	-8.597621e-08	-1.016174e-09	-1.213893e+00	-6.639676e+01
8.200000e-07	-9.040463e-09	-9.002367e-10	-1.276418e-01	-5.985025e+01
8.300000e-07	6.791819e-08	-7.822155e-10	9.589329e-01	-5.306499e+01
8.400000e-07	1.448710e-07	-6.876012e-10	2.045425e+00	-4.604970e+01
8.500000e-07	2.217651e-07	-5.947121e-10	3.131088e+00	-3.881404e+01
8.600000e-07	2.985186e-07	-4.680806e-10	4.214766e+00	-3.136910e+01
8.700000e-07	3.750884e-07	-3.285755e-10	5.295850e+00	-2.372814e+01
8.800000e-07	4.515343e-07	-2.195866e-10	6.375186e+00	-1.590757e+01
8.900000e-07	5.278226e-07	-1.191406e-10	7.452295e+00	-7.928046e+00
9.000000e-07	6.039029e-07	1.287876e-11	8.526469e+00	1.847520e-01
9.100000e-07	6.798244e-07	1.585605e-10	9.598400e+00	8.399545e+00
9.200000e-07	7.555563e-07	2.821480e-10	1.066765e+01	1.667947e+01
9.300000e-07	8.310739e-07	3.924573e-10	1.173388e+01	2.498265e+01
9.400000e-07	9.063615e-07	5.144826e-10	1.279686e+01	3.326339e+01
9.500000e-07	9.812376e-07	6.485397e-10	1.385403e+01	4.147383e+01
9.600000e-07	1.055541e-06	7.794549e-10	1.490312e+01	4.956603e+01
9.700000e-07	1.129211e-06	8.967217e-10	1.594326e+01	5.749418e+01
9.800000e-07	1.202164e-06	1.005792e-09	1.697328e+01	6.521670e+01
9.900000e-07	1.274480e-06	1.121556e-09	1.799431e+01	7.269816e+01
1.000000e-06	1.346377e-06	1.245075e-09	1.900942e+01	7.991056e+01
1.010000e-06	1.417973e-06	1.352357e-09	2.002028e+01	8.683411e+01
1.020000e-06	1.489214e-06	1.437946e-09	2.102612e+01	9.345732e+01
1.030000e-06	1.559970e-06	1.527638e-09	2.202513e+01	9.977645e+01
1.040000e-06	1.630156e-06	1.631453e-09	2.301607e+01	1.057945e+02
1.050000e-06	1.699768e-06	1.723683e-09	2.399893e+01	1.115195e+02
1.060000e-06	1.768810e-06	1.794577e-09	2.497373e+01	1.169636e+02
1.070000e-06	1.837250e-06	1.866202e-09	2.594003e+01	1.221405e+02
1.080000e-06	1.905139e-06	1.947571e-09	2.689854e+01	1.270651e+02
1.090000e-06	1.972539e-06	2.025361e-09	2.785016e+01	1.317518e+02
1.100000e-06	2.039241e-06	2.089943e-09	2.879192e+01	1.362138e+02
1.110000e-06	2.104878e-06	2.147059e-09	2.971865e+01	1.404634e+02
1.120000e-06	2.169451e-06	2.204904e-09	3.063035e+01	1.445112e+02
1.130000e-06	2.233296e-06	2.263897e-09	3.153178e+01	1.483672e+02
1.140000e-06	2.296560e-06	2.319983e-09	3.242500e+01	1.520403e+02
1.150000e-06	2.359134e-06	2.367901e-09	3.330847e+01	1.555393e+02
1.160000e-06	2.420920e-06	2.411545e-09	3.418082e+01	1.588728e+02
1.170000e-06	2.481904e-06	2.458176e-09	3.504186e+01	1.620492e+02
1.180000e-06	2.542109e-06	2.509695e-09	3.589189e+01	1.650768e+02
1.190000e-06	2.601599e-06	2.555653e-09	3.673182e+01	1.679633e+02
1.200000e-06	2.660202e-06	2.591014e-09	3.755924e+01	1.707155e+02
1.210000e-06	2.717507e-06	2.626414e-09	3.836832e+01	1.733392e+02
1.220000e-06	2.773621e-06	2.666944e-09	3.916058e+01	1.758387e+02
1.230000e-06	2.828868e-06	2.705353e-09	3.994061e+01	1.782169e+02
1.240000e-06	2.883227e-06	2.734637e-09	4.070811e+01	1.804756e+02
1.250000e-06	2.936639e-06	2.761178e-09	4.146224e+01	1.826158e+02
1.260000e-06	2.988995e-06	2.789977e-09	4.220144e+01	1.846385e+02
1.270000e-06	3.040057e-06	2.819532e-09	4.292238e+01	1.865451e+02
1.280000e-06	3.089578e-06	2.847369e-09	4.362157e+01	1.883382e+02
1.290000e-06	3.137687e-06	2.872789e-09	4.430082e+01	1.900220e+02
1.300000e-06	3.184739e-06	2.894380e-09	4.496514e+01	1.916030e+02
1.310000e-06	3.230762e-06	2.915612e-09	4.561494e+01	1.930891e+02
1.320000e-06	3.275706e-06	2.938184e-09	4.624950e+01	1.944900e+02
1.330000e-06	3.319684e-06	2.958867e-09	4.687043e+01	1.958161e+02
1.340000e-06	3.362644e-06	2.975805e-09	4.747698e+01	1.970775e+02
1.350000e-06	3.404171e-06	2.991612e-09	4.806329e+01	1.982837e+02
1.360000e-06	3.444293e-06	3.009525e-09	4.862977e+01	1.994421e+02
1.370000e-06	3.483270e-06	3.027790e-09	4.918008e+01	2.005575e+02
1.380000e-06	3.521030e-06	3.043814e-09	4.971321e+01	2.016321e+02
1.390000e-06	3.557669e-06	3.057946e-09	5.023052e+01	2.026652e+02
1.400000e-06	3.593270e-06	3.071073e-09	5.073317e+01	2.036539e+02
1.410000e-06	3.627498e-06	3.083258e-09	5.121643e+01	2.045939e+02
1.420000e-06	3.660167e-06	3.096879e-09	5.167768e+01	2.054802e+02
1.430000e-06	3.691543e-06	3.110838e-09	5.212068e+01	2.063087e+02
1.440000e-06	3.721738e-06	3.122295e-09	5.254699e+01	2.070769e+02
1.450000e-06	3.750733e-06	3.131259e-09	5.295638e+01	2.077845e+02
1.460000e-06	3.778632e-06	3.140191e-09	5.335028e+01	2.084338e+02
1.470000e-06	3.805196e-06	3.150607e-09	5.372533e+01	2.090300e+02
1.480000e-06	3.830093e-06	3.160355e-09	5.407686e+01	2.095798e+02
1.490000e-06	3.853487e-06	3.168554e-09	5.440715e+01	2.100914e+02
1.500000e-06	3.875605e-06	3.175059e-09	5.471944e+01	2.105728e+02
1.510000e-06	3.896481e-06	3.181529e-09	5.501419e+01	2.110311e+02
1.520000e-06	3.916236e-06	3.189590e-09	5.529310e+01	2.114712e+02
1.530000e-06	3.934752e-06	3.196157e-09	5.555453e+01	2.118950e+02
1.540000e-06	3.951766e-06	3.199796e-09	5.579476e+01	2.123017e+02
1.550000e-06	3.967273e-06	3.202670e-09	5.601369e+01	2.126877e+02
1.560000e-06	3.981266e-06	3.207267e-09	5.621125e+01	2.130470e+02
1.570000e-06	3.993783e-06	3.213311e-09	5.638798e+01	2.133729e+02
1.580000e-06	4.004774e-06	3.217179e-09	5.654317e+01	2.136590e+02
1.590000e-06	4.014022e-06	3.218823e-09	5.667374e+01	2.139001e+02
1.600000e-06	4.021698e-06	3.220863e-09	5.678211e+01	2.140935e+02
1.610000e-06	4.028085e-06	3.224949e-09	5.687230e+01	2.142400e+02
1.620000e-06	4.033150e-06	3.227801e-09	5.694381e+01	2.143431e+02
1.630000e-06	4.036995e-06	3.227359e-09	5.699809e+01	2.144095e+02
1.640000e-06	4.039393e-06	3.226251e-09	5.703194e+01	2.144476e+02
1.650000e-06	4.040069e-06	3.227230e-09	5.704150e+01	2.144665e+02
1.660000e-06	4.039327e-06	3.230910e-09	5.703102e+01	2.144744e+02
1.670000e-06	4.037364e-06	3.231562e-09	5.700330e+01	2.144774e+02
1.680000e-06	4.034196e-06	3.228118e-09	5.695857e+01	2.144781e+02
1.690000e-06	4.029901e-06	3.227393e-09	5.689793e+01	2.144754e+02
1.700000e-06	4.024251e-06	3.228168e-09	5.681816e+01	2.144647e+02
1.710000e-06	4.017043e-06	3.225255e-09	5.671639e+01	2.144379e+02
1.720000e-06	4.008612e-06	3.218104e-09	5.659735e+01	2.143856e+02
1.730000e-06	3.999130e-06	3.207746e-09	5.646348e+01	2.142981e+02
1.740000e-06	3.988412e-06	3.213353e-09	5.631216e+01	2.141678e+02
1.750000e-06	3.975766e-06	3.197853e-09	5.613361e+01	2.139904e+02
1.760000e-06	3.960604e-06	3.180684e-09	5.591953e+01	2.137666e+02
1.770000e-06	3.943429e-06	3.184068e-09	5.567704e+01	2.135026e+02
1.780000e-06	3.925388e-06	3.208053e-09	5.542232e+01	2.132097e+02
1.790000e-06	3.907073e-06	3.232335e-09	5.516373e+01	2.129033e+02
1.800000e-06	3.887557e-06	3.164629e-09	5.488819e+01	2.126013e+02
1.810000e-06	3.865973e-06	3.155255e-09	5.458344e+01	2.123214e+02
1.820000e-06	3.843196e-06	3.332573e-09	5.426185e+01	2.120787e+02
1.830000e-06	3.819532e-06	3.286932e-09	5.392774e+01	2.118828e+02
1.840000e-06	3.794104e-06	3.032251e-09	5.356873e+01	2.117362e+02
1.850000e-06	3.767229e-06	3.085404e-09	5.318928e+01	2.116324e+02
1.860000e-06	3.739516e-06	3.227934e-09	5.279801e+01	2.115564e+02
1.870000e-06	3.710524e-06	3.164805e-09	5.238866e+01	2.114848e+02
1.880000e-06	3.679899e-06	3.153951e-09	5.195628e+01	2.113883e+02
1.890000e-06	3.647766e-06	3.258562e-09	5.150258e+01	2.112340e+02
1.900000e-06	3.614351e-06	3.382675e-09	5.103081e+01	2.109892e+02
1.910000e-06	3.579887e-06	3.417043e-09	5.054422e+01	2.106246e+02
1.920000e-06	3.544240e-06	3.277528e-09	5.004091e+01	2.101173e+02
1.930000e-06	3.507431e-06	3.191202e-09	4.952121e+01	2.094540e+02
1.940000e-06	3.469489e-06	3.199162e-09	4.898551e+01	2.086315e+02
1.950000e-06	3.429958e-06	3.297371e-09	4.842738e+01	2.076577e+02
1.960000e-06	3.388951e-06	3.377970e-09	4.784839e+01	2.065503e+02
1.970000e-06	3.346960e-06	3.160236e-09	4.725553e+01	2.053348e+02
1.980000e-06	3.303900e-06	3.012415e-09	4.664756e+01	2.040413e+02
1.990000e-06	3.259750e-06	3.220422e-09	4.602422e+01	2.027013e+02
2.000000e-06	3.214641e-06	3.298591e-09	4.538733e+01	2.013439e+02
2.010000e-06	3.168400e-06	3.089861e-09	4.473444e+01	1.999929e+02
2.020000e-06	3.120773e-06	2.953304e-09	4.406201e+01	1.986642e+02
2.030000e-06	3.071803e-06	3.063216e-09	4.337060e+01	1.973647e+02
2.040000e-06	3.021863e-06	3.155781e-09	4.266550e+01	1.960920e+02
2.050000e-06	2.970938e-06	3.043321e-09	4.194649e+01	1.948353e+02
2.060000e-06	2.918818e-06	2.973767e-09	4.121061e+01	1.935775e+02
2.070000e-06	2.865336e-06	2.948396e-09	4.045551e+01	1.922979e+02
2.080000e-06	2.810428e-06	2.942166e-09	3.968027e+01	1.909748e+02
2.090000e-06	2.754421e-06	3.011507e-09	3.888951e+01	1.895886e+02
2.100000e-06	2.697507e-06	2.959256e-09	3.808595e+01	1.881241e+02
2.110000e-06	2.639789e-06	2.816812e-09	3.727103e+01	1.865721e+02
2.120000e-06	2.581286e-06	2.805362e-09	3.644503e+01	1.849297e+02
2.130000e-06	2.521873e-06	2.917853e-09	3.560617e+01	1.832004e+02
2.140000e-06	2.461727e-06	2.877908e-09	3.475697e+01	1.813927e+02
2.150000e-06	2.400822e-06	2.699751e-09	3.389706e+01	1.795180e+02
2.160000e-06	2.338735e-06	2.702930e-09	3.302046e+01	1.775887e+02
2.170000e-06	2.275436e-06	2.783075e-09	3.212675e+01	1.756158e+02
2.180000e-06	2.211413e-06	2.724701e-09	3.122281e+01	1.736071e+02
2.190000e-06	2.146816e-06	2.621184e-09	3.031076e+01	1.715657e+02
2.200000e-06	2.081385e-06	2.592221e-09	2.938696e+01	1.694894e+02
2.210000e-06	2.015203e-06	2.603857e-09	2.845253e+01	1.673710e+02
2.220000e-06	1.948375e-06	2.569014e-09	2.750899e+01	1.651991e+02
2.230000e-06	1.880889e-06	2.516806e-09	2.655616e+01	1.629596e+02
2.240000e-06	1.812869e-06	2.470841e-09	2.559579e+01	1.606374e+02
2.250000e-06	1.744381e-06	2.425604e-09	2.462881e+01	1.582183e+02
2.260000e-06	1.675294e-06	2.408407e-09	2.365337e+01	1.556901e+02
2.270000e-06	1.605230e-06	2.378164e-09	2.266415e+01	1.530440e+02
2.280000e-06	1.534111e-06	2.314351e-09	2.166002e+01	1.502751e+02
2.290000e-06	1.462364e-06	2.253893e-09	2.064703e+01	1.473816e+02
2.300000e-06	1.390314e-06	2.230365e-09	1.962977e+01	1.443642e+02
2.310000e-06	1.318007e-06	2.203015e-09	1.860886e+01	1.412251e+02
2.320000e-06	1.245311e-06	2.120490e-09	1.758247e+01	1.379659e+02
2.330000e-06	1.172135e-06	2.045094e-09	1.654931e+01	1.345867e+02
2.340000e-06	1.098465e-06	2.017994e-09	1.550916e+01	1.310845e+02
2.350000e-06	1.024407e-06	1.990194e-09	1.446354e+01	1.274523e+02
2.360000e-06	9.500774e-07	1.906538e-09	1.341409e+01	1.236794e+02
2.370000e-06	8.753692e-07	1.816585e-09	1.235929e+01	1.197514e+02
2.380000e-06	8.003935e-07	1.778940e-09	1.130071e+01	1.156511e+02
2.390000e-06	7.251876e-07	1.737307e-09	1.023888e+01	1.113601e+02
2.400000e-06	6.496870e-07	1.651174e-09	9.172892e+00	1.068597e+02
2.410000e-06	5.739365e-07	1.557331e-09	8.103375e+00	1.021333e+02
2.420000e-06	4.979847e-07	1.487461e-09	7.031017e+00	9.716657e+01
2.430000e-06	4.219012e-07	1.419795e-09	5.956798e+00	9.194919e+01
2.440000e-06	3.456763e-07	1.341601e-09	4.880584e+00	8.647475e+01
2.450000e-06	2.693938e-07	1.250780e-09	3.803556e+00	8.074089e+01
2.460000e-06	1.930536e-07	1.146148e-09	2.725713e+00	7.474880e+01
2.470000e-06	1.165577e-07	1.054047e-09	1.645671e+00	6.850254e+01
2.480000e-06	3.995958e-08	9.777429e-10	5.641870e-01	6.200825e+01
2.490000e-06	-3.657994e-08	8.785360e-10	-5.164700e-01	5.527347e+01
2.500000e-06	-1.130625e-07	7.471931e-10	-1.596322e+00	4.830670e+01
2.510000e-06	-1.895853e-07	6.317924e-10	-2.676743e+00	4.111741e+01
2.520000e-06	-2.660349e-07	5.426806e-10	-3.756130e+00	3.371630e+01
2.530000e-06	-3.422559e-07	4.322456e-10	-4.832291e+00	2.611610e+01
2.540000e-06	-4.183294e-07	2.914081e-10	-5.906367e+00	1.833245e+01
2.550000e-06	-4.943029e-07	1.646666e-10	-6.979033e+00	1.038502e+01
2.560000e-06	-5.701133e-07	5.993377e-11	-8.049395e+00	2.298358e+00
2.570000e-06	-6.456929e-07	-5.666268e-11	-9.116500e+00	-5.897482e+00
2.580000e-06	-7.209669e-07	-1.912590e-10	-1.017929e+01	-1.416680e+01
2.590000e-06	-7.959236e-07	-3.252831e-10	-1.123760e+01	-2.246873e+01
2.600000e-06	-8.705369e-07	-4.477825e-10	-1.229106e+01	-3.075825e+01
2.610000e-06	-9.448248e-07	-5.647629e-10	-1.333993e+01	-3.898780e+01
2.620000e-06	-1.018854e-06	-6.874197e-10	-1.438513e+01	-4.710929e+01
2.630000e-06	-1.092574e-06	-8.184041e-10	-1.542599e+01	-5.507625e+01
2.640000e-06	-1.165870e-06	-9.448829e-10	-1.646084e+01	-6.284604e+01
2.650000e-06	-1.238692e-06	-1.054895e-09	-1.748902e+01	-7.038177e+01
2.660000e-06	-1.311100e-06	-1.157736e-09	-1.851134e+01	-7.765376e+01
2.670000e-06	-1.383234e-06	-1.269625e-09	-1.952979e+01	-8.464044e+01
2.680000e-06	-1.455125e-06	-1.382673e-09	-2.054482e+01	-9.132856e+01
2.690000e-06	-1.526565e-06	-1.475612e-09	-2.155349e+01	-9.771280e+01
2.700000e-06	-1.597338e-06	-1.556661e-09	-2.255272e+01	-1.037948e+02
2.710000e-06	-1.667173e-06	-1.648097e-09	-2.353871e+01	-1.095817e+02
2.720000e-06	-1.736054e-06	-1.744268e-09	-2.451124e+01	-1.150848e+02
2.730000e-06	-1.804334e-06	-1.824494e-09	-2.547529e+01	-1.203178e+02
2.740000e-06	-1.872169e-06	-1.894164e-09	-2.643304e+01	-1.252952e+02
2.750000e-06	-1.939459e-06	-1.967162e-09	-2.738310e+01	-1.300317e+02
2.760000e-06	-2.006031e-06	-2.041181e-09	-2.832303e+01	-1.345407e+02
2.770000e-06	-2.071907e-06	-2.110154e-09	-2.925313e+01	-1.388349e+02
2.780000e-06	-2.137139e-06	-2.174335e-09	-3.017414e+01	-1.429251e+02
2.790000e-06	-2.201696e-06	-2.233714e-09	-3.108561e+01	-1.468213e+02
2.800000e-06	-2.265658e-06	-2.290145e-09	-3.198869e+01	-1.505329e+02
2.810000e-06	-2.328793e-06	-2.350603e-09	-3.288009e+01	-1.540684e+02
2.820000e-06	-2.390748e-06	-2.409883e-09	-3.375483e+01	-1.574367e+02
2.830000e-06	-2.451605e-06	-2.459611e-09	-3.461406e+01	-1.606460e+02
2.840000e-06	-2.511674e-06	-2.503952e-09	-3.546217e+01	-1.637048e+02
2.850000e-06	-2.571017e-06	-2.550185e-09	-3.630003e+01	-1.666209e+02
2.860000e-06	-2.629462e-06	-2.597373e-09	-3.712522e+01	-1.694014e+02
2.870000e-06	-2.686923e-06	-2.639707e-09	-3.793651e+01	-1.720522e+02
2.880000e-06	-2.743459e-06	-2.677143e-09	-3.873473e+01	-1.745780e+02
2.890000e-06	-2.799249e-06	-2.714538e-09	-3.952243e+01	-1.769820e+02
2.900000e-06	-2.853928e-06	-2.753247e-09	-4.029444e+01	-1.792662e+02
2.910000e-06	-2.907071e-06	-2.789847e-09	-4.104476e+01	-1.814317e+02
2.920000e-06	-2.958988e-06	-2.821593e-09	-4.177778e+01	-1.834795e+02
2.930000e-06	-3.009907e-06	-2.850770e-09	-4.249669e+01	-1.854108e+02
2.940000e-06	-3.059626e-06	-2.879190e-09	-4.319868e+01	-1.872278e+02
