# Temperatura_=_20.0
# Concentracion g/m^3_=_9000.0
# C_Vs_to_Am_M_A/Vsm_=_65563218390.804596
# pendiente_HvsI_1/m_=_3716.3
# ordenada_HvsI_A/m_=_1297.0
# frecuencia_Hz_=_300771.80150718294

Tiempo_(s)	Campo_(V.s)	Magnetizacion_(V.s)	Campo_(kA/m)	Magnetizacion_(A/m)
0.000000e+00	-4.042172e-06	-2.573020e-09	-5.684088e+01	-1.670810e+02
1.000000e-08	-4.040341e-06	-2.573768e-09	-5.681514e+01	-1.670717e+02
2.000000e-08	-4.036971e-06	-2.573307e-09	-5.676774e+01	-1.670828e+02
3.000000e-08	-4.032408e-06	-2.570902e-09	-5.670358e+01	-1.671226e+02
4.000000e-08	-4.026586e-06	-2.570435e-09	-5.662171e+01	-1.671910e+02
5.000000e-08	-4.019447e-06	-2.571069e-09	-5.652132e+01	-1.672795e+02
6.000000e-08	-4.011150e-06	-2.569169e-09	-5.640466e+01	-1.673705e+02
7.000000e-08	-4.001388e-06	-2.560668e-09	-5.626738e+01	-1.674395e+02
8.000000e-08	-3.989874e-06	-2.532393e-09	-5.610547e+01	-1.674571e+02
9.000000e-08	-3.976560e-06	-2.523551e-09	-5.591826e+01	-1.673926e+02
1.000000e-07	-3.961162e-06	-2.551032e-09	-5.570173e+01	-1.672182e+02
1.100000e-07	-3.943971e-06	-2.585666e-09	-5.545999e+01	-1.669122e+02
1.200000e-07	-3.925650e-06	-2.617396e-09	-5.520236e+01	-1.664627e+02
1.300000e-07	-3.906438e-06	-2.551994e-09	-5.493219e+01	-1.658693e+02
1.400000e-07	-3.886233e-06	-2.526822e-09	-5.464808e+01	-1.651442e+02
1.500000e-07	-3.864987e-06	-2.594082e-09	-5.434931e+01	-1.643111e+02
1.600000e-07	-3.842621e-06	-2.472462e-09	-5.403480e+01	-1.634031e+02
1.700000e-07	-3.818619e-06	-2.443871e-09	-5.369729e+01	-1.624593e+02
1.800000e-07	-3.792887e-06	-2.631353e-09	-5.333544e+01	-1.615204e+02
1.900000e-07	-3.766044e-06	-2.583377e-09	-5.295799e+01	-1.606240e+02
2.000000e-07	-3.738099e-06	-2.425903e-09	-5.256502e+01	-1.598008e+02
2.100000e-07	-3.708671e-06	-2.436258e-09	-5.215120e+01	-1.590708e+02
2.200000e-07	-3.678006e-06	-2.439132e-09	-5.171999e+01	-1.584411e+02
2.300000e-07	-3.646339e-06	-2.485205e-09	-5.127469e+01	-1.579059e+02
2.400000e-07	-3.613387e-06	-2.522890e-09	-5.081132e+01	-1.574469e+02
2.500000e-07	-3.578855e-06	-2.306376e-09	-5.032574e+01	-1.570363e+02
2.600000e-07	-3.542845e-06	-2.233000e-09	-4.981936e+01	-1.566401e+02
2.700000e-07	-3.505673e-06	-2.485006e-09	-4.929665e+01	-1.562223e+02
2.800000e-07	-3.467365e-06	-2.552507e-09	-4.875797e+01	-1.557495e+02
2.900000e-07	-3.427877e-06	-2.283829e-09	-4.820269e+01	-1.551948e+02
3.000000e-07	-3.387279e-06	-2.177814e-09	-4.763180e+01	-1.545401e+02
3.100000e-07	-3.345251e-06	-2.385877e-09	-4.704080e+01	-1.537785e+02
3.200000e-07	-3.301761e-06	-2.486465e-09	-4.642925e+01	-1.529136e+02
3.300000e-07	-3.257228e-06	-2.346854e-09	-4.580303e+01	-1.519589e+02
3.400000e-07	-3.211625e-06	-2.210814e-09	-4.516176e+01	-1.509347e+02
3.500000e-07	-3.164755e-06	-2.203457e-09	-4.450268e+01	-1.498653e+02
3.600000e-07	-3.116788e-06	-2.319399e-09	-4.382817e+01	-1.487750e+02
3.700000e-07	-3.067779e-06	-2.396521e-09	-4.313900e+01	-1.476849e+02
3.800000e-07	-3.017217e-06	-2.241130e-09	-4.242800e+01	-1.466100e+02
3.900000e-07	-2.964970e-06	-2.093459e-09	-4.169330e+01	-1.455575e+02
4.000000e-07	-2.911610e-06	-2.191607e-09	-4.094297e+01	-1.445263e+02
4.100000e-07	-2.857396e-06	-2.330694e-09	-4.018061e+01	-1.435075e+02
4.200000e-07	-2.802256e-06	-2.251511e-09	-3.940523e+01	-1.424862e+02
4.300000e-07	-2.746207e-06	-2.079796e-09	-3.861707e+01	-1.414441e+02
4.400000e-07	-2.689099e-06	-2.065733e-09	-3.781401e+01	-1.403621e+02
4.500000e-07	-2.630732e-06	-2.182175e-09	-3.699327e+01	-1.392232e+02
4.600000e-07	-2.571313e-06	-2.213388e-09	-3.615772e+01	-1.380147e+02
4.700000e-07	-2.511103e-06	-2.061362e-09	-3.531104e+01	-1.367297e+02
4.800000e-07	-2.450091e-06	-1.957439e-09	-3.445310e+01	-1.353679e+02
4.900000e-07	-2.388245e-06	-2.055108e-09	-3.358342e+01	-1.339345e+02
5.000000e-07	-2.325561e-06	-2.123788e-09	-3.270196e+01	-1.324393e+02
5.100000e-07	-2.262155e-06	-1.999953e-09	-3.181035e+01	-1.308944e+02
5.200000e-07	-2.198085e-06	-1.898133e-09	-3.090939e+01	-1.293119e+02
5.300000e-07	-2.133005e-06	-1.947782e-09	-2.999424e+01	-1.277020e+02
5.400000e-07	-2.066810e-06	-1.980700e-09	-2.906340e+01	-1.260706e+02
5.500000e-07	-1.999842e-06	-1.911553e-09	-2.812171e+01	-1.244183e+02
5.600000e-07	-1.932317e-06	-1.843474e-09	-2.717218e+01	-1.227407e+02
5.700000e-07	-1.864246e-06	-1.823356e-09	-2.621496e+01	-1.210279e+02
5.800000e-07	-1.795629e-06	-1.819421e-09	-2.525008e+01	-1.192667e+02
5.900000e-07	-1.726455e-06	-1.821369e-09	-2.427735e+01	-1.174419e+02
6.000000e-07	-1.656660e-06	-1.768724e-09	-2.329589e+01	-1.155384e+02
6.100000e-07	-1.586178e-06	-1.684110e-09	-2.230478e+01	-1.135431e+02
6.200000e-07	-1.515070e-06	-1.680264e-09	-2.130486e+01	-1.114464e+02
6.300000e-07	-1.443584e-06	-1.715316e-09	-2.029963e+01	-1.092429e+02
6.400000e-07	-1.371840e-06	-1.649833e-09	-1.929076e+01	-1.069315e+02
6.500000e-07	-1.299702e-06	-1.541188e-09	-1.827637e+01	-1.045147e+02
6.600000e-07	-1.226950e-06	-1.530821e-09	-1.725333e+01	-1.019972e+02
6.700000e-07	-1.153539e-06	-1.552571e-09	-1.622103e+01	-9.938412e+01
6.800000e-07	-1.079473e-06	-1.495868e-09	-1.517952e+01	-9.667940e+01
6.900000e-07	-1.004742e-06	-1.403378e-09	-1.412865e+01	-9.388378e+01
7.000000e-07	-9.295380e-07	-1.362608e-09	-1.307113e+01	-9.099378e+01
7.100000e-07	-8.540105e-07	-1.354836e-09	-1.200907e+01	-8.800106e+01
7.200000e-07	-7.782584e-07	-1.316425e-09	-1.094384e+01	-8.489259e+01
7.300000e-07	-7.023049e-07	-1.239552e-09	-9.875788e+00	-8.165150e+01
7.400000e-07	-6.260477e-07	-1.165606e-09	-8.803461e+00	-7.825859e+01
7.500000e-07	-5.494801e-07	-1.125273e-09	-7.726770e+00	-7.469414e+01
7.600000e-07	-4.727344e-07	-1.092094e-09	-6.647574e+00	-7.093987e+01
7.700000e-07	-3.959539e-07	-1.027100e-09	-5.567890e+00	-6.698070e+01
7.800000e-07	-3.190247e-07	-9.377132e-10	-4.486115e+00	-6.280614e+01
7.900000e-07	-2.418838e-07	-8.660914e-10	-3.401362e+00	-5.841106e+01
8.000000e-07	-1.646687e-07	-8.195472e-10	-2.315565e+00	-5.379588e+01
8.100000e-07	-8.743344e-08	-7.597585e-10	-1.229486e+00	-4.896605e+01
8.200000e-07	-1.016752e-08	-6.622552e-10	-1.429753e-01	-4.393115e+01
8.300000e-07	6.710682e-08	-5.636645e-10	9.436537e-01	-3.870364e+01
8.400000e-07	1.443469e-07	-4.997438e-10	2.029802e+00	-3.329754e+01
8.500000e-07	2.215292e-07	-4.342794e-10	3.115136e+00	-2.772739e+01
8.600000e-07	2.985982e-07	-3.281825e-10	4.198878e+00	-2.200753e+01
8.700000e-07	3.755529e-07	-2.158822e-10	5.281012e+00	-1.615182e+01
8.800000e-07	4.523825e-07	-1.387918e-10	6.361387e+00	-1.017400e+01
8.900000e-07	5.289950e-07	-6.468898e-11	7.438710e+00	-4.088384e+00
9.000000e-07	6.053591e-07	4.018895e-11	8.512539e+00	2.089062e+00
9.100000e-07	6.815301e-07	1.521914e-10	9.583653e+00	8.339665e+00
9.200000e-07	7.575124e-07	2.442762e-10	1.065211e+01	1.464109e+01
9.300000e-07	8.333120e-07	3.276865e-10	1.171800e+01	2.096679e+01
9.400000e-07	9.088609e-07	4.215509e-10	1.278037e+01	2.728605e+01
9.500000e-07	9.840142e-07	5.257579e-10	1.383717e+01	3.356457e+01
9.600000e-07	1.058799e-06	6.297973e-10	1.488879e+01	3.976580e+01
9.700000e-07	1.133012e-06	7.189304e-10	1.593238e+01	4.585266e+01
9.800000e-07	1.206422e-06	7.970421e-10	1.696467e+01	5.178963e+01
9.900000e-07	1.279115e-06	8.862843e-10	1.798687e+01	5.754490e+01
1.000000e-06	1.351286e-06	9.863617e-10	1.900174e+01	6.309223e+01
1.010000e-06	1.423133e-06	1.068403e-09	2.001204e+01	6.841243e+01
1.020000e-06	1.494648e-06	1.129344e-09	2.101769e+01	7.349414e+01
1.030000e-06	1.565685e-06	1.200203e-09	2.201660e+01	7.833388e+01
1.040000e-06	1.636148e-06	1.285912e-09	2.300745e+01	8.293533e+01
1.050000e-06	1.706083e-06	1.357022e-09	2.399089e+01	8.730803e+01
1.060000e-06	1.775474e-06	1.406446e-09	2.496665e+01	9.146556e+01
1.070000e-06	1.844178e-06	1.458795e-09	2.593276e+01	9.542354e+01
1.080000e-06	1.912257e-06	1.523965e-09	2.689010e+01	9.919774e+01
1.090000e-06	1.979890e-06	1.586556e-09	2.784114e+01	1.028024e+02
1.100000e-06	2.046994e-06	1.636736e-09	2.878476e+01	1.062491e+02
1.110000e-06	2.113124e-06	1.679877e-09	2.971467e+01	1.095463e+02
1.120000e-06	2.178100e-06	1.724725e-09	3.062836e+01	1.126992e+02
1.130000e-06	2.242223e-06	1.772846e-09	3.153006e+01	1.157105e+02
1.140000e-06	2.305755e-06	1.818681e-09	3.242345e+01	1.185813e+02
1.150000e-06	2.368607e-06	1.855334e-09	3.330727e+01	1.213122e+02
1.160000e-06	2.430601e-06	1.886421e-09	3.417903e+01	1.239046e+02
1.170000e-06	2.491763e-06	1.924179e-09	3.503908e+01	1.263612e+02
1.180000e-06	2.552200e-06	1.966707e-09	3.588895e+01	1.286868e+02
1.190000e-06	2.612005e-06	1.998969e-09	3.672993e+01	1.308881e+02
1.200000e-06	2.670967e-06	2.021036e-09	3.755905e+01	1.329736e+02
1.210000e-06	2.728660e-06	2.048028e-09	3.837033e+01	1.349527e+02
1.220000e-06	2.785067e-06	2.081924e-09	3.916351e+01	1.368348e+02
1.230000e-06	2.840551e-06	2.110778e-09	3.994373e+01	1.386284e+02
1.240000e-06	2.895185e-06	2.132280e-09	4.071199e+01	1.403403e+02
1.250000e-06	2.948831e-06	2.153371e-09	4.146636e+01	1.419753e+02
1.260000e-06	3.001351e-06	2.175130e-09	4.220489e+01	1.435357e+02
1.270000e-06	3.052553e-06	2.197375e-09	4.292489e+01	1.450224e+02
1.280000e-06	3.102280e-06	2.218061e-09	4.362415e+01	1.464347e+02
1.290000e-06	3.150666e-06	2.235384e-09	4.430456e+01	1.477716e+02
1.300000e-06	3.197980e-06	2.250520e-09	4.496988e+01	1.490330e+02
1.310000e-06	3.244222e-06	2.266940e-09	4.562013e+01	1.502198e+02
1.320000e-06	3.289373e-06	2.284873e-09	4.625505e+01	1.513351e+02
1.330000e-06	3.333526e-06	2.300411e-09	4.687593e+01	1.523840e+02
1.340000e-06	3.376592e-06	2.313362e-09	4.748152e+01	1.533732e+02
1.350000e-06	3.418219e-06	2.326993e-09	4.806687e+01	1.543109e+02
1.360000e-06	3.458436e-06	2.341394e-09	4.863241e+01	1.552052e+02
1.370000e-06	3.497521e-06	2.354905e-09	4.918201e+01	1.560633e+02
1.380000e-06	3.535445e-06	2.366966e-09	4.971531e+01	1.568905e+02
1.390000e-06	3.572200e-06	2.378569e-09	5.023215e+01	1.576898e+02
1.400000e-06	3.607873e-06	2.388907e-09	5.073378e+01	1.584611e+02
1.410000e-06	3.642249e-06	2.397276e-09	5.121719e+01	1.592015e+02
1.420000e-06	3.675103e-06	2.405767e-09	5.167916e+01	1.599064e+02
1.430000e-06	3.706657e-06	2.415522e-09	5.212288e+01	1.605699e+02
1.440000e-06	3.737047e-06	2.424292e-09	5.255023e+01	1.611867e+02
1.450000e-06	3.766191e-06	2.430517e-09	5.296004e+01	1.617528e+02
1.460000e-06	3.794167e-06	2.436926e-09	5.335344e+01	1.622671e+02
1.470000e-06	3.820787e-06	2.444715e-09	5.372777e+01	1.627318e+02
1.480000e-06	3.845755e-06	2.452252e-09	5.407887e+01	1.631528e+02
1.490000e-06	3.869275e-06	2.457416e-09	5.440962e+01	1.635387e+02
1.500000e-06	3.891510e-06	2.461064e-09	5.472227e+01	1.639003e+02
1.510000e-06	3.912451e-06	2.465494e-09	5.501676e+01	1.642489e+02
1.520000e-06	3.932247e-06	2.471837e-09	5.529513e+01	1.645945e+02
1.530000e-06	3.950767e-06	2.477302e-09	5.555555e+01	1.649444e+02
1.540000e-06	3.967794e-06	2.480747e-09	5.579498e+01	1.653020e+02
1.550000e-06	3.983333e-06	2.484043e-09	5.601349e+01	1.656656e+02
1.560000e-06	3.997379e-06	2.488705e-09	5.621101e+01	1.660291e+02
1.570000e-06	4.009937e-06	2.494433e-09	5.638759e+01	1.663821e+02
1.580000e-06	4.020897e-06	2.498377e-09	5.654172e+01	1.667121e+02
1.590000e-06	4.030122e-06	2.500145e-09	5.667143e+01	1.670057e+02
1.600000e-06	4.037883e-06	2.501791e-09	5.678058e+01	1.672515e+02
1.610000e-06	4.044388e-06	2.505195e-09	5.687204e+01	1.674415e+02
1.620000e-06	4.049517e-06	2.507557e-09	5.694416e+01	1.675729e+02
1.630000e-06	4.053346e-06	2.506466e-09	5.699801e+01	1.676493e+02
1.640000e-06	4.055697e-06	2.506011e-09	5.703107e+01	1.676800e+02
1.650000e-06	4.056439e-06	2.509395e-09	5.704150e+01	1.676792e+02
1.660000e-06	4.055821e-06	2.514006e-09	5.703282e+01	1.676640e+02
1.670000e-06	4.053906e-06	2.515723e-09	5.700588e+01	1.676519e+02
1.680000e-06	4.050719e-06	2.515865e-09	5.696107e+01	1.676577e+02
1.690000e-06	4.046372e-06	2.518158e-09	5.689995e+01	1.676910e+02
1.700000e-06	4.040632e-06	2.519866e-09	5.681923e+01	1.677536e+02
1.710000e-06	4.033373e-06	2.517755e-09	5.671715e+01	1.678389e+02
1.720000e-06	4.024916e-06	2.515179e-09	5.659823e+01	1.679312e+02
1.730000e-06	4.015377e-06	2.522527e-09	5.646409e+01	1.680072e+02
1.740000e-06	4.004593e-06	2.565009e-09	5.631244e+01	1.680384e+02
1.750000e-06	3.991872e-06	2.559280e-09	5.613356e+01	1.679939e+02
1.760000e-06	3.976661e-06	2.520624e-09	5.591966e+01	1.678451e+02
1.770000e-06	3.959514e-06	2.459949e-09	5.567855e+01	1.675686e+02
1.780000e-06	3.941500e-06	2.469255e-09	5.542524e+01	1.671502e+02
1.790000e-06	3.923151e-06	2.530160e-09	5.516721e+01	1.665870e+02
1.800000e-06	3.903575e-06	2.440073e-09	5.489194e+01	1.658884e+02
1.810000e-06	3.881843e-06	2.450531e-09	5.458634e+01	1.650759e+02
1.820000e-06	3.858815e-06	2.616929e-09	5.426252e+01	1.641807e+02
1.830000e-06	3.834966e-06	2.485193e-09	5.392717e+01	1.632411e+02
1.840000e-06	3.809471e-06	2.268318e-09	5.356866e+01	1.622977e+02
1.850000e-06	3.782561e-06	2.348042e-09	5.319025e+01	1.613893e+02
1.860000e-06	3.754756e-06	2.393038e-09	5.279925e+01	1.605483e+02
1.870000e-06	3.725602e-06	2.385745e-09	5.238929e+01	1.597971e+02
1.880000e-06	3.694837e-06	2.407388e-09	5.195667e+01	1.591460e+02
1.890000e-06	3.662588e-06	2.291135e-09	5.150319e+01	1.585916e+02
1.900000e-06	3.629116e-06	2.387650e-09	5.103251e+01	1.581183e+02
1.910000e-06	3.594681e-06	2.650301e-09	5.054827e+01	1.577000e+02
1.920000e-06	3.558967e-06	2.473288e-09	5.004608e+01	1.573036e+02
1.930000e-06	3.521868e-06	2.237579e-09	4.952439e+01	1.568933e+02
1.940000e-06	3.483608e-06	2.357699e-09	4.898638e+01	1.564349e+02
1.950000e-06	3.443863e-06	2.538085e-09	4.842748e+01	1.558995e+02
1.960000e-06	3.402680e-06	2.494193e-09	4.784837e+01	1.552671e+02
1.970000e-06	3.360551e-06	2.269217e-09	4.725596e+01	1.545284e+02
1.980000e-06	3.317404e-06	2.257965e-09	4.664921e+01	1.536847e+02
1.990000e-06	3.273115e-06	2.414657e-09	4.602642e+01	1.527477e+02
2.000000e-06	3.227754e-06	2.420170e-09	4.538857e+01	1.517364e+02
2.010000e-06	3.181314e-06	2.329385e-09	4.473552e+01	1.506745e+02
2.020000e-06	3.133556e-06	2.215550e-09	4.406396e+01	1.495867e+02
2.030000e-06	3.084420e-06	2.227365e-09	4.337301e+01	1.484949e+02
2.040000e-06	3.034292e-06	2.346320e-09	4.266811e+01	1.474158e+02
2.050000e-06	2.983164e-06	2.317993e-09	4.194915e+01	1.463583e+02
2.060000e-06	2.930793e-06	2.222726e-09	4.121271e+01	1.453230e+02
2.070000e-06	2.877012e-06	2.132233e-09	4.045644e+01	1.443025e+02
2.080000e-06	2.821897e-06	2.178924e-09	3.968142e+01	1.432832e+02
2.090000e-06	2.765819e-06	2.321947e-09	3.889285e+01	1.422471e+02
2.100000e-06	2.708757e-06	2.211330e-09	3.809045e+01	1.411752e+02
2.110000e-06	2.650783e-06	2.031389e-09	3.727521e+01	1.400496e+02
2.120000e-06	2.592052e-06	2.090929e-09	3.644934e+01	1.388567e+02
2.130000e-06	2.532514e-06	2.236768e-09	3.561213e+01	1.375883e+02
2.140000e-06	2.472246e-06	2.147619e-09	3.476464e+01	1.362427e+02
2.150000e-06	2.411029e-06	1.969288e-09	3.390381e+01	1.348238e+02
2.160000e-06	2.348587e-06	2.031944e-09	3.302575e+01	1.333408e+02
2.170000e-06	2.285128e-06	2.107858e-09	3.213339e+01	1.318054e+02
2.180000e-06	2.220983e-06	2.029715e-09	3.123139e+01	1.302300e+02
2.190000e-06	2.156170e-06	1.955185e-09	3.031998e+01	1.286253e+02
2.200000e-06	2.090542e-06	1.945902e-09	2.939713e+01	1.269981e+02
2.210000e-06	2.024144e-06	1.948333e-09	2.846345e+01	1.253505e+02
2.220000e-06	1.957119e-06	1.925034e-09	2.752093e+01	1.236789e+02
2.230000e-06	1.889485e-06	1.907355e-09	2.656987e+01	1.219746e+02
2.240000e-06	1.821278e-06	1.856278e-09	2.561075e+01	1.202249e+02
2.250000e-06	1.752473e-06	1.796650e-09	2.464322e+01	1.184150e+02
2.260000e-06	1.682898e-06	1.817057e-09	2.366486e+01	1.165295e+02
2.270000e-06	1.612328e-06	1.815117e-09	2.267250e+01	1.145547e+02
2.280000e-06	1.540909e-06	1.728820e-09	2.166820e+01	1.124803e+02
2.290000e-06	1.469041e-06	1.669573e-09	2.065760e+01	1.102999e+02
2.300000e-06	1.396848e-06	1.689988e-09	1.964244e+01	1.080115e+02
2.310000e-06	1.324298e-06	1.682348e-09	1.862224e+01	1.056168e+02
2.320000e-06	1.251279e-06	1.591914e-09	1.759544e+01	1.031204e+02
2.330000e-06	1.177805e-06	1.530530e-09	1.656226e+01	1.005273e+02
2.340000e-06	1.103904e-06	1.529438e-09	1.552306e+01	9.784199e+01
2.350000e-06	1.029651e-06	1.511442e-09	1.447891e+01	9.506592e+01
2.360000e-06	9.550706e-07	1.440159e-09	1.343017e+01	9.219661e+01
2.370000e-06	8.800407e-07	1.373258e-09	1.237510e+01	8.922679e+01
2.380000e-06	8.047033e-07	1.349761e-09	1.131571e+01	8.614436e+01
2.390000e-06	7.291924e-07	1.315746e-09	1.025388e+01	8.293319e+01
2.400000e-06	6.534132e-07	1.253919e-09	9.188274e+00	7.957443e+01
2.410000e-06	5.773385e-07	1.186593e-09	8.118514e+00	7.604829e+01
2.420000e-06	5.011005e-07	1.125037e-09	7.046459e+00	7.233604e+01
2.430000e-06	4.247709e-07	1.071945e-09	5.973113e+00	6.842177e+01
2.440000e-06	3.482374e-07	1.026079e-09	4.896902e+00	6.429392e+01
2.450000e-06	2.715048e-07	9.612610e-10	3.817892e+00	5.994619e+01
2.460000e-06	1.947047e-07	8.663726e-10	2.737931e+00	5.537781e+01
2.470000e-06	1.177709e-07	7.933324e-10	1.656090e+00	5.059323e+01
2.480000e-06	4.064515e-08	7.512323e-10	5.715507e-01	4.560124e+01
2.490000e-06	-3.650134e-08	6.748970e-10	-5.132806e-01	4.041379e+01
2.500000e-06	-1.135097e-07	5.593996e-10	-1.596170e+00	3.504467e+01
2.510000e-06	-1.904125e-07	4.748969e-10	-2.677574e+00	2.950840e+01
2.520000e-06	-2.672780e-07	4.200207e-10	-3.758455e+00	2.381937e+01
2.530000e-06	-3.439658e-07	3.300275e-10	-4.836835e+00	1.799156e+01
2.540000e-06	-4.203876e-07	2.136659e-10	-5.911475e+00	1.203867e+01
2.550000e-06	-4.966323e-07	1.236999e-10	-6.983626e+00	5.974819e+00
2.560000e-06	-5.727009e-07	4.876368e-11	-8.053301e+00	-1.844742e-01
2.570000e-06	-6.485617e-07	-4.538876e-11	-9.120053e+00	-6.421207e+00
2.580000e-06	-7.241476e-07	-1.490714e-10	-1.018294e+01	-1.271389e+01
2.590000e-06	-7.994517e-07	-2.473872e-10	-1.124186e+01	-1.903690e+01
2.600000e-06	-8.744154e-07	-3.428085e-10	-1.229600e+01	-2.536038e+01
2.610000e-06	-9.489793e-07	-4.355050e-10	-1.334451e+01	-3.165072e+01
2.620000e-06	-1.023244e-06	-5.263244e-10	-1.438883e+01	-3.787171e+01
2.630000e-06	-1.097235e-06	-6.267259e-10	-1.542928e+01	-4.398621e+01
2.640000e-06	-1.170885e-06	-7.274753e-10	-1.646495e+01	-4.995821e+01
2.650000e-06	-1.244054e-06	-8.066237e-10	-1.749384e+01	-5.575490e+01
2.660000e-06	-1.316742e-06	-8.793448e-10	-1.851598e+01	-6.134872e+01
2.670000e-06	-1.389019e-06	-9.697640e-10	-1.953234e+01	-6.671888e+01
2.680000e-06	-1.460967e-06	-1.061188e-09	-2.054406e+01	-7.185232e+01
2.690000e-06	-1.532588e-06	-1.128152e-09	-2.155120e+01	-7.674389e+01
2.700000e-06	-1.603646e-06	-1.186925e-09	-2.255041e+01	-8.139584e+01
2.710000e-06	-1.673918e-06	-1.260824e-09	-2.353857e+01	-8.581658e+01
2.720000e-06	-1.743242e-06	-1.337642e-09	-2.451340e+01	-9.001900e+01
2.730000e-06	-1.811745e-06	-1.397009e-09	-2.547670e+01	-9.401846e+01
2.740000e-06	-1.879751e-06	-1.448141e-09	-2.643300e+01	-9.783083e+01
2.750000e-06	-1.947249e-06	-1.504125e-09	-2.738215e+01	-1.014708e+02
2.760000e-06	-2.014060e-06	-1.560971e-09	-2.832165e+01	-1.049506e+02
2.770000e-06	-2.080178e-06	-1.615824e-09	-2.925139e+01	-1.082793e+02
2.780000e-06	-2.145630e-06	-1.666366e-09	-3.017178e+01	-1.114629e+02
2.790000e-06	-2.210366e-06	-1.709706e-09	-3.108209e+01	-1.145045e+02
2.800000e-06	-2.274417e-06	-1.753156e-09	-3.198277e+01	-1.174054e+02
2.810000e-06	-2.337763e-06	-1.803465e-09	-3.287355e+01	-1.201663e+02
2.820000e-06	-2.400012e-06	-1.850269e-09	-3.374888e+01	-1.227883e+02
2.830000e-06	-2.461046e-06	-1.884416e-09	-3.460715e+01	-1.252737e+02
2.840000e-06	-2.521241e-06	-1.915548e-09	-3.545361e+01	-1.276269e+02
2.850000e-06	-2.580759e-06	-1.953846e-09	-3.629054e+01	-1.298542e+02
2.860000e-06	-2.639416e-06	-1.992128e-09	-3.711538e+01	-1.319639e+02
2.870000e-06	-2.697131e-06	-2.022758e-09	-3.792696e+01	-1.339651e+02
2.880000e-06	-2.753893e-06	-2.051583e-09	-3.872515e+01	-1.358673e+02
2.890000e-06	-2.809821e-06	-2.082146e-09	-3.951161e+01	-1.376792e+02
2.900000e-06	-2.864814e-06	-2.111288e-09	-4.028491e+01	-1.394082e+02
2.910000e-06	-2.918332e-06	-2.138425e-09	-4.103749e+01	-1.410594e+02
2.920000e-06	-2.970540e-06	-2.164539e-09	-4.177163e+01	-1.426358e+02
2.930000e-06	-3.021699e-06	-2.187928e-09	-4.249103e+01	-1.441384e+02
2.940000e-06	-3.071680e-06	-2.208406e-09	-4.319386e+01	-1.455667e+02
