# Temperatura_=_20.0
# Concentracion g/m^3_=_9000.0
# C_Vs_to_Am_M_A/Vsm_=_65563218390.804596
# pendiente_HvsI_1/m_=_3716.3
# ordenada_HvsI_A/m_=_1297.0
# frecuencia_Hz_=_300772.7315887158

Tiempo_(s)	Campo_(V.s)	Magnetizacion_(V.s)	Campo_(kA/m)	Magnetizacion_(A/m)
0.000000e+00	-4.052356e-06	-3.281447e-09	-5.685258e+01	-2.123302e+02
1.000000e-08	-4.050600e-06	-3.282019e-09	-5.682795e+01	-2.123422e+02
2.000000e-08	-4.047416e-06	-3.283879e-09	-5.678327e+01	-2.123481e+02
3.000000e-08	-4.042922e-06	-3.283099e-09	-5.672022e+01	-2.123460e+02
4.000000e-08	-4.037095e-06	-3.282375e-09	-5.663847e+01	-2.123312e+02
5.000000e-08	-4.030049e-06	-3.284626e-09	-5.653963e+01	-2.122980e+02
6.000000e-08	-4.021859e-06	-3.288604e-09	-5.642472e+01	-2.122400e+02
7.000000e-08	-4.012206e-06	-3.299673e-09	-5.628929e+01	-2.121516e+02
8.000000e-08	-4.000824e-06	-3.288629e-09	-5.612960e+01	-2.120298e+02
9.000000e-08	-3.987574e-06	-3.265166e-09	-5.594371e+01	-2.118740e+02
1.000000e-07	-3.972307e-06	-3.272168e-09	-5.572953e+01	-2.116877e+02
1.100000e-07	-3.955314e-06	-3.285085e-09	-5.549112e+01	-2.114775e+02
1.200000e-07	-3.937124e-06	-3.347729e-09	-5.523592e+01	-2.112529e+02
1.300000e-07	-3.917959e-06	-3.303658e-09	-5.496705e+01	-2.110250e+02
1.400000e-07	-3.897815e-06	-3.194200e-09	-5.468444e+01	-2.108049e+02
1.500000e-07	-3.876688e-06	-3.288686e-09	-5.438804e+01	-2.106018e+02
1.600000e-07	-3.854408e-06	-3.247554e-09	-5.407546e+01	-2.104213e+02
1.700000e-07	-3.830532e-06	-3.148190e-09	-5.374049e+01	-2.102638e+02
1.800000e-07	-3.804936e-06	-3.339353e-09	-5.338139e+01	-2.101240e+02
1.900000e-07	-3.778055e-06	-3.343809e-09	-5.300428e+01	-2.099900e+02
2.000000e-07	-3.750037e-06	-3.115624e-09	-5.261118e+01	-2.098445e+02
2.100000e-07	-3.720644e-06	-3.195888e-09	-5.219882e+01	-2.096655e+02
2.200000e-07	-3.690049e-06	-3.301772e-09	-5.176959e+01	-2.094288e+02
2.300000e-07	-3.658384e-06	-3.197994e-09	-5.132534e+01	-2.091100e+02
2.400000e-07	-3.625355e-06	-3.099999e-09	-5.086196e+01	-2.086870e+02
2.500000e-07	-3.590831e-06	-2.979105e-09	-5.037761e+01	-2.081426e+02
2.600000e-07	-3.554954e-06	-3.007860e-09	-4.987427e+01	-2.074659e+02
2.700000e-07	-3.517836e-06	-3.146437e-09	-4.935352e+01	-2.066540e+02
2.800000e-07	-3.479546e-06	-3.109802e-09	-4.881634e+01	-2.057124e+02
2.900000e-07	-3.440147e-06	-2.985793e-09	-4.826358e+01	-2.046537e+02
3.000000e-07	-3.399527e-06	-2.920323e-09	-4.769370e+01	-2.034972e+02
3.100000e-07	-3.357458e-06	-2.972627e-09	-4.710350e+01	-2.022661e+02
3.200000e-07	-3.314029e-06	-3.122835e-09	-4.649421e+01	-2.009854e+02
3.300000e-07	-3.269495e-06	-3.058883e-09	-4.586942e+01	-1.996790e+02
3.400000e-07	-3.223847e-06	-2.820802e-09	-4.522900e+01	-1.983677e+02
3.500000e-07	-3.177015e-06	-2.842002e-09	-4.457197e+01	-1.970667e+02
3.600000e-07	-3.129055e-06	-3.056475e-09	-4.389912e+01	-1.957846e+02
3.700000e-07	-3.079816e-06	-3.023916e-09	-4.320832e+01	-1.945231e+02
3.800000e-07	-3.029046e-06	-2.806693e-09	-4.249604e+01	-1.932771e+02
3.900000e-07	-2.976788e-06	-2.797956e-09	-4.176288e+01	-1.920356e+02
4.000000e-07	-2.923389e-06	-2.901651e-09	-4.101372e+01	-1.907840e+02
4.100000e-07	-2.869072e-06	-2.897066e-09	-4.025168e+01	-1.895057e+02
4.200000e-07	-2.813859e-06	-2.832264e-09	-3.947706e+01	-1.881841e+02
4.300000e-07	-2.757728e-06	-2.766647e-09	-3.868958e+01	-1.868050e+02
4.400000e-07	-2.700550e-06	-2.727732e-09	-3.788740e+01	-1.853573e+02
4.500000e-07	-2.642211e-06	-2.766204e-09	-3.706893e+01	-1.838345e+02
4.600000e-07	-2.582831e-06	-2.808974e-09	-3.623586e+01	-1.822345e+02
4.700000e-07	-2.522600e-06	-2.713359e-09	-3.539085e+01	-1.805593e+02
4.800000e-07	-2.461506e-06	-2.592937e-09	-3.453372e+01	-1.788140e+02
4.900000e-07	-2.399528e-06	-2.653604e-09	-3.366420e+01	-1.770053e+02
5.000000e-07	-2.336784e-06	-2.731287e-09	-3.278393e+01	-1.751402e+02
5.100000e-07	-2.273395e-06	-2.610248e-09	-3.189462e+01	-1.732247e+02
5.200000e-07	-2.209198e-06	-2.497001e-09	-3.099398e+01	-1.712621e+02
5.300000e-07	-2.143896e-06	-2.552601e-09	-3.007781e+01	-1.692529e+02
5.400000e-07	-2.077518e-06	-2.583766e-09	-2.914657e+01	-1.671942e+02
5.500000e-07	-2.010401e-06	-2.480783e-09	-2.820495e+01	-1.650800e+02
5.600000e-07	-1.942754e-06	-2.409892e-09	-2.725590e+01	-1.629021e+02
5.700000e-07	-1.874565e-06	-2.421483e-09	-2.629923e+01	-1.606504e+02
5.800000e-07	-1.805805e-06	-2.405994e-09	-2.533456e+01	-1.583149e+02
5.900000e-07	-1.736479e-06	-2.361168e-09	-2.436196e+01	-1.558860e+02
6.000000e-07	-1.666528e-06	-2.309993e-09	-2.338057e+01	-1.533553e+02
6.100000e-07	-1.595924e-06	-2.255766e-09	-2.239004e+01	-1.507167e+02
6.200000e-07	-1.524776e-06	-2.230481e-09	-2.139186e+01	-1.479657e+02
6.300000e-07	-1.453235e-06	-2.226208e-09	-2.038818e+01	-1.450998e+02
6.400000e-07	-1.381339e-06	-2.167750e-09	-1.937952e+01	-1.421174e+02
6.500000e-07	-1.308923e-06	-2.075256e-09	-1.836356e+01	-1.390170e+02
6.600000e-07	-1.235830e-06	-2.042358e-09	-1.733809e+01	-1.357968e+02
6.700000e-07	-1.162108e-06	-2.042897e-09	-1.630381e+01	-1.324532e+02
6.800000e-07	-1.087815e-06	-1.984332e-09	-1.526151e+01	-1.289804e+02
6.900000e-07	-1.012937e-06	-1.880083e-09	-1.421101e+01	-1.253703e+02
7.000000e-07	-9.376181e-07	-1.822607e-09	-1.315432e+01	-1.216121e+02
7.100000e-07	-8.620180e-07	-1.809278e-09	-1.209369e+01	-1.176929e+02
7.200000e-07	-7.862004e-07	-1.756508e-09	-1.103001e+01	-1.135981e+02
7.300000e-07	-7.101561e-07	-1.653361e-09	-9.963144e+00	-1.093123e+02
7.400000e-07	-6.338002e-07	-1.570858e-09	-8.891908e+00	-1.048202e+02
7.500000e-07	-5.570948e-07	-1.526263e-09	-7.815768e+00	-1.001072e+02
7.600000e-07	-4.801736e-07	-1.468698e-09	-6.736601e+00	-9.516076e+01
7.700000e-07	-4.031669e-07	-1.375683e-09	-5.656235e+00	-8.997025e+01
7.800000e-07	-3.260143e-07	-1.277262e-09	-4.573822e+00	-8.452775e+01
7.900000e-07	-2.486559e-07	-1.196759e-09	-3.488521e+00	-7.882802e+01
8.000000e-07	-1.712091e-07	-1.120181e-09	-2.401980e+00	-7.286850e+01
8.100000e-07	-9.380517e-08	-1.030663e-09	-1.316041e+00	-6.664930e+01
8.200000e-07	-1.641994e-08	-9.187849e-10	-2.303638e-01	-6.017301e+01
8.300000e-07	6.098192e-08	-8.011409e-10	8.555466e-01	-5.344477e+01
8.400000e-07	1.383556e-07	-7.046963e-10	1.941061e+00	-4.647232e+01
8.500000e-07	2.156870e-07	-6.142519e-10	3.025984e+00	-3.926631e+01
8.600000e-07	2.929613e-07	-4.908209e-10	4.110104e+00	-3.184064e+01
8.700000e-07	3.700953e-07	-3.513536e-10	5.192256e+00	-2.421294e+01
8.800000e-07	4.470823e-07	-2.413432e-10	6.272347e+00	-1.640499e+01
8.900000e-07	5.239019e-07	-1.400757e-10	7.350088e+00	-8.443043e+00
9.000000e-07	6.005017e-07	-8.786223e-12	8.424746e+00	-3.579321e-01
9.100000e-07	6.768665e-07	1.347177e-10	9.496107e+00	7.815115e+00
9.200000e-07	7.529559e-07	2.555115e-10	1.056360e+01	1.603702e+01
9.300000e-07	8.287868e-07	3.661575e-10	1.162747e+01	2.426573e+01
9.400000e-07	9.044337e-07	4.907959e-10	1.268876e+01	3.245746e+01
9.500000e-07	9.798574e-07	6.226911e-10	1.374692e+01	4.056810e+01
9.600000e-07	1.054918e-06	7.475632e-10	1.479998e+01	4.855480e+01
9.700000e-07	1.129480e-06	8.619306e-10	1.584606e+01	5.637752e+01
9.800000e-07	1.203360e-06	9.726606e-10	1.688256e+01	6.400044e+01
9.900000e-07	1.276438e-06	1.086787e-09	1.790781e+01	7.139313e+01
1.000000e-06	1.348830e-06	1.204119e-09	1.892342e+01	7.853127e+01
1.010000e-06	1.420706e-06	1.309692e-09	1.993182e+01	8.539710e+01
1.020000e-06	1.492253e-06	1.398893e-09	2.093558e+01	9.197932e+01
1.030000e-06	1.563484e-06	1.491450e-09	2.193492e+01	9.827270e+01
1.040000e-06	1.634184e-06	1.595389e-09	2.292681e+01	1.042774e+02
1.050000e-06	1.704263e-06	1.688487e-09	2.390997e+01	1.099978e+02
1.060000e-06	1.773761e-06	1.758813e-09	2.488500e+01	1.154421e+02
1.070000e-06	1.842632e-06	1.827949e-09	2.585123e+01	1.206204e+02
1.080000e-06	1.910875e-06	1.908253e-09	2.680864e+01	1.255447e+02
1.090000e-06	1.978620e-06	1.985272e-09	2.775908e+01	1.302274e+02
1.100000e-06	2.045863e-06	2.048033e-09	2.870247e+01	1.346813e+02
1.110000e-06	2.112317e-06	2.105502e-09	2.963478e+01	1.389188e+02
1.120000e-06	2.177638e-06	2.167067e-09	3.055121e+01	1.429517e+02
1.130000e-06	2.241923e-06	2.227569e-09	3.145309e+01	1.467915e+02
1.140000e-06	2.305528e-06	2.281797e-09	3.234543e+01	1.504486e+02
1.150000e-06	2.368495e-06	2.328499e-09	3.322883e+01	1.539328e+02
1.160000e-06	2.430703e-06	2.372423e-09	3.410158e+01	1.572532e+02
1.170000e-06	2.492145e-06	2.418673e-09	3.496358e+01	1.604177e+02
1.180000e-06	2.552801e-06	2.466730e-09	3.581455e+01	1.634335e+02
1.190000e-06	2.612702e-06	2.508523e-09	3.665493e+01	1.663069e+02
1.200000e-06	2.671800e-06	2.542890e-09	3.748405e+01	1.690430e+02
1.210000e-06	2.729795e-06	2.579136e-09	3.829769e+01	1.716462e+02
1.220000e-06	2.786506e-06	2.620604e-09	3.909332e+01	1.741199e+02
1.230000e-06	2.842149e-06	2.658725e-09	3.987396e+01	1.764675e+02
1.240000e-06	2.896924e-06	2.687643e-09	4.064243e+01	1.786920e+02
1.250000e-06	2.950764e-06	2.714534e-09	4.139778e+01	1.807967e+02
1.260000e-06	3.003567e-06	2.742839e-09	4.213858e+01	1.827858e+02
1.270000e-06	3.055156e-06	2.771083e-09	4.286235e+01	1.846643e+02
1.280000e-06	3.105294e-06	2.796721e-09	4.356576e+01	1.864381e+02
1.290000e-06	3.153961e-06	2.819758e-09	4.424854e+01	1.881147e+02
1.300000e-06	3.201414e-06	2.842064e-09	4.491428e+01	1.897019e+02
1.310000e-06	3.247802e-06	2.864659e-09	4.556508e+01	1.912083e+02
1.320000e-06	3.293096e-06	2.886858e-09	4.620054e+01	1.926423e+02
1.330000e-06	3.337350e-06	2.907527e-09	4.682139e+01	1.940116e+02
1.340000e-06	3.380565e-06	2.926821e-09	4.742767e+01	1.953226e+02
1.350000e-06	3.422477e-06	2.945515e-09	4.801569e+01	1.965802e+02
1.360000e-06	3.463003e-06	2.963118e-09	4.858424e+01	1.977869e+02
1.370000e-06	3.502294e-06	2.980243e-09	4.913547e+01	1.989435e+02
1.380000e-06	3.540399e-06	2.996692e-09	4.967007e+01	2.000487e+02
1.390000e-06	3.577356e-06	3.011697e-09	5.018856e+01	2.011002e+02
1.400000e-06	3.613211e-06	3.025220e-09	5.069159e+01	2.020949e+02
1.410000e-06	3.647841e-06	3.037406e-09	5.117743e+01	2.030297e+02
1.420000e-06	3.680963e-06	3.050089e-09	5.164211e+01	2.039028e+02
1.430000e-06	3.712677e-06	3.064018e-09	5.208705e+01	2.047136e+02
1.440000e-06	3.743196e-06	3.076244e-09	5.251521e+01	2.054637e+02
1.450000e-06	3.772508e-06	3.085528e-09	5.292645e+01	2.061566e+02
1.460000e-06	3.800603e-06	3.094398e-09	5.332060e+01	2.067979e+02
1.470000e-06	3.827344e-06	3.104907e-09	5.369577e+01	2.073944e+02
1.480000e-06	3.852527e-06	3.114977e-09	5.404908e+01	2.079536e+02
1.490000e-06	3.876233e-06	3.122151e-09	5.438166e+01	2.084827e+02
1.500000e-06	3.898640e-06	3.128179e-09	5.469602e+01	2.089877e+02
1.510000e-06	3.919750e-06	3.134975e-09	5.499218e+01	2.094729e+02
1.520000e-06	3.939636e-06	3.141803e-09	5.527117e+01	2.099399e+02
1.530000e-06	3.958269e-06	3.147934e-09	5.553258e+01	2.103880e+02
1.540000e-06	3.975448e-06	3.153344e-09	5.577359e+01	2.108139e+02
1.550000e-06	3.991094e-06	3.157054e-09	5.599310e+01	2.112128e+02
1.560000e-06	4.005281e-06	3.161569e-09	5.619214e+01	2.115788e+02
1.570000e-06	4.018022e-06	3.168221e-09	5.637089e+01	2.119062e+02
1.580000e-06	4.029196e-06	3.173616e-09	5.652765e+01	2.121901e+02
1.590000e-06	4.038700e-06	3.176079e-09	5.666100e+01	2.124279e+02
1.600000e-06	4.046632e-06	3.178351e-09	5.677227e+01	2.126192e+02
1.610000e-06	4.053182e-06	3.181808e-09	5.686417e+01	2.127663e+02
1.620000e-06	4.058408e-06	3.183876e-09	5.693749e+01	2.128740e+02
1.630000e-06	4.062387e-06	3.183511e-09	5.699331e+01	2.129491e+02
1.640000e-06	4.064928e-06	3.182348e-09	5.702897e+01	2.129990e+02
1.650000e-06	4.065822e-06	3.182549e-09	5.704150e+01	2.130313e+02
1.660000e-06	4.065304e-06	3.184869e-09	5.703423e+01	2.130521e+02
1.670000e-06	4.063514e-06	3.187115e-09	5.700913e+01	2.130655e+02
1.680000e-06	4.060489e-06	3.186556e-09	5.696668e+01	2.130729e+02
1.690000e-06	4.056325e-06	3.186024e-09	5.690826e+01	2.130728e+02
1.700000e-06	4.050814e-06	3.184199e-09	5.683094e+01	2.130612e+02
1.710000e-06	4.043742e-06	3.180315e-09	5.673173e+01	2.130326e+02
1.720000e-06	4.035394e-06	3.170654e-09	5.661462e+01	2.129804e+02
1.730000e-06	4.025953e-06	3.147145e-09	5.648215e+01	2.128990e+02
1.740000e-06	4.015213e-06	3.169723e-09	5.633148e+01	2.127845e+02
1.750000e-06	4.002596e-06	3.180719e-09	5.615448e+01	2.126359e+02
1.760000e-06	3.987572e-06	3.163104e-09	5.594369e+01	2.124558e+02
1.770000e-06	3.970576e-06	3.117178e-09	5.570524e+01	2.122500e+02
1.780000e-06	3.952626e-06	3.093715e-09	5.545342e+01	2.120277e+02
1.790000e-06	3.934212e-06	3.218069e-09	5.519508e+01	2.117996e+02
1.800000e-06	3.914648e-06	3.195396e-09	5.492061e+01	2.115770e+02
1.810000e-06	3.893130e-06	3.090118e-09	5.461872e+01	2.113697e+02
1.820000e-06	3.870271e-06	3.291547e-09	5.429802e+01	2.111841e+02
1.830000e-06	3.846464e-06	3.242307e-09	5.396402e+01	2.110221e+02
1.840000e-06	3.821094e-06	2.936993e-09	5.360809e+01	2.108793e+02
1.850000e-06	3.794250e-06	3.103658e-09	5.323147e+01	2.107454e+02
1.860000e-06	3.766389e-06	3.236046e-09	5.284060e+01	2.106041e+02
1.870000e-06	3.737249e-06	3.039143e-09	5.243179e+01	2.104343e+02
1.880000e-06	3.706468e-06	3.132449e-09	5.199995e+01	2.102122e+02
1.890000e-06	3.674150e-06	3.322696e-09	5.154653e+01	2.099130e+02
1.900000e-06	3.640653e-06	3.345001e-09	5.107658e+01	2.095140e+02
1.910000e-06	3.606168e-06	3.396649e-09	5.059279e+01	2.089968e+02
1.920000e-06	3.570496e-06	3.280717e-09	5.009232e+01	2.083490e+02
1.930000e-06	3.533574e-06	3.190415e-09	4.957432e+01	2.075660e+02
1.940000e-06	3.495395e-06	3.232975e-09	4.903869e+01	2.066514e+02
1.950000e-06	3.455668e-06	3.253281e-09	4.848134e+01	2.056165e+02
1.960000e-06	3.414529e-06	3.351943e-09	4.790417e+01	2.044792e+02
1.970000e-06	3.372417e-06	3.193057e-09	4.731337e+01	2.032620e+02
1.980000e-06	3.329299e-06	2.987581e-09	4.670844e+01	2.019899e+02
1.990000e-06	3.285053e-06	3.225330e-09	4.608769e+01	2.006872e+02
2.000000e-06	3.239700e-06	3.305388e-09	4.545140e+01	1.993754e+02
2.010000e-06	3.193183e-06	3.047187e-09	4.479881e+01	1.980713e+02
2.020000e-06	3.145377e-06	2.957733e-09	4.412811e+01	1.967849e+02
2.030000e-06	3.096317e-06	3.090137e-09	4.343982e+01	1.955193e+02
2.040000e-06	3.046205e-06	3.144003e-09	4.273678e+01	1.942707e+02
2.050000e-06	2.995030e-06	2.993957e-09	4.201881e+01	1.930294e+02
2.060000e-06	2.942654e-06	2.969452e-09	4.128400e+01	1.917814e+02
2.070000e-06	2.888896e-06	2.991460e-09	4.052980e+01	1.905103e+02
2.080000e-06	2.833785e-06	2.926632e-09	3.975662e+01	1.891993e+02
2.090000e-06	2.777633e-06	2.979957e-09	3.896884e+01	1.878336e+02
2.100000e-06	2.720519e-06	2.962073e-09	3.816756e+01	1.864014e+02
2.110000e-06	2.662509e-06	2.837968e-09	3.735371e+01	1.848951e+02
2.120000e-06	2.603699e-06	2.809732e-09	3.652862e+01	1.833116e+02
2.130000e-06	2.544086e-06	2.893436e-09	3.569228e+01	1.816523e+02
2.140000e-06	2.483694e-06	2.885722e-09	3.484502e+01	1.799215e+02
2.150000e-06	2.422316e-06	2.705375e-09	3.398391e+01	1.781259e+02
2.160000e-06	2.359754e-06	2.691275e-09	3.310620e+01	1.762724e+02
2.170000e-06	2.296218e-06	2.795610e-09	3.221482e+01	1.743674e+02
2.180000e-06	2.232003e-06	2.726935e-09	3.131392e+01	1.724148e+02
2.190000e-06	2.167130e-06	2.605583e-09	3.040378e+01	1.704157e+02
2.200000e-06	2.101451e-06	2.590794e-09	2.948234e+01	1.683681e+02
2.210000e-06	2.034997e-06	2.631190e-09	2.855001e+01	1.662665e+02
2.220000e-06	1.967888e-06	2.577600e-09	2.760851e+01	1.641031e+02
2.230000e-06	1.900170e-06	2.496768e-09	2.665846e+01	1.618681e+02
2.240000e-06	1.831880e-06	2.480655e-09	2.570038e+01	1.595515e+02
2.250000e-06	1.762982e-06	2.446170e-09	2.473378e+01	1.571434e+02
2.260000e-06	1.693233e-06	2.409918e-09	2.375524e+01	1.546351e+02
2.270000e-06	1.622466e-06	2.376978e-09	2.276241e+01	1.520201e+02
2.280000e-06	1.550908e-06	2.322552e-09	2.175848e+01	1.492936e+02
2.290000e-06	1.478955e-06	2.260356e-09	2.074902e+01	1.464525e+02
2.300000e-06	1.406717e-06	2.229123e-09	1.973556e+01	1.434952e+02
2.310000e-06	1.334084e-06	2.214222e-09	1.871655e+01	1.404203e+02
2.320000e-06	1.261003e-06	2.133661e-09	1.769126e+01	1.372261e+02
2.330000e-06	1.187450e-06	2.046951e-09	1.665934e+01	1.339093e+02
2.340000e-06	1.113450e-06	2.024457e-09	1.562117e+01	1.304649e+02
2.350000e-06	1.039089e-06	2.007175e-09	1.457791e+01	1.268851e+02
2.360000e-06	9.643534e-07	1.921661e-09	1.352941e+01	1.231598e+02
2.370000e-06	8.892291e-07	1.823841e-09	1.247545e+01	1.192763e+02
2.380000e-06	8.138040e-07	1.791768e-09	1.141727e+01	1.152205e+02
2.390000e-06	7.381540e-07	1.752448e-09	1.035594e+01	1.109770e+02
2.400000e-06	6.622584e-07	1.658312e-09	9.291162e+00	1.065303e+02
2.410000e-06	5.860901e-07	1.565872e-09	8.222558e+00	1.018659e+02
2.420000e-06	5.097672e-07	1.503284e-09	7.151785e+00	9.697048e+01
2.430000e-06	4.333241e-07	1.436796e-09	6.079326e+00	9.183309e+01
2.440000e-06	3.566689e-07	1.352674e-09	5.003890e+00	8.644518e+01
2.450000e-06	2.797135e-07	1.264595e-09	3.924244e+00	8.080093e+01
2.460000e-06	2.025652e-07	1.167022e-09	2.841891e+00	7.489722e+01
2.470000e-06	1.253304e-07	1.070278e-09	1.758324e+00	6.873358e+01
2.480000e-06	4.800727e-08	9.900376e-10	6.735186e-01	6.231209e+01
2.490000e-06	-2.925472e-08	8.961968e-10	-4.104295e-01	5.563733e+01
2.500000e-06	-1.064661e-07	7.678664e-10	-1.493668e+00	4.871648e+01
2.510000e-06	-1.837039e-07	6.485852e-10	-2.577276e+00	4.155952e+01
2.520000e-06	-2.608468e-07	5.592186e-10	-3.659554e+00	3.417963e+01
2.530000e-06	-3.376841e-07	4.517150e-10	-4.737543e+00	2.659359e+01
2.540000e-06	-4.142428e-07	3.111250e-10	-5.811624e+00	1.882227e+01
2.550000e-06	-4.906586e-07	1.844221e-10	-6.883701e+00	1.089094e+01
2.560000e-06	-5.668977e-07	8.160433e-11	-7.953298e+00	2.829451e+00
2.570000e-06	-6.429274e-07	-3.637425e-11	-9.019958e+00	-5.327867e+00
2.580000e-06	-7.187372e-07	-1.744637e-10	-1.008353e+01	-1.354270e+01
2.590000e-06	-7.942892e-07	-3.049002e-10	-1.114349e+01	-2.177355e+01
2.600000e-06	-8.695008e-07	-4.231141e-10	-1.219867e+01	-2.997687e+01
2.610000e-06	-9.443254e-07	-5.432826e-10	-1.324843e+01	-3.810851e+01
2.620000e-06	-1.018808e-06	-6.679884e-10	-1.429339e+01	-4.612520e+01
2.630000e-06	-1.092935e-06	-7.933170e-10	-1.533335e+01	-5.398618e+01
2.640000e-06	-1.166728e-06	-9.146607e-10	-1.636862e+01	-6.165462e+01
2.650000e-06	-1.240146e-06	-1.025341e-09	-1.739864e+01	-6.909885e+01
2.660000e-06	-1.313089e-06	-1.128800e-09	-1.842200e+01	-7.629320e+01
2.670000e-06	-1.385583e-06	-1.238337e-09	-1.943906e+01	-8.321850e+01
2.680000e-06	-1.457705e-06	-1.350414e-09	-2.045089e+01	-8.986207e+01
2.690000e-06	-1.529517e-06	-1.445224e-09	-2.145837e+01	-9.621744e+01
2.700000e-06	-1.600855e-06	-1.528062e-09	-2.245922e+01	-1.022837e+02
2.710000e-06	-1.671412e-06	-1.619522e-09	-2.344910e+01	-1.080644e+02
2.720000e-06	-1.741034e-06	-1.714451e-09	-2.442586e+01	-1.135670e+02
2.730000e-06	-1.809834e-06	-1.794826e-09	-2.539108e+01	-1.188013e+02
2.740000e-06	-1.878059e-06	-1.864666e-09	-2.634825e+01	-1.237789e+02
2.750000e-06	-1.945768e-06	-1.937961e-09	-2.729818e+01	-1.285122e+02
2.760000e-06	-2.012802e-06	-2.012371e-09	-2.823864e+01	-1.330141e+02
2.770000e-06	-2.079145e-06	-2.080807e-09	-2.916939e+01	-1.372968e+02
2.780000e-06	-2.144819e-06	-2.144562e-09	-3.009076e+01	-1.413726e+02
2.790000e-06	-2.209777e-06	-2.205628e-09	-3.100210e+01	-1.452528e+02
2.800000e-06	-2.274079e-06	-2.264986e-09	-3.190423e+01	-1.489481e+02
2.810000e-06	-2.337628e-06	-2.323622e-09	-3.279579e+01	-1.524686e+02
2.820000e-06	-2.400166e-06	-2.379611e-09	-3.367316e+01	-1.558233e+02
2.830000e-06	-2.461558e-06	-2.429189e-09	-3.453447e+01	-1.590205e+02
2.840000e-06	-2.521996e-06	-2.474345e-09	-3.538237e+01	-1.620676e+02
2.850000e-06	-2.581678e-06	-2.520654e-09	-3.621968e+01	-1.649710e+02
2.860000e-06	-2.640505e-06	-2.566870e-09	-3.704500e+01	-1.677360e+02
2.870000e-06	-2.698378e-06	-2.608559e-09	-3.785693e+01	-1.703673e+02
2.880000e-06	-2.755363e-06	-2.647580e-09	-3.865640e+01	-1.728685e+02
2.890000e-06	-2.811569e-06	-2.687452e-09	-3.944495e+01	-1.752428e+02
2.900000e-06	-2.866792e-06	-2.725090e-09	-4.021970e+01	-1.774933e+02
2.910000e-06	-2.920647e-06	-2.757552e-09	-4.097526e+01	-1.796233e+02
2.920000e-06	-2.973151e-06	-2.788172e-09	-4.171185e+01	-1.816368e+02
2.930000e-06	-3.024501e-06	-2.819489e-09	-4.243227e+01	-1.835384e+02
2.940000e-06	-3.074701e-06	-2.847714e-09	-4.313655e+01	-1.853340e+02
