# Temperatura_=_20.0
# Concentracion g/m^3_=_9000.0
# C_Vs_to_Am_M_A/Vsm_=_65563218390.804596
# pendiente_HvsI_1/m_=_3716.3
# ordenada_HvsI_A/m_=_1297.0
# frecuencia_Hz_=_300771.423485995

Tiempo_(s)	Campo_(V.s)	Magnetizacion_(V.s)	Campo_(kA/m)	Magnetizacion_(A/m)
0.000000e+00	-4.053292e-06	-3.299148e-09	-5.684415e+01	-2.133205e+02
1.000000e-08	-4.051531e-06	-3.302090e-09	-5.681945e+01	-2.132911e+02
2.000000e-08	-4.048286e-06	-3.302674e-09	-5.677395e+01	-2.132564e+02
3.000000e-08	-4.043870e-06	-3.301727e-09	-5.671201e+01	-2.132168e+02
4.000000e-08	-4.038229e-06	-3.301591e-09	-5.663290e+01	-2.131693e+02
5.000000e-08	-4.031363e-06	-3.302873e-09	-5.653662e+01	-2.131084e+02
6.000000e-08	-4.023307e-06	-3.303031e-09	-5.642363e+01	-2.130271e+02
7.000000e-08	-4.013762e-06	-3.298639e-09	-5.628977e+01	-2.129185e+02
8.000000e-08	-4.002419e-06	-3.292830e-09	-5.613070e+01	-2.127767e+02
9.000000e-08	-3.989226e-06	-3.315865e-09	-5.594567e+01	-2.125989e+02
1.000000e-07	-3.973997e-06	-3.338594e-09	-5.573211e+01	-2.123855e+02
1.100000e-07	-3.956993e-06	-3.326687e-09	-5.549363e+01	-2.121413e+02
1.200000e-07	-3.938768e-06	-3.287637e-09	-5.523804e+01	-2.118745e+02
1.300000e-07	-3.919605e-06	-3.232981e-09	-5.496929e+01	-2.115964e+02
1.400000e-07	-3.899513e-06	-3.301307e-09	-5.468752e+01	-2.113194e+02
1.500000e-07	-3.878398e-06	-3.361889e-09	-5.439139e+01	-2.110554e+02
1.600000e-07	-3.856211e-06	-3.209357e-09	-5.408024e+01	-2.108139e+02
1.700000e-07	-3.832434e-06	-3.169620e-09	-5.374679e+01	-2.105997e+02
1.800000e-07	-3.806792e-06	-3.304703e-09	-5.338718e+01	-2.104119e+02
1.900000e-07	-3.779943e-06	-3.340945e-09	-5.301065e+01	-2.102429e+02
2.000000e-07	-3.752044e-06	-3.269253e-09	-5.261938e+01	-2.100787e+02
2.100000e-07	-3.722707e-06	-3.175535e-09	-5.220797e+01	-2.098993e+02
2.200000e-07	-3.692142e-06	-3.176874e-09	-5.177931e+01	-2.096810e+02
2.300000e-07	-3.660595e-06	-3.287600e-09	-5.133688e+01	-2.093984e+02
2.400000e-07	-3.627749e-06	-3.210100e-09	-5.087625e+01	-2.090270e+02
2.500000e-07	-3.593303e-06	-2.967022e-09	-5.039318e+01	-2.085461e+02
2.600000e-07	-3.557451e-06	-2.961094e-09	-4.989038e+01	-2.079408e+02
2.700000e-07	-3.520390e-06	-3.128568e-09	-4.937063e+01	-2.072039e+02
2.800000e-07	-3.482115e-06	-3.193228e-09	-4.883384e+01	-2.063368e+02
2.900000e-07	-3.442761e-06	-3.037958e-09	-4.828195e+01	-2.053492e+02
3.000000e-07	-3.402320e-06	-2.875160e-09	-4.771479e+01	-2.042580e+02
3.100000e-07	-3.360401e-06	-2.980314e-09	-4.712691e+01	-2.030855e+02
3.200000e-07	-3.317014e-06	-3.150008e-09	-4.651844e+01	-2.018569e+02
3.300000e-07	-3.272511e-06	-3.078021e-09	-4.589433e+01	-2.005971e+02
3.400000e-07	-3.226935e-06	-2.875987e-09	-4.525515e+01	-1.993285e+02
3.500000e-07	-3.180176e-06	-2.843381e-09	-4.459940e+01	-1.980681e+02
3.600000e-07	-3.132286e-06	-3.005602e-09	-4.392779e+01	-1.968262e+02
3.700000e-07	-3.083161e-06	-3.073515e-09	-4.323884e+01	-1.956056e+02
3.800000e-07	-3.032454e-06	-2.898593e-09	-4.252772e+01	-1.944014e+02
3.900000e-07	-2.980204e-06	-2.765809e-09	-4.179495e+01	-1.932023e+02
4.000000e-07	-2.926837e-06	-2.860406e-09	-4.104653e+01	-1.919923e+02
4.100000e-07	-2.872595e-06	-2.970390e-09	-4.028583e+01	-1.907529e+02
4.200000e-07	-2.817463e-06	-2.889641e-09	-3.951265e+01	-1.894654e+02
4.300000e-07	-2.761452e-06	-2.750499e-09	-3.872713e+01	-1.881133e+02
4.400000e-07	-2.704279e-06	-2.731347e-09	-3.792533e+01	-1.866837e+02
4.500000e-07	-2.645777e-06	-2.806423e-09	-3.710488e+01	-1.851688e+02
4.600000e-07	-2.586318e-06	-2.841532e-09	-3.627102e+01	-1.835662e+02
4.700000e-07	-2.526106e-06	-2.726036e-09	-3.542659e+01	-1.818783e+02
4.800000e-07	-2.465071e-06	-2.608810e-09	-3.457063e+01	-1.801115e+02
4.900000e-07	-2.403191e-06	-2.667188e-09	-3.370281e+01	-1.782745e+02
5.000000e-07	-2.340474e-06	-2.750445e-09	-3.282326e+01	-1.763768e+02
5.100000e-07	-2.277049e-06	-2.647057e-09	-3.193378e+01	-1.744267e+02
5.200000e-07	-2.212931e-06	-2.516182e-09	-3.103457e+01	-1.724300e+02
5.300000e-07	-2.147758e-06	-2.551321e-09	-3.012057e+01	-1.703892e+02
5.400000e-07	-2.081438e-06	-2.599747e-09	-2.919048e+01	-1.683027e+02
5.500000e-07	-2.014373e-06	-2.522619e-09	-2.824995e+01	-1.661653e+02
5.600000e-07	-1.946806e-06	-2.431430e-09	-2.730238e+01	-1.639688e+02
5.700000e-07	-1.878685e-06	-2.413533e-09	-2.634704e+01	-1.617030e+02
5.800000e-07	-1.809994e-06	-2.415256e-09	-2.538370e+01	-1.593570e+02
5.900000e-07	-1.740735e-06	-2.394712e-09	-2.441240e+01	-1.569205e+02
6.000000e-07	-1.670824e-06	-2.329464e-09	-2.343196e+01	-1.543845e+02
6.100000e-07	-1.600229e-06	-2.255590e-09	-2.244192e+01	-1.517419e+02
6.200000e-07	-1.529082e-06	-2.241143e-09	-2.144414e+01	-1.489882e+02
6.300000e-07	-1.457560e-06	-2.250918e-09	-2.044111e+01	-1.461202e+02
6.400000e-07	-1.385701e-06	-2.186837e-09	-1.943334e+01	-1.431363e+02
6.500000e-07	-1.313314e-06	-2.084510e-09	-1.841817e+01	-1.400347e+02
6.600000e-07	-1.240256e-06	-2.053767e-09	-1.739359e+01	-1.368128e+02
6.700000e-07	-1.166513e-06	-2.057195e-09	-1.635940e+01	-1.334660e+02
6.800000e-07	-1.092134e-06	-1.999193e-09	-1.531630e+01	-1.299874e+02
6.900000e-07	-1.017228e-06	-1.895060e-09	-1.426580e+01	-1.263667e+02
7.000000e-07	-9.418776e-07	-1.832369e-09	-1.320907e+01	-1.225913e+02
7.100000e-07	-8.662174e-07	-1.814521e-09	-1.214800e+01	-1.186460e+02
7.200000e-07	-7.903609e-07	-1.769472e-09	-1.108417e+01	-1.145144e+02
7.300000e-07	-7.143074e-07	-1.672634e-09	-1.001758e+01	-1.101798e+02
7.400000e-07	-6.379403e-07	-1.577876e-09	-8.946597e+00	-1.056264e+02
7.500000e-07	-5.611778e-07	-1.527469e-09	-7.870065e+00	-1.008404e+02
7.600000e-07	-4.841712e-07	-1.479499e-09	-6.790111e+00	-9.581080e+01
7.700000e-07	-4.071072e-07	-1.388472e-09	-5.709350e+00	-9.053012e+01
7.800000e-07	-3.299066e-07	-1.277344e-09	-4.626673e+00	-8.499424e+01
7.900000e-07	-2.525323e-07	-1.190956e-09	-3.541562e+00	-7.920236e+01
8.000000e-07	-1.751184e-07	-1.122899e-09	-2.455894e+00	-7.315654e+01
8.100000e-07	-9.770979e-08	-1.034653e-09	-1.370301e+00	-6.686112e+01
8.200000e-07	-2.028590e-08	-9.141160e-10	-2.844934e-01	-6.032212e+01
8.300000e-07	5.712556e-08	-7.937266e-10	8.011399e-01	-5.354686e+01
8.400000e-07	1.344928e-07	-7.027831e-10	1.886153e+00	-4.654376e+01
8.500000e-07	2.118075e-07	-6.151378e-10	2.970430e+00	-3.932255e+01
8.600000e-07	2.890310e-07	-4.912101e-10	4.053426e+00	-3.189468e+01
8.700000e-07	3.661436e-07	-3.487616e-10	5.134869e+00	-2.427412e+01
8.800000e-07	4.431356e-07	-2.354866e-10	6.214619e+00	-1.647815e+01
8.900000e-07	5.199644e-07	-1.367327e-10	7.292081e+00	-8.528255e+00
9.000000e-07	5.966247e-07	-8.551112e-12	8.367180e+00	-4.507378e-01
9.100000e-07	6.730857e-07	1.383306e-10	9.439483e+00	7.722955e+00
9.200000e-07	7.493040e-07	2.647585e-10	1.050838e+01	1.595638e+01
9.300000e-07	8.252394e-07	3.723678e-10	1.157332e+01	2.420876e+01
9.400000e-07	9.008983e-07	4.904347e-10	1.263437e+01	3.243614e+01
9.500000e-07	9.763062e-07	6.229125e-10	1.369191e+01	4.059297e+01
9.600000e-07	1.051349e-06	7.544746e-10	1.474431e+01	4.863397e+01
9.700000e-07	1.125895e-06	8.716447e-10	1.578976e+01	5.651609e+01
9.800000e-07	1.199853e-06	9.789971e-10	1.682697e+01	6.420038e+01
9.900000e-07	1.273125e-06	1.093979e-09	1.785455e+01	7.165357e+01
1.000000e-06	1.345732e-06	1.217273e-09	1.887281e+01	7.884921e+01
1.010000e-06	1.417802e-06	1.324886e-09	1.988353e+01	8.576828e+01
1.020000e-06	1.489434e-06	1.412331e-09	2.088812e+01	9.239918e+01
1.030000e-06	1.560662e-06	1.503241e-09	2.188703e+01	9.873724e+01
1.040000e-06	1.631413e-06	1.605144e-09	2.287925e+01	1.047837e+02
1.050000e-06	1.701618e-06	1.698726e-09	2.386382e+01	1.105447e+02
1.060000e-06	1.771213e-06	1.772191e-09	2.483983e+01	1.160293e+02
1.070000e-06	1.840197e-06	1.841755e-09	2.580728e+01	1.212488e+02
1.080000e-06	1.908561e-06	1.921915e-09	2.676602e+01	1.262153e+02
1.090000e-06	1.976337e-06	2.002341e-09	2.771653e+01	1.309404e+02
1.100000e-06	2.043583e-06	2.067808e-09	2.865960e+01	1.354354e+02
1.110000e-06	2.110085e-06	2.123113e-09	2.959224e+01	1.397105e+02
1.120000e-06	2.175523e-06	2.180889e-09	3.050995e+01	1.437749e+02
1.130000e-06	2.239931e-06	2.241404e-09	3.141323e+01	1.476373e+02
1.140000e-06	2.303624e-06	2.298193e-09	3.230647e+01	1.513063e+02
1.150000e-06	2.366673e-06	2.345455e-09	3.319067e+01	1.547902e+02
1.160000e-06	2.428977e-06	2.389018e-09	3.406445e+01	1.580980e+02
1.170000e-06	2.490458e-06	2.436404e-09	3.492666e+01	1.612388e+02
1.180000e-06	2.551099e-06	2.485087e-09	3.577710e+01	1.642222e+02
1.190000e-06	2.610995e-06	2.526030e-09	3.661709e+01	1.670576e+02
1.200000e-06	2.670108e-06	2.558715e-09	3.744611e+01	1.697544e+02
1.210000e-06	2.728148e-06	2.594728e-09	3.826007e+01	1.723211e+02
1.220000e-06	2.784952e-06	2.635318e-09	3.905670e+01	1.747654e+02
1.230000e-06	2.840684e-06	2.671536e-09	3.983829e+01	1.770938e+02
1.240000e-06	2.895502e-06	2.700691e-09	4.060708e+01	1.793116e+02
1.250000e-06	2.949385e-06	2.729522e-09	4.136274e+01	1.814232e+02
1.260000e-06	3.002271e-06	2.759224e-09	4.210443e+01	1.834321e+02
1.270000e-06	3.053999e-06	2.786457e-09	4.282988e+01	1.853416e+02
1.280000e-06	3.104294e-06	2.810747e-09	4.353522e+01	1.871550e+02
1.290000e-06	3.153062e-06	2.834105e-09	4.421914e+01	1.888762e+02
1.300000e-06	3.200563e-06	2.856719e-09	4.488531e+01	1.905096e+02
1.310000e-06	3.247028e-06	2.879821e-09	4.553695e+01	1.920602e+02
1.320000e-06	3.292422e-06	2.904048e-09	4.617357e+01	1.935338e+02
1.330000e-06	3.336764e-06	2.926462e-09	4.679542e+01	1.949360e+02
1.340000e-06	3.380128e-06	2.946215e-09	4.740357e+01	1.962724e+02
1.350000e-06	3.422153e-06	2.963645e-09	4.799294e+01	1.975478e+02
1.360000e-06	3.462669e-06	2.980736e-09	4.856113e+01	1.987656e+02
1.370000e-06	3.502006e-06	2.997797e-09	4.911280e+01	1.999280e+02
1.380000e-06	3.540224e-06	3.014136e-09	4.964878e+01	2.010356e+02
1.390000e-06	3.577273e-06	3.029257e-09	5.016836e+01	2.020875e+02
1.400000e-06	3.613202e-06	3.043524e-09	5.067224e+01	2.030821e+02
1.410000e-06	3.647875e-06	3.057221e-09	5.115850e+01	2.040173e+02
1.420000e-06	3.681073e-06	3.070374e-09	5.162408e+01	2.048915e+02
1.430000e-06	3.712902e-06	3.083201e-09	5.207045e+01	2.057042e+02
1.440000e-06	3.743483e-06	3.094379e-09	5.249933e+01	2.064566e+02
1.450000e-06	3.772841e-06	3.104361e-09	5.291105e+01	2.071517e+02
1.460000e-06	3.801005e-06	3.112872e-09	5.330602e+01	2.077945e+02
1.470000e-06	3.827851e-06	3.121055e-09	5.368252e+01	2.083917e+02
1.480000e-06	3.853127e-06	3.129480e-09	5.403700e+01	2.089510e+02
1.490000e-06	3.876879e-06	3.137227e-09	5.437009e+01	2.094800e+02
1.500000e-06	3.899350e-06	3.144913e-09	5.468524e+01	2.099858e+02
1.510000e-06	3.920567e-06	3.152744e-09	5.498279e+01	2.104736e+02
1.520000e-06	3.940567e-06	3.160483e-09	5.526327e+01	2.109464e+02
1.530000e-06	3.959263e-06	3.167371e-09	5.552546e+01	2.114040e+02
1.540000e-06	3.976476e-06	3.173218e-09	5.576686e+01	2.118436e+02
1.550000e-06	3.992245e-06	3.177811e-09	5.598801e+01	2.122601e+02
1.560000e-06	4.006565e-06	3.182533e-09	5.618884e+01	2.126464e+02
1.570000e-06	4.019399e-06	3.187562e-09	5.636882e+01	2.129951e+02
1.580000e-06	4.030674e-06	3.192100e-09	5.652695e+01	2.132991e+02
1.590000e-06	4.040186e-06	3.196164e-09	5.666035e+01	2.135533e+02
1.600000e-06	4.048108e-06	3.198669e-09	5.677144e+01	2.137547e+02
1.610000e-06	4.054674e-06	3.200959e-09	5.686352e+01	2.139039e+02
1.620000e-06	4.059886e-06	3.202189e-09	5.693663e+01	2.140043e+02
1.630000e-06	4.063846e-06	3.201674e-09	5.699216e+01	2.140623e+02
1.640000e-06	4.066422e-06	3.201735e-09	5.702828e+01	2.140860e+02
1.650000e-06	4.067364e-06	3.204266e-09	5.704150e+01	2.140845e+02
1.660000e-06	4.066863e-06	3.206041e-09	5.703447e+01	2.140663e+02
1.670000e-06	4.065144e-06	3.203839e-09	5.701036e+01	2.140383e+02
1.680000e-06	4.062196e-06	3.200799e-09	5.696902e+01	2.140045e+02
1.690000e-06	4.058059e-06	3.198221e-09	5.691100e+01	2.139660e+02
1.700000e-06	4.052559e-06	3.195720e-09	5.683386e+01	2.139205e+02
1.710000e-06	4.045507e-06	3.191382e-09	5.673496e+01	2.138629e+02
1.720000e-06	4.037171e-06	3.185117e-09	5.661806e+01	2.137866e+02
1.730000e-06	4.027703e-06	3.183409e-09	5.648529e+01	2.136843e+02
1.740000e-06	4.016996e-06	3.185773e-09	5.633512e+01	2.135499e+02
1.750000e-06	4.004544e-06	3.144123e-09	5.616050e+01	2.133798e+02
1.760000e-06	3.989683e-06	3.120338e-09	5.595208e+01	2.131737e+02
1.770000e-06	3.972690e-06	3.128146e-09	5.571377e+01	2.129354e+02
1.780000e-06	3.954688e-06	3.216799e-09	5.546130e+01	2.126725e+02
1.790000e-06	3.936398e-06	3.235713e-09	5.520480e+01	2.123957e+02
1.800000e-06	3.917061e-06	3.091874e-09	5.493362e+01	2.121173e+02
1.810000e-06	3.895600e-06	3.135214e-09	5.463265e+01	2.118495e+02
1.820000e-06	3.872745e-06	3.289879e-09	5.431211e+01	2.116025e+02
1.830000e-06	3.849091e-06	3.217332e-09	5.398040e+01	2.113822e+02
1.840000e-06	3.823765e-06	3.064290e-09	5.362522e+01	2.111891e+02
1.850000e-06	3.796886e-06	3.056407e-09	5.324826e+01	2.110170e+02
1.860000e-06	3.769102e-06	3.133228e-09	5.285861e+01	2.108532e+02
1.870000e-06	3.740053e-06	3.208395e-09	5.245123e+01	2.106788e+02
1.880000e-06	3.709376e-06	3.177616e-09	5.202101e+01	2.104709e+02
1.890000e-06	3.677172e-06	3.177414e-09	5.156936e+01	2.102042e+02
1.900000e-06	3.643693e-06	3.388052e-09	5.109986e+01	2.098536e+02
1.910000e-06	3.609221e-06	3.467709e-09	5.061642e+01	2.093976e+02
1.920000e-06	3.573609e-06	3.287046e-09	5.011698e+01	2.088197e+02
1.930000e-06	3.536715e-06	3.180244e-09	4.959958e+01	2.081111e+02
1.940000e-06	3.498579e-06	3.172760e-09	4.906475e+01	2.072713e+02
1.950000e-06	3.458879e-06	3.305324e-09	4.850799e+01	2.063082e+02
1.960000e-06	3.417689e-06	3.373415e-09	4.793032e+01	2.052374e+02
1.970000e-06	3.375498e-06	3.155217e-09	4.733863e+01	2.040802e+02
1.980000e-06	3.332334e-06	3.051395e-09	4.673329e+01	2.028613e+02
1.990000e-06	3.288104e-06	3.182157e-09	4.611300e+01	2.016061e+02
2.000000e-06	3.242803e-06	3.272936e-09	4.547770e+01	2.003377e+02
2.010000e-06	3.196306e-06	3.151950e-09	4.482561e+01	1.990743e+02
2.020000e-06	3.148427e-06	2.968765e-09	4.415415e+01	1.978279e+02
2.030000e-06	3.099206e-06	3.027123e-09	4.346386e+01	1.966028e+02
2.040000e-06	3.049011e-06	3.146378e-09	4.275992e+01	1.953957e+02
2.050000e-06	2.997853e-06	3.092298e-09	4.204246e+01	1.941967e+02
2.060000e-06	2.945481e-06	2.996906e-09	4.130799e+01	1.929904e+02
2.070000e-06	2.891725e-06	2.928281e-09	4.055411e+01	1.917589e+02
2.080000e-06	2.836626e-06	2.962603e-09	3.978139e+01	1.904831e+02
2.090000e-06	2.780535e-06	3.034067e-09	3.899476e+01	1.891460e+02
2.100000e-06	2.723520e-06	2.970209e-09	3.819517e+01	1.877338e+02
2.110000e-06	2.665585e-06	2.838947e-09	3.738268e+01	1.862375e+02
2.120000e-06	2.606834e-06	2.819695e-09	3.655874e+01	1.846535e+02
2.130000e-06	2.547250e-06	2.929051e-09	3.572313e+01	1.829834e+02
2.140000e-06	2.486914e-06	2.887551e-09	3.487696e+01	1.812327e+02
2.150000e-06	2.425691e-06	2.727751e-09	3.401836e+01	1.794099e+02
2.160000e-06	2.363234e-06	2.722336e-09	3.314245e+01	1.775243e+02
2.170000e-06	2.299670e-06	2.786499e-09	3.225101e+01	1.755847e+02
2.180000e-06	2.235416e-06	2.748797e-09	3.134990e+01	1.735976e+02
2.190000e-06	2.170510e-06	2.638225e-09	3.043966e+01	1.715662e+02
2.200000e-06	2.104788e-06	2.605777e-09	2.951796e+01	1.694897e+02
2.210000e-06	2.038304e-06	2.624908e-09	2.858556e+01	1.673637e+02
2.220000e-06	1.971178e-06	2.595212e-09	2.764417e+01	1.651806e+02
2.230000e-06	1.903444e-06	2.538939e-09	2.669427e+01	1.629305e+02
2.240000e-06	1.835204e-06	2.478022e-09	2.573726e+01	1.606026e+02
2.250000e-06	1.766351e-06	2.443958e-09	2.477164e+01	1.581862e+02
2.260000e-06	1.696603e-06	2.434987e-09	2.379348e+01	1.556720e+02
2.270000e-06	1.625887e-06	2.398102e-09	2.280176e+01	1.530527e+02
2.280000e-06	1.554398e-06	2.323367e-09	2.179918e+01	1.503230e+02
2.290000e-06	1.482469e-06	2.264895e-09	2.079042e+01	1.474796e+02
2.300000e-06	1.410218e-06	2.255127e-09	1.977717e+01	1.445206e+02
2.310000e-06	1.337569e-06	2.229863e-09	1.875833e+01	1.414443e+02
2.320000e-06	1.264450e-06	2.144811e-09	1.773289e+01	1.382484e+02
2.330000e-06	1.190855e-06	2.064569e-09	1.670078e+01	1.349288e+02
2.340000e-06	1.116829e-06	2.039797e-09	1.566262e+01	1.314790e+02
2.350000e-06	1.042420e-06	2.021374e-09	1.461910e+01	1.278897e+02
2.360000e-06	9.676483e-07	1.940639e-09	1.357049e+01	1.241486e+02
2.370000e-06	8.924727e-07	1.841869e-09	1.251621e+01	1.202410e+02
2.380000e-06	8.170029e-07	1.794648e-09	1.145781e+01	1.161507e+02
2.390000e-06	7.412975e-07	1.759243e-09	1.039610e+01	1.118608e+02
2.400000e-06	6.653315e-07	1.680850e-09	9.330737e+00	1.073555e+02
2.410000e-06	5.891513e-07	1.579609e-09	8.262371e+00	1.026202e+02
2.420000e-06	5.127743e-07	1.501089e-09	7.191246e+00	9.764352e+01
2.430000e-06	4.362446e-07	1.438098e-09	6.117978e+00	9.241703e+01
2.440000e-06	3.595393e-07	1.365281e-09	5.042248e+00	8.693592e+01
2.450000e-06	2.826483e-07	1.271525e-09	3.963914e+00	8.119873e+01
2.460000e-06	2.055981e-07	1.162302e-09	2.883347e+00	7.520694e+01
2.470000e-06	1.283806e-07	1.068982e-09	1.800434e+00	6.896447e+01
2.480000e-06	5.105017e-08	9.941832e-10	7.159374e-01	6.247700e+01
2.490000e-06	-2.623092e-08	8.977673e-10	-3.678675e-01	5.575161e+01
2.500000e-06	-1.034364e-07	7.668436e-10	-1.450613e+00	4.879648e+01
2.510000e-06	-1.806222e-07	6.473771e-10	-2.533080e+00	4.162103e+01
2.520000e-06	-2.576987e-07	5.561097e-10	-3.614016e+00	3.423628e+01
2.530000e-06	-3.345437e-07	4.491656e-10	-4.691705e+00	2.665560e+01
2.540000e-06	-4.111944e-07	3.114635e-10	-5.766669e+00	1.889548e+01
2.550000e-06	-4.877058e-07	1.813655e-10	-6.839680e+00	1.097644e+01
2.560000e-06	-5.640029e-07	7.321068e-11	-7.909686e+00	2.923716e+00
2.570000e-06	-6.400314e-07	-4.201024e-11	-8.975924e+00	-5.232356e+00
2.580000e-06	-7.157819e-07	-1.732441e-10	-1.003826e+01	-1.345637e+01
2.590000e-06	-7.913278e-07	-3.050671e-10	-1.109773e+01	-2.170838e+01
2.600000e-06	-8.666120e-07	-4.281803e-10	-1.215353e+01	-2.994501e+01
2.610000e-06	-9.415357e-07	-5.469342e-10	-1.320428e+01	-3.812090e+01
2.620000e-06	-1.016068e-06	-6.682053e-10	-1.424953e+01	-4.619053e+01
2.630000e-06	-1.090237e-06	-7.956339e-10	-1.528969e+01	-5.411022e+01
2.640000e-06	-1.164094e-06	-9.202552e-10	-1.632548e+01	-6.184000e+01
2.650000e-06	-1.237557e-06	-1.030617e-09	-1.735574e+01	-6.934527e+01
2.660000e-06	-1.310524e-06	-1.135390e-09	-1.837904e+01	-7.659805e+01
2.670000e-06	-1.383016e-06	-1.246263e-09	-1.939568e+01	-8.357769e+01
2.680000e-06	-1.455163e-06	-1.357021e-09	-2.040749e+01	-9.027105e+01
2.690000e-06	-1.526965e-06	-1.451549e-09	-2.141445e+01	-9.667202e+01
2.700000e-06	-1.598305e-06	-1.536467e-09	-2.241494e+01	-1.027807e+02
2.710000e-06	-1.668912e-06	-1.628273e-09	-2.340514e+01	-1.086022e+02
2.720000e-06	-1.738589e-06	-1.722117e-09	-2.438230e+01	-1.141453e+02
2.730000e-06	-1.807463e-06	-1.802988e-09	-2.534821e+01	-1.194207e+02
2.740000e-06	-1.875738e-06	-1.873746e-09	-2.630571e+01	-1.244404e+02
2.750000e-06	-1.943473e-06	-1.947169e-09	-2.725564e+01	-1.292164e+02
2.760000e-06	-2.010562e-06	-2.021987e-09	-2.819650e+01	-1.337599e+02
2.770000e-06	-2.076928e-06	-2.091459e-09	-2.912723e+01	-1.380814e+02
2.780000e-06	-2.142611e-06	-2.154703e-09	-3.004839e+01	-1.421902e+02
2.790000e-06	-2.207631e-06	-2.215153e-09	-3.096024e+01	-1.460953e+02
2.800000e-06	-2.271939e-06	-2.274752e-09	-3.186211e+01	-1.498051e+02
2.810000e-06	-2.335532e-06	-2.334671e-09	-3.275395e+01	-1.533281e+02
2.820000e-06	-2.398217e-06	-2.391067e-09	-3.363306e+01	-1.566729e+02
2.830000e-06	-2.459740e-06	-2.439368e-09	-3.449586e+01	-1.598488e+02
2.840000e-06	-2.520264e-06	-2.484574e-09	-3.534467e+01	-1.628652e+02
2.850000e-06	-2.580057e-06	-2.530902e-09	-3.618322e+01	-1.657316e+02
2.860000e-06	-2.639037e-06	-2.576731e-09	-3.701036e+01	-1.684575e+02
2.870000e-06	-2.697027e-06	-2.617985e-09	-3.782363e+01	-1.710514e+02
2.880000e-06	-2.754034e-06	-2.655176e-09	-3.862311e+01	-1.735215e+02
2.890000e-06	-2.810218e-06	-2.692509e-09	-3.941104e+01	-1.758743e+02
2.900000e-06	-2.865474e-06	-2.730517e-09	-4.018596e+01	-1.781155e+02
2.910000e-06	-2.919389e-06	-2.765295e-09	-4.094208e+01	-1.802496e+02
2.920000e-06	-2.971919e-06	-2.795085e-09	-4.167876e+01	-1.822803e+02
2.930000e-06	-3.023303e-06	-2.823802e-09	-4.239938e+01	-1.842109e+02
2.940000e-06	-3.073577e-06	-2.853546e-09	-4.310443e+01	-1.860447e+02
