# Temperatura_=_20.0
# Concentracion g/m^3_=_9000.0
# C_Vs_to_Am_M_A/Vsm_=_65563218390.804596
# pendiente_HvsI_1/m_=_3716.3
# ordenada_HvsI_A/m_=_1297.0
# frecuencia_Hz_=_300770.3191314799

Tiempo_(s)	Campo_(V.s)	Magnetizacion_(V.s)	Campo_(kA/m)	Magnetizacion_(A/m)
0.000000e+00	-4.058001e-06	-3.262745e-09	-5.684657e+01	-2.121740e+02
1.000000e-08	-4.055892e-06	-3.263387e-09	-5.681703e+01	-2.121569e+02
2.000000e-08	-4.052323e-06	-3.265001e-09	-5.676704e+01	-2.121325e+02
3.000000e-08	-4.047633e-06	-3.264350e-09	-5.670134e+01	-2.120965e+02
4.000000e-08	-4.041704e-06	-3.263835e-09	-5.661827e+01	-2.120417e+02
5.000000e-08	-4.034480e-06	-3.265028e-09	-5.651708e+01	-2.119600e+02
6.000000e-08	-4.026067e-06	-3.269680e-09	-5.639923e+01	-2.118436e+02
7.000000e-08	-4.016166e-06	-3.280754e-09	-5.626053e+01	-2.116872e+02
8.000000e-08	-4.004467e-06	-3.257661e-09	-5.609665e+01	-2.114893e+02
9.000000e-08	-3.990894e-06	-3.243405e-09	-5.590650e+01	-2.112536e+02
1.000000e-07	-3.975300e-06	-3.260945e-09	-5.568805e+01	-2.109892e+02
1.100000e-07	-3.957964e-06	-3.275060e-09	-5.544521e+01	-2.107102e+02
1.200000e-07	-3.939459e-06	-3.330412e-09	-5.518598e+01	-2.104342e+02
1.300000e-07	-3.920055e-06	-3.222514e-09	-5.491415e+01	-2.101807e+02
1.400000e-07	-3.899716e-06	-3.151385e-09	-5.462924e+01	-2.099679e+02
1.500000e-07	-3.878336e-06	-3.326472e-09	-5.432974e+01	-2.098107e+02
1.600000e-07	-3.855748e-06	-3.209742e-09	-5.401331e+01	-2.097174e+02
1.700000e-07	-3.831502e-06	-3.123379e-09	-5.367366e+01	-2.096883e+02
1.800000e-07	-3.805554e-06	-3.323597e-09	-5.331017e+01	-2.097142e+02
1.900000e-07	-3.778469e-06	-3.243648e-09	-5.293074e+01	-2.097767e+02
2.000000e-07	-3.750269e-06	-3.112988e-09	-5.253570e+01	-2.098487e+02
2.100000e-07	-3.720613e-06	-3.257428e-09	-5.212027e+01	-2.098973e+02
2.200000e-07	-3.689742e-06	-3.256871e-09	-5.168781e+01	-2.098862e+02
2.300000e-07	-3.657827e-06	-3.179572e-09	-5.124073e+01	-2.097798e+02
2.400000e-07	-3.624519e-06	-3.163794e-09	-5.077414e+01	-2.095462e+02
2.500000e-07	-3.589698e-06	-3.023492e-09	-5.028634e+01	-2.091610e+02
2.600000e-07	-3.553544e-06	-3.062078e-09	-4.977989e+01	-2.086095e+02
2.700000e-07	-3.516181e-06	-3.147904e-09	-4.925648e+01	-2.078887e+02
2.800000e-07	-3.477613e-06	-3.118623e-09	-4.871620e+01	-2.070067e+02
2.900000e-07	-3.437902e-06	-3.076935e-09	-4.815991e+01	-2.059822e+02
3.000000e-07	-3.397014e-06	-2.965857e-09	-4.758712e+01	-2.048422e+02
3.100000e-07	-3.354650e-06	-2.979949e-09	-4.699367e+01	-2.036189e+02
3.200000e-07	-3.310930e-06	-3.163780e-09	-4.638121e+01	-2.023458e+02
3.300000e-07	-3.266177e-06	-3.087969e-09	-4.575430e+01	-2.010544e+02
3.400000e-07	-3.220341e-06	-2.854670e-09	-4.511220e+01	-1.997708e+02
3.500000e-07	-3.173301e-06	-2.919665e-09	-4.445325e+01	-1.985129e+02
3.600000e-07	-3.125122e-06	-3.081457e-09	-4.377832e+01	-1.972896e+02
3.700000e-07	-3.075684e-06	-3.018450e-09	-4.308577e+01	-1.961000e+02
3.800000e-07	-3.024664e-06	-2.881441e-09	-4.237105e+01	-1.949341e+02
3.900000e-07	-2.972124e-06	-2.889726e-09	-4.163505e+01	-1.937755e+02
4.000000e-07	-2.918541e-06	-2.908529e-09	-4.088444e+01	-1.926031e+02
4.100000e-07	-2.864115e-06	-2.916823e-09	-4.012201e+01	-1.913945e+02
4.200000e-07	-2.808773e-06	-2.913852e-09	-3.934675e+01	-1.901286e+02
4.300000e-07	-2.752510e-06	-2.831730e-09	-3.855859e+01	-1.887884e+02
4.400000e-07	-2.695075e-06	-2.762918e-09	-3.775401e+01	-1.873623e+02
4.500000e-07	-2.636346e-06	-2.803057e-09	-3.693129e+01	-1.858452e+02
4.600000e-07	-2.576674e-06	-2.870035e-09	-3.609538e+01	-1.842382e+02
4.700000e-07	-2.516236e-06	-2.764888e-09	-3.524874e+01	-1.825477e+02
4.800000e-07	-2.454957e-06	-2.638537e-09	-3.439030e+01	-1.807836e+02
4.900000e-07	-2.392803e-06	-2.702189e-09	-3.351962e+01	-1.789574e+02
5.000000e-07	-2.329837e-06	-2.768925e-09	-3.263756e+01	-1.770800e+02
5.100000e-07	-2.266255e-06	-2.646020e-09	-3.174687e+01	-1.751598e+02
5.200000e-07	-2.201923e-06	-2.554570e-09	-3.084568e+01	-1.732011e+02
5.300000e-07	-2.136427e-06	-2.606957e-09	-2.992818e+01	-1.712038e+02
5.400000e-07	-2.069823e-06	-2.605953e-09	-2.899515e+01	-1.691629e+02
5.500000e-07	-2.002534e-06	-2.519901e-09	-2.805253e+01	-1.670693e+02
5.600000e-07	-1.934794e-06	-2.482803e-09	-2.710359e+01	-1.649113e+02
5.700000e-07	-1.866485e-06	-2.478841e-09	-2.614668e+01	-1.626755e+02
5.800000e-07	-1.797510e-06	-2.432308e-09	-2.518045e+01	-1.603488e+02
5.900000e-07	-1.727987e-06	-2.408736e-09	-2.420653e+01	-1.579196e+02
6.000000e-07	-1.657868e-06	-2.375735e-09	-2.322427e+01	-1.553788e+02
6.100000e-07	-1.587020e-06	-2.303536e-09	-2.223179e+01	-1.527204e+02
6.200000e-07	-1.515632e-06	-2.264915e-09	-2.123176e+01	-1.499409e+02
6.300000e-07	-1.443949e-06	-2.270492e-09	-2.022759e+01	-1.470395e+02
6.400000e-07	-1.371990e-06	-2.220678e-09	-1.921954e+01	-1.440161e+02
6.500000e-07	-1.299493e-06	-2.118491e-09	-1.820397e+01	-1.408709e+02
6.600000e-07	-1.226245e-06	-2.084469e-09	-1.717787e+01	-1.376028e+02
6.700000e-07	-1.152287e-06	-2.085360e-09	-1.614183e+01	-1.342083e+02
6.800000e-07	-1.077708e-06	-2.026795e-09	-1.509709e+01	-1.306809e+02
6.900000e-07	-1.002632e-06	-1.925903e-09	-1.404538e+01	-1.270109e+02
7.000000e-07	-9.271387e-07	-1.873208e-09	-1.298784e+01	-1.231859e+02
7.100000e-07	-8.513748e-07	-1.851059e-09	-1.192650e+01	-1.191910e+02
7.200000e-07	-7.754207e-07	-1.790327e-09	-1.086249e+01	-1.150101e+02
7.300000e-07	-6.992229e-07	-1.698014e-09	-9.795076e+00	-1.106273e+02
7.400000e-07	-6.226965e-07	-1.617123e-09	-8.723054e+00	-1.060275e+02
7.500000e-07	-5.458437e-07	-1.558189e-09	-7.646460e+00	-1.011979e+02
7.600000e-07	-4.687816e-07	-1.493867e-09	-6.566934e+00	-9.612820e+01
7.700000e-07	-3.916289e-07	-1.412976e-09	-5.486140e+00	-9.081140e+01
7.800000e-07	-3.143387e-07	-1.314931e-09	-4.403419e+00	-8.524330e+01
7.900000e-07	-2.368741e-07	-1.219048e-09	-3.318254e+00	-7.942236e+01
8.000000e-07	-1.593428e-07	-1.136899e-09	-2.232156e+00	-7.334920e+01
8.100000e-07	-8.179232e-08	-1.056421e-09	-1.145789e+00	-6.702596e+01
8.200000e-07	-4.265777e-09	-9.470558e-10	-5.975721e-02	-6.045603e+01
8.300000e-07	7.325068e-08	-8.215276e-10	1.026133e+00	-5.364379e+01
8.400000e-07	1.507608e-07	-7.223887e-10	2.111935e+00	-4.659488e+01
8.500000e-07	2.282097e-07	-6.337541e-10	3.196879e+00	-3.931671e+01
8.600000e-07	3.055600e-07	-5.143788e-10	4.280442e+00	-3.181927e+01
8.700000e-07	3.827974e-07	-3.743719e-10	5.362424e+00	-2.411613e+01
8.800000e-07	4.598848e-07	-2.586082e-10	6.442304e+00	-1.622549e+01
8.900000e-07	5.367771e-07	-1.513652e-10	7.519451e+00	-8.170971e+00
9.000000e-07	6.134250e-07	-2.217303e-11	8.593175e+00	1.781556e-02
9.100000e-07	6.898156e-07	1.151791e-10	9.663293e+00	8.305279e+00
9.200000e-07	7.659737e-07	2.413215e-10	1.073015e+01	1.665035e+01
9.300000e-07	8.418777e-07	3.615634e-10	1.179346e+01	2.500759e+01
9.400000e-07	9.175459e-07	4.852619e-10	1.285346e+01	3.332873e+01
9.500000e-07	9.929596e-07	6.091223e-10	1.390989e+01	4.156467e+01
9.600000e-07	1.068071e-06	7.374350e-10	1.496209e+01	4.966759e+01
9.700000e-07	1.142637e-06	8.628961e-10	1.600665e+01	5.759300e+01
9.800000e-07	1.216465e-06	9.761269e-10	1.704088e+01	6.530170e+01
9.900000e-07	1.289613e-06	1.085394e-09	1.806556e+01	7.276111e+01
1.000000e-06	1.362145e-06	1.201369e-09	1.908163e+01	7.994628e+01
1.010000e-06	1.434146e-06	1.310664e-09	2.009025e+01	8.684012e+01
1.020000e-06	1.505737e-06	1.402867e-09	2.109314e+01	9.343321e+01
1.030000e-06	1.576931e-06	1.494288e-09	2.209046e+01	9.972296e+01
1.040000e-06	1.647613e-06	1.593017e-09	2.308061e+01	1.057125e+02
1.050000e-06	1.717708e-06	1.682876e-09	2.406254e+01	1.114094e+02
1.060000e-06	1.787178e-06	1.755716e-09	2.503571e+01	1.168243e+02
1.070000e-06	1.856032e-06	1.828187e-09	2.600026e+01	1.219693e+02
1.080000e-06	1.924305e-06	1.908008e-09	2.695665e+01	1.268576e+02
1.090000e-06	1.992046e-06	1.982538e-09	2.790561e+01	1.315021e+02
1.100000e-06	2.059236e-06	2.046045e-09	2.884684e+01	1.359153e+02
1.110000e-06	2.125601e-06	2.103423e-09	2.977652e+01	1.401091e+02
1.120000e-06	2.190878e-06	2.161682e-09	3.069094e+01	1.440949e+02
1.130000e-06	2.255157e-06	2.218004e-09	3.159140e+01	1.478833e+02
1.140000e-06	2.318767e-06	2.271820e-09	3.248249e+01	1.514848e+02
1.150000e-06	2.381724e-06	2.319768e-09	3.336442e+01	1.549095e+02
1.160000e-06	2.443879e-06	2.362707e-09	3.423512e+01	1.581673e+02
1.170000e-06	2.505259e-06	2.407718e-09	3.509496e+01	1.612673e+02
1.180000e-06	2.565849e-06	2.455027e-09	3.594374e+01	1.642184e+02
1.190000e-06	2.625720e-06	2.496314e-09	3.678244e+01	1.670282e+02
1.200000e-06	2.684770e-06	2.529213e-09	3.760965e+01	1.697033e+02
1.210000e-06	2.742621e-06	2.565709e-09	3.842005e+01	1.722489e+02
1.220000e-06	2.799169e-06	2.605477e-09	3.921221e+01	1.746692e+02
1.230000e-06	2.854740e-06	2.640934e-09	3.999068e+01	1.769674e+02
1.240000e-06	2.909461e-06	2.668298e-09	4.075723e+01	1.791460e+02
1.250000e-06	2.963199e-06	2.695431e-09	4.151003e+01	1.812078e+02
1.260000e-06	3.015874e-06	2.722851e-09	4.224792e+01	1.831561e+02
1.270000e-06	3.067350e-06	2.749771e-09	4.296902e+01	1.849951e+02
1.280000e-06	3.117355e-06	2.774592e-09	4.366952e+01	1.867306e+02
1.290000e-06	3.165865e-06	2.796673e-09	4.434907e+01	1.883697e+02
1.300000e-06	3.213218e-06	2.817141e-09	4.501241e+01	1.899210e+02
1.310000e-06	3.259538e-06	2.838278e-09	4.566129e+01	1.913940e+02
1.320000e-06	3.304766e-06	2.860698e-09	4.629486e+01	1.927981e+02
1.330000e-06	3.348920e-06	2.880667e-09	4.691340e+01	1.941424e+02
1.340000e-06	3.392033e-06	2.898682e-09	4.751735e+01	1.954344e+02
1.350000e-06	3.433857e-06	2.916378e-09	4.810324e+01	1.966794e+02
1.360000e-06	3.474212e-06	2.934981e-09	4.866856e+01	1.978804e+02
1.370000e-06	3.513339e-06	2.951746e-09	4.921666e+01	1.990374e+02
1.380000e-06	3.551322e-06	2.966437e-09	4.974876e+01	2.001483e+02
1.390000e-06	3.588166e-06	2.981378e-09	5.026488e+01	2.012088e+02
1.400000e-06	3.623922e-06	2.996400e-09	5.076578e+01	2.022141e+02
1.410000e-06	3.658375e-06	3.008914e-09	5.124840e+01	2.031591e+02
1.420000e-06	3.691278e-06	3.020622e-09	5.170933e+01	2.040403e+02
1.430000e-06	3.722798e-06	3.034561e-09	5.215088e+01	2.048558e+02
1.440000e-06	3.753131e-06	3.046163e-09	5.257579e+01	2.056066e+02
1.450000e-06	3.782273e-06	3.054784e-09	5.298403e+01	2.062965e+02
1.460000e-06	3.810271e-06	3.063349e-09	5.337625e+01	2.069316e+02
1.470000e-06	3.836898e-06	3.072944e-09	5.374925e+01	2.075201e+02
1.480000e-06	3.861851e-06	3.082378e-09	5.409881e+01	2.080710e+02
1.490000e-06	3.885356e-06	3.090505e-09	5.442807e+01	2.085929e+02
1.500000e-06	3.907627e-06	3.096991e-09	5.474006e+01	2.090929e+02
1.510000e-06	3.928614e-06	3.102416e-09	5.503405e+01	2.095759e+02
1.520000e-06	3.948416e-06	3.109595e-09	5.531145e+01	2.100434e+02
1.530000e-06	3.966928e-06	3.117091e-09	5.557078e+01	2.104938e+02
1.540000e-06	3.983910e-06	3.122377e-09	5.580867e+01	2.109226e+02
1.550000e-06	3.999368e-06	3.124597e-09	5.602521e+01	2.113231e+02
1.560000e-06	4.013373e-06	3.128496e-09	5.622140e+01	2.116876e+02
1.570000e-06	4.025927e-06	3.135321e-09	5.639727e+01	2.120087e+02
1.580000e-06	4.036895e-06	3.140175e-09	5.655091e+01	2.122806e+02
1.590000e-06	4.046157e-06	3.142222e-09	5.668066e+01	2.125001e+02
1.600000e-06	4.053910e-06	3.143990e-09	5.678926e+01	2.126671e+02
1.610000e-06	4.060273e-06	3.147525e-09	5.687840e+01	2.127853e+02
1.620000e-06	4.065270e-06	3.149791e-09	5.694840e+01	2.128609e+02
1.630000e-06	4.068989e-06	3.148995e-09	5.700050e+01	2.129025e+02
1.640000e-06	4.071265e-06	3.146713e-09	5.703239e+01	2.129192e+02
1.650000e-06	4.071916e-06	3.147006e-09	5.704150e+01	2.129196e+02
1.660000e-06	4.071182e-06	3.150509e-09	5.703122e+01	2.129101e+02
1.670000e-06	4.069252e-06	3.150497e-09	5.700419e+01	2.128942e+02
1.680000e-06	4.066068e-06	3.146513e-09	5.695958e+01	2.128716e+02
1.690000e-06	4.061665e-06	3.144286e-09	5.689790e+01	2.128386e+02
1.700000e-06	4.055849e-06	3.142016e-09	5.681642e+01	2.127885e+02
1.710000e-06	4.048531e-06	3.136851e-09	5.671391e+01	2.127132e+02
1.720000e-06	4.040015e-06	3.125524e-09	5.659462e+01	2.126047e+02
1.730000e-06	4.030362e-06	3.100725e-09	5.645939e+01	2.124571e+02
1.740000e-06	4.019318e-06	3.143673e-09	5.630468e+01	2.122679e+02
1.750000e-06	4.006388e-06	3.129680e-09	5.612355e+01	2.120397e+02
1.760000e-06	3.991055e-06	3.112253e-09	5.590876e+01	2.117804e+02
1.770000e-06	3.973758e-06	3.044046e-09	5.566646e+01	2.115030e+02
1.780000e-06	3.955632e-06	3.066164e-09	5.541253e+01	2.112248e+02
1.790000e-06	3.937134e-06	3.230294e-09	5.515341e+01	2.109648e+02
1.800000e-06	3.917368e-06	3.097390e-09	5.487651e+01	2.107418e+02
1.810000e-06	3.895516e-06	3.017924e-09	5.457040e+01	2.105717e+02
1.820000e-06	3.872376e-06	3.255428e-09	5.424624e+01	2.104643e+02
1.830000e-06	3.848333e-06	3.138389e-09	5.390944e+01	2.104219e+02
1.840000e-06	3.822597e-06	2.924240e-09	5.354892e+01	2.104372e+02
1.850000e-06	3.795458e-06	3.161787e-09	5.316874e+01	2.104938e+02
1.860000e-06	3.767427e-06	3.166605e-09	5.277606e+01	2.105663e+02
1.870000e-06	3.738005e-06	3.045897e-09	5.236390e+01	2.106229e+02
1.880000e-06	3.706946e-06	3.254581e-09	5.192882e+01	2.106277e+02
1.890000e-06	3.674509e-06	3.324847e-09	5.147442e+01	2.105445e+02
1.900000e-06	3.640893e-06	3.342461e-09	5.100350e+01	2.103404e+02
1.910000e-06	3.606198e-06	3.451949e-09	5.051749e+01	2.099892e+02
1.920000e-06	3.570279e-06	3.307485e-09	5.001431e+01	2.094741e+02
1.930000e-06	3.533028e-06	3.287454e-09	4.949249e+01	2.087892e+02
1.940000e-06	3.494463e-06	3.263175e-09	4.895225e+01	2.079404e+02
1.950000e-06	3.454393e-06	3.248047e-09	4.839091e+01	2.069444e+02
1.960000e-06	3.413012e-06	3.446498e-09	4.781123e+01	2.058265e+02
1.970000e-06	3.370710e-06	3.221625e-09	4.721865e+01	2.046182e+02
1.980000e-06	3.327417e-06	3.042701e-09	4.661217e+01	2.033530e+02
1.990000e-06	3.282972e-06	3.317989e-09	4.598956e+01	2.020630e+02
2.000000e-06	3.237367e-06	3.305630e-09	4.535071e+01	2.007758e+02
2.010000e-06	3.190653e-06	3.085253e-09	4.469631e+01	1.995113e+02
2.020000e-06	3.142656e-06	3.061009e-09	4.402395e+01	1.982803e+02
2.030000e-06	3.093312e-06	3.152928e-09	4.333272e+01	1.970840e+02
2.040000e-06	3.042928e-06	3.156014e-09	4.262691e+01	1.959142e+02
2.050000e-06	2.991526e-06	3.042747e-09	4.190685e+01	1.947556e+02
2.060000e-06	2.938868e-06	3.090744e-09	4.116918e+01	1.935880e+02
2.070000e-06	2.884765e-06	3.046943e-09	4.041128e+01	1.923889e+02
2.080000e-06	2.829332e-06	2.951519e-09	3.963474e+01	1.911369e+02
2.090000e-06	2.772940e-06	3.056625e-09	3.884477e+01	1.898138e+02
2.100000e-06	2.715597e-06	3.032754e-09	3.804148e+01	1.884067e+02
2.110000e-06	2.657304e-06	2.898318e-09	3.722488e+01	1.869091e+02
2.120000e-06	2.598265e-06	2.849228e-09	3.639783e+01	1.853210e+02
2.130000e-06	2.538497e-06	2.967936e-09	3.556057e+01	1.836476e+02
2.140000e-06	2.477936e-06	2.956413e-09	3.471220e+01	1.818982e+02
2.150000e-06	2.416315e-06	2.751222e-09	3.384899e+01	1.800844e+02
2.160000e-06	2.353457e-06	2.785372e-09	3.296844e+01	1.782171e+02
2.170000e-06	2.289688e-06	2.867879e-09	3.207513e+01	1.763055e+02
2.180000e-06	2.225322e-06	2.770234e-09	3.117346e+01	1.743549e+02
2.190000e-06	2.160247e-06	2.672199e-09	3.026185e+01	1.723661e+02
2.200000e-06	2.094324e-06	2.680091e-09	2.933837e+01	1.703351e+02
2.210000e-06	2.027613e-06	2.691644e-09	2.840385e+01	1.682537e+02
2.220000e-06	1.960240e-06	2.612429e-09	2.746006e+01	1.661105e+02
2.230000e-06	1.892316e-06	2.574977e-09	2.650854e+01	1.638924e+02
2.240000e-06	1.823896e-06	2.561043e-09	2.555008e+01	1.615862e+02
2.250000e-06	1.754807e-06	2.491308e-09	2.458224e+01	1.591798e+02
2.260000e-06	1.684779e-06	2.464431e-09	2.360125e+01	1.566635e+02
2.270000e-06	1.613762e-06	2.455554e-09	2.260641e+01	1.540306e+02
2.280000e-06	1.542069e-06	2.395220e-09	2.160210e+01	1.512772e+02
2.290000e-06	1.470068e-06	2.312468e-09	2.059347e+01	1.484018e+02
2.300000e-06	1.397771e-06	2.289441e-09	1.958070e+01	1.454045e+02
2.310000e-06	1.325036e-06	2.284540e-09	1.856179e+01	1.422855e+02
2.320000e-06	1.251815e-06	2.190533e-09	1.753607e+01	1.390438e+02
2.330000e-06	1.178124e-06	2.104188e-09	1.650377e+01	1.356768e+02
2.340000e-06	1.103933e-06	2.086140e-09	1.546446e+01	1.321785e+02
2.350000e-06	1.029349e-06	2.063035e-09	1.441965e+01	1.285400e+02
2.360000e-06	9.544535e-07	1.974367e-09	1.337048e+01	1.247494e+02
2.370000e-06	8.791750e-07	1.882843e-09	1.231594e+01	1.207921e+02
2.380000e-06	8.035578e-07	1.844775e-09	1.125665e+01	1.166524e+02
2.390000e-06	7.277654e-07	1.786980e-09	1.019491e+01	1.123142e+02
2.400000e-06	6.517808e-07	1.701318e-09	9.130483e+00	1.077620e+02
2.410000e-06	5.755168e-07	1.620001e-09	8.062136e+00	1.029825e+02
2.420000e-06	4.990126e-07	1.545571e-09	6.990427e+00	9.796494e+01
2.430000e-06	4.223450e-07	1.464199e-09	5.916428e+00	9.270150e+01
2.440000e-06	3.454304e-07	1.388221e-09	4.838968e+00	8.718741e+01
2.450000e-06	2.682915e-07	1.313400e-09	3.758366e+00	8.142063e+01
2.460000e-06	1.910337e-07	1.205507e-09	2.676099e+00	7.540133e+01
2.470000e-06	1.135512e-07	1.097647e-09	1.590684e+00	6.913139e+01
2.480000e-06	3.594009e-08	1.020437e-09	5.034674e-01	6.261394e+01
2.490000e-06	-4.164148e-08	9.313836e-10	-5.833354e-01	5.585315e+01
2.500000e-06	-1.191961e-07	7.991567e-10	-1.669761e+00	4.885437e+01
2.510000e-06	-1.967081e-07	6.755143e-10	-2.755589e+00	4.162454e+01
2.520000e-06	-2.740403e-07	5.828644e-10	-3.838898e+00	3.417303e+01
2.530000e-06	-3.510191e-07	4.718233e-10	-4.917257e+00	2.651257e+01
2.540000e-06	-4.277211e-07	3.333592e-10	-5.991738e+00	1.866026e+01
2.550000e-06	-5.042114e-07	2.079434e-10	-7.063254e+00	1.063853e+01
2.560000e-06	-5.804702e-07	9.671624e-11	-8.131526e+00	2.475680e+00
2.570000e-06	-6.565431e-07	-2.905093e-11	-9.197195e+00	-5.793967e+00
2.580000e-06	-7.324128e-07	-1.613089e-10	-1.026002e+01	-1.413044e+01
2.590000e-06	-8.080205e-07	-2.866589e-10	-1.131917e+01	-2.248911e+01
2.600000e-06	-8.832830e-07	-4.125421e-10	-1.237348e+01	-3.082217e+01
2.610000e-06	-9.582043e-07	-5.403943e-10	-1.342302e+01	-3.908051e+01
2.620000e-06	-1.032732e-06	-6.602434e-10	-1.446704e+01	-4.721587e+01
2.630000e-06	-1.106895e-06	-7.815577e-10	-1.550596e+01	-5.518287e+01
2.640000e-06	-1.180773e-06	-9.097730e-10	-1.654088e+01	-6.294103e+01
2.650000e-06	-1.254191e-06	-1.026237e-09	-1.756935e+01	-7.045628e+01
2.660000e-06	-1.327114e-06	-1.128986e-09	-1.859090e+01	-7.770196e+01
2.670000e-06	-1.399602e-06	-1.236614e-09	-1.960634e+01	-8.465932e+01
2.680000e-06	-1.471688e-06	-1.348311e-09	-2.061617e+01	-9.131734e+01
2.690000e-06	-1.543473e-06	-1.443103e-09	-2.162177e+01	-9.767204e+01
2.700000e-06	-1.614873e-06	-1.527861e-09	-2.262197e+01	-1.037255e+02
2.710000e-06	-1.685581e-06	-1.619477e-09	-2.361249e+01	-1.094843e+02
2.720000e-06	-1.755350e-06	-1.710879e-09	-2.458985e+01	-1.149587e+02
2.730000e-06	-1.824225e-06	-1.787928e-09	-2.555468e+01	-1.201605e+02
2.740000e-06	-1.892435e-06	-1.859246e-09	-2.651021e+01	-1.251027e+02
2.750000e-06	-1.960121e-06	-1.933711e-09	-2.745838e+01	-1.297984e+02
2.760000e-06	-2.027195e-06	-2.003991e-09	-2.839800e+01	-1.342602e+02
2.770000e-06	-2.093561e-06	-2.070070e-09	-2.932769e+01	-1.385001e+02
2.780000e-06	-2.159200e-06	-2.135181e-09	-3.024719e+01	-1.425296e+02
2.790000e-06	-2.224074e-06	-2.197241e-09	-3.115597e+01	-1.463595e+02
2.800000e-06	-2.288268e-06	-2.253482e-09	-3.205523e+01	-1.500002e+02
2.810000e-06	-2.351770e-06	-2.310317e-09	-3.294481e+01	-1.534620e+02
2.820000e-06	-2.414260e-06	-2.367682e-09	-3.382020e+01	-1.567548e+02
2.830000e-06	-2.475598e-06	-2.418117e-09	-3.467946e+01	-1.598879e+02
2.840000e-06	-2.536007e-06	-2.461858e-09	-3.552569e+01	-1.628703e+02
2.850000e-06	-2.595647e-06	-2.506062e-09	-3.636117e+01	-1.657099e+02
2.860000e-06	-2.654419e-06	-2.552073e-09	-3.718447e+01	-1.684133e+02
2.870000e-06	-2.712227e-06	-2.592487e-09	-3.799427e+01	-1.709864e+02
2.880000e-06	-2.769109e-06	-2.630884e-09	-3.879110e+01	-1.734333e+02
2.890000e-06	-2.825194e-06	-2.669775e-09	-3.957678e+01	-1.757574e+02
2.900000e-06	-2.880333e-06	-2.705192e-09	-4.034919e+01	-1.779615e+02
2.910000e-06	-2.934091e-06	-2.737340e-09	-4.110227e+01	-1.800481e+02
2.920000e-06	-2.986457e-06	-2.769404e-09	-4.183583e+01	-1.820205e+02
2.930000e-06	-3.037683e-06	-2.800670e-09	-4.255343e+01	-1.838825e+02
2.940000e-06	-3.087791e-06	-2.827220e-09	-4.325536e+01	-1.856396e+02
