# Temperatura_=_20.0
# Concentracion g/m^3_=_9000.0
# C_Vs_to_Am_M_A/Vsm_=_65563218390.804596
# pendiente_HvsI_1/m_=_3716.3
# ordenada_HvsI_A/m_=_1297.0
# frecuencia_Hz_=_300771.78657843656

Tiempo_(s)	Campo_(V.s)	Magnetizacion_(V.s)	Campo_(kA/m)	Magnetizacion_(A/m)
0.000000e+00	-4.050649e-06	-3.306034e-09	-5.686000e+01	-2.141335e+02
1.000000e-08	-4.050056e-06	-3.306998e-09	-5.685168e+01	-2.141498e+02
2.000000e-08	-4.047822e-06	-3.306479e-09	-5.682033e+01	-2.141563e+02
3.000000e-08	-4.044233e-06	-3.305600e-09	-5.676995e+01	-2.141525e+02
4.000000e-08	-4.039505e-06	-3.305237e-09	-5.670357e+01	-2.141357e+02
5.000000e-08	-4.033480e-06	-3.307581e-09	-5.661901e+01	-2.141010e+02
6.000000e-08	-4.026206e-06	-3.311535e-09	-5.651689e+01	-2.140431e+02
7.000000e-08	-4.017741e-06	-3.311351e-09	-5.639807e+01	-2.139568e+02
8.000000e-08	-4.007754e-06	-3.317304e-09	-5.625788e+01	-2.138388e+02
9.000000e-08	-3.995940e-06	-3.324736e-09	-5.609204e+01	-2.136884e+02
1.000000e-07	-3.982162e-06	-3.310622e-09	-5.589864e+01	-2.135081e+02
1.100000e-07	-3.966342e-06	-3.311582e-09	-5.567657e+01	-2.133040e+02
1.200000e-07	-3.948934e-06	-3.284920e-09	-5.543221e+01	-2.130846e+02
1.300000e-07	-3.930464e-06	-3.320887e-09	-5.517294e+01	-2.128605e+02
1.400000e-07	-3.911098e-06	-3.351986e-09	-5.490109e+01	-2.126425e+02
1.500000e-07	-3.890732e-06	-3.270301e-09	-5.461521e+01	-2.124398e+02
1.600000e-07	-3.869363e-06	-3.290780e-09	-5.431525e+01	-2.122584e+02
1.700000e-07	-3.846827e-06	-3.240567e-09	-5.399890e+01	-2.120995e+02
1.800000e-07	-3.822491e-06	-3.168619e-09	-5.365729e+01	-2.119583e+02
1.900000e-07	-3.796459e-06	-3.374420e-09	-5.329187e+01	-2.118240e+02
2.000000e-07	-3.769343e-06	-3.415529e-09	-5.291124e+01	-2.116796e+02
2.100000e-07	-3.741028e-06	-3.133946e-09	-5.251377e+01	-2.115040e+02
2.200000e-07	-3.711354e-06	-3.188459e-09	-5.209724e+01	-2.112728e+02
2.300000e-07	-3.680588e-06	-3.381663e-09	-5.166536e+01	-2.109614e+02
2.400000e-07	-3.648709e-06	-3.267327e-09	-5.121787e+01	-2.105473e+02
2.500000e-07	-3.615348e-06	-3.088888e-09	-5.074958e+01	-2.100123e+02
2.600000e-07	-3.580405e-06	-2.980261e-09	-5.025907e+01	-2.093449e+02
2.700000e-07	-3.544184e-06	-3.052004e-09	-4.975062e+01	-2.085412e+02
2.800000e-07	-3.506821e-06	-3.218691e-09	-4.922615e+01	-2.076060e+02
2.900000e-07	-3.468248e-06	-3.154230e-09	-4.868469e+01	-2.065516e+02
3.000000e-07	-3.428544e-06	-2.963429e-09	-4.812736e+01	-2.053972e+02
3.100000e-07	-3.387615e-06	-2.940045e-09	-4.755283e+01	-2.041662e+02
3.200000e-07	-3.345186e-06	-3.049655e-09	-4.695724e+01	-2.028844e+02
3.300000e-07	-3.301498e-06	-3.167573e-09	-4.634398e+01	-2.015765e+02
3.400000e-07	-3.256777e-06	-3.057319e-09	-4.571622e+01	-2.002641e+02
3.500000e-07	-3.210844e-06	-2.825160e-09	-4.507145e+01	-1.989636e+02
3.600000e-07	-3.163715e-06	-2.875010e-09	-4.440988e+01	-1.976842e+02
3.700000e-07	-3.115548e-06	-3.109368e-09	-4.373375e+01	-1.964279e+02
3.800000e-07	-3.066099e-06	-3.056893e-09	-4.303962e+01	-1.951898e+02
3.900000e-07	-3.014979e-06	-2.792857e-09	-4.232204e+01	-1.939587e+02
4.000000e-07	-2.962389e-06	-2.802882e-09	-4.158382e+01	-1.927195e+02
4.100000e-07	-2.908802e-06	-2.965893e-09	-4.083161e+01	-1.914548e+02
4.200000e-07	-2.854321e-06	-2.946528e-09	-4.006684e+01	-1.901474e+02
4.300000e-07	-2.798962e-06	-2.822485e-09	-3.928975e+01	-1.887822e+02
4.400000e-07	-2.742688e-06	-2.766896e-09	-3.849982e+01	-1.873481e+02
4.500000e-07	-2.685230e-06	-2.767201e-09	-3.769327e+01	-1.858382e+02
4.600000e-07	-2.626548e-06	-2.808353e-09	-3.686954e+01	-1.842510e+02
4.700000e-07	-2.566938e-06	-2.814342e-09	-3.603277e+01	-1.825890e+02
4.800000e-07	-2.506509e-06	-2.702863e-09	-3.518451e+01	-1.808583e+02
4.900000e-07	-2.445243e-06	-2.612085e-09	-3.432450e+01	-1.790666e+02
5.000000e-07	-2.383163e-06	-2.695717e-09	-3.345308e+01	-1.772220e+02
5.100000e-07	-2.320331e-06	-2.751419e-09	-3.257108e+01	-1.753313e+02
5.200000e-07	-2.256853e-06	-2.602053e-09	-3.168003e+01	-1.733984e+02
5.300000e-07	-2.192547e-06	-2.510007e-09	-3.077735e+01	-1.714240e+02
5.400000e-07	-2.127072e-06	-2.583206e-09	-2.985827e+01	-1.694047e+02
5.500000e-07	-2.060528e-06	-2.600081e-09	-2.892417e+01	-1.673341e+02
5.600000e-07	-1.993338e-06	-2.481469e-09	-2.798100e+01	-1.652028e+02
5.700000e-07	-1.925667e-06	-2.410482e-09	-2.703109e+01	-1.630000e+02
5.800000e-07	-1.857443e-06	-2.429903e-09	-2.607340e+01	-1.607144e+02
5.900000e-07	-1.788600e-06	-2.420745e-09	-2.510704e+01	-1.583358e+02
6.000000e-07	-1.719170e-06	-2.366587e-09	-2.413243e+01	-1.558555e+02
6.100000e-07	-1.649117e-06	-2.298680e-09	-2.314909e+01	-1.532676e+02
6.200000e-07	-1.578414e-06	-2.255443e-09	-2.215661e+01	-1.505684e+02
6.300000e-07	-1.507182e-06	-2.248081e-09	-2.115670e+01	-1.477564e+02
6.400000e-07	-1.435610e-06	-2.232706e-09	-2.015202e+01	-1.448317e+02
6.500000e-07	-1.363710e-06	-2.152052e-09	-1.914275e+01	-1.417944e+02
6.600000e-07	-1.291255e-06	-2.066331e-09	-1.812568e+01	-1.386441e+02
6.700000e-07	-1.218146e-06	-2.048144e-09	-1.709942e+01	-1.353786e+02
6.800000e-07	-1.144379e-06	-2.041297e-09	-1.606395e+01	-1.319929e+02
6.900000e-07	-1.069951e-06	-1.968999e-09	-1.501918e+01	-1.284790e+02
7.000000e-07	-9.949655e-07	-1.866158e-09	-1.396659e+01	-1.248257e+02
7.100000e-07	-9.195788e-07	-1.819593e-09	-1.290837e+01	-1.210189e+02
7.200000e-07	-8.439197e-07	-1.806639e-09	-1.184632e+01	-1.170425e+02
7.300000e-07	-7.680801e-07	-1.745636e-09	-1.078174e+01	-1.128793e+02
7.400000e-07	-6.920365e-07	-1.633592e-09	-9.714296e+00	-1.085122e+02
7.500000e-07	-6.156522e-07	-1.553855e-09	-8.642070e+00	-1.039252e+02
7.600000e-07	-5.389201e-07	-1.515498e-09	-7.564962e+00	-9.910431e+01
7.700000e-07	-4.619889e-07	-1.452862e-09	-6.485057e+00	-9.403840e+01
7.800000e-07	-3.849277e-07	-1.348940e-09	-5.403330e+00	-8.871939e+01
7.900000e-07	-3.077270e-07	-1.249595e-09	-4.319643e+00	-8.314243e+01
8.000000e-07	-2.304024e-07	-1.177647e-09	-3.234218e+00	-7.730567e+01
8.100000e-07	-1.530125e-07	-1.100946e-09	-2.147876e+00	-7.120993e+01
8.200000e-07	-7.562423e-08	-1.000736e-09	-1.061557e+00	-6.485831e+01
8.300000e-07	1.796907e-09	-8.820079e-10	2.522365e-02	-5.825591e+01
8.400000e-07	7.923187e-08	-7.701433e-10	1.112198e+00	-5.140962e+01
8.500000e-07	1.566025e-07	-6.758542e-10	2.198270e+00	-4.432825e+01
8.600000e-07	2.338895e-07	-5.766540e-10	3.283168e+00	-3.702282e+01
8.700000e-07	3.110894e-07	-4.451230e-10	4.366843e+00	-2.950709e+01
8.800000e-07	3.881784e-07	-3.088537e-10	5.448960e+00	-2.179817e+01
8.900000e-07	4.651048e-07	-2.062931e-10	6.528796e+00	-1.391713e+01
9.000000e-07	5.418188e-07	-1.029009e-10	7.605651e+00	-5.889532e+00
9.100000e-07	6.182898e-07	3.597007e-11	8.679094e+00	2.254375e+00
9.200000e-07	6.944971e-07	1.812767e-10	9.748836e+00	1.047975e+01
9.300000e-07	7.704777e-07	2.962584e-10	1.081540e+01	1.874768e+01
9.400000e-07	8.463014e-07	4.056348e-10	1.187975e+01	2.701612e+01
9.500000e-07	9.219174e-07	5.355653e-10	1.294119e+01	3.524121e+01
9.600000e-07	9.972504e-07	6.713820e-10	1.399866e+01	4.337875e+01
9.700000e-07	1.072177e-06	7.941123e-10	1.505043e+01	5.138596e+01
9.800000e-07	1.146549e-06	9.045093e-10	1.609441e+01	5.922306e+01
9.900000e-07	1.220203e-06	1.016640e-09	1.712831e+01	6.685472e+01
1.000000e-06	1.293061e-06	1.135554e-09	1.815103e+01	7.425126e+01
1.010000e-06	1.365257e-06	1.254717e-09	1.916447e+01	8.138931e+01
1.020000e-06	1.437038e-06	1.356507e-09	2.017208e+01	8.825219e+01
1.030000e-06	1.508522e-06	1.443906e-09	2.117552e+01	9.482968e+01
1.040000e-06	1.579596e-06	1.538287e-09	2.217320e+01	1.011175e+02
1.050000e-06	1.650146e-06	1.642576e-09	2.316352e+01	1.071167e+02
1.060000e-06	1.720108e-06	1.731711e-09	2.414559e+01	1.128320e+02
1.070000e-06	1.789467e-06	1.799201e-09	2.511921e+01	1.182718e+02
1.080000e-06	1.858174e-06	1.870143e-09	2.608367e+01	1.234461e+02
1.090000e-06	1.926260e-06	1.952692e-09	2.703940e+01	1.283662e+02
1.100000e-06	1.993883e-06	2.029901e-09	2.798865e+01	1.330439e+02
1.110000e-06	2.060949e-06	2.090663e-09	2.893007e+01	1.374911e+02
1.120000e-06	2.127073e-06	2.147044e-09	2.985827e+01	1.417192e+02
1.130000e-06	2.192030e-06	2.209898e-09	3.077009e+01	1.457393e+02
1.140000e-06	2.256085e-06	2.272343e-09	3.166924e+01	1.495619e+02
1.150000e-06	2.319519e-06	2.327286e-09	3.255969e+01	1.531971e+02
1.160000e-06	2.382268e-06	2.372551e-09	3.344052e+01	1.566544e+02
1.170000e-06	2.444230e-06	2.415410e-09	3.431028e+01	1.599428e+02
1.180000e-06	2.505380e-06	2.463084e-09	3.516867e+01	1.630707e+02
1.190000e-06	2.565743e-06	2.513069e-09	3.601599e+01	1.660458e+02
1.200000e-06	2.625421e-06	2.553348e-09	3.685371e+01	1.688749e+02
1.210000e-06	2.684259e-06	2.585289e-09	3.767964e+01	1.715641e+02
1.220000e-06	2.741834e-06	2.622023e-09	3.848783e+01	1.741187e+02
1.230000e-06	2.798191e-06	2.663181e-09	3.927893e+01	1.765431e+02
1.240000e-06	2.853638e-06	2.698350e-09	4.005725e+01	1.788417e+02
1.250000e-06	2.908180e-06	2.725735e-09	4.082287e+01	1.810182e+02
1.260000e-06	2.961709e-06	2.753520e-09	4.157427e+01	1.830770e+02
1.270000e-06	3.014176e-06	2.782372e-09	4.231077e+01	1.850227e+02
1.280000e-06	3.065418e-06	2.810461e-09	4.303007e+01	1.868606e+02
1.290000e-06	3.115166e-06	2.835415e-09	4.372839e+01	1.885969e+02
1.300000e-06	3.163500e-06	2.858562e-09	4.440686e+01	1.902387e+02
1.310000e-06	3.210690e-06	2.879185e-09	4.506928e+01	1.917935e+02
1.320000e-06	3.256834e-06	2.899881e-09	4.571702e+01	1.932691e+02
1.330000e-06	3.301893e-06	2.921726e-09	4.634953e+01	1.946727e+02
1.340000e-06	3.345929e-06	2.942729e-09	4.696768e+01	1.960110e+02
1.350000e-06	3.388848e-06	2.961461e-09	4.757013e+01	1.972894e+02
1.360000e-06	3.430318e-06	2.978414e-09	4.815227e+01	1.985115e+02
1.370000e-06	3.470439e-06	2.995281e-09	4.871545e+01	1.996794e+02
1.380000e-06	3.509397e-06	3.012669e-09	4.926232e+01	2.007934e+02
1.390000e-06	3.547159e-06	3.029485e-09	4.979239e+01	2.018524e+02
1.400000e-06	3.583780e-06	3.043741e-09	5.030645e+01	2.028550e+02
1.410000e-06	3.619391e-06	3.055140e-09	5.080633e+01	2.037993e+02
1.420000e-06	3.653692e-06	3.065128e-09	5.128782e+01	2.046841e+02
1.430000e-06	3.686400e-06	3.078035e-09	5.174695e+01	2.055097e+02
1.440000e-06	3.717772e-06	3.092061e-09	5.218732e+01	2.062777e+02
1.450000e-06	3.747976e-06	3.102537e-09	5.261131e+01	2.069920e+02
1.460000e-06	3.776956e-06	3.110510e-09	5.301812e+01	2.076579e+02
1.470000e-06	3.804755e-06	3.119611e-09	5.340833e+01	2.082824e+02
1.480000e-06	3.831240e-06	3.130709e-09	5.378011e+01	2.088727e+02
1.490000e-06	3.856090e-06	3.140791e-09	5.412893e+01	2.094363e+02
1.500000e-06	3.879439e-06	3.148085e-09	5.445669e+01	2.099793e+02
1.510000e-06	3.901529e-06	3.154309e-09	5.476677e+01	2.105062e+02
1.520000e-06	3.922366e-06	3.161620e-09	5.505926e+01	2.110188e+02
1.530000e-06	3.941991e-06	3.169596e-09	5.533475e+01	2.115164e+02
1.540000e-06	3.960287e-06	3.176474e-09	5.559157e+01	2.119957e+02
1.550000e-06	3.977138e-06	3.181475e-09	5.582812e+01	2.124514e+02
1.560000e-06	3.992513e-06	3.185527e-09	5.604394e+01	2.128767e+02
1.570000e-06	4.006381e-06	3.192215e-09	5.623860e+01	2.132646e+02
1.580000e-06	4.018821e-06	3.199662e-09	5.641323e+01	2.136089e+02
1.590000e-06	4.029620e-06	3.203853e-09	5.656482e+01	2.139049e+02
1.600000e-06	4.038663e-06	3.205942e-09	5.669176e+01	2.141507e+02
1.610000e-06	4.046238e-06	3.209730e-09	5.679809e+01	2.143468e+02
1.620000e-06	4.052455e-06	3.214021e-09	5.688536e+01	2.144968e+02
1.630000e-06	4.057294e-06	3.215228e-09	5.695329e+01	2.146063e+02
1.640000e-06	4.060899e-06	3.215182e-09	5.700389e+01	2.146826e+02
1.650000e-06	4.063073e-06	3.215297e-09	5.703441e+01	2.147333e+02
1.660000e-06	4.063578e-06	3.215947e-09	5.704150e+01	2.147655e+02
1.670000e-06	4.062666e-06	3.216253e-09	5.702870e+01	2.147846e+02
1.680000e-06	4.060527e-06	3.217038e-09	5.699867e+01	2.147936e+02
1.690000e-06	4.057229e-06	3.215220e-09	5.695238e+01	2.147926e+02
1.700000e-06	4.052788e-06	3.214453e-09	5.689004e+01	2.147795e+02
1.710000e-06	4.046868e-06	3.213374e-09	5.680693e+01	2.147499e+02
1.720000e-06	4.039395e-06	3.210026e-09	5.670203e+01	2.146984e+02
1.730000e-06	4.030765e-06	3.206933e-09	5.658089e+01	2.146196e+02
1.740000e-06	4.021078e-06	3.186216e-09	5.644492e+01	2.145098e+02
1.750000e-06	4.010012e-06	3.185506e-09	5.628957e+01	2.143675e+02
1.760000e-06	3.996849e-06	3.190410e-09	5.610480e+01	2.141944e+02
1.770000e-06	3.981245e-06	3.178816e-09	5.588576e+01	2.139955e+02
1.780000e-06	3.963843e-06	3.194187e-09	5.564149e+01	2.137791e+02
1.790000e-06	3.945741e-06	3.158099e-09	5.538739e+01	2.135552e+02
1.800000e-06	3.927256e-06	3.178071e-09	5.512790e+01	2.133348e+02
1.810000e-06	3.907337e-06	3.220257e-09	5.484830e+01	2.131276e+02
1.820000e-06	3.885393e-06	3.157543e-09	5.454026e+01	2.129407e+02
1.830000e-06	3.862322e-06	3.324146e-09	5.421642e+01	2.127764e+02
1.840000e-06	3.838263e-06	3.282949e-09	5.387869e+01	2.126317e+02
1.850000e-06	3.812500e-06	2.926354e-09	5.351704e+01	2.124970e+02
1.860000e-06	3.785400e-06	3.092868e-09	5.313664e+01	2.123571e+02
1.870000e-06	3.757365e-06	3.343751e-09	5.274311e+01	2.121915e+02
1.880000e-06	3.727914e-06	3.123271e-09	5.232969e+01	2.119766e+02
1.890000e-06	3.696830e-06	3.117021e-09	5.189336e+01	2.116876e+02
1.900000e-06	3.664291e-06	3.367611e-09	5.143660e+01	2.113011e+02
1.910000e-06	3.630574e-06	3.396143e-09	5.096330e+01	2.107978e+02
1.920000e-06	3.595806e-06	3.376713e-09	5.047525e+01	2.101643e+02
1.930000e-06	3.559840e-06	3.263560e-09	4.997039e+01	2.093947e+02
1.940000e-06	3.522708e-06	3.166444e-09	4.944916e+01	2.084915e+02
1.950000e-06	3.484240e-06	3.246599e-09	4.890918e+01	2.074655e+02
1.960000e-06	3.444158e-06	3.292316e-09	4.834654e+01	2.063340e+02
1.970000e-06	3.402769e-06	3.327679e-09	4.776555e+01	2.051199e+02
1.980000e-06	3.360391e-06	3.168704e-09	4.717068e+01	2.038485e+02
1.990000e-06	3.316952e-06	2.980644e-09	4.656092e+01	2.025449e+02
2.000000e-06	3.272400e-06	3.243394e-09	4.593553e+01	2.012320e+02
2.010000e-06	3.226768e-06	3.323008e-09	4.529498e+01	1.999274e+02
2.020000e-06	3.179962e-06	3.010867e-09	4.463795e+01	1.986423e+02
2.030000e-06	3.131775e-06	2.942018e-09	4.396154e+01	1.973806e+02
2.040000e-06	3.082361e-06	3.113178e-09	4.326790e+01	1.961388e+02
2.050000e-06	3.032030e-06	3.169491e-09	4.256139e+01	1.949074e+02
2.060000e-06	2.980677e-06	2.988562e-09	4.184053e+01	1.936718e+02
2.070000e-06	2.928029e-06	2.938424e-09	4.110150e+01	1.924152e+02
2.080000e-06	2.873912e-06	2.997359e-09	4.034185e+01	1.911201e+02
2.090000e-06	2.818528e-06	2.956541e-09	3.956440e+01	1.897707e+02
2.100000e-06	2.762186e-06	2.986419e-09	3.877352e+01	1.883546e+02
2.110000e-06	2.704886e-06	2.938217e-09	3.796918e+01	1.868642e+02
2.120000e-06	2.646736e-06	2.820384e-09	3.715292e+01	1.852963e+02
2.130000e-06	2.587813e-06	2.842566e-09	3.632580e+01	1.836526e+02
2.140000e-06	2.528090e-06	2.908737e-09	3.548745e+01	1.819384e+02
2.150000e-06	2.467554e-06	2.857146e-09	3.463770e+01	1.801612e+02
2.160000e-06	2.406004e-06	2.695174e-09	3.377370e+01	1.783293e+02
2.170000e-06	2.343250e-06	2.704450e-09	3.289281e+01	1.764497e+02
2.180000e-06	2.279501e-06	2.805502e-09	3.199795e+01	1.745272e+02
2.190000e-06	2.215124e-06	2.712370e-09	3.109427e+01	1.725634e+02
2.200000e-06	2.150095e-06	2.596861e-09	3.018144e+01	1.705559e+02
2.210000e-06	2.084262e-06	2.591175e-09	2.925733e+01	1.684990e+02
2.220000e-06	2.017695e-06	2.630192e-09	2.832290e+01	1.663839e+02
2.230000e-06	1.950470e-06	2.585214e-09	2.737925e+01	1.642001e+02
2.240000e-06	1.882634e-06	2.492520e-09	2.642702e+01	1.619363e+02
2.250000e-06	1.814254e-06	2.475665e-09	2.546715e+01	1.595819e+02
2.260000e-06	1.745273e-06	2.453155e-09	2.449885e+01	1.571278e+02
2.270000e-06	1.675441e-06	2.416027e-09	2.351859e+01	1.545673e+02
2.280000e-06	1.604569e-06	2.366798e-09	2.252375e+01	1.518962e+02
2.290000e-06	1.532920e-06	2.310070e-09	2.151799e+01	1.491125e+02
2.300000e-06	1.460903e-06	2.264655e-09	2.050708e+01	1.462160e+02
2.310000e-06	1.388592e-06	2.230981e-09	1.949202e+01	1.432069e+02
2.320000e-06	1.315903e-06	2.203346e-09	1.847167e+01	1.400851e+02
2.330000e-06	1.242764e-06	2.122259e-09	1.744499e+01	1.368488e+02
2.340000e-06	1.169138e-06	2.045798e-09	1.641149e+01	1.334939e+02
2.350000e-06	1.095077e-06	2.025673e-09	1.537188e+01	1.300130e+02
2.360000e-06	1.020657e-06	1.998553e-09	1.432723e+01	1.263958e+02
2.370000e-06	9.458656e-07	1.906341e-09	1.327736e+01	1.226289e+02
2.380000e-06	8.706555e-07	1.812650e-09	1.222162e+01	1.186966e+02
2.390000e-06	7.951764e-07	1.787017e-09	1.116210e+01	1.145818e+02
2.400000e-06	7.194998e-07	1.745545e-09	1.009980e+01	1.102673e+02
2.410000e-06	6.435659e-07	1.642525e-09	9.033902e+00	1.057368e+02
2.420000e-06	5.674070e-07	1.547767e-09	7.964839e+00	1.009756e+02
2.430000e-06	4.910887e-07	1.490783e-09	6.893540e+00	9.597187e+01
2.440000e-06	4.146099e-07	1.425836e-09	5.819987e+00	9.071679e+01
2.450000e-06	3.378803e-07	1.336391e-09	4.742913e+00	8.520467e+01
2.460000e-06	2.609587e-07	1.240678e-09	3.663145e+00	7.943296e+01
2.470000e-06	1.839606e-07	1.144488e-09	2.582303e+00	7.340183e+01
2.480000e-06	1.068668e-07	1.052398e-09	1.500117e+00	6.711385e+01
2.490000e-06	2.969236e-08	9.681128e-10	4.167994e-01	6.057364e+01
2.500000e-06	-4.743622e-08	8.651978e-10	-6.658745e-01	5.378765e+01
2.510000e-06	-1.245546e-07	7.358126e-10	-1.748404e+00	4.676418e+01
2.520000e-06	-2.016923e-07	6.234747e-10	-2.831207e+00	3.951367e+01
2.530000e-06	-2.786408e-07	5.339769e-10	-3.911353e+00	3.204913e+01
2.540000e-06	-3.553116e-07	4.196128e-10	-4.987601e+00	2.438676e+01
2.550000e-06	-4.317928e-07	2.750809e-10	-6.061188e+00	1.654661e+01
2.560000e-06	-5.081160e-07	1.507766e-10	-7.132555e+00	8.553078e+00
2.570000e-06	-5.842510e-07	4.754938e-11	-8.201282e+00	4.352279e-01
2.580000e-06	-6.601531e-07	-7.366023e-11	-9.266740e+00	-7.773206e+00
2.590000e-06	-7.358191e-07	-2.136563e-10	-1.032888e+01	-1.603426e+01
2.600000e-06	-8.112512e-07	-3.434366e-10	-1.138774e+01	-2.430657e+01
2.610000e-06	-8.863701e-07	-4.584892e-10	-1.244221e+01	-3.254658e+01
2.620000e-06	-9.611171e-07	-5.779173e-10	-1.349145e+01	-4.071003e+01
2.630000e-06	-1.035499e-06	-7.041589e-10	-1.453557e+01	-4.875363e+01
2.640000e-06	-1.109561e-06	-8.321965e-10	-1.557520e+01	-5.663669e+01
2.650000e-06	-1.183289e-06	-9.524167e-10	-1.661013e+01	-6.432265e+01
2.660000e-06	-1.256527e-06	-1.061912e-09	-1.763819e+01	-7.178034e+01
2.670000e-06	-1.329243e-06	-1.167823e-09	-1.865893e+01	-7.898477e+01
2.680000e-06	-1.401578e-06	-1.279403e-09	-1.967431e+01	-8.591758e+01
2.690000e-06	-1.473635e-06	-1.390369e-09	-2.068580e+01	-9.256696e+01
2.700000e-06	-1.545363e-06	-1.483178e-09	-2.169265e+01	-9.892725e+01
2.710000e-06	-1.616529e-06	-1.567084e-09	-2.269163e+01	-1.049982e+02
2.720000e-06	-1.686827e-06	-1.659909e-09	-2.367842e+01	-1.107837e+02
2.730000e-06	-1.756100e-06	-1.754610e-09	-2.465083e+01	-1.162915e+02
2.740000e-06	-1.824622e-06	-1.832677e-09	-2.561269e+01	-1.215310e+02
2.750000e-06	-1.892689e-06	-1.901756e-09	-2.656816e+01	-1.265135e+02
2.760000e-06	-1.960278e-06	-1.976213e-09	-2.751693e+01	-1.312506e+02
2.770000e-06	-2.027211e-06	-2.051453e-09	-2.845649e+01	-1.357542e+02
2.780000e-06	-2.093387e-06	-2.119937e-09	-2.938542e+01	-1.400360e+02
2.790000e-06	-2.158800e-06	-2.182463e-09	-3.030364e+01	-1.441070e+02
2.800000e-06	-2.223503e-06	-2.242320e-09	-3.121188e+01	-1.479779e+02
2.810000e-06	-2.287612e-06	-2.300493e-09	-3.211180e+01	-1.516590e+02
2.820000e-06	-2.350915e-06	-2.358932e-09	-3.300040e+01	-1.551598e+02
2.830000e-06	-2.413080e-06	-2.414748e-09	-3.387303e+01	-1.584896e+02
2.840000e-06	-2.474181e-06	-2.463838e-09	-3.473072e+01	-1.616568e+02
2.850000e-06	-2.534479e-06	-2.507511e-09	-3.557713e+01	-1.646694e+02
2.860000e-06	-2.593994e-06	-2.553007e-09	-3.641256e+01	-1.675343e+02
2.870000e-06	-2.652613e-06	-2.600149e-09	-3.723541e+01	-1.702579e+02
2.880000e-06	-2.710290e-06	-2.641715e-09	-3.804504e+01	-1.728456e+02
2.890000e-06	-2.767050e-06	-2.679671e-09	-3.884180e+01	-1.753021e+02
2.900000e-06	-2.823029e-06	-2.716460e-09	-3.962758e+01	-1.776316e+02
2.910000e-06	-2.877956e-06	-2.752141e-09	-4.039861e+01	-1.798383e+02
2.920000e-06	-2.931456e-06	-2.784623e-09	-4.114960e+01	-1.819260e+02
2.930000e-06	-2.983665e-06	-2.815352e-09	-4.188248e+01	-1.838994e+02
2.940000e-06	-3.034749e-06	-2.844860e-09	-4.259956e+01	-1.857636e+02
