# Temperatura_=_20.0
# Concentracion g/m^3_=_9000.0
# C_Vs_to_Am_M_A/Vsm_=_65563218390.804596
# pendiente_HvsI_1/m_=_3716.3
# ordenada_HvsI_A/m_=_1297.0
# frecuencia_Hz_=_300770.7595495506

Tiempo_(s)	Campo_(V.s)	Magnetizacion_(V.s)	Campo_(kA/m)	Magnetizacion_(A/m)
0.000000e+00	-4.049116e-06	-3.314272e-09	-5.684232e+01	-2.155223e+02
1.000000e-08	-4.047215e-06	-3.316681e-09	-5.681564e+01	-2.155244e+02
2.000000e-08	-4.043809e-06	-3.317624e-09	-5.676782e+01	-2.155094e+02
3.000000e-08	-4.039211e-06	-3.317496e-09	-5.670327e+01	-2.154750e+02
4.000000e-08	-4.033388e-06	-3.318281e-09	-5.662153e+01	-2.154174e+02
5.000000e-08	-4.026339e-06	-3.319998e-09	-5.652258e+01	-2.153332e+02
6.000000e-08	-4.018161e-06	-3.319638e-09	-5.640777e+01	-2.152197e+02
7.000000e-08	-4.008456e-06	-3.314800e-09	-5.627153e+01	-2.150760e+02
8.000000e-08	-3.996890e-06	-3.311790e-09	-5.610917e+01	-2.149039e+02
9.000000e-08	-3.983467e-06	-3.332208e-09	-5.592073e+01	-2.147078e+02
1.000000e-07	-3.967961e-06	-3.347607e-09	-5.570305e+01	-2.144945e+02
1.100000e-07	-3.950732e-06	-3.334332e-09	-5.546119e+01	-2.142726e+02
1.200000e-07	-3.932404e-06	-3.293445e-09	-5.520390e+01	-2.140515e+02
1.300000e-07	-3.913185e-06	-3.260600e-09	-5.493410e+01	-2.138395e+02
1.400000e-07	-3.892957e-06	-3.333525e-09	-5.465013e+01	-2.136427e+02
1.500000e-07	-3.871677e-06	-3.357971e-09	-5.435140e+01	-2.134635e+02
1.600000e-07	-3.849353e-06	-3.211490e-09	-5.403802e+01	-2.132992e+02
1.700000e-07	-3.825320e-06	-3.187711e-09	-5.370063e+01	-2.131418e+02
1.800000e-07	-3.799444e-06	-3.332523e-09	-5.333737e+01	-2.129778e+02
1.900000e-07	-3.772501e-06	-3.378386e-09	-5.295915e+01	-2.127892e+02
2.000000e-07	-3.744458e-06	-3.267554e-09	-5.256548e+01	-2.125548e+02
2.100000e-07	-3.714947e-06	-3.177761e-09	-5.215118e+01	-2.122521e+02
2.200000e-07	-3.684273e-06	-3.249856e-09	-5.172058e+01	-2.118598e+02
2.300000e-07	-3.652599e-06	-3.344783e-09	-5.127593e+01	-2.113594e+02
2.400000e-07	-3.619538e-06	-3.193094e-09	-5.081182e+01	-2.107379e+02
2.500000e-07	-3.584905e-06	-2.960292e-09	-5.032564e+01	-2.099890e+02
2.600000e-07	-3.548925e-06	-3.010291e-09	-4.982054e+01	-2.091140e+02
2.700000e-07	-3.511764e-06	-3.188195e-09	-4.929887e+01	-2.081214e+02
2.800000e-07	-3.473400e-06	-3.208135e-09	-4.876031e+01	-2.070267e+02
2.900000e-07	-3.433892e-06	-3.031739e-09	-4.820569e+01	-2.058502e+02
3.000000e-07	-3.393209e-06	-2.897255e-09	-4.763456e+01	-2.046153e+02
3.100000e-07	-3.351022e-06	-3.019576e-09	-4.704233e+01	-2.033458e+02
3.200000e-07	-3.307467e-06	-3.183963e-09	-4.643090e+01	-2.020636e+02
3.300000e-07	-3.262887e-06	-3.090427e-09	-4.580508e+01	-2.007864e+02
3.400000e-07	-3.217166e-06	-2.865839e-09	-4.516324e+01	-1.995259e+02
3.500000e-07	-3.170216e-06	-2.866462e-09	-4.450415e+01	-1.982873e+02
3.600000e-07	-3.122193e-06	-3.067631e-09	-4.382998e+01	-1.970690e+02
3.700000e-07	-3.072909e-06	-3.093352e-09	-4.313813e+01	-1.958629e+02
3.800000e-07	-3.022030e-06	-2.880555e-09	-4.242387e+01	-1.946563e+02
3.900000e-07	-2.969655e-06	-2.786452e-09	-4.168862e+01	-1.934334e+02
4.000000e-07	-2.916233e-06	-2.916530e-09	-4.093868e+01	-1.921774e+02
4.100000e-07	-2.861930e-06	-2.994068e-09	-4.017637e+01	-1.908727e+02
4.200000e-07	-2.806685e-06	-2.885667e-09	-3.940082e+01	-1.895060e+02
4.300000e-07	-2.750582e-06	-2.763561e-09	-3.861324e+01	-1.880685e+02
4.400000e-07	-2.693374e-06	-2.760945e-09	-3.781014e+01	-1.865553e+02
4.500000e-07	-2.634832e-06	-2.833706e-09	-3.698832e+01	-1.849663e+02
4.600000e-07	-2.575329e-06	-2.855058e-09	-3.615300e+01	-1.833051e+02
4.700000e-07	-2.515110e-06	-2.727245e-09	-3.530763e+01	-1.815775e+02
4.800000e-07	-2.454069e-06	-2.618736e-09	-3.445072e+01	-1.797908e+02
4.900000e-07	-2.392191e-06	-2.705196e-09	-3.358207e+01	-1.779518e+02
5.000000e-07	-2.329473e-06	-2.778425e-09	-3.270162e+01	-1.760653e+02
5.100000e-07	-2.266075e-06	-2.636602e-09	-3.181163e+01	-1.741338e+02
5.200000e-07	-2.201975e-06	-2.517794e-09	-3.091178e+01	-1.721563e+02
5.300000e-07	-2.136704e-06	-2.588786e-09	-2.999549e+01	-1.701288e+02
5.400000e-07	-2.070227e-06	-2.621863e-09	-2.906227e+01	-1.680443e+02
5.500000e-07	-2.003075e-06	-2.516355e-09	-2.811958e+01	-1.658941e+02
5.600000e-07	-1.935472e-06	-2.437285e-09	-2.717055e+01	-1.636686e+02
5.700000e-07	-1.867317e-06	-2.437563e-09	-2.621379e+01	-1.613585e+02
5.800000e-07	-1.798559e-06	-2.436372e-09	-2.524854e+01	-1.589557e+02
5.900000e-07	-1.729225e-06	-2.402939e-09	-2.427522e+01	-1.564539e+02
6.000000e-07	-1.659286e-06	-2.328011e-09	-2.329339e+01	-1.538493e+02
6.100000e-07	-1.588693e-06	-2.256703e-09	-2.230240e+01	-1.511398e+02
6.200000e-07	-1.517529e-06	-2.256444e-09	-2.130338e+01	-1.483248e+02
6.300000e-07	-1.445982e-06	-2.264834e-09	-2.029900e+01	-1.454044e+02
6.400000e-07	-1.374131e-06	-2.181672e-09	-1.929033e+01	-1.423781e+02
6.500000e-07	-1.301780e-06	-2.076146e-09	-1.827465e+01	-1.392439e+02
6.600000e-07	-1.228764e-06	-2.061026e-09	-1.724964e+01	-1.359978e+02
6.700000e-07	-1.155118e-06	-2.070181e-09	-1.621578e+01	-1.326326e+02
6.800000e-07	-1.080836e-06	-1.998894e-09	-1.517299e+01	-1.291382e+02
6.900000e-07	-1.005931e-06	-1.886635e-09	-1.412146e+01	-1.255017e+02
7.000000e-07	-9.305467e-07	-1.832089e-09	-1.306321e+01	-1.217078e+02
7.100000e-07	-8.549169e-07	-1.823740e-09	-1.200150e+01	-1.177400e+02
7.200000e-07	-7.791364e-07	-1.773099e-09	-1.093768e+01	-1.135815e+02
7.300000e-07	-7.031171e-07	-1.664986e-09	-9.870503e+00	-1.092164e+02
7.400000e-07	-6.267676e-07	-1.571253e-09	-8.798692e+00	-1.046302e+02
7.500000e-07	-5.500658e-07	-1.528698e-09	-7.721937e+00	-9.981126e+01
7.600000e-07	-4.731953e-07	-1.481261e-09	-6.642812e+00	-9.475053e+01
7.700000e-07	-3.962296e-07	-1.385290e-09	-5.562353e+00	-8.944200e+01
7.800000e-07	-3.190839e-07	-1.273365e-09	-4.479366e+00	-8.388241e+01
7.900000e-07	-2.417891e-07	-1.189052e-09	-3.394285e+00	-7.807087e+01
8.000000e-07	-1.644250e-07	-1.122356e-09	-2.308232e+00	-7.200837e+01
8.100000e-07	-8.703267e-08	-1.033683e-09	-1.221783e+00	-6.569736e+01
8.200000e-07	-9.652062e-09	-9.108476e-10	-1.354976e-01	-5.914149e+01
8.300000e-07	6.774682e-08	-7.888682e-10	9.510438e-01	-5.234559e+01
8.400000e-07	1.451588e-07	-6.992471e-10	2.037769e+00	-4.531593e+01
8.500000e-07	2.224727e-07	-6.109325e-10	3.123117e+00	-3.806074e+01
8.600000e-07	2.996695e-07	-4.821293e-10	4.206822e+00	-3.059101e+01
8.700000e-07	3.767562e-07	-3.387978e-10	5.288982e+00	-2.292132e+01
8.800000e-07	4.536776e-07	-2.289596e-10	6.368819e+00	-1.507063e+01
8.900000e-07	5.303952e-07	-1.296068e-10	7.445797e+00	-7.062933e+00
9.000000e-07	6.068652e-07	3.527479e-12	8.519299e+00	1.072438e+00
9.100000e-07	6.831070e-07	1.505846e-10	9.589597e+00	9.300913e+00
9.200000e-07	7.591694e-07	2.733006e-10	1.065738e+01	1.758325e+01
9.300000e-07	8.349786e-07	3.810558e-10	1.172160e+01	2.587656e+01
9.400000e-07	9.105276e-07	5.020456e-10	1.278217e+01	3.413570e+01
9.500000e-07	9.858243e-07	6.358832e-10	1.383920e+01	4.231498e+01
9.600000e-07	1.060776e-06	7.661640e-10	1.489139e+01	5.036994e+01
9.700000e-07	1.135230e-06	8.831965e-10	1.593659e+01	5.825914e+01
9.800000e-07	1.208941e-06	9.923353e-10	1.697136e+01	6.594570e+01
9.900000e-07	1.281922e-06	1.108571e-09	1.799589e+01	7.339851e+01
1.000000e-06	1.354329e-06	1.230643e-09	1.901235e+01	8.059305e+01
1.010000e-06	1.426240e-06	1.335709e-09	2.002186e+01	8.751169e+01
1.020000e-06	1.497796e-06	1.421637e-09	2.102637e+01	9.414357e+01
1.030000e-06	1.568983e-06	1.513371e-09	2.202570e+01	1.004840e+02
1.040000e-06	1.639608e-06	1.616938e-09	2.301716e+01	1.065337e+02
1.050000e-06	1.709625e-06	1.707958e-09	2.400007e+01	1.122977e+02
1.060000e-06	1.779035e-06	1.778605e-09	2.497447e+01	1.177841e+02
1.070000e-06	1.847791e-06	1.851407e-09	2.593968e+01	1.230035e+02
1.080000e-06	1.915942e-06	1.935373e-09	2.689639e+01	1.279674e+02
1.090000e-06	1.983578e-06	2.013208e-09	2.784587e+01	1.326879e+02
1.100000e-06	2.050629e-06	2.074645e-09	2.878715e+01	1.371773e+02
1.110000e-06	2.116815e-06	2.130815e-09	2.971629e+01	1.414472e+02
1.120000e-06	2.181929e-06	2.191462e-09	3.063037e+01	1.455092e+02
1.130000e-06	2.246094e-06	2.251543e-09	3.153113e+01	1.493738e+02
1.140000e-06	2.309597e-06	2.306414e-09	3.242260e+01	1.530514e+02
1.150000e-06	2.372479e-06	2.354262e-09	3.330534e+01	1.565515e+02
1.160000e-06	2.434576e-06	2.399525e-09	3.417708e+01	1.598833e+02
1.170000e-06	2.495821e-06	2.448249e-09	3.503684e+01	1.630553e+02
1.180000e-06	2.556290e-06	2.498489e-09	3.588572e+01	1.660753e+02
1.190000e-06	2.616078e-06	2.539735e-09	3.672504e+01	1.689503e+02
1.200000e-06	2.675081e-06	2.572515e-09	3.755334e+01	1.716869e+02
1.210000e-06	2.732891e-06	2.610235e-09	3.836489e+01	1.742904e+02
1.220000e-06	2.789397e-06	2.651706e-09	3.915813e+01	1.767659e+02
1.230000e-06	2.844950e-06	2.686503e-09	3.993799e+01	1.791180e+02
1.240000e-06	2.899679e-06	2.714018e-09	4.070629e+01	1.813508e+02
1.250000e-06	2.953431e-06	2.743002e-09	4.146087e+01	1.834687e+02
1.260000e-06	3.006048e-06	2.773784e-09	4.219952e+01	1.854764e+02
1.270000e-06	3.057491e-06	2.802077e-09	4.292168e+01	1.873790e+02
1.280000e-06	3.107532e-06	2.828421e-09	4.362418e+01	1.891822e+02
1.290000e-06	3.156059e-06	2.853609e-09	4.430541e+01	1.908923e+02
1.300000e-06	3.203408e-06	2.875833e-09	4.497011e+01	1.925158e+02
1.310000e-06	3.249723e-06	2.897280e-09	4.562028e+01	1.940593e+02
1.320000e-06	3.294929e-06	2.919074e-09	4.625490e+01	1.955291e+02
1.330000e-06	3.339081e-06	2.939697e-09	4.687471e+01	1.969306e+02
1.340000e-06	3.382131e-06	2.957987e-09	4.747905e+01	1.982681e+02
1.350000e-06	3.423761e-06	2.975434e-09	4.806346e+01	1.995447e+02
1.360000e-06	3.464000e-06	2.994381e-09	4.862835e+01	2.007619e+02
1.370000e-06	3.503138e-06	3.013714e-09	4.917778e+01	2.019203e+02
1.380000e-06	3.541130e-06	3.030664e-09	4.971110e+01	2.030190e+02
1.390000e-06	3.577947e-06	3.045729e-09	5.022796e+01	2.040572e+02
1.400000e-06	3.613696e-06	3.060627e-09	5.072981e+01	2.050339e+02
1.410000e-06	3.648168e-06	3.073121e-09	5.121373e+01	2.059487e+02
1.420000e-06	3.681111e-06	3.083704e-09	5.167620e+01	2.068027e+02
1.430000e-06	3.712718e-06	3.096555e-09	5.211990e+01	2.075981e+02
1.440000e-06	3.743161e-06	3.108888e-09	5.254727e+01	2.083389e+02
1.450000e-06	3.772349e-06	3.117854e-09	5.295702e+01	2.090305e+02
1.460000e-06	3.800359e-06	3.126215e-09	5.335022e+01	2.096793e+02
1.470000e-06	3.827048e-06	3.136929e-09	5.372488e+01	2.102919e+02
1.480000e-06	3.852071e-06	3.148800e-09	5.407617e+01	2.108748e+02
1.490000e-06	3.875607e-06	3.158187e-09	5.440657e+01	2.114332e+02
1.500000e-06	3.897854e-06	3.165161e-09	5.471888e+01	2.119709e+02
1.510000e-06	3.918811e-06	3.172068e-09	5.501308e+01	2.124894e+02
1.520000e-06	3.938633e-06	3.180361e-09	5.529134e+01	2.129878e+02
1.530000e-06	3.957183e-06	3.187103e-09	5.555175e+01	2.134636e+02
1.540000e-06	3.974232e-06	3.190174e-09	5.579109e+01	2.139122e+02
1.550000e-06	3.989827e-06	3.191938e-09	5.601001e+01	2.143284e+02
1.560000e-06	4.003943e-06	3.196628e-09	5.620817e+01	2.147068e+02
1.570000e-06	4.016586e-06	3.203715e-09	5.638566e+01	2.150428e+02
1.580000e-06	4.027661e-06	3.209579e-09	5.654113e+01	2.153331e+02
1.590000e-06	4.036925e-06	3.213163e-09	5.667119e+01	2.155769e+02
1.600000e-06	4.044665e-06	3.216176e-09	5.677985e+01	2.157750e+02
1.610000e-06	4.051164e-06	3.220576e-09	5.687108e+01	2.159309e+02
1.620000e-06	4.056288e-06	3.222806e-09	5.694301e+01	2.160492e+02
1.630000e-06	4.060130e-06	3.221165e-09	5.699694e+01	2.161356e+02
1.640000e-06	4.062542e-06	3.220138e-09	5.703080e+01	2.161960e+02
1.650000e-06	4.063304e-06	3.221942e-09	5.704150e+01	2.162353e+02
1.660000e-06	4.062676e-06	3.223824e-09	5.703268e+01	2.162569e+02
1.670000e-06	4.060794e-06	3.221944e-09	5.700626e+01	2.162624e+02
1.680000e-06	4.057663e-06	3.220345e-09	5.696231e+01	2.162514e+02
1.690000e-06	4.053336e-06	3.220299e-09	5.690157e+01	2.162214e+02
1.700000e-06	4.047590e-06	3.218772e-09	5.682090e+01	2.161692e+02
1.710000e-06	4.040296e-06	3.214801e-09	5.671851e+01	2.160910e+02
1.720000e-06	4.031787e-06	3.209603e-09	5.659906e+01	2.159839e+02
1.730000e-06	4.022216e-06	3.208591e-09	5.646469e+01	2.158467e+02
1.740000e-06	4.011448e-06	3.205582e-09	5.631354e+01	2.156805e+02
1.750000e-06	3.998788e-06	3.168651e-09	5.613580e+01	2.154890e+02
1.760000e-06	3.983557e-06	3.148561e-09	5.592199e+01	2.152788e+02
1.770000e-06	3.966325e-06	3.161700e-09	5.568009e+01	2.150580e+02
1.780000e-06	3.948283e-06	3.242682e-09	5.542680e+01	2.148360e+02
1.790000e-06	3.929953e-06	3.241304e-09	5.516949e+01	2.146215e+02
1.800000e-06	3.910374e-06	3.109099e-09	5.489463e+01	2.144212e+02
1.810000e-06	3.888583e-06	3.177310e-09	5.458872e+01	2.142383e+02
1.820000e-06	3.865567e-06	3.334545e-09	5.426563e+01	2.140713e+02
1.830000e-06	3.841772e-06	3.250183e-09	5.393158e+01	2.139134e+02
1.840000e-06	3.816170e-06	3.060548e-09	5.357218e+01	2.137522e+02
1.850000e-06	3.789097e-06	3.057324e-09	5.319212e+01	2.135707e+02
1.860000e-06	3.761249e-06	3.195994e-09	5.280118e+01	2.133480e+02
1.870000e-06	3.731993e-06	3.253130e-09	5.239048e+01	2.130619e+02
1.880000e-06	3.701006e-06	3.189879e-09	5.195549e+01	2.126905e+02
1.890000e-06	3.668621e-06	3.238418e-09	5.150086e+01	2.122146e+02
1.900000e-06	3.635079e-06	3.454651e-09	5.102999e+01	2.116199e+02
1.910000e-06	3.600542e-06	3.469611e-09	5.054514e+01	2.108985e+02
1.920000e-06	3.564790e-06	3.283819e-09	5.004325e+01	2.100501e+02
1.930000e-06	3.527822e-06	3.204137e-09	4.952428e+01	2.090816e+02
1.940000e-06	3.489655e-06	3.209268e-09	4.898849e+01	2.080073e+02
1.950000e-06	3.449823e-06	3.335163e-09	4.842932e+01	2.068464e+02
1.960000e-06	3.408553e-06	3.388794e-09	4.784997e+01	2.056221e+02
1.970000e-06	3.366409e-06	3.173702e-09	4.725835e+01	2.043582e+02
1.980000e-06	3.323226e-06	3.062608e-09	4.665213e+01	2.030771e+02
1.990000e-06	3.278913e-06	3.219352e-09	4.603006e+01	2.017976e+02
2.000000e-06	3.233535e-06	3.317269e-09	4.539303e+01	2.005329e+02
2.010000e-06	3.186996e-06	3.135228e-09	4.473970e+01	1.992896e+02
2.020000e-06	3.139116e-06	2.971842e-09	4.406756e+01	1.980674e+02
2.030000e-06	3.089891e-06	3.085985e-09	4.337652e+01	1.968596e+02
2.040000e-06	3.039707e-06	3.175315e-09	4.267203e+01	1.956545e+02
2.050000e-06	2.988534e-06	3.081250e-09	4.195365e+01	1.944365e+02
2.060000e-06	2.936102e-06	2.994035e-09	4.121760e+01	1.931891e+02
2.070000e-06	2.882244e-06	2.964496e-09	4.046153e+01	1.918961e+02
2.080000e-06	2.827005e-06	2.995808e-09	3.968608e+01	1.905436e+02
2.090000e-06	2.770772e-06	3.042005e-09	3.889667e+01	1.891219e+02
2.100000e-06	2.713570e-06	2.974521e-09	3.809365e+01	1.876251e+02
2.110000e-06	2.655467e-06	2.842757e-09	3.727799e+01	1.860522e+02
2.120000e-06	2.596618e-06	2.851080e-09	3.645186e+01	1.844061e+02
2.130000e-06	2.536954e-06	2.962084e-09	3.561428e+01	1.826922e+02
2.140000e-06	2.476552e-06	2.884444e-09	3.476634e+01	1.809176e+02
2.150000e-06	2.415200e-06	2.716701e-09	3.390508e+01	1.790893e+02
2.160000e-06	2.352581e-06	2.739552e-09	3.302602e+01	1.772128e+02
2.170000e-06	2.288941e-06	2.820736e-09	3.213262e+01	1.752909e+02
2.180000e-06	2.224687e-06	2.749603e-09	3.123062e+01	1.733236e+02
2.190000e-06	2.159726e-06	2.627672e-09	3.031868e+01	1.713073e+02
2.200000e-06	2.093914e-06	2.622959e-09	2.939479e+01	1.692358e+02
2.210000e-06	2.027415e-06	2.650164e-09	2.846126e+01	1.671005e+02
2.220000e-06	1.960263e-06	2.609457e-09	2.751858e+01	1.648920e+02
2.230000e-06	1.892499e-06	2.540072e-09	2.656729e+01	1.626008e+02
2.240000e-06	1.824211e-06	2.482675e-09	2.560865e+01	1.602185e+02
2.250000e-06	1.755302e-06	2.459842e-09	2.464129e+01	1.577384e+02
2.260000e-06	1.685555e-06	2.451725e-09	2.366217e+01	1.551561e+02
2.270000e-06	1.614782e-06	2.407609e-09	2.266864e+01	1.524692e+02
2.280000e-06	1.543209e-06	2.325631e-09	2.166388e+01	1.496769e+02
2.290000e-06	1.471266e-06	2.272612e-09	2.065394e+01	1.467791e+02
2.300000e-06	1.398988e-06	2.267754e-09	1.963929e+01	1.437756e+02
2.310000e-06	1.326350e-06	2.237445e-09	1.861958e+01	1.406649e+02
2.320000e-06	1.253311e-06	2.143465e-09	1.759424e+01	1.374433e+02
2.330000e-06	1.179768e-06	2.060320e-09	1.656182e+01	1.341044e+02
2.340000e-06	1.105734e-06	2.044087e-09	1.552252e+01	1.306388e+02
2.350000e-06	1.031313e-06	2.025359e-09	1.447778e+01	1.270339e+02
2.360000e-06	9.565365e-07	1.936401e-09	1.342806e+01	1.232752e+02
2.370000e-06	8.813951e-07	1.838325e-09	1.237321e+01	1.193461e+02
2.380000e-06	8.060134e-07	1.799424e-09	1.131498e+01	1.152299e+02
2.390000e-06	7.303681e-07	1.765398e-09	1.025306e+01	1.109104e+02
2.400000e-06	6.544545e-07	1.680166e-09	9.187366e+00	1.063727e+02
2.410000e-06	5.783101e-07	1.578930e-09	8.118436e+00	1.016045e+02
2.420000e-06	5.019867e-07	1.503942e-09	7.046992e+00	9.659627e+01
2.430000e-06	4.254957e-07	1.439287e-09	5.973196e+00	9.134125e+01
2.440000e-06	3.487905e-07	1.362348e-09	4.896393e+00	8.583565e+01
2.450000e-06	2.719873e-07	1.267113e-09	3.818214e+00	8.007812e+01
2.460000e-06	1.950389e-07	1.156947e-09	2.737996e+00	7.406928e+01
2.470000e-06	1.178746e-07	1.063672e-09	1.654748e+00	6.781130e+01
2.480000e-06	4.056505e-08	9.908459e-10	5.694605e-01	6.130759e+01
2.490000e-06	-3.664852e-08	8.927531e-10	-5.144795e-01	5.456270e+01
2.500000e-06	-1.137314e-07	7.594915e-10	-1.596584e+00	4.758255e+01
2.510000e-06	-1.908126e-07	6.419766e-10	-2.678666e+00	4.037492e+01
2.520000e-06	-2.677347e-07	5.535715e-10	-3.758515e+00	3.295012e+01
2.530000e-06	-3.443641e-07	4.430726e-10	-4.834254e+00	2.532189e+01
2.540000e-06	-4.208551e-07	3.012127e-10	-5.908051e+00	1.750819e+01
2.550000e-06	-4.972740e-07	1.729062e-10	-6.980835e+00	9.531894e+00
2.560000e-06	-5.734680e-07	6.596528e-11	-8.050461e+00	1.421190e+00
2.570000e-06	-6.493796e-07	-5.151825e-11	-9.116124e+00	-6.790445e+00
2.580000e-06	-7.250413e-07	-1.850664e-10	-1.017828e+01	-1.506470e+01
2.590000e-06	-8.004911e-07	-3.157635e-10	-1.123746e+01	-2.335936e+01
2.600000e-06	-8.756105e-07	-4.374105e-10	-1.229200e+01	-3.162963e+01
2.610000e-06	-9.503692e-07	-5.574334e-10	-1.334148e+01	-3.982979e+01
2.620000e-06	-1.024785e-06	-6.810366e-10	-1.438614e+01	-4.791496e+01
2.630000e-06	-1.098845e-06	-8.091817e-10	-1.542581e+01	-5.584292e+01
2.640000e-06	-1.172539e-06	-9.338510e-10	-1.646034e+01	-6.357568e+01
2.650000e-06	-1.245832e-06	-1.044854e-09	-1.748925e+01	-7.108083e+01
2.660000e-06	-1.318695e-06	-1.150227e-09	-1.851211e+01	-7.833239e+01
2.670000e-06	-1.391133e-06	-1.262660e-09	-1.952901e+01	-8.531125e+01
2.680000e-06	-1.463259e-06	-1.374125e-09	-2.054153e+01	-9.200512e+01
2.690000e-06	-1.535030e-06	-1.466569e-09	-2.154907e+01	-9.840808e+01
2.700000e-06	-1.606232e-06	-1.548703e-09	-2.254862e+01	-1.045197e+02
2.710000e-06	-1.676599e-06	-1.640655e-09	-2.353644e+01	-1.103443e+02
2.720000e-06	-1.745982e-06	-1.735637e-09	-2.451045e+01	-1.158894e+02
2.730000e-06	-1.814600e-06	-1.815703e-09	-2.547373e+01	-1.211649e+02
2.740000e-06	-1.882703e-06	-1.886549e-09	-2.642977e+01	-1.261825e+02
2.750000e-06	-1.950291e-06	-1.963069e-09	-2.737859e+01	-1.309541e+02
2.760000e-06	-2.017279e-06	-2.040548e-09	-2.831898e+01	-1.354920e+02
2.770000e-06	-2.083582e-06	-2.110609e-09	-2.924976e+01	-1.398079e+02
2.780000e-06	-2.149163e-06	-2.174057e-09	-3.017039e+01	-1.439135e+02
2.790000e-06	-2.214010e-06	-2.232734e-09	-3.108072e+01	-1.478195e+02
2.800000e-06	-2.278153e-06	-2.290046e-09	-3.198118e+01	-1.515362e+02
2.810000e-06	-2.341624e-06	-2.349951e-09	-3.287220e+01	-1.550735e+02
2.820000e-06	-2.404133e-06	-2.405962e-09	-3.374972e+01	-1.584406e+02
2.830000e-06	-2.465398e-06	-2.453585e-09	-3.460976e+01	-1.616461e+02
2.840000e-06	-2.525712e-06	-2.499729e-09	-3.545646e+01	-1.646980e+02
2.850000e-06	-2.585289e-06	-2.548572e-09	-3.629282e+01	-1.676035e+02
2.860000e-06	-2.644001e-06	-2.595858e-09	-3.711703e+01	-1.703692e+02
2.870000e-06	-2.701828e-06	-2.636583e-09	-3.792882e+01	-1.730008e+02
2.880000e-06	-2.758731e-06	-2.673757e-09	-3.872764e+01	-1.755033e+02
2.890000e-06	-2.814779e-06	-2.712006e-09	-3.951445e+01	-1.778814e+02
2.900000e-06	-2.869892e-06	-2.749571e-09	-4.028813e+01	-1.801393e+02
2.910000e-06	-2.923628e-06	-2.782484e-09	-4.104250e+01	-1.822814e+02
2.920000e-06	-2.975995e-06	-2.812826e-09	-4.177763e+01	-1.843123e+02
2.930000e-06	-3.027209e-06	-2.843652e-09	-4.249659e+01	-1.862369e+02
2.940000e-06	-3.077231e-06	-2.873950e-09	-4.319880e+01	-1.880609e+02
