# Temperatura_=_20.0
# Concentracion g/m^3_=_9000.0
# C_Vs_to_Am_M_A/Vsm_=_65563218390.804596
# pendiente_HvsI_1/m_=_3716.3
# ordenada_HvsI_A/m_=_1297.0
# frecuencia_Hz_=_300770.08012257953

Tiempo_(s)	Campo_(V.s)	Magnetizacion_(V.s)	Campo_(kA/m)	Magnetizacion_(A/m)
0.000000e+00	-4.051995e-06	-3.273780e-09	-5.684713e+01	-2.132178e+02
1.000000e-08	-4.050198e-06	-3.276634e-09	-5.682192e+01	-2.131950e+02
2.000000e-08	-4.046838e-06	-3.277504e-09	-5.677478e+01	-2.131801e+02
3.000000e-08	-4.042273e-06	-3.276520e-09	-5.671072e+01	-2.131744e+02
4.000000e-08	-4.036499e-06	-3.276719e-09	-5.662972e+01	-2.131746e+02
5.000000e-08	-4.029530e-06	-3.278983e-09	-5.653195e+01	-2.131730e+02
6.000000e-08	-4.021419e-06	-3.280247e-09	-5.641816e+01	-2.131589e+02
7.000000e-08	-4.011781e-06	-3.275522e-09	-5.628294e+01	-2.131202e+02
8.000000e-08	-4.000380e-06	-3.271384e-09	-5.612300e+01	-2.130455e+02
9.000000e-08	-3.987128e-06	-3.294644e-09	-5.593708e+01	-2.129259e+02
1.000000e-07	-3.971750e-06	-3.319161e-09	-5.572133e+01	-2.127567e+02
1.100000e-07	-3.954628e-06	-3.311702e-09	-5.548112e+01	-2.125386e+02
1.200000e-07	-3.936373e-06	-3.260515e-09	-5.522502e+01	-2.122775e+02
1.300000e-07	-3.917200e-06	-3.205880e-09	-5.495603e+01	-2.119845e+02
1.400000e-07	-3.897057e-06	-3.291188e-09	-5.467343e+01	-2.116740e+02
1.500000e-07	-3.875893e-06	-3.347638e-09	-5.437651e+01	-2.113619e+02
1.600000e-07	-3.853702e-06	-3.197918e-09	-5.406518e+01	-2.110630e+02
1.700000e-07	-3.829935e-06	-3.153657e-09	-5.373175e+01	-2.107887e+02
1.800000e-07	-3.804298e-06	-3.273587e-09	-5.337207e+01	-2.105444e+02
1.900000e-07	-3.777429e-06	-3.328417e-09	-5.299513e+01	-2.103285e+02
2.000000e-07	-3.749472e-06	-3.267026e-09	-5.260290e+01	-2.101315e+02
2.100000e-07	-3.720078e-06	-3.169801e-09	-5.219053e+01	-2.099365e+02
2.200000e-07	-3.689458e-06	-3.187420e-09	-5.176095e+01	-2.097203e+02
2.300000e-07	-3.657791e-06	-3.296786e-09	-5.131667e+01	-2.094562e+02
2.400000e-07	-3.624798e-06	-3.228185e-09	-5.085380e+01	-2.091164e+02
2.500000e-07	-3.590292e-06	-3.022959e-09	-5.036970e+01	-2.086755e+02
2.600000e-07	-3.554362e-06	-2.996445e-09	-4.986563e+01	-2.081132e+02
2.700000e-07	-3.517226e-06	-3.134856e-09	-4.934463e+01	-2.074167e+02
2.800000e-07	-3.478961e-06	-3.231539e-09	-4.880779e+01	-2.065822e+02
2.900000e-07	-3.439539e-06	-3.079908e-09	-4.825473e+01	-2.056157e+02
3.000000e-07	-3.398927e-06	-2.891046e-09	-4.768496e+01	-2.045317e+02
3.100000e-07	-3.356845e-06	-3.009161e-09	-4.709457e+01	-2.033519e+02
3.200000e-07	-3.313345e-06	-3.179891e-09	-4.648430e+01	-2.021023e+02
3.300000e-07	-3.268781e-06	-3.088417e-09	-4.585909e+01	-2.008102e+02
3.400000e-07	-3.223152e-06	-2.906050e-09	-4.521893e+01	-1.995012e+02
3.500000e-07	-3.176317e-06	-2.884190e-09	-4.456187e+01	-1.981961e+02
3.600000e-07	-3.128367e-06	-3.017502e-09	-4.388916e+01	-1.969086e+02
3.700000e-07	-3.079184e-06	-3.087685e-09	-4.319916e+01	-1.956442e+02
3.800000e-07	-3.028390e-06	-2.940563e-09	-4.248654e+01	-1.943999e+02
3.900000e-07	-2.976068e-06	-2.799617e-09	-4.175249e+01	-1.931653e+02
4.000000e-07	-2.922703e-06	-2.876386e-09	-4.100381e+01	-1.919239e+02
4.100000e-07	-2.868503e-06	-2.994017e-09	-4.024343e+01	-1.906558e+02
4.200000e-07	-2.813393e-06	-2.925052e-09	-3.947027e+01	-1.893405e+02
4.300000e-07	-2.757380e-06	-2.780745e-09	-3.868443e+01	-1.879591e+02
4.400000e-07	-2.700208e-06	-2.753296e-09	-3.788234e+01	-1.864972e+02
4.500000e-07	-2.641668e-06	-2.831503e-09	-3.706106e+01	-1.849455e+02
4.600000e-07	-2.582139e-06	-2.866804e-09	-3.622590e+01	-1.833015e+02
4.700000e-07	-2.521881e-06	-2.747769e-09	-3.538052e+01	-1.815681e+02
4.800000e-07	-2.460780e-06	-2.631770e-09	-3.452331e+01	-1.797535e+02
4.900000e-07	-2.398832e-06	-2.687925e-09	-3.365421e+01	-1.778689e+02
5.000000e-07	-2.336118e-06	-2.761644e-09	-3.277437e+01	-1.759263e+02
5.100000e-07	-2.272718e-06	-2.660492e-09	-3.188491e+01	-1.739371e+02
5.200000e-07	-2.208545e-06	-2.538145e-09	-3.098459e+01	-1.719095e+02
5.300000e-07	-2.143238e-06	-2.564948e-09	-3.006837e+01	-1.698475e+02
5.400000e-07	-2.076801e-06	-2.608925e-09	-2.913630e+01	-1.677503e+02
5.500000e-07	-2.009676e-06	-2.547185e-09	-2.819459e+01	-1.656123e+02
5.600000e-07	-1.942099e-06	-2.462331e-09	-2.724651e+01	-1.634239e+02
5.700000e-07	-1.874014e-06	-2.432591e-09	-2.629132e+01	-1.611726e+02
5.800000e-07	-1.805299e-06	-2.431529e-09	-2.532729e+01	-1.588446e+02
5.900000e-07	-1.735997e-06	-2.421624e-09	-2.435502e+01	-1.564265e+02
6.000000e-07	-1.666097e-06	-2.357571e-09	-2.337437e+01	-1.539065e+02
6.100000e-07	-1.595481e-06	-2.271228e-09	-2.238367e+01	-1.512755e+02
6.200000e-07	-1.524277e-06	-2.251153e-09	-2.138472e+01	-1.485273e+02
6.300000e-07	-1.452747e-06	-2.268560e-09	-2.038119e+01	-1.456584e+02
6.400000e-07	-1.380912e-06	-2.209951e-09	-1.937339e+01	-1.426675e+02
6.500000e-07	-1.308559e-06	-2.103288e-09	-1.835832e+01	-1.395542e+02
6.600000e-07	-1.235465e-06	-2.066846e-09	-1.733285e+01	-1.363178e+02
6.700000e-07	-1.161622e-06	-2.071482e-09	-1.629688e+01	-1.329559e+02
6.800000e-07	-1.087249e-06	-2.020510e-09	-1.525347e+01	-1.294637e+02
6.900000e-07	-1.012365e-06	-1.921658e-09	-1.420289e+01	-1.258332e+02
7.000000e-07	-9.370013e-07	-1.854456e-09	-1.314558e+01	-1.220529e+02
7.100000e-07	-8.613628e-07	-1.827372e-09	-1.208442e+01	-1.181089e+02
7.200000e-07	-7.855241e-07	-1.783544e-09	-1.102044e+01	-1.139848e+02
7.300000e-07	-7.094677e-07	-1.696731e-09	-9.953418e+00	-1.096639e+02
7.400000e-07	-6.331267e-07	-1.601314e-09	-8.882398e+00	-1.051296e+02
7.500000e-07	-5.564008e-07	-1.538527e-09	-7.805978e+00	-1.003675e+02
7.600000e-07	-4.793938e-07	-1.489371e-09	-6.725615e+00	-9.536555e+01
7.700000e-07	-4.023153e-07	-1.410784e-09	-5.644248e+00	-9.011533e+01
7.800000e-07	-3.251579e-07	-1.305093e-09	-4.561776e+00	-8.461198e+01
7.900000e-07	-2.478460e-07	-1.211085e-09	-3.477135e+00	-7.885408e+01
8.000000e-07	-1.704423e-07	-1.138103e-09	-2.391206e+00	-7.284311e+01
8.100000e-07	-9.305126e-08	-1.056450e-09	-1.305455e+00	-6.658279e+01
8.200000e-07	-1.569212e-08	-9.438386e-10	-2.201513e-01	-6.007836e+01
8.300000e-07	6.166450e-08	-8.227276e-10	8.651169e-01	-5.333606e+01
8.400000e-07	1.390343e-07	-7.248763e-10	1.950570e+00	-4.636287e+01
8.500000e-07	2.163890e-07	-6.352694e-10	3.035811e+00	-3.916672e+01
8.600000e-07	2.936651e-07	-5.177821e-10	4.119949e+00	-3.175698e+01
8.700000e-07	3.707904e-07	-3.826432e-10	5.201972e+00	-2.414540e+01
8.800000e-07	4.477872e-07	-2.682306e-10	6.282193e+00	-1.634719e+01
8.900000e-07	5.246328e-07	-1.645269e-10	7.360292e+00	-8.382066e+00
9.000000e-07	6.012408e-07	-3.808017e-11	8.435057e+00	-2.752349e-01
9.100000e-07	6.776428e-07	1.031287e-10	9.506932e+00	7.942126e+00
9.200000e-07	7.537727e-07	2.302610e-10	1.057499e+01	1.623286e+01
9.300000e-07	8.296181e-07	3.447310e-10	1.163906e+01	2.455446e+01
9.400000e-07	9.052779e-07	4.661221e-10	1.270052e+01	3.286031e+01
9.500000e-07	9.806845e-07	5.975735e-10	1.375843e+01	4.110149e+01
9.600000e-07	1.055737e-06	7.273702e-10	1.481137e+01	4.922889e+01
9.700000e-07	1.130286e-06	8.447205e-10	1.585725e+01	5.719556e+01
9.800000e-07	1.204169e-06	9.542671e-10	1.689379e+01	6.495896e+01
9.900000e-07	1.277325e-06	1.069720e-09	1.792012e+01	7.248282e+01
1.000000e-06	1.349793e-06	1.191280e-09	1.893681e+01	7.973858e+01
1.010000e-06	1.421745e-06	1.299019e-09	1.994626e+01	8.670613e+01
1.020000e-06	1.493312e-06	1.388332e-09	2.095030e+01	9.337384e+01
1.030000e-06	1.564492e-06	1.482248e-09	2.194891e+01	9.973795e+01
1.040000e-06	1.635145e-06	1.587414e-09	2.294012e+01	1.058014e+02
1.050000e-06	1.705188e-06	1.679786e-09	2.392280e+01	1.115724e+02
1.060000e-06	1.774634e-06	1.751046e-09	2.489708e+01	1.170624e+02
1.070000e-06	1.843463e-06	1.823319e-09	2.586271e+01	1.222849e+02
1.080000e-06	1.911679e-06	1.906844e-09	2.681974e+01	1.272535e+02
1.090000e-06	1.979353e-06	1.986055e-09	2.776916e+01	1.319815e+02
1.100000e-06	2.046502e-06	2.049884e-09	2.871123e+01	1.364806e+02
1.110000e-06	2.112884e-06	2.106418e-09	2.964253e+01	1.407611e+02
1.120000e-06	2.178227e-06	2.166434e-09	3.055925e+01	1.448319e+02
1.130000e-06	2.242525e-06	2.228854e-09	3.146131e+01	1.487013e+02
1.140000e-06	2.306085e-06	2.285573e-09	3.235302e+01	1.523769e+02
1.150000e-06	2.369025e-06	2.332188e-09	3.323604e+01	1.558668e+02
1.160000e-06	2.431206e-06	2.374653e-09	3.410841e+01	1.591795e+02
1.170000e-06	2.492576e-06	2.423019e-09	3.496938e+01	1.623241e+02
1.180000e-06	2.553128e-06	2.474189e-09	3.581890e+01	1.653103e+02
1.190000e-06	2.612990e-06	2.514828e-09	3.665872e+01	1.681481e+02
1.200000e-06	2.672104e-06	2.546548e-09	3.748806e+01	1.708470e+02
1.210000e-06	2.730044e-06	2.582231e-09	3.830092e+01	1.734157e+02
1.220000e-06	2.786680e-06	2.623754e-09	3.909549e+01	1.758617e+02
1.230000e-06	2.842292e-06	2.661052e-09	3.987570e+01	1.781908e+02
1.240000e-06	2.897007e-06	2.689249e-09	4.064332e+01	1.804072e+02
1.250000e-06	2.950758e-06	2.715477e-09	4.139741e+01	1.825134e+02
1.260000e-06	3.003478e-06	2.744066e-09	4.213705e+01	1.845114e+02
1.270000e-06	3.055087e-06	2.774003e-09	4.286108e+01	1.864025e+02
1.280000e-06	3.105277e-06	2.801185e-09	4.356522e+01	1.881884e+02
1.290000e-06	3.153945e-06	2.824254e-09	4.424801e+01	1.898717e+02
1.300000e-06	3.201424e-06	2.844856e-09	4.491411e+01	1.914565e+02
1.310000e-06	3.247874e-06	2.866704e-09	4.556578e+01	1.929484e+02
1.320000e-06	3.293210e-06	2.890278e-09	4.620181e+01	1.943545e+02
1.330000e-06	3.337479e-06	2.911194e-09	4.682287e+01	1.956826e+02
1.340000e-06	3.380705e-06	2.928341e-09	4.742932e+01	1.969413e+02
1.350000e-06	3.422613e-06	2.945087e-09	4.801726e+01	1.981383e+02
1.360000e-06	3.463065e-06	2.963848e-09	4.858478e+01	1.992805e+02
1.370000e-06	3.502333e-06	2.982402e-09	4.913569e+01	2.003728e+02
1.380000e-06	3.540523e-06	2.997484e-09	4.967148e+01	2.014178e+02
1.390000e-06	3.577536e-06	3.010486e-09	5.019074e+01	2.024160e+02
1.400000e-06	3.613425e-06	3.024329e-09	5.069424e+01	2.033659e+02
1.410000e-06	3.648047e-06	3.036764e-09	5.117997e+01	2.042651e+02
1.420000e-06	3.681105e-06	3.046960e-09	5.164375e+01	2.051104e+02
1.430000e-06	3.712770e-06	3.058573e-09	5.208799e+01	2.058994e+02
1.440000e-06	3.743247e-06	3.070085e-09	5.251558e+01	2.066312e+02
1.450000e-06	3.772493e-06	3.079874e-09	5.292587e+01	2.073071e+02
1.460000e-06	3.800603e-06	3.089949e-09	5.332024e+01	2.079304e+02
1.470000e-06	3.827450e-06	3.100440e-09	5.369689e+01	2.085071e+02
1.480000e-06	3.852705e-06	3.109621e-09	5.405120e+01	2.090446e+02
1.490000e-06	3.876392e-06	3.116041e-09	5.438351e+01	2.095514e+02
1.500000e-06	3.898724e-06	3.121627e-09	5.469682e+01	2.100354e+02
1.510000e-06	3.919768e-06	3.126562e-09	5.499206e+01	2.105032e+02
1.520000e-06	3.939657e-06	3.132110e-09	5.527108e+01	2.109590e+02
1.530000e-06	3.958309e-06	3.138831e-09	5.553276e+01	2.114035e+02
1.540000e-06	3.975548e-06	3.143892e-09	5.577461e+01	2.118345e+02
1.550000e-06	3.991322e-06	3.146633e-09	5.599591e+01	2.122462e+02
1.560000e-06	4.005555e-06	3.150799e-09	5.619560e+01	2.126307e+02
1.570000e-06	4.018271e-06	3.157663e-09	5.637399e+01	2.129790e+02
1.580000e-06	4.029410e-06	3.162552e-09	5.653027e+01	2.132823e+02
1.590000e-06	4.038851e-06	3.164884e-09	5.666272e+01	2.135335e+02
1.600000e-06	4.046753e-06	3.167162e-09	5.677358e+01	2.137285e+02
1.610000e-06	4.053344e-06	3.170091e-09	5.686606e+01	2.138672e+02
1.620000e-06	4.058581e-06	3.172494e-09	5.693952e+01	2.139534e+02
1.630000e-06	4.062512e-06	3.172649e-09	5.699467e+01	2.139949e+02
1.640000e-06	4.064988e-06	3.171866e-09	5.702940e+01	2.140024e+02
1.650000e-06	4.065850e-06	3.173548e-09	5.704150e+01	2.139881e+02
1.660000e-06	4.065298e-06	3.176434e-09	5.703376e+01	2.139639e+02
1.670000e-06	4.063452e-06	3.175537e-09	5.700786e+01	2.139399e+02
1.680000e-06	4.060370e-06	3.171454e-09	5.696462e+01	2.139229e+02
1.690000e-06	4.056148e-06	3.169545e-09	5.690539e+01	2.139153e+02
1.700000e-06	4.050543e-06	3.170283e-09	5.682676e+01	2.139146e+02
1.710000e-06	4.043336e-06	3.167679e-09	5.672564e+01	2.139141e+02
1.720000e-06	4.034879e-06	3.163002e-09	5.660699e+01	2.139036e+02
1.730000e-06	4.025373e-06	3.165530e-09	5.647363e+01	2.138711e+02
1.740000e-06	4.014647e-06	3.163814e-09	5.632315e+01	2.138049e+02
1.750000e-06	4.002052e-06	3.122457e-09	5.614645e+01	2.136954e+02
1.760000e-06	3.986961e-06	3.096797e-09	5.593473e+01	2.135369e+02
1.770000e-06	3.969813e-06	3.113755e-09	5.569416e+01	2.133288e+02
1.780000e-06	3.951755e-06	3.210331e-09	5.544082e+01	2.130761e+02
1.790000e-06	3.933453e-06	3.213144e-09	5.518404e+01	2.127887e+02
1.800000e-06	3.914041e-06	3.077251e-09	5.491171e+01	2.124806e+02
1.810000e-06	3.892420e-06	3.128097e-09	5.460837e+01	2.121674e+02
1.820000e-06	3.869413e-06	3.275338e-09	5.428560e+01	2.118645e+02
1.830000e-06	3.845640e-06	3.224948e-09	5.395208e+01	2.115841e+02
1.840000e-06	3.820230e-06	3.084075e-09	5.359560e+01	2.113331e+02
1.850000e-06	3.793258e-06	3.056541e-09	5.321720e+01	2.111116e+02
1.860000e-06	3.765418e-06	3.133814e-09	5.282662e+01	2.109117e+02
1.870000e-06	3.736368e-06	3.214437e-09	5.241906e+01	2.107179e+02
1.880000e-06	3.705682e-06	3.185082e-09	5.198855e+01	2.105083e+02
1.890000e-06	3.673502e-06	3.199344e-09	5.153709e+01	2.102567e+02
1.900000e-06	3.640049e-06	3.390160e-09	5.106776e+01	2.099354e+02
1.910000e-06	3.605559e-06	3.466090e-09	5.058388e+01	2.095180e+02
1.920000e-06	3.569865e-06	3.350555e-09	5.008312e+01	2.089830e+02
1.930000e-06	3.532864e-06	3.229267e-09	4.956402e+01	2.083157e+02
1.940000e-06	3.494652e-06	3.183507e-09	4.902793e+01	2.075106e+02
1.950000e-06	3.454893e-06	3.353847e-09	4.847013e+01	2.065713e+02
1.960000e-06	3.413730e-06	3.412943e-09	4.789263e+01	2.055108e+02
1.970000e-06	3.371619e-06	3.177210e-09	4.730185e+01	2.043493e+02
1.980000e-06	3.328484e-06	3.105882e-09	4.669668e+01	2.031123e+02
1.990000e-06	3.284262e-06	3.231441e-09	4.607628e+01	2.018270e+02
2.000000e-06	3.238947e-06	3.287634e-09	4.544053e+01	2.005196e+02
2.010000e-06	3.192507e-06	3.180247e-09	4.478901e+01	1.992121e+02
2.020000e-06	3.144742e-06	3.024446e-09	4.411890e+01	1.979199e+02
2.030000e-06	3.095612e-06	3.062268e-09	4.342963e+01	1.966504e+02
2.040000e-06	3.045513e-06	3.164010e-09	4.272677e+01	1.954025e+02
2.050000e-06	2.994404e-06	3.127279e-09	4.200974e+01	1.941669e+02
2.060000e-06	2.942072e-06	3.034553e-09	4.127555e+01	1.929285e+02
2.070000e-06	2.888351e-06	2.956928e-09	4.052187e+01	1.916678e+02
2.080000e-06	2.833231e-06	2.991391e-09	3.974858e+01	1.903641e+02
2.090000e-06	2.777102e-06	3.071371e-09	3.896111e+01	1.889982e+02
2.100000e-06	2.720003e-06	3.003101e-09	3.816006e+01	1.875544e+02
2.110000e-06	2.661982e-06	2.859347e-09	3.734606e+01	1.860223e+02
2.120000e-06	2.603172e-06	2.857387e-09	3.652098e+01	1.843979e+02
2.130000e-06	2.543559e-06	2.968975e-09	3.568465e+01	1.826831e+02
2.140000e-06	2.483268e-06	2.907843e-09	3.483879e+01	1.808849e+02
2.150000e-06	2.422043e-06	2.755656e-09	3.397985e+01	1.790142e+02
2.160000e-06	2.359504e-06	2.760023e-09	3.310247e+01	1.770829e+02
2.170000e-06	2.295915e-06	2.814535e-09	3.221034e+01	1.751028e+02
2.180000e-06	2.231666e-06	2.773388e-09	3.130897e+01	1.730828e+02
2.190000e-06	2.166741e-06	2.676544e-09	3.039812e+01	1.710280e+02
2.200000e-06	2.100997e-06	2.637556e-09	2.947577e+01	1.689386e+02
2.210000e-06	2.034541e-06	2.639051e-09	2.854342e+01	1.668100e+02
2.220000e-06	1.967468e-06	2.620996e-09	2.760242e+01	1.646332e+02
2.230000e-06	1.899717e-06	2.575679e-09	2.665192e+01	1.623964e+02
2.240000e-06	1.831349e-06	2.502064e-09	2.569276e+01	1.600859e+02
2.250000e-06	1.762288e-06	2.457390e-09	2.472388e+01	1.576881e+02
2.260000e-06	1.692443e-06	2.460000e-09	2.374399e+01	1.551908e+02
2.270000e-06	1.621698e-06	2.435962e-09	2.275147e+01	1.525841e+02
2.280000e-06	1.550155e-06	2.354314e-09	2.174777e+01	1.498613e+02
2.290000e-06	1.478216e-06	2.286826e-09	2.073851e+01	1.470183e+02
2.300000e-06	1.405948e-06	2.278780e-09	1.972463e+01	1.440535e+02
2.310000e-06	1.333285e-06	2.257491e-09	1.870520e+01	1.409664e+02
2.320000e-06	1.260231e-06	2.174417e-09	1.768030e+01	1.377564e+02
2.330000e-06	1.186688e-06	2.092503e-09	1.664853e+01	1.344216e+02
2.340000e-06	1.112614e-06	2.059657e-09	1.560932e+01	1.309578e+02
2.350000e-06	1.038157e-06	2.036119e-09	1.456474e+01	1.273577e+02
2.360000e-06	9.633957e-07	1.965261e-09	1.351588e+01	1.236105e+02
2.370000e-06	8.882743e-07	1.875822e-09	1.246197e+01	1.197028e+02
2.380000e-06	8.128444e-07	1.819969e-09	1.140373e+01	1.156186e+02
2.390000e-06	7.371607e-07	1.774939e-09	1.034193e+01	1.113412e+02
2.400000e-06	6.611988e-07	1.704866e-09	9.276233e+00	1.068539e+02
2.410000e-06	5.850176e-07	1.615796e-09	8.207455e+00	1.021416e+02
2.420000e-06	5.086559e-07	1.533256e-09	7.136145e+00	9.719178e+01
2.430000e-06	4.321120e-07	1.460405e-09	6.062279e+00	9.199520e+01
2.440000e-06	3.553782e-07	1.389428e-09	4.985749e+00	8.654623e+01
2.450000e-06	2.785092e-07	1.303056e-09	3.907321e+00	8.084275e+01
2.460000e-06	2.015403e-07	1.195167e-09	2.827493e+00	7.488567e+01
2.470000e-06	1.243999e-07	1.097926e-09	1.745258e+00	6.867829e+01
2.480000e-06	4.709254e-08	1.019314e-09	6.606808e-01	6.222559e+01
2.490000e-06	-3.017623e-08	9.231602e-10	-4.233548e-01	5.553360e+01
2.500000e-06	-1.073506e-07	7.979812e-10	-1.506066e+00	4.860917e+01
2.510000e-06	-1.845737e-07	6.821513e-10	-2.589462e+00	4.145997e+01
2.520000e-06	-2.616775e-07	5.860528e-10	-3.671182e+00	3.409502e+01
2.530000e-06	-3.385092e-07	4.732287e-10	-4.749086e+00	2.652546e+01
2.540000e-06	-4.151317e-07	3.372751e-10	-5.824056e+00	1.876566e+01
2.550000e-06	-4.915465e-07	2.116485e-10	-6.896111e+00	1.083429e+01
2.560000e-06	-5.677347e-07	1.000149e-10	-7.964987e+00	2.755313e+00
2.570000e-06	-6.436884e-07	-2.095311e-11	-9.030572e+00	-5.441383e+00
2.580000e-06	-7.193815e-07	-1.529317e-10	-1.009250e+01	-1.371990e+01
2.590000e-06	-7.948540e-07	-2.838705e-10	-1.115134e+01	-2.203878e+01
2.600000e-06	-8.700572e-07	-4.070771e-10	-1.220639e+01	-3.035217e+01
2.610000e-06	-9.448786e-07	-5.265222e-10	-1.325609e+01	-3.861146e+01
2.620000e-06	-1.019336e-06	-6.496726e-10	-1.430069e+01	-4.676739e+01
2.630000e-06	-1.093472e-06	-7.804343e-10	-1.534078e+01	-5.477236e+01
2.640000e-06	-1.167294e-06	-9.071483e-10	-1.637645e+01	-6.258270e+01
2.650000e-06	-1.240725e-06	-1.017973e-09	-1.740664e+01	-7.016066e+01
2.660000e-06	-1.313643e-06	-1.124230e-09	-1.842965e+01	-7.747595e+01
2.670000e-06	-1.386080e-06	-1.238437e-09	-1.944590e+01	-8.450662e+01
2.680000e-06	-1.458186e-06	-1.350335e-09	-2.045750e+01	-9.123924e+01
2.690000e-06	-1.529987e-06	-1.442070e-09	-2.146482e+01	-9.766845e+01
2.700000e-06	-1.601324e-06	-1.525251e-09	-2.246564e+01	-1.037959e+02
2.710000e-06	-1.671903e-06	-1.618386e-09	-2.345582e+01	-1.096288e+02
2.720000e-06	-1.741542e-06	-1.714327e-09	-2.443282e+01	-1.151780e+02
2.730000e-06	-1.810329e-06	-1.795492e-09	-2.539786e+01	-1.204567e+02
2.740000e-06	-1.878493e-06	-1.865738e-09	-2.635416e+01	-1.254787e+02
2.750000e-06	-1.946150e-06	-1.939828e-09	-2.730334e+01	-1.302573e+02
2.760000e-06	-2.013206e-06	-2.016731e-09	-2.824411e+01	-1.348046e+02
2.770000e-06	-2.079576e-06	-2.088684e-09	-2.917523e+01	-1.391312e+02
2.780000e-06	-2.145223e-06	-2.152306e-09	-3.009622e+01	-1.432464e+02
2.790000e-06	-2.210114e-06	-2.208946e-09	-3.100661e+01	-1.471583e+02
2.800000e-06	-2.274344e-06	-2.265401e-09	-3.190772e+01	-1.508749e+02
2.810000e-06	-2.337921e-06	-2.328108e-09	-3.279967e+01	-1.544040e+02
2.820000e-06	-2.400512e-06	-2.387172e-09	-3.367779e+01	-1.577540e+02
2.830000e-06	-2.461938e-06	-2.433981e-09	-3.453956e+01	-1.609339e+02
2.840000e-06	-2.522436e-06	-2.477151e-09	-3.538831e+01	-1.639533e+02
2.850000e-06	-2.582167e-06	-2.524733e-09	-3.622629e+01	-1.668222e+02
2.860000e-06	-2.641039e-06	-2.573062e-09	-3.705223e+01	-1.695502e+02
2.870000e-06	-2.698932e-06	-2.614918e-09	-3.786444e+01	-1.721462e+02
2.880000e-06	-2.755867e-06	-2.650923e-09	-3.866320e+01	-1.746181e+02
2.890000e-06	-2.812032e-06	-2.687920e-09	-3.945117e+01	-1.769719e+02
2.900000e-06	-2.867323e-06	-2.726350e-09	-4.022687e+01	-1.792122e+02
2.910000e-06	-2.921191e-06	-2.761904e-09	-4.098261e+01	-1.813420e+02
2.920000e-06	-2.973613e-06	-2.791967e-09	-4.171806e+01	-1.833632e+02
2.930000e-06	-3.024919e-06	-2.819715e-09	-4.243784e+01	-1.852771e+02
2.940000e-06	-3.075137e-06	-2.848761e-09	-4.314237e+01	-1.870854e+02
