# Temperatura_=_20.0
# Concentracion g/m^3_=_9000.0
# C_Vs_to_Am_M_A/Vsm_=_65563218390.804596
# pendiente_HvsI_1/m_=_3716.3
# ordenada_HvsI_A/m_=_1297.0
# frecuencia_Hz_=_300776.43194976327

Tiempo_(s)	Campo_(V.s)	Magnetizacion_(V.s)	Campo_(kA/m)	Magnetizacion_(A/m)
0.000000e+00	-4.043867e-06	-1.400946e-10	-5.684768e+01	-6.241352e+00
1.000000e-08	-4.043286e-06	-1.422246e-10	-5.683953e+01	-6.272190e+00
2.000000e-08	-4.041165e-06	-1.440739e-10	-5.680970e+01	-6.324689e+00
3.000000e-08	-4.037601e-06	-1.459695e-10	-5.675961e+01	-6.401121e+00
4.000000e-08	-4.032862e-06	-1.472225e-10	-5.669298e+01	-6.500092e+00
5.000000e-08	-4.026830e-06	-1.489144e-10	-5.660819e+01	-6.616579e+00
6.000000e-08	-4.019569e-06	-1.527912e-10	-5.650611e+01	-6.742556e+00
7.000000e-08	-4.011122e-06	-1.530565e-10	-5.638736e+01	-6.868142e+00
8.000000e-08	-4.001159e-06	-1.568536e-10	-5.624730e+01	-6.983117e+00
9.000000e-08	-3.989461e-06	-1.661815e-10	-5.608286e+01	-7.078583e+00
1.000000e-07	-3.975843e-06	-1.547478e-10	-5.589143e+01	-7.148525e+00
1.100000e-07	-3.960123e-06	-1.575502e-10	-5.567043e+01	-7.191014e+00
1.200000e-07	-3.942750e-06	-1.369179e-10	-5.542620e+01	-7.208854e+00
1.300000e-07	-3.924310e-06	-1.763620e-10	-5.516698e+01	-7.209528e+00
1.400000e-07	-3.904929e-06	-2.288061e-10	-5.489452e+01	-7.204426e+00
1.500000e-07	-3.884551e-06	-1.583520e-10	-5.460806e+01	-7.207418e+00
1.600000e-07	-3.863201e-06	-1.599445e-10	-5.430793e+01	-7.232940e+00
1.700000e-07	-3.840677e-06	-1.379708e-10	-5.399130e+01	-7.293864e+00
1.800000e-07	-3.816472e-06	-9.148382e-11	-5.365103e+01	-7.399419e+00
1.900000e-07	-3.790703e-06	-2.624185e-10	-5.328877e+01	-7.553497e+00
2.000000e-07	-3.763834e-06	-3.152076e-10	-5.291105e+01	-7.753573e+00
2.100000e-07	-3.735667e-06	-5.507373e-11	-5.251509e+01	-7.990439e+00
2.200000e-07	-3.706057e-06	-6.527800e-11	-5.209884e+01	-8.248819e+00
2.300000e-07	-3.675285e-06	-2.670620e-10	-5.166625e+01	-8.508823e+00
2.400000e-07	-3.643444e-06	-2.123372e-10	-5.121863e+01	-8.748067e+00
2.500000e-07	-3.610243e-06	-4.948172e-11	-5.075191e+01	-8.944217e+00
2.600000e-07	-3.575531e-06	6.310000e-11	-5.026393e+01	-9.077623e+00
2.700000e-07	-3.539436e-06	-7.900970e-12	-4.975652e+01	-9.133694e+00
2.800000e-07	-3.502171e-06	-2.059245e-10	-4.923265e+01	-9.104726e+00
2.900000e-07	-3.463787e-06	-1.833167e-10	-4.869307e+01	-8.990911e+00
3.000000e-07	-3.424235e-06	2.558802e-11	-4.813705e+01	-8.800405e+00
3.100000e-07	-3.383493e-06	5.904169e-11	-4.756431e+01	-8.548443e+00
3.200000e-07	-3.341242e-06	-9.405345e-11	-4.697035e+01	-8.255594e+00
3.300000e-07	-3.297588e-06	-2.301090e-10	-4.635668e+01	-7.945411e+00
3.400000e-07	-3.252927e-06	-1.185800e-10	-4.572884e+01	-7.641745e+00
3.500000e-07	-3.207171e-06	8.962813e-11	-4.508562e+01	-7.366101e+00
3.600000e-07	-3.160198e-06	3.150975e-11	-4.442528e+01	-7.135338e+00
3.700000e-07	-3.112217e-06	-2.063285e-10	-4.375079e+01	-6.960024e+00
3.800000e-07	-3.063012e-06	-2.029398e-10	-4.305907e+01	-6.843619e+00
3.900000e-07	-3.012076e-06	3.517526e-11	-4.234302e+01	-6.782570e+00
4.000000e-07	-2.959600e-06	5.046647e-11	-4.160532e+01	-6.767270e+00
4.100000e-07	-2.906118e-06	-1.349048e-10	-4.085349e+01	-6.783721e+00
4.200000e-07	-2.851777e-06	-1.773823e-10	-4.008959e+01	-6.815651e+00
4.300000e-07	-2.796546e-06	-6.860735e-11	-3.931316e+01	-6.846786e+00
4.400000e-07	-2.740475e-06	-3.041173e-12	-3.852492e+01	-6.862961e+00
4.500000e-07	-2.683250e-06	-2.666051e-11	-3.772047e+01	-6.853803e+00
4.600000e-07	-2.624693e-06	-1.164708e-10	-3.689729e+01	-6.813774e+00
4.700000e-07	-2.565214e-06	-1.520789e-10	-3.606115e+01	-6.742477e+00
4.800000e-07	-2.505016e-06	-4.688377e-11	-3.521490e+01	-6.644213e+00
4.900000e-07	-2.443963e-06	3.006440e-11	-3.435663e+01	-6.526913e+00
5.000000e-07	-2.382044e-06	-8.430181e-11	-3.348619e+01	-6.400633e+00
5.100000e-07	-2.319305e-06	-1.779351e-10	-3.260421e+01	-6.275845e+00
5.200000e-07	-2.255859e-06	-5.721265e-11	-3.171232e+01	-6.161805e+00
5.300000e-07	-2.191682e-06	1.959511e-11	-3.081013e+01	-6.065220e+00
5.400000e-07	-2.126469e-06	-7.566562e-11	-2.989337e+01	-5.989409e+00
5.500000e-07	-2.060230e-06	-1.378408e-10	-2.896220e+01	-5.934035e+00
5.600000e-07	-1.993222e-06	-6.950488e-11	-2.802022e+01	-5.895443e+00
5.700000e-07	-1.925618e-06	-2.384348e-11	-2.706987e+01	-5.867494e+00
5.800000e-07	-1.857469e-06	-5.824942e-11	-2.611184e+01	-5.842747e+00
5.900000e-07	-1.788755e-06	-8.832315e-11	-2.514588e+01	-5.813788e+00
6.000000e-07	-1.719485e-06	-9.152831e-11	-2.417210e+01	-5.774471e+00
6.100000e-07	-1.649567e-06	-6.192864e-11	-2.318920e+01	-5.720900e+00
6.200000e-07	-1.578979e-06	-3.732193e-11	-2.219690e+01	-5.651974e+00
6.300000e-07	-1.507887e-06	-6.601128e-11	-2.119751e+01	-5.569448e+00
6.400000e-07	-1.436397e-06	-1.092539e-10	-2.019251e+01	-5.477493e+00
6.500000e-07	-1.364535e-06	-8.016677e-11	-1.918230e+01	-5.381862e+00
6.600000e-07	-1.292202e-06	-3.330366e-11	-1.816546e+01	-5.288788e+00
6.700000e-07	-1.219330e-06	-5.799518e-11	-1.714104e+01	-5.203814e+00
6.800000e-07	-1.145875e-06	-1.042328e-10	-1.610842e+01	-5.130739e+00
6.900000e-07	-1.071722e-06	-9.073043e-11	-1.506601e+01	-5.070851e+00
7.000000e-07	-9.969677e-07	-4.577182e-11	-1.401513e+01	-5.022565e+00
7.100000e-07	-9.217345e-07	-5.055934e-11	-1.295752e+01	-4.981530e+00
7.200000e-07	-8.461205e-07	-8.958970e-11	-1.189455e+01	-4.941161e+00
7.300000e-07	-7.703190e-07	-9.576830e-11	-1.082895e+01	-4.893528e+00
7.400000e-07	-6.942828e-07	-5.865899e-11	-9.760056e+00	-4.830448e+00
7.500000e-07	-6.179267e-07	-4.560516e-11	-8.686662e+00	-4.744605e+00
7.600000e-07	-5.413221e-07	-7.200449e-11	-7.609773e+00	-4.630528e+00
7.700000e-07	-4.645922e-07	-8.605366e-11	-6.531123e+00	-4.485272e+00
7.800000e-07	-3.877767e-07	-6.615033e-11	-5.451269e+00	-4.308712e+00
7.900000e-07	-3.107170e-07	-4.610847e-11	-4.367983e+00	-4.103403e+00
8.000000e-07	-2.334781e-07	-5.298300e-11	-3.282177e+00	-3.874046e+00
8.100000e-07	-1.562377e-07	-6.393924e-11	-2.196351e+00	-3.626652e+00
8.200000e-07	-7.893243e-08	-5.973502e-11	-1.109613e+00	-3.367552e+00
8.300000e-07	-1.527444e-09	-3.976953e-11	-2.147243e-02	-3.102403e+00
8.400000e-07	7.590184e-08	-2.893295e-11	1.067009e+00	-2.835361e+00
8.500000e-07	1.532543e-07	-4.116262e-11	2.154411e+00	-2.568547e+00
8.600000e-07	2.304702e-07	-5.210155e-11	3.239893e+00	-2.301888e+00
8.700000e-07	3.076364e-07	-3.251196e-11	4.324677e+00	-2.033342e+00
8.800000e-07	3.847986e-07	-9.677533e-12	5.409405e+00	-1.759481e+00
8.900000e-07	4.617794e-07	-2.133690e-11	6.491580e+00	-1.476303e+00
9.000000e-07	5.384431e-07	-3.481270e-11	7.569300e+00	-1.180157e+00
9.100000e-07	6.148380e-07	-1.676215e-11	8.643241e+00	-8.686114e-01
9.200000e-07	6.910561e-07	6.844718e-12	9.714697e+00	-5.411263e-01
9.300000e-07	7.671033e-07	1.916823e-12	1.078375e+01	-1.994086e-01
9.400000e-07	8.428758e-07	-9.664814e-12	1.184894e+01	1.526005e-01
9.500000e-07	9.183379e-07	-2.324478e-12	1.290977e+01	5.091133e-01
9.600000e-07	9.935116e-07	1.435530e-11	1.396654e+01	8.631960e-01
9.700000e-07	1.068383e-06	2.182203e-11	1.501906e+01	1.207669e+00
9.800000e-07	1.142739e-06	1.698551e-11	1.606435e+01	1.536064e+00
9.900000e-07	1.216262e-06	1.310934e-11	1.709791e+01	1.843488e+00
1.000000e-06	1.288935e-06	2.215821e-11	1.811953e+01	2.127249e+00
1.010000e-06	1.361097e-06	3.842669e-11	1.913396e+01	2.387146e+00
1.020000e-06	1.432938e-06	3.897181e-11	2.014389e+01	2.625388e+00
1.030000e-06	1.504394e-06	2.864483e-11	2.114841e+01	2.846129e+00
1.040000e-06	1.575379e-06	3.245353e-11	2.214629e+01	3.054719e+00
1.050000e-06	1.645816e-06	5.018913e-11	2.313647e+01	3.256781e+00
1.060000e-06	1.715748e-06	5.540712e-11	2.411956e+01	3.457245e+00
1.070000e-06	1.785112e-06	4.404665e-11	2.509466e+01	3.659521e+00
1.080000e-06	1.853812e-06	4.070185e-11	2.606044e+01	3.864913e+00
1.090000e-06	1.921928e-06	5.353205e-11	2.701800e+01	4.072383e+00
1.100000e-06	1.989540e-06	6.619489e-11	2.796846e+01	4.278696e+00
1.110000e-06	2.056543e-06	6.457289e-11	2.891038e+01	4.478916e+00
1.120000e-06	2.122623e-06	5.929270e-11	2.983932e+01	4.667188e+00
1.130000e-06	2.187623e-06	6.140897e-11	3.075307e+01	4.837661e+00
1.140000e-06	2.251705e-06	6.767075e-11	3.165391e+01	4.985424e+00
1.150000e-06	2.315199e-06	7.038114e-11	3.254650e+01	5.107299e+00
1.160000e-06	2.378097e-06	6.500415e-11	3.343070e+01	5.202368e+00
1.170000e-06	2.440152e-06	5.950642e-11	3.430305e+01	5.272158e+00
1.180000e-06	2.501303e-06	6.063595e-11	3.516270e+01	5.320451e+00
1.190000e-06	2.561716e-06	6.636492e-11	3.601198e+01	5.352759e+00
1.200000e-06	2.621470e-06	6.588871e-11	3.685198e+01	5.375547e+00
1.210000e-06	2.680352e-06	5.981294e-11	3.767972e+01	5.395325e+00
1.220000e-06	2.737983e-06	5.779216e-11	3.848989e+01	5.417760e+00
1.230000e-06	2.794323e-06	6.299043e-11	3.928190e+01	5.446942e+00
1.240000e-06	2.849739e-06	6.632321e-11	4.006093e+01	5.484910e+00
1.250000e-06	2.904326e-06	6.267031e-11	4.082830e+01	5.531514e+00
1.260000e-06	2.957963e-06	5.741147e-11	4.158231e+01	5.584628e+00
1.270000e-06	3.010508e-06	5.435797e-11	4.232098e+01	5.640652e+00
1.280000e-06	3.061660e-06	5.471343e-11	4.304007e+01	5.695237e+00
1.290000e-06	3.111235e-06	5.396440e-11	4.373698e+01	5.744089e+00
1.300000e-06	3.159442e-06	5.055751e-11	4.441466e+01	5.783727e+00
1.310000e-06	3.206510e-06	4.704044e-11	4.507633e+01	5.812064e+00
1.320000e-06	3.252528e-06	4.893029e-11	4.572323e+01	5.828723e+00
1.330000e-06	3.297491e-06	5.258845e-11	4.635531e+01	5.835031e+00
1.340000e-06	3.341456e-06	5.301214e-11	4.697336e+01	5.833716e+00
1.350000e-06	3.384381e-06	5.048874e-11	4.757679e+01	5.828343e+00
1.360000e-06	3.425881e-06	4.845817e-11	4.816019e+01	5.822616e+00
1.370000e-06	3.465952e-06	4.690184e-11	4.872350e+01	5.819655e+00
1.380000e-06	3.504853e-06	4.515308e-11	4.927036e+01	5.821392e+00
1.390000e-06	3.542593e-06	4.325315e-11	4.980090e+01	5.828188e+00
1.400000e-06	3.579222e-06	4.013535e-11	5.031582e+01	5.838747e+00
1.410000e-06	3.614760e-06	3.806660e-11	5.081540e+01	5.850357e+00
1.420000e-06	3.648933e-06	3.756516e-11	5.129580e+01	5.859409e+00
1.430000e-06	3.681581e-06	3.788890e-11	5.175476e+01	5.862117e+00
1.440000e-06	3.712927e-06	3.725371e-11	5.219541e+01	5.855319e+00
1.450000e-06	3.743116e-06	3.542608e-11	5.261981e+01	5.837207e+00
1.460000e-06	3.772080e-06	3.369912e-11	5.302698e+01	5.807865e+00
1.470000e-06	3.799820e-06	3.198886e-11	5.341693e+01	5.769504e+00
1.480000e-06	3.826168e-06	3.021205e-11	5.378732e+01	5.726333e+00
1.490000e-06	3.850912e-06	2.704542e-11	5.413518e+01	5.684079e+00
1.500000e-06	3.874231e-06	2.402856e-11	5.446299e+01	5.649211e+00
1.510000e-06	3.896244e-06	2.287587e-11	5.477244e+01	5.627988e+00
1.520000e-06	3.916993e-06	2.239501e-11	5.506413e+01	5.625476e+00
1.530000e-06	3.936610e-06	2.198056e-11	5.533989e+01	5.644700e+00
1.540000e-06	3.954938e-06	2.172401e-11	5.559754e+01	5.686079e+00
1.550000e-06	3.971757e-06	2.061072e-11	5.583398e+01	5.747240e+00
1.560000e-06	3.987055e-06	1.873484e-11	5.604904e+01	5.823267e+00
1.570000e-06	4.000845e-06	1.852105e-11	5.624290e+01	5.907364e+00
1.580000e-06	4.013183e-06	1.950067e-11	5.641634e+01	5.991838e+00
1.590000e-06	4.023942e-06	1.942148e-11	5.656758e+01	6.069258e+00
1.600000e-06	4.032971e-06	1.868517e-11	5.669451e+01	6.133622e+00
1.610000e-06	4.040491e-06	1.902220e-11	5.680022e+01	6.181326e+00
1.620000e-06	4.046671e-06	1.985435e-11	5.688711e+01	6.211793e+00
1.630000e-06	4.051510e-06	1.991144e-11	5.695513e+01	6.227635e+00
1.640000e-06	4.055078e-06	1.870578e-11	5.700529e+01	6.234309e+00
1.650000e-06	4.057167e-06	1.776317e-11	5.703465e+01	6.239307e+00
1.660000e-06	4.057654e-06	1.948071e-11	5.704150e+01	6.250982e+00
1.670000e-06	4.056823e-06	2.061190e-11	5.702981e+01	6.277195e+00
1.680000e-06	4.054720e-06	2.038925e-11	5.700026e+01	6.323981e+00
1.690000e-06	4.051363e-06	1.991107e-11	5.695306e+01	6.394464e+00
1.700000e-06	4.046857e-06	2.247753e-11	5.688971e+01	6.488186e+00
1.710000e-06	4.040906e-06	2.352185e-11	5.680607e+01	6.600996e+00
1.720000e-06	4.033490e-06	2.061497e-11	5.670181e+01	6.725529e+00
1.730000e-06	4.024888e-06	2.205171e-11	5.658089e+01	6.852237e+00
1.740000e-06	4.015165e-06	1.169725e-11	5.644420e+01	6.970829e+00
1.750000e-06	4.004139e-06	1.690324e-11	5.628919e+01	7.071923e+00
1.760000e-06	3.991075e-06	3.486592e-11	5.610555e+01	7.148653e+00
1.770000e-06	3.975520e-06	3.121842e-11	5.588688e+01	7.197983e+00
1.780000e-06	3.958155e-06	4.594434e-11	5.564277e+01	7.221510e+00
1.790000e-06	3.940130e-06	-2.279058e-12	5.538937e+01	7.225590e+00
1.800000e-06	3.921749e-06	-5.447854e-12	5.513098e+01	7.220750e+00
1.810000e-06	3.901909e-06	6.919486e-11	5.485208e+01	7.220402e+00
1.820000e-06	3.879981e-06	1.806367e-11	5.454381e+01	7.239038e+00
1.830000e-06	3.856915e-06	1.285587e-10	5.421956e+01	7.290121e+00
1.840000e-06	3.832879e-06	1.277194e-10	5.388166e+01	7.383972e+00
1.850000e-06	3.807123e-06	-1.718375e-10	5.351960e+01	7.525945e+00
1.860000e-06	3.780015e-06	-6.295200e-11	5.313852e+01	7.715178e+00
1.870000e-06	3.751982e-06	1.910706e-10	5.274443e+01	7.944110e+00
1.880000e-06	3.722512e-06	2.853103e-11	5.233016e+01	8.198879e+00
1.890000e-06	3.691417e-06	-7.345711e-12	5.189304e+01	8.460570e+00
1.900000e-06	3.658906e-06	2.431014e-10	5.143600e+01	8.707196e+00
1.910000e-06	3.625223e-06	3.396396e-10	5.096249e+01	8.916162e+00
1.920000e-06	3.590530e-06	3.450352e-10	5.047479e+01	9.066906e+00
1.930000e-06	3.554643e-06	2.160150e-10	4.997029e+01	9.143376e+00
1.940000e-06	3.517554e-06	1.044301e-10	4.944891e+01	9.136018e+00
1.950000e-06	3.479170e-06	2.270314e-10	4.890932e+01	9.043004e+00
1.960000e-06	3.439173e-06	3.144844e-10	4.834705e+01	8.870546e+00
1.970000e-06	3.397857e-06	3.215676e-10	4.776623e+01	8.632242e+00
1.980000e-06	3.355595e-06	1.757472e-10	4.717213e+01	8.347530e+00
1.990000e-06	3.312270e-06	2.417805e-11	4.656307e+01	8.039459e+00
2.000000e-06	3.267853e-06	2.877416e-10	4.593867e+01	7.732064e+00
2.010000e-06	3.222347e-06	4.018604e-10	4.529895e+01	7.447669e+00
2.020000e-06	3.175666e-06	1.171862e-10	4.464273e+01	7.204479e+00
2.030000e-06	3.127644e-06	3.158915e-11	4.396765e+01	7.014746e+00
2.040000e-06	3.078334e-06	2.056339e-10	4.327446e+01	6.883734e+00
2.050000e-06	3.028064e-06	3.184656e-10	4.256777e+01	6.809585e+00
2.060000e-06	2.976743e-06	1.812474e-10	4.184632e+01	6.784073e+00
2.070000e-06	2.924199e-06	1.055883e-10	4.110767e+01	6.794112e+00
2.080000e-06	2.870289e-06	1.651247e-10	4.034982e+01	6.823787e+00
2.090000e-06	2.815070e-06	1.778025e-10	3.957356e+01	6.856615e+00
2.100000e-06	2.758889e-06	2.482314e-10	3.878378e+01	6.877724e+00
2.110000e-06	2.701737e-06	2.094785e-10	3.798035e+01	6.875669e+00
2.120000e-06	2.643702e-06	8.252594e-11	3.716451e+01	6.843645e+00
2.130000e-06	2.584857e-06	1.338901e-10	3.633728e+01	6.779982e+00
2.140000e-06	2.525194e-06	2.499972e-10	3.549855e+01	6.687885e+00
2.150000e-06	2.464816e-06	2.240637e-10	3.464977e+01	6.574506e+00
2.160000e-06	2.403461e-06	8.198091e-11	3.378726e+01	6.449527e+00
2.170000e-06	2.340848e-06	1.098072e-10	3.290706e+01	6.323475e+00
2.180000e-06	2.277237e-06	2.406745e-10	3.201283e+01	6.206052e+00
2.190000e-06	2.212996e-06	1.900617e-10	3.110976e+01	6.104702e+00
2.200000e-06	2.148053e-06	1.122464e-10	3.019681e+01	6.023638e+00
2.210000e-06	2.082280e-06	1.232286e-10	2.927218e+01	5.963429e+00
2.220000e-06	2.015829e-06	1.749157e-10	2.833803e+01	5.921189e+00
2.230000e-06	1.948741e-06	1.774431e-10	2.739492e+01	5.891299e+00
2.240000e-06	1.880991e-06	1.347367e-10	2.644251e+01	5.866521e+00
2.250000e-06	1.812689e-06	1.370598e-10	2.548234e+01	5.839311e+00
2.260000e-06	1.743840e-06	1.362984e-10	2.451447e+01	5.803100e+00
2.270000e-06	1.674216e-06	1.515530e-10	2.353572e+01	5.753361e+00
2.280000e-06	1.603567e-06	1.571704e-10	2.254255e+01	5.688268e+00
2.290000e-06	1.532090e-06	1.326786e-10	2.153775e+01	5.608884e+00
2.300000e-06	1.460177e-06	1.220966e-10	2.052681e+01	5.518842e+00
2.310000e-06	1.387919e-06	1.356808e-10	1.951102e+01	5.423594e+00
2.320000e-06	1.315297e-06	1.566715e-10	1.849012e+01	5.329366e+00
2.330000e-06	1.242268e-06	1.248855e-10	1.746350e+01	5.241978e+00
2.340000e-06	1.168721e-06	9.659602e-11	1.642959e+01	5.165750e+00
2.350000e-06	1.094693e-06	1.249241e-10	1.538893e+01	5.102650e+00
2.360000e-06	1.020361e-06	1.524108e-10	1.434399e+01	5.051820e+00
2.370000e-06	9.457653e-07	1.252101e-10	1.329534e+01	5.009566e+00
2.380000e-06	8.707604e-07	9.338057e-11	1.224093e+01	4.969790e+00
2.390000e-06	7.954121e-07	1.203452e-10	1.118171e+01	4.924800e+00
2.400000e-06	7.198667e-07	1.393469e-10	1.011971e+01	4.866371e+00
2.410000e-06	6.440459e-07	1.114260e-10	9.053838e+00	4.786869e+00
2.420000e-06	5.679265e-07	9.227459e-11	7.983770e+00	4.680284e+00
2.430000e-06	4.916495e-07	1.037876e-10	6.911487e+00	4.542996e+00
2.440000e-06	4.152885e-07	1.123214e-10	5.838023e+00	4.374172e+00
2.450000e-06	3.387519e-07	1.067246e-10	4.762091e+00	4.175732e+00
2.460000e-06	2.620417e-07	9.810365e-11	3.683718e+00	3.951908e+00
2.470000e-06	1.852396e-07	8.950697e-11	2.604052e+00	3.708476e+00
2.480000e-06	1.083844e-07	9.007970e-11	1.523641e+00	3.451781e+00
2.490000e-06	3.137431e-08	1.009908e-10	4.410524e-01	3.187734e+00
2.500000e-06	-4.575123e-08	9.356440e-11	-6.431595e-01	2.920932e+00
2.510000e-06	-1.227234e-07	6.554176e-11	-1.725215e+00	2.654034e+00
2.520000e-06	-1.995513e-07	6.135136e-11	-2.805244e+00	2.387508e+00
2.530000e-06	-2.763540e-07	8.146243e-11	-3.884916e+00	2.119765e+00
2.540000e-06	-3.530431e-07	7.723133e-11	-4.962993e+00	1.847652e+00
2.550000e-06	-4.294674e-07	4.816915e-11	-6.037346e+00	1.567225e+00
2.560000e-06	-5.056434e-07	4.461120e-11	-7.108210e+00	1.274661e+00
2.570000e-06	-5.816605e-07	6.161558e-11	-8.176840e+00	9.671491e-01
2.580000e-06	-6.575073e-07	5.705356e-11	-9.243076e+00	6.436300e-01
2.590000e-06	-7.331479e-07	3.528579e-11	-1.030641e+01	3.052350e-01
2.600000e-06	-8.084974e-07	2.579568e-11	-1.136566e+01	-4.463085e-02
2.610000e-06	-8.834904e-07	2.925951e-11	-1.241989e+01	-4.005867e-01
2.620000e-06	-9.581323e-07	2.745394e-11	-1.346919e+01	-7.559062e-01
2.630000e-06	-1.032444e-06	1.726620e-11	-1.451384e+01	-1.103381e+00
2.640000e-06	-1.106396e-06	3.207126e-12	-1.555344e+01	-1.436278e+00
2.650000e-06	-1.179910e-06	-4.573225e-12	-1.658688e+01	-1.749241e+00
2.660000e-06	-1.253039e-06	-1.703306e-12	-1.761492e+01	-2.038984e+00
2.670000e-06	-1.325752e-06	9.562775e-13	-1.863710e+01	-2.304679e+00
2.680000e-06	-1.398034e-06	-1.013305e-11	-1.965321e+01	-2.547959e+00
2.690000e-06	-1.469954e-06	-2.481192e-11	-2.066426e+01	-2.772554e+00
2.700000e-06	-1.541456e-06	-2.285992e-11	-2.166941e+01	-2.983599e+00
2.710000e-06	-1.612413e-06	-1.483567e-11	-2.266691e+01	-3.186737e+00
2.720000e-06	-1.682548e-06	-2.201486e-11	-2.365284e+01	-3.387159e+00
2.730000e-06	-1.751735e-06	-3.774679e-11	-2.462545e+01	-3.588720e+00
2.740000e-06	-1.820200e-06	-4.015409e-11	-2.558792e+01	-3.793288e+00
2.750000e-06	-1.888148e-06	-3.324481e-11	-2.654311e+01	-4.000411e+00
2.760000e-06	-1.955547e-06	-3.365167e-11	-2.749060e+01	-4.207370e+00
2.770000e-06	-2.022277e-06	-4.242571e-11	-2.842868e+01	-4.409591e+00
2.780000e-06	-2.088325e-06	-5.000964e-11	-2.935716e+01	-4.601364e+00
2.790000e-06	-2.153698e-06	-5.186365e-11	-3.027615e+01	-4.776748e+00
2.800000e-06	-2.218368e-06	-5.237137e-11	-3.118527e+01	-4.930515e+00
2.810000e-06	-2.282310e-06	-5.640134e-11	-3.208416e+01	-5.058992e+00
2.820000e-06	-2.345486e-06	-6.465053e-11	-3.297227e+01	-5.160664e+00
2.830000e-06	-2.407685e-06	-7.064468e-11	-3.384664e+01	-5.236450e+00
2.840000e-06	-2.468785e-06	-6.955669e-11	-3.470557e+01	-5.289605e+00
2.850000e-06	-2.528979e-06	-6.613179e-11	-3.555177e+01	-5.325275e+00
2.860000e-06	-2.588415e-06	-6.887649e-11	-3.638730e+01	-5.349768e+00
2.870000e-06	-2.646993e-06	-7.428091e-11	-3.721077e+01	-5.369669e+00
2.880000e-06	-2.704609e-06	-7.464375e-11	-3.802072e+01	-5.390934e+00
2.890000e-06	-2.761364e-06	-7.321865e-11	-3.881858e+01	-5.418103e+00
2.900000e-06	-2.817268e-06	-7.527635e-11	-3.960446e+01	-5.453753e+00
2.910000e-06	-2.872088e-06	-7.916951e-11	-4.037511e+01	-5.498276e+00
2.920000e-06	-2.925577e-06	-8.175384e-11	-4.112704e+01	-5.550003e+00
2.930000e-06	-2.977753e-06	-8.315990e-11	-4.186052e+01	-5.605641e+00
2.940000e-06	-3.028841e-06	-8.424383e-11	-4.257870e+01	-5.660953e+00
