# Temperatura_=_20.0
# Concentracion g/m^3_=_9000.0
# C_Vs_to_Am_M_A/Vsm_=_65563218390.804596
# pendiente_HvsI_1/m_=_3716.3
# ordenada_HvsI_A/m_=_1297.0
# frecuencia_Hz_=_212906.4699609401

Tiempo_(s)	Campo_(V.s)	Magnetizacion_(V.s)	Campo_(kA/m)	Magnetizacion_(A/m)
0.000000e+00	-6.731146e-06	1.675245e-12	-4.768215e+01	-5.131944e+00
1.000000e-08	-6.729946e-06	4.043471e-13	-4.767365e+01	-5.130322e+00
2.000000e-08	-6.727231e-06	-1.073642e-12	-4.765442e+01	-5.150635e+00
3.000000e-08	-6.723407e-06	-2.224540e-12	-4.762733e+01	-5.195368e+00
4.000000e-08	-6.718642e-06	-3.522433e-12	-4.759357e+01	-5.264727e+00
5.000000e-08	-6.712781e-06	-1.705168e-12	-4.755205e+01	-5.356360e+00
6.000000e-08	-6.705798e-06	3.179044e-12	-4.750259e+01	-5.465240e+00
7.000000e-08	-6.697850e-06	1.511905e-11	-4.744628e+01	-5.583735e+00
8.000000e-08	-6.688747e-06	3.406547e-11	-4.738180e+01	-5.701870e+00
9.000000e-08	-6.678041e-06	-3.301939e-11	-4.730596e+01	-5.807765e+00
1.000000e-07	-6.665649e-06	-9.516569e-11	-4.721818e+01	-5.888233e+00
1.100000e-07	-6.651766e-06	-7.933533e-11	-4.711983e+01	-5.929505e+00
1.200000e-07	-6.636443e-06	8.674867e-13	-4.701129e+01	-5.918039e+00
1.300000e-07	-6.619867e-06	2.155116e-10	-4.689387e+01	-5.841354e+00
1.400000e-07	-6.602379e-06	8.625328e-11	-4.676998e+01	-5.688855e+00
1.500000e-07	-6.583914e-06	-1.853593e-10	-4.663918e+01	-5.452570e+00
1.600000e-07	-6.564605e-06	-1.185817e-11	-4.650241e+01	-5.127772e+00
1.700000e-07	-6.544501e-06	-3.472380e-11	-4.635999e+01	-4.713425e+00
1.800000e-07	-6.523117e-06	-4.809222e-12	-4.620851e+01	-4.212431e+00
1.900000e-07	-6.500654e-06	2.533563e-10	-4.604938e+01	-3.631656e+00
2.000000e-07	-6.477488e-06	-9.657666e-11	-4.588528e+01	-2.981720e+00
2.100000e-07	-6.453122e-06	-2.719410e-10	-4.571268e+01	-2.276576e+00
2.200000e-07	-6.427268e-06	1.706649e-10	-4.552953e+01	-1.532881e+00
2.300000e-07	-6.400223e-06	1.706713e-10	-4.533795e+01	-7.692132e-01
2.400000e-07	-6.372169e-06	-9.054497e-11	-4.513922e+01	-5.163452e-03
2.500000e-07	-6.343016e-06	-1.261896e-10	-4.493271e+01	7.396265e-01
2.600000e-07	-6.312711e-06	-1.267068e-10	-4.471803e+01	1.446437e+00
2.700000e-07	-6.281380e-06	5.079665e-11	-4.449609e+01	2.098384e+00
2.800000e-07	-6.249047e-06	1.048534e-10	-4.426705e+01	2.681229e+00
2.900000e-07	-6.215450e-06	-7.089233e-11	-4.402905e+01	3.184027e+00
3.000000e-07	-6.180586e-06	-1.487618e-10	-4.378208e+01	3.599582e+00
3.100000e-07	-6.144607e-06	-1.159147e-10	-4.352722e+01	3.924684e+00
3.200000e-07	-6.107448e-06	5.706605e-11	-4.326399e+01	4.160115e+00
3.300000e-07	-6.069113e-06	1.220670e-10	-4.299244e+01	4.310429e+00
3.400000e-07	-6.029832e-06	-1.085779e-10	-4.271417e+01	4.383528e+00
3.500000e-07	-5.989637e-06	-2.387984e-10	-4.242944e+01	4.390055e+00
3.600000e-07	-5.948132e-06	4.017868e-12	-4.213543e+01	4.342662e+00
3.700000e-07	-5.905270e-06	1.763997e-10	-4.183180e+01	4.255187e+00
3.800000e-07	-5.861349e-06	-6.067582e-11	-4.152067e+01	4.141804e+00
3.900000e-07	-5.816354e-06	-1.856631e-10	-4.120194e+01	4.016196e+00
4.000000e-07	-5.770215e-06	-1.200521e-11	-4.087510e+01	3.890804e+00
4.100000e-07	-5.723177e-06	5.706864e-11	-4.054189e+01	3.776196e+00
4.200000e-07	-5.675301e-06	4.270783e-12	-4.020274e+01	3.680589e+00
4.300000e-07	-5.626200e-06	-4.007157e-11	-3.985492e+01	3.609553e+00
4.400000e-07	-5.575607e-06	-7.292884e-11	-3.949653e+01	3.565904e+00
4.500000e-07	-5.523723e-06	-5.868933e-11	-3.912899e+01	3.549786e+00
4.600000e-07	-5.470871e-06	3.281311e-11	-3.875460e+01	3.558920e+00
4.700000e-07	-5.417111e-06	4.904044e-11	-3.837378e+01	3.589010e+00
4.800000e-07	-5.362495e-06	-9.193709e-11	-3.798689e+01	3.634251e+00
4.900000e-07	-5.307075e-06	-1.000585e-10	-3.759430e+01	3.687912e+00
5.000000e-07	-5.250718e-06	5.496479e-11	-3.719508e+01	3.742943e+00
5.100000e-07	-5.193300e-06	6.399600e-11	-3.678834e+01	3.792562e+00
5.200000e-07	-5.134800e-06	-6.884431e-11	-3.637394e+01	3.830785e+00
5.300000e-07	-5.075362e-06	-7.843954e-11	-3.595289e+01	3.852857e+00
5.400000e-07	-5.015179e-06	3.452709e-11	-3.552656e+01	3.855564e+00
5.500000e-07	-4.954245e-06	3.584344e-11	-3.509492e+01	3.837405e+00
5.600000e-07	-4.892484e-06	-4.505068e-11	-3.465742e+01	3.798620e+00
5.700000e-07	-4.829913e-06	-4.851484e-11	-3.421418e+01	3.741084e+00
5.800000e-07	-4.766547e-06	-1.384733e-12	-3.376531e+01	3.668071e+00
5.900000e-07	-4.702390e-06	9.685722e-12	-3.331083e+01	3.583923e+00
6.000000e-07	-4.637325e-06	-8.925730e-12	-3.284992e+01	3.493655e+00
6.100000e-07	-4.571200e-06	-2.649775e-11	-3.238150e+01	3.402518e+00
6.200000e-07	-4.504138e-06	-3.064253e-11	-3.190645e+01	3.315573e+00
6.300000e-07	-4.436359e-06	9.912943e-13	-3.142632e+01	3.237292e+00
6.400000e-07	-4.367962e-06	2.433808e-11	-3.094180e+01	3.171233e+00
6.500000e-07	-4.298824e-06	-1.071682e-11	-3.045205e+01	3.119804e+00
6.600000e-07	-4.228826e-06	-4.604502e-11	-2.995619e+01	3.084127e+00
6.700000e-07	-4.158127e-06	-1.254839e-11	-2.945537e+01	3.064022e+00
6.800000e-07	-4.086826e-06	3.128011e-11	-2.895029e+01	3.058094e+00
6.900000e-07	-4.014762e-06	1.184646e-12	-2.843980e+01	3.063925e+00
7.000000e-07	-3.941720e-06	-4.353394e-11	-2.792239e+01	3.078341e+00
7.100000e-07	-3.867682e-06	-1.518734e-11	-2.739792e+01	3.097737e+00
7.200000e-07	-3.792827e-06	3.292531e-11	-2.686766e+01	3.118430e+00
7.300000e-07	-3.717194e-06	1.040033e-11	-2.633189e+01	3.137005e+00
7.400000e-07	-3.640861e-06	-3.627499e-11	-2.579116e+01	3.150636e+00
7.500000e-07	-3.563812e-06	-2.752546e-11	-2.524536e+01	3.157344e+00
7.600000e-07	-3.485932e-06	3.862405e-12	-2.469368e+01	3.156180e+00
7.700000e-07	-3.407352e-06	5.082312e-12	-2.413703e+01	3.147316e+00
7.800000e-07	-3.328204e-06	-1.343779e-11	-2.357636e+01	3.132041e+00
7.900000e-07	-3.248365e-06	-1.799859e-11	-2.301079e+01	3.112657e+00
8.000000e-07	-3.167759e-06	-5.428777e-12	-2.243980e+01	3.092294e+00
8.100000e-07	-3.086604e-06	9.585331e-12	-2.186491e+01	3.074653e+00
8.200000e-07	-3.005077e-06	1.129364e-11	-2.128739e+01	3.063703e+00
8.300000e-07	-2.923153e-06	-8.931735e-12	-2.070705e+01	3.063353e+00
8.400000e-07	-2.840744e-06	-1.472427e-11	-2.012329e+01	3.077132e+00
8.500000e-07	-2.757935e-06	1.018976e-11	-1.953668e+01	3.107892e+00
8.600000e-07	-2.674781e-06	1.905186e-11	-1.894764e+01	3.157575e+00
8.700000e-07	-2.591207e-06	-5.408480e-12	-1.835561e+01	3.227038e+00
8.800000e-07	-2.507271e-06	-1.675696e-11	-1.776103e+01	3.315970e+00
8.900000e-07	-2.423040e-06	7.301946e-12	-1.716435e+01	3.422899e+00
9.000000e-07	-2.338463e-06	2.140320e-11	-1.656522e+01	3.545283e+00
9.100000e-07	-2.253540e-06	2.361911e-12	-1.596365e+01	3.679683e+00
9.200000e-07	-2.168340e-06	-9.425405e-12	-1.536011e+01	3.822000e+00
9.300000e-07	-2.082775e-06	5.439378e-12	-1.475398e+01	3.967760e+00
9.400000e-07	-1.996750e-06	1.910704e-11	-1.414460e+01	4.112416e+00
9.500000e-07	-1.910414e-06	1.329959e-11	-1.353301e+01	4.251658e+00
9.600000e-07	-1.823859e-06	3.306645e-12	-1.291986e+01	4.381692e+00
9.700000e-07	-1.737023e-06	7.525963e-12	-1.230473e+01	4.499474e+00
9.800000e-07	-1.649861e-06	2.227934e-11	-1.168730e+01	4.602880e+00
9.900000e-07	-1.562393e-06	3.160421e-11	-1.106769e+01	4.690810e+00
1.000000e-06	-1.474621e-06	2.688816e-11	-1.044593e+01	4.763199e+00
1.010000e-06	-1.386613e-06	2.052123e-11	-9.822501e+00	4.820959e+00
1.020000e-06	-1.298356e-06	2.946964e-11	-9.197306e+00	4.865846e+00
1.030000e-06	-1.209879e-06	4.492507e-11	-8.570550e+00	4.900261e+00
1.040000e-06	-1.121193e-06	4.287985e-11	-7.942315e+00	4.927022e+00
1.050000e-06	-1.032175e-06	2.873842e-11	-7.311726e+00	4.949102e+00
1.060000e-06	-9.428818e-07	3.001447e-11	-6.679194e+00	4.969371e+00
1.070000e-06	-8.533756e-07	4.622071e-11	-6.045149e+00	4.990359e+00
1.080000e-06	-7.636639e-07	5.081521e-11	-5.409648e+00	5.014054e+00
1.090000e-06	-6.737980e-07	4.073334e-11	-4.773056e+00	5.041760e+00
1.100000e-06	-5.838355e-07	3.839454e-11	-4.135779e+00	5.074015e+00
1.110000e-06	-4.937099e-07	4.983874e-11	-3.497346e+00	5.110574e+00
1.120000e-06	-4.033533e-07	5.702256e-11	-2.857277e+00	5.150474e+00
1.130000e-06	-3.129339e-07	5.137108e-11	-2.216763e+00	5.192144e+00
1.140000e-06	-2.225197e-07	4.675168e-11	-1.576287e+00	5.233573e+00
1.150000e-06	-1.320356e-07	5.034589e-11	-9.353147e-01	5.272516e+00
1.160000e-06	-4.154357e-08	5.779385e-11	-2.942867e-01	5.306706e+00
1.170000e-06	4.892247e-08	6.258912e-11	3.465574e-01	5.334074e+00
1.180000e-06	1.393724e-07	6.087421e-11	9.872871e-01	5.352937e+00
1.190000e-06	2.297892e-07	6.000625e-11	1.627783e+00	5.362158e+00
1.200000e-06	3.201098e-07	6.546594e-11	2.267596e+00	5.361252e+00
1.210000e-06	4.103160e-07	7.155862e-11	2.906600e+00	5.350431e+00
1.220000e-06	5.004055e-07	6.971653e-11	3.544777e+00	5.330589e+00
1.230000e-06	5.903090e-07	6.447346e-11	4.181636e+00	5.303231e+00
1.240000e-06	6.800452e-07	6.669278e-11	4.817310e+00	5.270343e+00
1.250000e-06	7.696297e-07	7.239099e-11	5.451909e+00	5.234229e+00
1.260000e-06	8.590252e-07	7.509003e-11	6.085169e+00	5.197313e+00
1.270000e-06	9.482191e-07	7.438745e-11	6.717002e+00	5.161943e+00
1.280000e-06	1.037170e-06	7.805052e-11	7.347113e+00	5.130193e+00
1.290000e-06	1.125928e-06	8.282879e-11	7.975857e+00	5.103703e+00
1.300000e-06	1.214522e-06	8.386686e-11	8.603439e+00	5.083545e+00
1.310000e-06	1.302815e-06	8.391332e-11	9.228895e+00	5.070152e+00
1.320000e-06	1.390785e-06	8.537860e-11	9.852052e+00	5.063301e+00
1.330000e-06	1.478508e-06	8.577005e-11	1.047347e+01	5.062145e+00
1.340000e-06	1.566008e-06	8.458755e-11	1.109330e+01	5.065316e+00
1.350000e-06	1.653275e-06	8.511466e-11	1.171148e+01	5.071061e+00
1.360000e-06	1.740318e-06	8.426712e-11	1.232808e+01	5.077419e+00
1.370000e-06	1.827167e-06	8.265559e-11	1.294330e+01	5.082413e+00
1.380000e-06	1.913772e-06	8.408817e-11	1.355680e+01	5.084244e+00
1.390000e-06	2.000064e-06	8.777318e-11	1.416807e+01	5.081472e+00
1.400000e-06	2.085973e-06	8.750784e-11	1.477664e+01	5.073160e+00
1.410000e-06	2.171552e-06	8.599707e-11	1.538286e+01	5.058981e+00
1.420000e-06	2.256798e-06	8.749026e-11	1.598672e+01	5.039263e+00
1.430000e-06	2.341664e-06	8.854520e-11	1.658790e+01	5.014983e+00
1.440000e-06	2.426189e-06	8.535163e-11	1.718666e+01	4.987694e+00
1.450000e-06	2.510388e-06	8.475018e-11	1.778311e+01	4.959407e+00
1.460000e-06	2.594255e-06	8.888411e-11	1.837720e+01	4.932424e+00
1.470000e-06	2.677708e-06	9.040135e-11	1.896837e+01	4.909144e+00
1.480000e-06	2.760702e-06	8.857194e-11	1.955628e+01	4.891859e+00
1.490000e-06	2.843235e-06	9.011578e-11	2.014093e+01	4.882546e+00
1.500000e-06	2.925285e-06	9.383365e-11	2.072216e+01	4.882689e+00
1.510000e-06	3.006817e-06	9.587942e-11	2.129971e+01	4.893134e+00
1.520000e-06	3.087762e-06	9.578359e-11	2.187311e+01	4.913998e+00
1.530000e-06	3.168117e-06	9.410114e-11	2.244233e+01	4.944630e+00
1.540000e-06	3.247901e-06	9.515684e-11	2.300751e+01	4.983644e+00
1.550000e-06	3.327108e-06	9.706178e-11	2.356860e+01	5.029006e+00
1.560000e-06	3.405660e-06	9.781019e-11	2.412504e+01	5.078175e+00
1.570000e-06	3.483449e-06	9.617566e-11	2.467608e+01	5.128296e+00
1.580000e-06	3.560594e-06	9.603141e-11	2.522256e+01	5.176406e+00
1.590000e-06	3.637158e-06	1.003451e-10	2.576493e+01	5.219670e+00
1.600000e-06	3.713074e-06	1.038345e-10	2.630270e+01	5.255589e+00
1.610000e-06	3.788273e-06	1.042014e-10	2.683540e+01	5.282198e+00
1.620000e-06	3.862611e-06	1.011125e-10	2.736200e+01	5.298216e+00
1.630000e-06	3.935917e-06	1.001032e-10	2.788128e+01	5.303137e+00
1.640000e-06	4.008246e-06	1.006502e-10	2.839365e+01	5.297269e+00
1.650000e-06	4.079884e-06	9.942319e-11	2.890112e+01	5.281696e+00
1.660000e-06	4.150975e-06	9.821712e-11	2.940471e+01	5.258184e+00
1.670000e-06	4.221398e-06	9.785249e-11	2.990357e+01	5.229027e+00
1.680000e-06	4.291066e-06	1.012127e-10	3.039709e+01	5.196851e+00
1.690000e-06	4.359971e-06	1.046436e-10	3.088520e+01	5.164393e+00
1.700000e-06	4.428131e-06	1.064012e-10	3.136803e+01	5.134266e+00
1.710000e-06	4.495712e-06	1.075466e-10	3.184676e+01	5.108737e+00
1.720000e-06	4.562692e-06	1.093210e-10	3.232123e+01	5.089537e+00
1.730000e-06	4.628680e-06	1.122250e-10	3.278868e+01	5.077715e+00
1.740000e-06	4.693471e-06	1.130099e-10	3.324765e+01	5.073545e+00
1.750000e-06	4.757350e-06	1.128816e-10	3.370016e+01	5.076509e+00
1.760000e-06	4.820597e-06	1.133379e-10	3.414819e+01	5.085341e+00
1.770000e-06	4.883163e-06	1.158956e-10	3.459139e+01	5.098143e+00
1.780000e-06	4.944932e-06	1.184673e-10	3.502895e+01	5.112548e+00
1.790000e-06	5.005882e-06	1.179435e-10	3.546071e+01	5.125937e+00
1.800000e-06	5.066064e-06	1.164779e-10	3.588703e+01	5.135671e+00
1.810000e-06	5.125615e-06	1.168823e-10	3.630888e+01	5.139338e+00
1.820000e-06	5.184375e-06	1.192231e-10	3.672512e+01	5.134975e+00
1.830000e-06	5.241880e-06	1.207543e-10	3.713247e+01	5.121260e+00
1.840000e-06	5.298177e-06	1.213680e-10	3.753127e+01	5.097652e+00
1.850000e-06	5.353652e-06	1.237411e-10	3.792425e+01	5.064466e+00
1.860000e-06	5.408265e-06	1.266270e-10	3.831111e+01	5.022872e+00
1.870000e-06	5.461911e-06	1.279217e-10	3.869113e+01	4.974823e+00
1.880000e-06	5.514599e-06	1.284133e-10	3.906436e+01	4.922915e+00
1.890000e-06	5.566214e-06	1.290634e-10	3.942999e+01	4.870182e+00
1.900000e-06	5.616583e-06	1.305569e-10	3.978680e+01	4.819856e+00
1.910000e-06	5.665582e-06	1.322434e-10	4.013390e+01	4.775093e+00
1.920000e-06	5.713385e-06	1.320618e-10	4.047253e+01	4.738712e+00
1.930000e-06	5.760155e-06	1.320448e-10	4.080383e+01	4.712939e+00
1.940000e-06	5.805936e-06	1.338475e-10	4.112814e+01	4.699212e+00
1.950000e-06	5.850733e-06	1.353355e-10	4.144547e+01	4.698026e+00
1.960000e-06	5.894640e-06	1.354068e-10	4.175650e+01	4.708877e+00
1.970000e-06	5.937693e-06	1.361090e-10	4.206148e+01	4.730268e+00
1.980000e-06	5.979503e-06	1.380279e-10	4.235766e+01	4.759808e+00
1.990000e-06	6.019945e-06	1.387279e-10	4.264413e+01	4.794393e+00
2.000000e-06	6.059307e-06	1.383305e-10	4.292297e+01	4.830445e+00
2.010000e-06	6.097699e-06	1.383346e-10	4.319493e+01	4.864196e+00
2.020000e-06	6.135093e-06	1.389121e-10	4.345983e+01	4.892008e+00
2.030000e-06	6.171488e-06	1.403925e-10	4.371764e+01	4.910684e+00
2.040000e-06	6.207030e-06	1.425220e-10	4.396941e+01	4.917748e+00
2.050000e-06	6.241630e-06	1.438115e-10	4.421451e+01	4.911688e+00
2.060000e-06	6.274834e-06	1.433152e-10	4.444972e+01	4.892110e+00
2.070000e-06	6.306737e-06	1.422932e-10	4.467571e+01	4.859822e+00
2.080000e-06	6.337629e-06	1.425306e-10	4.489455e+01	4.816807e+00
2.090000e-06	6.367499e-06	1.443943e-10	4.510614e+01	4.766105e+00
2.100000e-06	6.396381e-06	1.453142e-10	4.531073e+01	4.711608e+00
2.110000e-06	6.424322e-06	1.437364e-10	4.550867e+01	4.657769e+00
2.120000e-06	6.451242e-06	1.441892e-10	4.569936e+01	4.609263e+00
2.130000e-06	6.476848e-06	1.473548e-10	4.588075e+01	4.570621e+00
2.140000e-06	6.501056e-06	1.490854e-10	4.605223e+01	4.545851e+00
2.150000e-06	6.524088e-06	1.482326e-10	4.621539e+01	4.538102e+00
2.160000e-06	6.546085e-06	1.469953e-10	4.637121e+01	4.549385e+00
2.170000e-06	6.567013e-06	1.470374e-10	4.651946e+01	4.580366e+00
2.180000e-06	6.586936e-06	1.472046e-10	4.666059e+01	4.630279e+00
2.190000e-06	6.605946e-06	1.473260e-10	4.679525e+01	4.696936e+00
2.200000e-06	6.623740e-06	1.483898e-10	4.692130e+01	4.776862e+00
2.210000e-06	6.640258e-06	1.499874e-10	4.703831e+01	4.865538e+00
2.220000e-06	6.655576e-06	1.520754e-10	4.714682e+01	4.957733e+00
2.230000e-06	6.669623e-06	1.538584e-10	4.724633e+01	5.047912e+00
2.240000e-06	6.682479e-06	1.550649e-10	4.733740e+01	5.130674e+00
2.250000e-06	6.694152e-06	1.564879e-10	4.742009e+01	5.201203e+00
2.260000e-06	6.704357e-06	1.567477e-10	4.749238e+01	5.255684e+00
2.270000e-06	6.712961e-06	1.585604e-10	4.755333e+01	5.291647e+00
2.280000e-06	6.720348e-06	1.601749e-10	4.760566e+01	5.308226e+00
2.290000e-06	6.726686e-06	1.606048e-10	4.765055e+01	5.306279e+00
2.300000e-06	6.731864e-06	1.629612e-10	4.768723e+01	5.288386e+00
2.310000e-06	6.735930e-06	1.670180e-10	4.771604e+01	5.258688e+00
2.320000e-06	6.738901e-06	1.698456e-10	4.773708e+01	5.222595e+00
2.330000e-06	6.740538e-06	1.717033e-10	4.774868e+01	5.186371e+00
2.340000e-06	6.740830e-06	1.766319e-10	4.775075e+01	5.156615e+00
2.350000e-06	6.740041e-06	1.812103e-10	4.774516e+01	5.139683e+00
2.360000e-06	6.738153e-06	1.794875e-10	4.773178e+01	5.141091e+00
2.370000e-06	6.735123e-06	1.775506e-10	4.771032e+01	5.164937e+00
2.380000e-06	6.731166e-06	1.780469e-10	4.768229e+01	5.213388e+00
2.390000e-06	6.726340e-06	1.805082e-10	4.764810e+01	5.286281e+00
2.400000e-06	6.720156e-06	1.854392e-10	4.760430e+01	5.380864e+00
2.410000e-06	6.712517e-06	1.970659e-10	4.755018e+01	5.491711e+00
2.420000e-06	6.703916e-06	2.383668e-10	4.748926e+01	5.610817e+00
2.430000e-06	6.694453e-06	1.867237e-10	4.742222e+01	5.727890e+00
2.440000e-06	6.683680e-06	8.100139e-11	4.734590e+01	5.830812e+00
2.450000e-06	6.670998e-06	8.592141e-11	4.725607e+01	5.906259e+00
2.460000e-06	6.656251e-06	1.444636e-10	4.715160e+01	5.940445e+00
2.470000e-06	6.640262e-06	3.902934e-10	4.703834e+01	5.919932e+00
2.480000e-06	6.623951e-06	2.925855e-10	4.692280e+01	5.832471e+00
2.490000e-06	6.607004e-06	-3.530368e-11	4.680275e+01	5.667816e+00
2.500000e-06	6.588569e-06	1.675495e-10	4.667216e+01	5.418447e+00
2.510000e-06	6.569029e-06	4.779741e-11	4.653374e+01	5.080165e+00
2.520000e-06	6.548941e-06	1.984442e-11	4.639144e+01	4.652516e+00
2.530000e-06	6.527388e-06	5.055611e-10	4.623876e+01	4.139000e+00
2.540000e-06	6.504051e-06	2.138633e-10	4.607345e+01	3.547063e+00
2.550000e-06	6.479732e-06	-8.299672e-11	4.590118e+01	2.887860e+00
2.560000e-06	6.454570e-06	3.742681e-10	4.572293e+01	2.175792e+00
2.570000e-06	6.428415e-06	2.489922e-10	4.553766e+01	1.427859e+00
2.580000e-06	6.401187e-06	-1.550053e-10	4.534478e+01	6.628493e-01
2.590000e-06	6.372935e-06	-1.147486e-10	4.514465e+01	-9.957466e-02
2.600000e-06	6.343784e-06	-2.139880e-10	4.493815e+01	-8.398489e-01
2.610000e-06	6.313120e-06	-9.047915e-11	4.472093e+01	-1.539472e+00
2.620000e-06	6.280934e-06	-1.304905e-11	4.449293e+01	-2.181911e+00
2.630000e-06	6.247836e-06	-1.568629e-10	4.425847e+01	-2.753382e+00
2.640000e-06	6.213622e-06	-1.281949e-10	4.401611e+01	-3.243479e+00
2.650000e-06	6.178177e-06	-3.227742e-10	4.376502e+01	-3.645595e+00
2.660000e-06	6.141859e-06	-1.116775e-10	4.350775e+01	-3.957123e+00
2.670000e-06	6.104520e-06	1.592426e-10	4.324325e+01	-4.179432e+00
2.680000e-06	6.065738e-06	-2.696242e-10	4.296853e+01	-4.317609e+00
2.690000e-06	6.025646e-06	-3.681521e-10	4.268452e+01	-4.380008e+00
2.700000e-06	5.984750e-06	-6.218777e-11	4.239482e+01	-4.377625e+00
2.710000e-06	5.942864e-06	6.205458e-11	4.209811e+01	-4.323342e+00
2.720000e-06	5.899654e-06	-1.793806e-10	4.179202e+01	-4.231103e+00
2.730000e-06	5.855551e-06	-3.227234e-10	4.147960e+01	-4.115059e+00
2.740000e-06	5.810719e-06	-4.983645e-11	4.116202e+01	-3.988752e+00
2.750000e-06	5.764824e-06	-8.939334e-11	4.083691e+01	-3.864380e+00
2.760000e-06	5.717763e-06	-1.575932e-10	4.050354e+01	-3.752183e+00
2.770000e-06	5.669708e-06	-9.589508e-11	4.016312e+01	-3.659997e+00
2.780000e-06	5.620675e-06	-2.003031e-10	3.981578e+01	-3.592979e+00
2.790000e-06	5.570493e-06	-1.804696e-10	3.946030e+01	-3.553536e+00
2.800000e-06	5.519251e-06	-9.899139e-11	3.909731e+01	-3.541428e+00
2.810000e-06	5.467110e-06	-3.913145e-11	3.872796e+01	-3.554045e+00
2.820000e-06	5.413928e-06	-2.009205e-10	3.835123e+01	-3.586830e+00
2.830000e-06	5.359467e-06	-2.702127e-10	3.796543e+01	-3.633801e+00
2.840000e-06	5.303787e-06	-4.124587e-11	3.757101e+01	-3.688139e+00
2.850000e-06	5.247250e-06	-4.638294e-11	3.717051e+01	-3.742799e+00
2.860000e-06	5.189912e-06	-1.858511e-10	3.676434e+01	-3.791088e+00
2.870000e-06	5.131721e-06	-2.097487e-10	3.635213e+01	-3.827179e+00
2.880000e-06	5.072706e-06	-8.223016e-11	3.593408e+01	-3.846534e+00
2.890000e-06	5.012888e-06	-6.086130e-11	3.551034e+01	-3.846186e+00
2.900000e-06	4.952332e-06	-1.728446e-10	3.508137e+01	-3.824899e+00
2.910000e-06	4.890890e-06	-1.459936e-10	3.464613e+01	-3.783168e+00
2.920000e-06	4.828365e-06	-1.100425e-10	3.420321e+01	-3.723094e+00
2.930000e-06	4.764755e-06	-1.127252e-10	3.375261e+01	-3.648135e+00
2.940000e-06	4.700321e-06	-1.287016e-10	3.329617e+01	-3.562761e+00
2.950000e-06	4.635235e-06	-1.218556e-10	3.283511e+01	-3.472051e+00
2.960000e-06	4.569338e-06	-1.327934e-10	3.236831e+01	-3.381254e+00
