# Temperatura_=_20.0
# Concentracion g/m^3_=_9000.0
# C_Vs_to_Am_M_A/Vsm_=_65563218390.804596
# pendiente_HvsI_1/m_=_3716.3
# ordenada_HvsI_A/m_=_1297.0
# frecuencia_Hz_=_212903.34510226254

Tiempo_(s)	Campo_(V.s)	Magnetizacion_(V.s)	Campo_(kA/m)	Magnetizacion_(A/m)
0.000000e+00	-6.767867e-06	-4.340205e-09	-4.769086e+01	-2.857424e+02
1.000000e-08	-6.767596e-06	-4.336041e-09	-4.768895e+01	-2.857633e+02
2.000000e-08	-6.766068e-06	-4.336995e-09	-4.767819e+01	-2.857840e+02
3.000000e-08	-6.763149e-06	-4.339120e-09	-4.765762e+01	-2.858030e+02
4.000000e-08	-6.759169e-06	-4.340238e-09	-4.762956e+01	-2.858176e+02
5.000000e-08	-6.754186e-06	-4.339078e-09	-4.759445e+01	-2.858247e+02
6.000000e-08	-6.748052e-06	-4.337810e-09	-4.755123e+01	-2.858207e+02
7.000000e-08	-6.740852e-06	-4.336060e-09	-4.750050e+01	-2.858015e+02
8.000000e-08	-6.732726e-06	-4.327302e-09	-4.744323e+01	-2.857633e+02
9.000000e-08	-6.723337e-06	-4.309760e-09	-4.737707e+01	-2.857025e+02
1.000000e-07	-6.712216e-06	-4.357808e-09	-4.729871e+01	-2.856158e+02
1.100000e-07	-6.699496e-06	-4.405667e-09	-4.720907e+01	-2.855007e+02
1.200000e-07	-6.685323e-06	-4.382661e-09	-4.710920e+01	-2.853555e+02
1.300000e-07	-6.669595e-06	-4.319033e-09	-4.699837e+01	-2.851792e+02
1.400000e-07	-6.652643e-06	-4.174195e-09	-4.687892e+01	-2.849716e+02
1.500000e-07	-6.634889e-06	-4.257790e-09	-4.675381e+01	-2.847335e+02
1.600000e-07	-6.616221e-06	-4.455644e-09	-4.662226e+01	-2.844663e+02
1.700000e-07	-6.596668e-06	-4.295476e-09	-4.648448e+01	-2.841717e+02
1.800000e-07	-6.576246e-06	-4.239268e-09	-4.634057e+01	-2.838521e+02
1.900000e-07	-6.554618e-06	-4.278080e-09	-4.618817e+01	-2.835097e+02
2.000000e-07	-6.531929e-06	-4.203933e-09	-4.602828e+01	-2.831470e+02
2.100000e-07	-6.508389e-06	-4.382303e-09	-4.586240e+01	-2.827661e+02
2.200000e-07	-6.483516e-06	-4.384597e-09	-4.568714e+01	-2.823690e+02
2.300000e-07	-6.457143e-06	-4.123778e-09	-4.550129e+01	-2.819569e+02
2.400000e-07	-6.429679e-06	-4.230841e-09	-4.530777e+01	-2.815311e+02
2.500000e-07	-6.401300e-06	-4.405228e-09	-4.510778e+01	-2.810919e+02
2.600000e-07	-6.371849e-06	-4.321882e-09	-4.490026e+01	-2.806397e+02
2.700000e-07	-6.341230e-06	-4.240074e-09	-4.468449e+01	-2.801740e+02
2.800000e-07	-6.309577e-06	-4.169397e-09	-4.446145e+01	-2.796946e+02
2.900000e-07	-6.277024e-06	-4.271734e-09	-4.423205e+01	-2.792008e+02
3.000000e-07	-6.243168e-06	-4.362709e-09	-4.399348e+01	-2.786921e+02
3.100000e-07	-6.207859e-06	-4.211128e-09	-4.374467e+01	-2.781681e+02
3.200000e-07	-6.171447e-06	-4.168877e-09	-4.348809e+01	-2.776284e+02
3.300000e-07	-6.133921e-06	-4.224995e-09	-4.322366e+01	-2.770730e+02
3.400000e-07	-6.095254e-06	-4.224844e-09	-4.295118e+01	-2.765021e+02
3.500000e-07	-6.055617e-06	-4.234664e-09	-4.267188e+01	-2.759162e+02
3.600000e-07	-6.014946e-06	-4.213789e-09	-4.238528e+01	-2.753158e+02
3.700000e-07	-5.972887e-06	-4.127525e-09	-4.208891e+01	-2.747017e+02
3.800000e-07	-5.929572e-06	-4.145002e-09	-4.178368e+01	-2.740744e+02
3.900000e-07	-5.885279e-06	-4.260874e-09	-4.147156e+01	-2.734346e+02
4.000000e-07	-5.839830e-06	-4.179612e-09	-4.115130e+01	-2.727825e+02
4.100000e-07	-5.793299e-06	-4.060910e-09	-4.082341e+01	-2.721181e+02
4.200000e-07	-5.745910e-06	-4.144445e-09	-4.048947e+01	-2.714408e+02
4.300000e-07	-5.697530e-06	-4.193728e-09	-4.014856e+01	-2.707500e+02
4.400000e-07	-5.647740e-06	-4.120503e-09	-3.979771e+01	-2.700441e+02
4.500000e-07	-5.596432e-06	-4.069668e-09	-3.943616e+01	-2.693215e+02
4.600000e-07	-5.544056e-06	-4.090006e-09	-3.906708e+01	-2.685802e+02
4.700000e-07	-5.490786e-06	-4.113004e-09	-3.869171e+01	-2.678180e+02
4.800000e-07	-5.436586e-06	-4.082620e-09	-3.830977e+01	-2.670327e+02
4.900000e-07	-5.381522e-06	-4.041494e-09	-3.792176e+01	-2.662221e+02
5.000000e-07	-5.325673e-06	-4.019732e-09	-3.752821e+01	-2.653843e+02
5.100000e-07	-5.268922e-06	-4.031007e-09	-3.712830e+01	-2.645179e+02
5.200000e-07	-5.211063e-06	-4.036254e-09	-3.672059e+01	-2.636218e+02
5.300000e-07	-5.152142e-06	-4.002761e-09	-3.630540e+01	-2.626956e+02
5.400000e-07	-5.092359e-06	-3.971221e-09	-3.588413e+01	-2.617393e+02
5.500000e-07	-5.031771e-06	-3.964332e-09	-3.545718e+01	-2.607536e+02
5.600000e-07	-4.970349e-06	-3.980683e-09	-3.502436e+01	-2.597395e+02
5.700000e-07	-4.908130e-06	-3.969792e-09	-3.458593e+01	-2.586985e+02
5.800000e-07	-4.845121e-06	-3.913786e-09	-3.414192e+01	-2.576319e+02
5.900000e-07	-4.781326e-06	-3.884643e-09	-3.369238e+01	-2.565414e+02
6.000000e-07	-4.716707e-06	-3.909572e-09	-3.323703e+01	-2.554282e+02
6.100000e-07	-4.651117e-06	-3.904673e-09	-3.277484e+01	-2.542932e+02
6.200000e-07	-4.584444e-06	-3.845032e-09	-3.230502e+01	-2.531367e+02
6.300000e-07	-4.516930e-06	-3.815217e-09	-3.182927e+01	-2.519585e+02
6.400000e-07	-4.448804e-06	-3.828092e-09	-3.134921e+01	-2.507574e+02
6.500000e-07	-4.379951e-06	-3.820732e-09	-3.086403e+01	-2.495319e+02
6.600000e-07	-4.310273e-06	-3.782783e-09	-3.037303e+01	-2.482794e+02
6.700000e-07	-4.239736e-06	-3.752364e-09	-2.987598e+01	-2.469973e+02
6.800000e-07	-4.168457e-06	-3.739233e-09	-2.937370e+01	-2.456820e+02
6.900000e-07	-4.096666e-06	-3.732395e-09	-2.886781e+01	-2.443303e+02
7.000000e-07	-4.024094e-06	-3.714407e-09	-2.835642e+01	-2.429387e+02
7.100000e-07	-3.950346e-06	-3.676527e-09	-2.783675e+01	-2.415040e+02
7.200000e-07	-3.875548e-06	-3.642215e-09	-2.730967e+01	-2.400234e+02
7.300000e-07	-3.800009e-06	-3.628548e-09	-2.677737e+01	-2.384948e+02
7.400000e-07	-3.723835e-06	-3.617653e-09	-2.624060e+01	-2.369166e+02
7.500000e-07	-3.646963e-06	-3.583245e-09	-2.569891e+01	-2.352879e+02
7.600000e-07	-3.569326e-06	-3.542700e-09	-2.515183e+01	-2.336085e+02
7.700000e-07	-3.490991e-06	-3.523580e-09	-2.459982e+01	-2.318788e+02
7.800000e-07	-3.412000e-06	-3.510149e-09	-2.404321e+01	-2.300993e+02
7.900000e-07	-3.332267e-06	-3.477403e-09	-2.348135e+01	-2.282707e+02
8.000000e-07	-3.251710e-06	-3.432432e-09	-2.291370e+01	-2.263938e+02
8.100000e-07	-3.170543e-06	-3.403170e-09	-2.234174e+01	-2.244685e+02
8.200000e-07	-3.088999e-06	-3.385105e-09	-2.176712e+01	-2.224944e+02
8.300000e-07	-3.006993e-06	-3.352411e-09	-2.118926e+01	-2.204701e+02
8.400000e-07	-2.924460e-06	-3.311104e-09	-2.060768e+01	-2.183930e+02
8.500000e-07	-2.841465e-06	-3.277326e-09	-2.002284e+01	-2.162596e+02
8.600000e-07	-2.758138e-06	-3.250098e-09	-1.943566e+01	-2.140650e+02
8.700000e-07	-2.674576e-06	-3.219623e-09	-1.884683e+01	-2.118035e+02
8.800000e-07	-2.590683e-06	-3.180522e-09	-1.825566e+01	-2.094685e+02
8.900000e-07	-2.506345e-06	-3.138629e-09	-1.766136e+01	-2.070527e+02
9.000000e-07	-2.421599e-06	-3.099930e-09	-1.706419e+01	-2.045486e+02
9.100000e-07	-2.336536e-06	-3.063603e-09	-1.646477e+01	-2.019487e+02
9.200000e-07	-2.251218e-06	-3.022413e-09	-1.586357e+01	-1.992460e+02
9.300000e-07	-2.165593e-06	-2.971991e-09	-1.526020e+01	-1.964340e+02
9.400000e-07	-2.079526e-06	-2.923855e-09	-1.465371e+01	-1.935072e+02
9.500000e-07	-1.993024e-06	-2.882662e-09	-1.404416e+01	-1.904609e+02
9.600000e-07	-1.906225e-06	-2.838564e-09	-1.343252e+01	-1.872917e+02
9.700000e-07	-1.819200e-06	-2.786353e-09	-1.281929e+01	-1.839967e+02
9.800000e-07	-1.731903e-06	-2.731690e-09	-1.220413e+01	-1.805735e+02
9.900000e-07	-1.644337e-06	-2.680607e-09	-1.158708e+01	-1.770199e+02
1.000000e-06	-1.556547e-06	-2.627765e-09	-1.096846e+01	-1.733330e+02
1.010000e-06	-1.468541e-06	-2.568810e-09	-1.034831e+01	-1.695087e+02
1.020000e-06	-1.380247e-06	-2.505843e-09	-9.726130e+00	-1.655411e+02
1.030000e-06	-1.291525e-06	-2.442728e-09	-9.100941e+00	-1.614219e+02
1.040000e-06	-1.202450e-06	-2.376948e-09	-8.473259e+00	-1.571393e+02
1.050000e-06	-1.113150e-06	-2.307127e-09	-7.843989e+00	-1.526782e+02
1.060000e-06	-1.023512e-06	-2.233721e-09	-7.212339e+00	-1.480193e+02
1.070000e-06	-9.334735e-07	-2.156867e-09	-6.577870e+00	-1.431396e+02
1.080000e-06	-8.431779e-07	-2.077497e-09	-5.941588e+00	-1.380123e+02
1.090000e-06	-7.527293e-07	-1.995155e-09	-5.304228e+00	-1.326071e+02
1.100000e-06	-6.621986e-07	-1.908774e-09	-4.666289e+00	-1.268916e+02
1.110000e-06	-5.716057e-07	-1.815396e-09	-4.027911e+00	-1.208319e+02
1.120000e-06	-4.808800e-07	-1.716560e-09	-3.388598e+00	-1.143942e+02
1.130000e-06	-3.900687e-07	-1.614436e-09	-2.748682e+00	-1.075461e+02
1.140000e-06	-2.991951e-07	-1.505904e-09	-2.108326e+00	-1.002586e+02
1.150000e-06	-2.082176e-07	-1.385118e-09	-1.467239e+00	-9.250759e+01
1.160000e-06	-1.172012e-07	-1.258034e-09	-8.258772e-01	-8.427575e+01
1.170000e-06	-2.619358e-08	-1.128005e-09	-1.845773e-01	-7.555390e+01
1.180000e-06	6.477702e-08	-9.870962e-10	4.564616e-01	-6.634247e+01
1.190000e-06	1.556814e-07	-8.358985e-10	1.097034e+00	-5.665254e+01
1.200000e-06	2.465677e-07	-6.786133e-10	1.737479e+00	-4.650650e+01
1.210000e-06	3.374015e-07	-5.182118e-10	2.377554e+00	-3.593823e+01
1.220000e-06	4.281297e-07	-3.543567e-10	3.016885e+00	-2.499294e+01
1.230000e-06	5.187904e-07	-1.833670e-10	3.655740e+00	-1.372638e+01
1.240000e-06	6.093323e-07	-5.983743e-12	4.293758e+00	-2.203752e+00
1.250000e-06	6.997096e-07	1.733717e-10	4.930616e+00	9.501955e+00
1.260000e-06	7.899436e-07	3.517057e-10	5.566464e+00	2.131186e+01
1.270000e-06	8.800348e-07	5.332340e-10	6.201306e+00	3.314343e+01
1.280000e-06	9.698477e-07	7.156729e-10	6.834187e+00	4.491287e+01
1.290000e-06	1.059366e-06	8.948786e-10	7.464990e+00	5.653758e+01
1.300000e-06	1.148645e-06	1.066765e-09	8.094112e+00	6.793855e+01
1.310000e-06	1.237600e-06	1.233688e-09	8.720950e+00	7.904264e+01
1.320000e-06	1.326222e-06	1.398595e-09	9.345434e+00	8.978456e+01
1.330000e-06	1.414596e-06	1.557806e-09	9.968178e+00	1.001085e+02
1.340000e-06	1.502673e-06	1.706226e-09	1.058883e+01	1.099695e+02
1.350000e-06	1.590420e-06	1.846545e-09	1.120715e+01	1.193339e+02
1.360000e-06	1.677901e-06	1.981908e-09	1.182360e+01	1.281800e+02
1.370000e-06	1.765195e-06	2.108242e-09	1.243873e+01	1.364977e+02
1.380000e-06	1.852337e-06	2.222956e-09	1.305279e+01	1.442878e+02
1.390000e-06	1.939219e-06	2.327836e-09	1.366502e+01	1.515610e+02
1.400000e-06	2.025810e-06	2.428554e-09	1.427519e+01	1.583368e+02
1.410000e-06	2.112088e-06	2.522228e-09	1.488317e+01	1.646414e+02
1.420000e-06	2.198033e-06	2.610320e-09	1.548879e+01	1.705065e+02
1.430000e-06	2.283609e-06	2.693565e-09	1.609182e+01	1.759670e+02
1.440000e-06	2.368843e-06	2.770637e-09	1.669243e+01	1.810594e+02
1.450000e-06	2.453770e-06	2.842093e-09	1.729088e+01	1.858206e+02
1.460000e-06	2.538291e-06	2.912360e-09	1.788648e+01	1.902858e+02
1.470000e-06	2.622317e-06	2.980569e-09	1.847858e+01	1.944876e+02
1.480000e-06	2.705929e-06	3.042036e-09	1.906776e+01	1.984555e+02
1.490000e-06	2.789210e-06	3.099732e-09	1.965462e+01	2.022147e+02
1.500000e-06	2.872128e-06	3.155695e-09	2.023891e+01	2.057863e+02
1.510000e-06	2.954596e-06	3.207646e-09	2.082003e+01	2.091873e+02
1.520000e-06	3.036480e-06	3.255329e-09	2.139704e+01	2.124308e+02
1.530000e-06	3.117713e-06	3.300182e-09	2.196946e+01	2.155265e+02
1.540000e-06	3.198385e-06	3.342443e-09	2.253793e+01	2.184815e+02
1.550000e-06	3.278532e-06	3.382404e-09	2.310270e+01	2.213008e+02
1.560000e-06	3.358074e-06	3.420326e-09	2.366321e+01	2.239884e+02
1.570000e-06	3.436934e-06	3.456306e-09	2.421891e+01	2.265476e+02
1.580000e-06	3.515092e-06	3.489911e-09	2.476966e+01	2.289820e+02
1.590000e-06	3.592565e-06	3.524892e-09	2.531558e+01	2.312956e+02
1.600000e-06	3.669370e-06	3.560548e-09	2.585681e+01	2.334934e+02
1.610000e-06	3.745473e-06	3.591340e-09	2.639307e+01	2.355816e+02
1.620000e-06	3.820823e-06	3.618815e-09	2.692404e+01	2.375673e+02
1.630000e-06	3.895463e-06	3.644525e-09	2.745001e+01	2.394586e+02
1.640000e-06	3.969305e-06	3.670114e-09	2.797034e+01	2.412645e+02
1.650000e-06	4.042127e-06	3.694140e-09	2.848349e+01	2.429938e+02
1.660000e-06	4.113983e-06	3.717024e-09	2.898984e+01	2.446557e+02
1.670000e-06	4.185168e-06	3.740942e-09	2.949145e+01	2.462586e+02
1.680000e-06	4.255715e-06	3.763132e-09	2.998858e+01	2.478100e+02
1.690000e-06	4.325515e-06	3.785933e-09	3.048044e+01	2.493164e+02
1.700000e-06	4.394604e-06	3.808311e-09	3.096728e+01	2.507825e+02
1.710000e-06	4.462991e-06	3.830174e-09	3.144918e+01	2.522119e+02
1.720000e-06	4.530668e-06	3.851600e-09	3.192608e+01	2.536062e+02
1.730000e-06	4.597685e-06	3.871272e-09	3.239832e+01	2.549659e+02
1.740000e-06	4.663931e-06	3.889272e-09	3.286514e+01	2.562902e+02
1.750000e-06	4.729187e-06	3.905500e-09	3.332497e+01	2.575772e+02
1.760000e-06	4.793402e-06	3.923876e-09	3.377748e+01	2.588248e+02
1.770000e-06	4.856811e-06	3.941016e-09	3.422430e+01	2.600304e+02
1.780000e-06	4.919535e-06	3.955467e-09	3.466629e+01	2.611918e+02
1.790000e-06	4.981452e-06	3.971350e-09	3.510260e+01	2.623072e+02
1.800000e-06	5.042551e-06	3.988659e-09	3.553314e+01	2.633756e+02
1.810000e-06	5.102868e-06	4.004997e-09	3.595817e+01	2.643970e+02
1.820000e-06	5.162432e-06	4.019797e-09	3.637791e+01	2.653723e+02
1.830000e-06	5.221182e-06	4.034336e-09	3.679189e+01	2.663038e+02
1.840000e-06	5.278870e-06	4.048985e-09	3.719840e+01	2.671942e+02
1.850000e-06	5.335387e-06	4.063769e-09	3.759666e+01	2.680474e+02
1.860000e-06	5.390935e-06	4.077142e-09	3.798809e+01	2.688676e+02
1.870000e-06	5.445659e-06	4.088546e-09	3.837371e+01	2.696590e+02
1.880000e-06	5.499471e-06	4.100289e-09	3.875290e+01	2.704258e+02
1.890000e-06	5.552271e-06	4.113598e-09	3.912497e+01	2.711720e+02
1.900000e-06	5.603953e-06	4.128269e-09	3.948916e+01	2.719005e+02
1.910000e-06	5.654424e-06	4.142478e-09	3.984481e+01	2.726137e+02
1.920000e-06	5.703549e-06	4.155523e-09	4.019098e+01	2.733126e+02
1.930000e-06	5.751408e-06	4.167211e-09	4.052822e+01	2.739975e+02
1.940000e-06	5.798266e-06	4.178352e-09	4.085841e+01	2.746675e+02
1.950000e-06	5.844149e-06	4.190024e-09	4.118174e+01	2.753210e+02
1.960000e-06	5.889060e-06	4.198128e-09	4.149820e+01	2.759556e+02
1.970000e-06	5.933060e-06	4.204417e-09	4.180826e+01	2.765687e+02
1.980000e-06	5.976105e-06	4.214327e-09	4.211158e+01	2.771574e+02
1.990000e-06	6.018017e-06	4.225349e-09	4.240692e+01	2.777191e+02
2.000000e-06	6.058610e-06	4.233552e-09	4.269296e+01	2.782516e+02
2.010000e-06	6.098092e-06	4.241362e-09	4.297119e+01	2.787536e+02
2.020000e-06	6.136600e-06	4.251403e-09	4.324254e+01	2.792243e+02
2.030000e-06	6.174026e-06	4.260884e-09	4.350626e+01	2.796641e+02
2.040000e-06	6.210456e-06	4.269652e-09	4.376298e+01	2.800743e+02
2.050000e-06	6.245933e-06	4.277700e-09	4.401297e+01	2.804573e+02
2.060000e-06	6.280357e-06	4.284738e-09	4.425554e+01	2.808159e+02
2.070000e-06	6.313477e-06	4.290878e-09	4.448892e+01	2.811537e+02
2.080000e-06	6.345354e-06	4.296108e-09	4.471355e+01	2.814746e+02
2.090000e-06	6.376227e-06	4.302940e-09	4.493110e+01	2.817824e+02
2.100000e-06	6.406070e-06	4.311458e-09	4.514140e+01	2.820807e+02
2.110000e-06	6.434918e-06	4.318931e-09	4.534468e+01	2.823726e+02
2.120000e-06	6.462767e-06	4.324922e-09	4.554092e+01	2.826605e+02
2.130000e-06	6.489566e-06	4.331875e-09	4.572977e+01	2.829459e+02
2.140000e-06	6.515088e-06	4.338994e-09	4.590961e+01	2.832291e+02
2.150000e-06	6.539270e-06	4.344585e-09	4.608002e+01	2.835097e+02
2.160000e-06	6.562345e-06	4.349254e-09	4.624261e+01	2.837863e+02
2.170000e-06	6.584338e-06	4.353316e-09	4.639759e+01	2.840566e+02
2.180000e-06	6.605226e-06	4.357795e-09	4.654478e+01	2.843179e+02
2.190000e-06	6.625095e-06	4.363382e-09	4.668479e+01	2.845671e+02
2.200000e-06	6.643962e-06	4.368052e-09	4.681774e+01	2.848009e+02
2.210000e-06	6.661656e-06	4.371060e-09	4.694242e+01	2.850165e+02
2.220000e-06	6.678125e-06	4.374933e-09	4.705848e+01	2.852114e+02
2.230000e-06	6.693365e-06	4.380498e-09	4.716587e+01	2.853839e+02
2.240000e-06	6.707319e-06	4.384601e-09	4.726419e+01	2.855329e+02
2.250000e-06	6.720021e-06	4.386472e-09	4.735370e+01	2.856585e+02
2.260000e-06	6.731413e-06	4.388940e-09	4.743398e+01	2.857616e+02
2.270000e-06	6.741278e-06	4.392056e-09	4.750350e+01	2.858439e+02
2.280000e-06	6.749687e-06	4.394853e-09	4.756275e+01	2.859080e+02
2.290000e-06	6.756985e-06	4.397122e-09	4.761417e+01	2.859570e+02
2.300000e-06	6.763152e-06	4.399040e-09	4.765764e+01	2.859941e+02
2.310000e-06	6.768135e-06	4.402337e-09	4.769275e+01	2.860228e+02
2.320000e-06	6.772113e-06	4.406210e-09	4.772078e+01	2.860462e+02
2.330000e-06	6.774953e-06	4.408645e-09	4.774079e+01	2.860670e+02
2.340000e-06	6.776330e-06	4.409228e-09	4.775050e+01	2.860870e+02
2.350000e-06	6.776366e-06	4.409992e-09	4.775075e+01	2.861075e+02
2.360000e-06	6.775334e-06	4.410623e-09	4.774348e+01	2.861284e+02
2.370000e-06	6.773206e-06	4.408094e-09	4.772848e+01	2.861491e+02
2.380000e-06	6.770038e-06	4.407373e-09	4.770616e+01	2.861676e+02
2.390000e-06	6.765948e-06	4.407198e-09	4.767734e+01	2.861813e+02
2.400000e-06	6.760819e-06	4.406806e-09	4.764119e+01	2.861870e+02
2.410000e-06	6.754346e-06	4.408430e-09	4.759558e+01	2.861810e+02
2.420000e-06	6.746576e-06	4.413404e-09	4.754083e+01	2.861592e+02
2.430000e-06	6.737854e-06	4.432379e-09	4.747936e+01	2.861179e+02
2.440000e-06	6.728146e-06	4.387391e-09	4.741096e+01	2.860534e+02
2.450000e-06	6.716990e-06	4.304155e-09	4.733235e+01	2.859626e+02
2.460000e-06	6.703827e-06	4.311988e-09	4.723959e+01	2.858431e+02
2.470000e-06	6.688766e-06	4.360555e-09	4.713346e+01	2.856933e+02
2.480000e-06	6.672726e-06	4.539454e-09	4.702043e+01	2.855123e+02
2.490000e-06	6.656328e-06	4.481136e-09	4.690488e+01	2.853001e+02
2.500000e-06	6.639097e-06	4.219618e-09	4.678346e+01	2.850576e+02
2.510000e-06	6.620341e-06	4.404936e-09	4.665129e+01	2.847862e+02
2.520000e-06	6.600543e-06	4.429372e-09	4.651178e+01	2.844877e+02
2.530000e-06	6.580031e-06	4.354621e-09	4.636724e+01	2.841645e+02
2.540000e-06	6.557950e-06	4.528295e-09	4.621165e+01	2.838190e+02
2.550000e-06	6.534337e-06	4.306010e-09	4.604525e+01	2.834535e+02
2.560000e-06	6.509957e-06	4.189009e-09	4.587346e+01	2.830701e+02
2.570000e-06	6.484690e-06	4.481236e-09	4.569541e+01	2.826706e+02
2.580000e-06	6.458243e-06	4.328705e-09	4.550905e+01	2.822565e+02
2.590000e-06	6.430677e-06	4.115962e-09	4.531480e+01	2.818286e+02
2.600000e-06	6.402169e-06	4.285290e-09	4.511391e+01	2.813875e+02
2.610000e-06	6.372639e-06	4.280256e-09	4.490582e+01	2.809333e+02
2.620000e-06	6.341583e-06	4.317234e-09	4.468698e+01	2.804656e+02
2.630000e-06	6.309160e-06	4.232300e-09	4.445850e+01	2.799841e+02
2.640000e-06	6.275773e-06	4.109073e-09	4.422324e+01	2.794882e+02
2.650000e-06	6.241237e-06	4.316958e-09	4.397987e+01	2.789772e+02
2.660000e-06	6.205602e-06	4.234765e-09	4.372877e+01	2.784509e+02
2.670000e-06	6.169094e-06	4.187899e-09	4.347151e+01	2.779089e+02
2.680000e-06	6.131270e-06	4.263548e-09	4.320498e+01	2.773512e+02
2.690000e-06	6.091890e-06	4.117234e-09	4.292748e+01	2.767780e+02
2.700000e-06	6.051477e-06	4.177167e-09	4.264270e+01	2.761899e+02
2.710000e-06	6.010257e-06	4.245418e-09	4.235224e+01	2.755875e+02
2.720000e-06	5.967878e-06	4.182964e-09	4.205361e+01	2.749713e+02
2.730000e-06	5.924323e-06	4.087077e-09	4.174669e+01	2.743422e+02
2.740000e-06	5.880009e-06	4.100055e-09	4.143442e+01	2.737005e+02
2.750000e-06	5.834812e-06	4.253534e-09	4.111594e+01	2.730466e+02
2.760000e-06	5.788434e-06	4.119404e-09	4.078913e+01	2.723803e+02
2.770000e-06	5.740909e-06	4.040652e-09	4.045424e+01	2.717012e+02
2.780000e-06	5.692394e-06	4.124221e-09	4.011237e+01	2.710081e+02
2.790000e-06	5.642853e-06	4.125487e-09	3.976327e+01	2.702999e+02
2.800000e-06	5.592147e-06	4.111500e-09	3.940596e+01	2.695747e+02
2.810000e-06	5.540440e-06	4.025602e-09	3.904160e+01	2.688304e+02
2.820000e-06	5.487813e-06	4.066735e-09	3.867075e+01	2.680649e+02
2.830000e-06	5.433906e-06	4.079271e-09	3.829089e+01	2.672760e+02
2.840000e-06	5.378619e-06	4.024227e-09	3.790130e+01	2.664614e+02
2.850000e-06	5.322418e-06	4.038617e-09	3.750527e+01	2.656195e+02
2.860000e-06	5.265475e-06	4.003423e-09	3.710401e+01	2.647487e+02
2.870000e-06	5.207597e-06	4.006053e-09	3.669617e+01	2.638481e+02
2.880000e-06	5.148834e-06	3.991056e-09	3.628208e+01	2.629174e+02
2.890000e-06	5.089350e-06	3.987677e-09	3.586292e+01	2.619566e+02
2.900000e-06	5.029161e-06	3.956057e-09	3.543879e+01	2.609666e+02
2.910000e-06	4.968090e-06	3.911693e-09	3.500844e+01	2.599485e+02
2.920000e-06	4.905920e-06	3.951833e-09	3.457035e+01	2.589035e+02
2.930000e-06	4.842682e-06	3.935494e-09	3.412473e+01	2.578333e+02
2.940000e-06	4.778549e-06	3.884406e-09	3.367281e+01	2.567394e+02
2.950000e-06	4.713671e-06	3.855329e-09	3.321564e+01	2.556229e+02
