# Temperatura_=_20.0
# Concentracion g/m^3_=_9000.0
# C_Vs_to_Am_M_A/Vsm_=_65563218390.804596
# pendiente_HvsI_1/m_=_3716.3
# ordenada_HvsI_A/m_=_1297.0
# frecuencia_Hz_=_212901.84656367308

Tiempo_(s)	Campo_(V.s)	Magnetizacion_(V.s)	Campo_(kA/m)	Magnetizacion_(A/m)
0.000000e+00	-6.785419e-06	-4.383342e-09	-4.769620e+01	-2.879588e+02
1.000000e-08	-6.785117e-06	-4.382473e-09	-4.769408e+01	-2.879514e+02
2.000000e-08	-6.783534e-06	-4.385758e-09	-4.768295e+01	-2.879371e+02
3.000000e-08	-6.780536e-06	-4.390105e-09	-4.766187e+01	-2.879134e+02
4.000000e-08	-6.776424e-06	-4.391445e-09	-4.763297e+01	-2.878777e+02
5.000000e-08	-6.771319e-06	-4.389024e-09	-4.759708e+01	-2.878276e+02
6.000000e-08	-6.765131e-06	-4.384978e-09	-4.755359e+01	-2.877606e+02
7.000000e-08	-6.757871e-06	-4.380726e-09	-4.750256e+01	-2.876751e+02
8.000000e-08	-6.749651e-06	-4.367682e-09	-4.744478e+01	-2.875698e+02
9.000000e-08	-6.740115e-06	-4.359406e-09	-4.737775e+01	-2.874445e+02
1.000000e-07	-6.728860e-06	-4.420820e-09	-4.729864e+01	-2.872996e+02
1.100000e-07	-6.715964e-06	-4.460498e-09	-4.720799e+01	-2.871366e+02
1.200000e-07	-6.701453e-06	-4.437882e-09	-4.710598e+01	-2.869575e+02
1.300000e-07	-6.685429e-06	-4.350215e-09	-4.699335e+01	-2.867647e+02
1.400000e-07	-6.668320e-06	-4.216003e-09	-4.687309e+01	-2.865613e+02
1.500000e-07	-6.650413e-06	-4.368896e-09	-4.674721e+01	-2.863501e+02
1.600000e-07	-6.631625e-06	-4.513399e-09	-4.661515e+01	-2.861338e+02
1.700000e-07	-6.612043e-06	-4.328108e-09	-4.647750e+01	-2.859146e+02
1.800000e-07	-6.591465e-06	-4.298943e-09	-4.633285e+01	-2.856939e+02
1.900000e-07	-6.569510e-06	-4.306032e-09	-4.617853e+01	-2.854721e+02
2.000000e-07	-6.546622e-06	-4.286194e-09	-4.601764e+01	-2.852487e+02
2.100000e-07	-6.523009e-06	-4.484048e-09	-4.585166e+01	-2.850220e+02
2.200000e-07	-6.498040e-06	-4.381560e-09	-4.567615e+01	-2.847893e+02
2.300000e-07	-6.471539e-06	-4.155687e-09	-4.548987e+01	-2.845470e+02
2.400000e-07	-6.443925e-06	-4.341988e-09	-4.529577e+01	-2.842909e+02
2.500000e-07	-6.415360e-06	-4.458077e-09	-4.509497e+01	-2.840162e+02
2.600000e-07	-6.385738e-06	-4.341652e-09	-4.488675e+01	-2.837182e+02
2.700000e-07	-6.354903e-06	-4.243699e-09	-4.467001e+01	-2.833922e+02
2.800000e-07	-6.323041e-06	-4.214824e-09	-4.444604e+01	-2.830342e+02
2.900000e-07	-6.290233e-06	-4.351608e-09	-4.421543e+01	-2.826412e+02
3.000000e-07	-6.256091e-06	-4.374959e-09	-4.397544e+01	-2.822108e+02
3.100000e-07	-6.220573e-06	-4.214153e-09	-4.372578e+01	-2.817423e+02
3.200000e-07	-6.183923e-06	-4.211328e-09	-4.346815e+01	-2.812359e+02
3.300000e-07	-6.146131e-06	-4.273305e-09	-4.320251e+01	-2.806934e+02
3.400000e-07	-6.107209e-06	-4.278403e-09	-4.292891e+01	-2.801172e+02
3.500000e-07	-6.067385e-06	-4.278332e-09	-4.264898e+01	-2.795112e+02
3.600000e-07	-6.026426e-06	-4.228251e-09	-4.236107e+01	-2.788795e+02
3.700000e-07	-5.983972e-06	-4.159957e-09	-4.206265e+01	-2.782267e+02
3.800000e-07	-5.940375e-06	-4.225853e-09	-4.175620e+01	-2.775573e+02
3.900000e-07	-5.895895e-06	-4.306536e-09	-4.144354e+01	-2.768753e+02
4.000000e-07	-5.850297e-06	-4.169193e-09	-4.112302e+01	-2.761841e+02
4.100000e-07	-5.803664e-06	-4.097121e-09	-4.079523e+01	-2.754862e+02
4.200000e-07	-5.756177e-06	-4.213925e-09	-4.046143e+01	-2.747828e+02
4.300000e-07	-5.707629e-06	-4.227345e-09	-4.012018e+01	-2.740739e+02
4.400000e-07	-5.657717e-06	-4.131859e-09	-3.976933e+01	-2.733584e+02
4.500000e-07	-5.606426e-06	-4.101388e-09	-3.940879e+01	-2.726338e+02
4.600000e-07	-5.553979e-06	-4.143324e-09	-3.904013e+01	-2.718969e+02
4.700000e-07	-5.500574e-06	-4.149415e-09	-3.866474e+01	-2.711437e+02
4.800000e-07	-5.446262e-06	-4.104955e-09	-3.828297e+01	-2.703698e+02
4.900000e-07	-5.391071e-06	-4.069005e-09	-3.789502e+01	-2.695708e+02
5.000000e-07	-5.335045e-06	-4.060030e-09	-3.750120e+01	-2.687425e+02
5.100000e-07	-5.277880e-06	-4.077197e-09	-3.709938e+01	-2.678815e+02
5.200000e-07	-5.219531e-06	-4.070264e-09	-3.668923e+01	-2.669850e+02
5.300000e-07	-5.160298e-06	-4.032526e-09	-3.627287e+01	-2.660513e+02
5.400000e-07	-5.100245e-06	-4.007811e-09	-3.585074e+01	-2.650799e+02
5.500000e-07	-5.039391e-06	-4.012047e-09	-3.542299e+01	-2.640712e+02
5.600000e-07	-4.977785e-06	-4.027592e-09	-3.498994e+01	-2.630267e+02
5.700000e-07	-4.915427e-06	-3.998650e-09	-3.455161e+01	-2.619487e+02
5.800000e-07	-4.852294e-06	-3.942712e-09	-3.410784e+01	-2.608400e+02
5.900000e-07	-4.788343e-06	-3.932760e-09	-3.365831e+01	-2.597038e+02
6.000000e-07	-4.723382e-06	-3.955855e-09	-3.320169e+01	-2.585429e+02
6.100000e-07	-4.657333e-06	-3.926120e-09	-3.273742e+01	-2.573600e+02
6.200000e-07	-4.590354e-06	-3.867322e-09	-3.226661e+01	-2.561570e+02
6.300000e-07	-4.522606e-06	-3.863897e-09	-3.179039e+01	-2.549348e+02
6.400000e-07	-4.454165e-06	-3.878521e-09	-3.130930e+01	-2.536933e+02
6.500000e-07	-4.384967e-06	-3.853310e-09	-3.082290e+01	-2.524313e+02
6.600000e-07	-4.314939e-06	-3.811715e-09	-3.033065e+01	-2.511464e+02
6.700000e-07	-4.244179e-06	-3.792789e-09	-2.983326e+01	-2.498353e+02
6.800000e-07	-4.172893e-06	-3.786094e-09	-2.933218e+01	-2.484939e+02
6.900000e-07	-4.100999e-06	-3.770737e-09	-2.882682e+01	-2.471177e+02
7.000000e-07	-4.028060e-06	-3.743068e-09	-2.831412e+01	-2.457018e+02
7.100000e-07	-3.953925e-06	-3.705696e-09	-2.779301e+01	-2.442417e+02
7.200000e-07	-3.878924e-06	-3.680629e-09	-2.726581e+01	-2.427331e+02
7.300000e-07	-3.803294e-06	-3.671868e-09	-2.673419e+01	-2.411726e+02
7.400000e-07	-3.726943e-06	-3.653222e-09	-2.619750e+01	-2.395576e+02
7.500000e-07	-3.649822e-06	-3.612649e-09	-2.565540e+01	-2.378865e+02
7.600000e-07	-3.571870e-06	-3.577599e-09	-2.510746e+01	-2.361590e+02
7.700000e-07	-3.493070e-06	-3.563887e-09	-2.455355e+01	-2.343753e+02
7.800000e-07	-3.413606e-06	-3.542209e-09	-2.399499e+01	-2.325367e+02
7.900000e-07	-3.333489e-06	-3.497264e-09	-2.343182e+01	-2.306448e+02
8.000000e-07	-3.252712e-06	-3.454535e-09	-2.286402e+01	-2.287014e+02
8.100000e-07	-3.171401e-06	-3.433930e-09	-2.229247e+01	-2.267080e+02
8.200000e-07	-3.089649e-06	-3.412815e-09	-2.171782e+01	-2.246657e+02
8.300000e-07	-3.007403e-06	-3.371167e-09	-2.113970e+01	-2.225746e+02
8.400000e-07	-2.924637e-06	-3.330225e-09	-2.055792e+01	-2.204336e+02
8.500000e-07	-2.841495e-06	-3.303338e-09	-1.997349e+01	-2.182403e+02
8.600000e-07	-2.758050e-06	-3.275909e-09	-1.938694e+01	-2.159909e+02
8.700000e-07	-2.674307e-06	-3.238886e-09	-1.879829e+01	-2.136803e+02
8.800000e-07	-2.590129e-06	-3.195639e-09	-1.820659e+01	-2.113018e+02
8.900000e-07	-2.505450e-06	-3.154365e-09	-1.761135e+01	-2.088483e+02
9.000000e-07	-2.420443e-06	-3.116722e-09	-1.701383e+01	-2.063116e+02
9.100000e-07	-2.335159e-06	-3.076763e-09	-1.641434e+01	-2.036835e+02
9.200000e-07	-2.249569e-06	-3.031611e-09	-1.581271e+01	-2.009558e+02
9.300000e-07	-2.163628e-06	-2.982532e-09	-1.520862e+01	-1.981210e+02
9.400000e-07	-2.077327e-06	-2.938804e-09	-1.460199e+01	-1.951723e+02
9.500000e-07	-1.990674e-06	-2.897570e-09	-1.399288e+01	-1.921039e+02
9.600000e-07	-1.903711e-06	-2.849274e-09	-1.338160e+01	-1.889111e+02
9.700000e-07	-1.816531e-06	-2.795950e-09	-1.276880e+01	-1.855901e+02
9.800000e-07	-1.729106e-06	-2.743448e-09	-1.215427e+01	-1.821380e+02
9.900000e-07	-1.641403e-06	-2.691880e-09	-1.153778e+01	-1.785519e+02
1.000000e-06	-1.553410e-06	-2.632912e-09	-1.091926e+01	-1.748288e+02
1.010000e-06	-1.465128e-06	-2.568456e-09	-1.029871e+01	-1.709646e+02
1.020000e-06	-1.376523e-06	-2.507058e-09	-9.675886e+00	-1.669537e+02
1.030000e-06	-1.287468e-06	-2.447568e-09	-9.049896e+00	-1.627877e+02
1.040000e-06	-1.197932e-06	-2.381031e-09	-8.420530e+00	-1.584555e+02
1.050000e-06	-1.108032e-06	-2.309218e-09	-7.788601e+00	-1.539423e+02
1.060000e-06	-1.017888e-06	-2.235738e-09	-7.154957e+00	-1.492290e+02
1.070000e-06	-9.275626e-07	-2.161078e-09	-6.520041e+00	-1.442929e+02
1.080000e-06	-8.370475e-07	-2.081384e-09	-5.883790e+00	-1.391070e+02
1.090000e-06	-7.463633e-07	-1.995274e-09	-5.246351e+00	-1.336410e+02
1.100000e-06	-6.555643e-07	-1.906652e-09	-4.608105e+00	-1.278623e+02
1.110000e-06	-5.646786e-07	-1.815644e-09	-3.969249e+00	-1.217363e+02
1.120000e-06	-4.737492e-07	-1.720709e-09	-3.330087e+00	-1.152287e+02
1.130000e-06	-3.828009e-07	-1.618552e-09	-2.690792e+00	-1.083067e+02
1.140000e-06	-2.917711e-07	-1.506124e-09	-2.050923e+00	-1.009406e+02
1.150000e-06	-2.006428e-07	-1.385564e-09	-1.410362e+00	-9.310592e+01
1.160000e-06	-1.095052e-07	-1.263323e-09	-7.697363e-01	-8.478500e+01
1.170000e-06	-1.837513e-08	-1.132583e-09	-1.291628e-01	-7.596866e+01
1.180000e-06	7.271445e-08	-9.873512e-10	5.111258e-01	-6.665762e+01
1.190000e-06	1.637651e-07	-8.338853e-10	1.151141e+00	-5.686354e+01
1.200000e-06	2.548071e-07	-6.770562e-10	1.791095e+00	-4.660969e+01
1.210000e-06	3.457842e-07	-5.163512e-10	2.430593e+00	-3.593118e+01
1.220000e-06	4.366702e-07	-3.488334e-10	3.069450e+00	-2.487465e+01
1.230000e-06	5.274925e-07	-1.750033e-10	3.707860e+00	-1.349752e+01
1.240000e-06	6.182249e-07	1.695997e-12	4.345639e+00	-1.866725e+00
1.250000e-06	7.088335e-07	1.783636e-10	4.982546e+00	9.942976e+00
1.260000e-06	7.993200e-07	3.549474e-10	5.618596e+00	2.185102e+01
1.270000e-06	8.896604e-07	5.352068e-10	6.253618e+00	3.377339e+01
1.280000e-06	9.798225e-07	7.173190e-10	6.887388e+00	4.562504e+01
1.290000e-06	1.069681e-06	8.980890e-10	7.519020e+00	5.732249e+01
1.300000e-06	1.159242e-06	1.071033e-09	8.148566e+00	6.878622e+01
1.310000e-06	1.248539e-06	1.238838e-09	8.776252e+00	7.994300e+01
1.320000e-06	1.337540e-06	1.405440e-09	9.401862e+00	9.072783e+01
1.330000e-06	1.426244e-06	1.565361e-09	1.002538e+01	1.010856e+02
1.340000e-06	1.514580e-06	1.713913e-09	1.064631e+01	1.109723e+02
1.350000e-06	1.602508e-06	1.852409e-09	1.126438e+01	1.203556e+02
1.360000e-06	1.690093e-06	1.986969e-09	1.188003e+01	1.292152e+02
1.370000e-06	1.777457e-06	2.112529e-09	1.249413e+01	1.375423e+02
1.380000e-06	1.864638e-06	2.227363e-09	1.310695e+01	1.453393e+02
1.390000e-06	1.951652e-06	2.333747e-09	1.371859e+01	1.526181e+02
1.400000e-06	2.038509e-06	2.433683e-09	1.432913e+01	1.593993e+02
1.410000e-06	2.125081e-06	2.526530e-09	1.493766e+01	1.657099e+02
1.420000e-06	2.211229e-06	2.613722e-09	1.554322e+01	1.715821e+02
1.430000e-06	2.296974e-06	2.697273e-09	1.614593e+01	1.770509e+02
1.440000e-06	2.382377e-06	2.773905e-09	1.674625e+01	1.821530e+02
1.450000e-06	2.467425e-06	2.845919e-09	1.734407e+01	1.869248e+02
1.460000e-06	2.552095e-06	2.917285e-09	1.793923e+01	1.914008e+02
1.470000e-06	2.636312e-06	2.984893e-09	1.853122e+01	1.956134e+02
1.480000e-06	2.720055e-06	3.045973e-09	1.911987e+01	1.995909e+02
1.490000e-06	2.803402e-06	3.104465e-09	1.970573e+01	2.033582e+02
1.500000e-06	2.886382e-06	3.161380e-09	2.028901e+01	2.069358e+02
1.510000e-06	2.968971e-06	3.212707e-09	2.086955e+01	2.103405e+02
1.520000e-06	3.051025e-06	3.260187e-09	2.144632e+01	2.135851e+02
1.530000e-06	3.132464e-06	3.305575e-09	2.201878e+01	2.166797e+02
1.540000e-06	3.213274e-06	3.346156e-09	2.258680e+01	2.196318e+02
1.550000e-06	3.293489e-06	3.384486e-09	2.315065e+01	2.224471e+02
1.560000e-06	3.373190e-06	3.423306e-09	2.371090e+01	2.251305e+02
1.570000e-06	3.452279e-06	3.461498e-09	2.426682e+01	2.276863e+02
1.580000e-06	3.530609e-06	3.496016e-09	2.481742e+01	2.301192e+02
1.590000e-06	3.608173e-06	3.529701e-09	2.536264e+01	2.324343e+02
1.600000e-06	3.685066e-06	3.563605e-09	2.590314e+01	2.346376e+02
1.610000e-06	3.761324e-06	3.595165e-09	2.643917e+01	2.367359e+02
1.620000e-06	3.836852e-06	3.625252e-09	2.697008e+01	2.387370e+02
1.630000e-06	3.911599e-06	3.651575e-09	2.749549e+01	2.406491e+02
1.640000e-06	3.985514e-06	3.675861e-09	2.801505e+01	2.424810e+02
1.650000e-06	4.058529e-06	3.699766e-09	2.852829e+01	2.442412e+02
1.660000e-06	4.130611e-06	3.724098e-09	2.903497e+01	2.459381e+02
1.670000e-06	4.201969e-06	3.747636e-09	2.953656e+01	2.475791e+02
1.680000e-06	4.272718e-06	3.769697e-09	3.003387e+01	2.491707e+02
1.690000e-06	4.342706e-06	3.794119e-09	3.052584e+01	2.507179e+02
1.700000e-06	4.411940e-06	3.818080e-09	3.101250e+01	2.522245e+02
1.710000e-06	4.480449e-06	3.840365e-09	3.149406e+01	2.536925e+02
1.720000e-06	4.548263e-06	3.860683e-09	3.197074e+01	2.551229e+02
1.730000e-06	4.615409e-06	3.879043e-09	3.244272e+01	2.565153e+02
1.740000e-06	4.681775e-06	3.896329e-09	3.290922e+01	2.578683e+02
1.750000e-06	4.747158e-06	3.912766e-09	3.336882e+01	2.591800e+02
1.760000e-06	4.811477e-06	3.929987e-09	3.382093e+01	2.604484e+02
1.770000e-06	4.874942e-06	3.946247e-09	3.426703e+01	2.616713e+02
1.780000e-06	4.937763e-06	3.961477e-09	3.470862e+01	2.628472e+02
1.790000e-06	4.999806e-06	3.977139e-09	3.514473e+01	2.639752e+02
1.800000e-06	5.060984e-06	3.993042e-09	3.557477e+01	2.650552e+02
1.810000e-06	5.121401e-06	4.008381e-09	3.599945e+01	2.660884e+02
1.820000e-06	5.181101e-06	4.022537e-09	3.641910e+01	2.670767e+02
1.830000e-06	5.239950e-06	4.036743e-09	3.683276e+01	2.680230e+02
1.840000e-06	5.297682e-06	4.051536e-09	3.723857e+01	2.689308e+02
1.850000e-06	5.354262e-06	4.064932e-09	3.763628e+01	2.698044e+02
1.860000e-06	5.409854e-06	4.077161e-09	3.802705e+01	2.706481e+02
1.870000e-06	5.464589e-06	4.090184e-09	3.841179e+01	2.714660e+02
1.880000e-06	5.518432e-06	4.104135e-09	3.879027e+01	2.722620e+02
1.890000e-06	5.571266e-06	4.118051e-09	3.916165e+01	2.730393e+02
1.900000e-06	5.622993e-06	4.131421e-09	3.952525e+01	2.738004e+02
1.910000e-06	5.673446e-06	4.145510e-09	3.987990e+01	2.745467e+02
1.920000e-06	5.722537e-06	4.158756e-09	4.022497e+01	2.752786e+02
1.930000e-06	5.770399e-06	4.169508e-09	4.056140e+01	2.759956e+02
1.940000e-06	5.817267e-06	4.179713e-09	4.089085e+01	2.766964e+02
1.950000e-06	5.863151e-06	4.190591e-09	4.121337e+01	2.773790e+02
1.960000e-06	5.908026e-06	4.200574e-09	4.152881e+01	2.780410e+02
1.970000e-06	5.951958e-06	4.209753e-09	4.183762e+01	2.786799e+02
1.980000e-06	5.994916e-06	4.221475e-09	4.213958e+01	2.792933e+02
1.990000e-06	6.036653e-06	4.232855e-09	4.243296e+01	2.798791e+02
2.000000e-06	6.077123e-06	4.240914e-09	4.271743e+01	2.804359e+02
2.010000e-06	6.116552e-06	4.248661e-09	4.299459e+01	2.809630e+02
2.020000e-06	6.155021e-06	4.257252e-09	4.326499e+01	2.814606e+02
2.030000e-06	6.192514e-06	4.265376e-09	4.352854e+01	2.819295e+02
2.040000e-06	6.229008e-06	4.273062e-09	4.378507e+01	2.823717e+02
2.050000e-06	6.264549e-06	4.281008e-09	4.403489e+01	2.827895e+02
2.060000e-06	6.298951e-06	4.290392e-09	4.427671e+01	2.831858e+02
2.070000e-06	6.332006e-06	4.299332e-09	4.450906e+01	2.835636e+02
2.080000e-06	6.363864e-06	4.307191e-09	4.473300e+01	2.839260e+02
2.090000e-06	6.394727e-06	4.314558e-09	4.494994e+01	2.842757e+02
2.100000e-06	6.424577e-06	4.322487e-09	4.515976e+01	2.846151e+02
2.110000e-06	6.453422e-06	4.329728e-09	4.536252e+01	2.849458e+02
2.120000e-06	6.481338e-06	4.335959e-09	4.555874e+01	2.852685e+02
2.130000e-06	6.508178e-06	4.342085e-09	4.574741e+01	2.855832e+02
2.140000e-06	6.533656e-06	4.347119e-09	4.592650e+01	2.858891e+02
2.150000e-06	6.557782e-06	4.352196e-09	4.609609e+01	2.861846e+02
2.160000e-06	6.580743e-06	4.356774e-09	4.625749e+01	2.864676e+02
2.170000e-06	6.602600e-06	4.362180e-09	4.641112e+01	2.867356e+02
2.180000e-06	6.623394e-06	4.367649e-09	4.655729e+01	2.869860e+02
2.190000e-06	6.643248e-06	4.373318e-09	4.669684e+01	2.872163e+02
2.200000e-06	6.662121e-06	4.378508e-09	4.682951e+01	2.874243e+02
2.210000e-06	6.679784e-06	4.381187e-09	4.695367e+01	2.876087e+02
2.220000e-06	6.696148e-06	4.383598e-09	4.706869e+01	2.877684e+02
2.230000e-06	6.711226e-06	4.386234e-09	4.717468e+01	2.879035e+02
2.240000e-06	6.725049e-06	4.388355e-09	4.727184e+01	2.880147e+02
2.250000e-06	6.737671e-06	4.389596e-09	4.736057e+01	2.881037e+02
2.260000e-06	6.749043e-06	4.391860e-09	4.744051e+01	2.881727e+02
2.270000e-06	6.758885e-06	4.395371e-09	4.750968e+01	2.882243e+02
2.280000e-06	6.767211e-06	4.399614e-09	4.756821e+01	2.882617e+02
2.290000e-06	6.774392e-06	4.402639e-09	4.761869e+01	2.882879e+02
2.300000e-06	6.780476e-06	4.405757e-09	4.766145e+01	2.883056e+02
2.310000e-06	6.785407e-06	4.409759e-09	4.769611e+01	2.883173e+02
2.320000e-06	6.789297e-06	4.411892e-09	4.772346e+01	2.883246e+02
2.330000e-06	6.791983e-06	4.411228e-09	4.774234e+01	2.883286e+02
2.340000e-06	6.793180e-06	4.411826e-09	4.775075e+01	2.883294e+02
2.350000e-06	6.793106e-06	4.414769e-09	4.775023e+01	2.883263e+02
2.360000e-06	6.792001e-06	4.415129e-09	4.774247e+01	2.883180e+02
2.370000e-06	6.789832e-06	4.411148e-09	4.772722e+01	2.883024e+02
2.380000e-06	6.786584e-06	4.409839e-09	4.770439e+01	2.882771e+02
2.390000e-06	6.782369e-06	4.411110e-09	4.767476e+01	2.882394e+02
2.400000e-06	6.777031e-06	4.412150e-09	4.763724e+01	2.881869e+02
2.410000e-06	6.770274e-06	4.411493e-09	4.758974e+01	2.881172e+02
2.420000e-06	6.762349e-06	4.414879e-09	4.753404e+01	2.880288e+02
2.430000e-06	6.753509e-06	4.433705e-09	4.747189e+01	2.879205e+02
2.440000e-06	6.743672e-06	4.364122e-09	4.740275e+01	2.877922e+02
2.450000e-06	6.732341e-06	4.290197e-09	4.732310e+01	2.876445e+02
2.460000e-06	6.718914e-06	4.297498e-09	4.722872e+01	2.874789e+02
2.470000e-06	6.703647e-06	4.385483e-09	4.712140e+01	2.872976e+02
2.480000e-06	6.687494e-06	4.570754e-09	4.700786e+01	2.871031e+02
2.490000e-06	6.670976e-06	4.417314e-09	4.689176e+01	2.868983e+02
2.500000e-06	6.653512e-06	4.211418e-09	4.676900e+01	2.866862e+02
2.510000e-06	6.634559e-06	4.422601e-09	4.663577e+01	2.864693e+02
2.520000e-06	6.614786e-06	4.407115e-09	4.649678e+01	2.862498e+02
2.530000e-06	6.594329e-06	4.396021e-09	4.635298e+01	2.860289e+02
2.540000e-06	6.572194e-06	4.498538e-09	4.619739e+01	2.858069e+02
2.550000e-06	6.548505e-06	4.217717e-09	4.603087e+01	2.855831e+02
2.560000e-06	6.524000e-06	4.256209e-09	4.585863e+01	2.853557e+02
2.570000e-06	6.498507e-06	4.535918e-09	4.567943e+01	2.851218e+02
2.580000e-06	6.471855e-06	4.299608e-09	4.549209e+01	2.848778e+02
2.590000e-06	6.444120e-06	4.196471e-09	4.529713e+01	2.846192e+02
2.600000e-06	6.415411e-06	4.397280e-09	4.509533e+01	2.843413e+02
2.610000e-06	6.385619e-06	4.390193e-09	4.488591e+01	2.840393e+02
2.620000e-06	6.354314e-06	4.408262e-09	4.466587e+01	2.837088e+02
2.630000e-06	6.321682e-06	4.260192e-09	4.443649e+01	2.833458e+02
2.640000e-06	6.288077e-06	4.225973e-09	4.420027e+01	2.829472e+02
2.650000e-06	6.253308e-06	4.422716e-09	4.395587e+01	2.825111e+02
2.660000e-06	6.217466e-06	4.291116e-09	4.370393e+01	2.820369e+02
2.670000e-06	6.180688e-06	4.297541e-09	4.344541e+01	2.815250e+02
2.680000e-06	6.142568e-06	4.317219e-09	4.317746e+01	2.809771e+02
2.690000e-06	6.102995e-06	4.190777e-09	4.289929e+01	2.803963e+02
2.700000e-06	6.062366e-06	4.305182e-09	4.261370e+01	2.797861e+02
2.710000e-06	6.020860e-06	4.332512e-09	4.232195e+01	2.791510e+02
2.720000e-06	5.978224e-06	4.242951e-09	4.202225e+01	2.784954e+02
2.730000e-06	5.934564e-06	4.153996e-09	4.171535e+01	2.778238e+02
2.740000e-06	5.890091e-06	4.237148e-09	4.140274e+01	2.771403e+02
2.750000e-06	5.844549e-06	4.346161e-09	4.108262e+01	2.764480e+02
2.760000e-06	5.797854e-06	4.155228e-09	4.075438e+01	2.757492e+02
2.770000e-06	5.750160e-06	4.137989e-09	4.041913e+01	2.750450e+02
2.780000e-06	5.701487e-06	4.229747e-09	4.007700e+01	2.743352e+02
2.790000e-06	5.651678e-06	4.215534e-09	3.972688e+01	2.736185e+02
2.800000e-06	5.600727e-06	4.171080e-09	3.936873e+01	2.728923e+02
2.810000e-06	5.548873e-06	4.112375e-09	3.900424e+01	2.721532e+02
2.820000e-06	5.496062e-06	4.181913e-09	3.863302e+01	2.713971e+02
2.830000e-06	5.441939e-06	4.154963e-09	3.825258e+01	2.706197e+02
2.840000e-06	5.386535e-06	4.109114e-09	3.786314e+01	2.698166e+02
2.850000e-06	5.330201e-06	4.123333e-09	3.746715e+01	2.689836e+02
2.860000e-06	5.273084e-06	4.092667e-09	3.706566e+01	2.681174e+02
2.870000e-06	5.215131e-06	4.095248e-09	3.665830e+01	2.672154e+02
2.880000e-06	5.156299e-06	4.074545e-09	3.624476e+01	2.662761e+02
2.890000e-06	5.096688e-06	4.069496e-09	3.582574e+01	2.652990e+02
2.900000e-06	5.036319e-06	4.023937e-09	3.540139e+01	2.642848e+02
2.910000e-06	4.974997e-06	4.009156e-09	3.497034e+01	2.632351e+02
2.920000e-06	4.912571e-06	4.051295e-09	3.453154e+01	2.621523e+02
2.930000e-06	4.849131e-06	4.010049e-09	3.408561e+01	2.610393e+02
2.940000e-06	4.784858e-06	3.956941e-09	3.363382e+01	2.598992e+02
2.950000e-06	4.719813e-06	3.953006e-09	3.317660e+01	2.587349e+02
