# Temperatura_=_20.0
# Concentracion g/m^3_=_9000.0
# C_Vs_to_Am_M_A/Vsm_=_65563218390.804596
# pendiente_HvsI_1/m_=_3716.3
# ordenada_HvsI_A/m_=_1297.0
# frecuencia_Hz_=_212902.2783418375

Tiempo_(s)	Campo_(V.s)	Magnetizacion_(V.s)	Campo_(kA/m)	Magnetizacion_(A/m)
0.000000e+00	-6.765666e-06	-4.381069e-09	-4.769311e+01	-2.873770e+02
1.000000e-08	-6.765400e-06	-4.377212e-09	-4.769124e+01	-2.873994e+02
2.000000e-08	-6.763846e-06	-4.379050e-09	-4.768028e+01	-2.874083e+02
3.000000e-08	-6.760945e-06	-4.382455e-09	-4.765983e+01	-2.874017e+02
4.000000e-08	-6.757010e-06	-4.382117e-09	-4.763209e+01	-2.873776e+02
5.000000e-08	-6.752038e-06	-4.379682e-09	-4.759704e+01	-2.873346e+02
6.000000e-08	-6.745933e-06	-4.378716e-09	-4.755400e+01	-2.872717e+02
7.000000e-08	-6.738807e-06	-4.377710e-09	-4.750377e+01	-2.871889e+02
8.000000e-08	-6.730763e-06	-4.367171e-09	-4.744707e+01	-2.870867e+02
9.000000e-08	-6.721484e-06	-4.356985e-09	-4.738166e+01	-2.869667e+02
1.000000e-07	-6.710534e-06	-4.404119e-09	-4.730447e+01	-2.868311e+02
1.100000e-07	-6.697915e-06	-4.456255e-09	-4.721551e+01	-2.866827e+02
1.200000e-07	-6.683732e-06	-4.443069e-09	-4.711553e+01	-2.865247e+02
1.300000e-07	-6.668020e-06	-4.360235e-09	-4.700477e+01	-2.863605e+02
1.400000e-07	-6.651068e-06	-4.219928e-09	-4.688527e+01	-2.861934e+02
1.500000e-07	-6.633250e-06	-4.318032e-09	-4.675967e+01	-2.860261e+02
1.600000e-07	-6.614577e-06	-4.500211e-09	-4.662804e+01	-2.858607e+02
1.700000e-07	-6.595089e-06	-4.354574e-09	-4.649066e+01	-2.856985e+02
1.800000e-07	-6.574685e-06	-4.279812e-09	-4.634683e+01	-2.855395e+02
1.900000e-07	-6.552987e-06	-4.300853e-09	-4.619388e+01	-2.853824e+02
2.000000e-07	-6.530278e-06	-4.275455e-09	-4.603379e+01	-2.852248e+02
2.100000e-07	-6.506787e-06	-4.448186e-09	-4.586820e+01	-2.850631e+02
2.200000e-07	-6.481994e-06	-4.425929e-09	-4.569342e+01	-2.848926e+02
2.300000e-07	-6.455712e-06	-4.173565e-09	-4.550815e+01	-2.847079e+02
2.400000e-07	-6.428296e-06	-4.285081e-09	-4.531489e+01	-2.845031e+02
2.500000e-07	-6.399939e-06	-4.455484e-09	-4.511499e+01	-2.842721e+02
2.600000e-07	-6.370532e-06	-4.358029e-09	-4.490770e+01	-2.840093e+02
2.700000e-07	-6.339979e-06	-4.254169e-09	-4.469232e+01	-2.837095e+02
2.800000e-07	-6.308368e-06	-4.203086e-09	-4.446948e+01	-2.833685e+02
2.900000e-07	-6.275702e-06	-4.322859e-09	-4.423921e+01	-2.829836e+02
3.000000e-07	-6.241784e-06	-4.398988e-09	-4.400011e+01	-2.825532e+02
3.100000e-07	-6.206549e-06	-4.241615e-09	-4.375173e+01	-2.820774e+02
3.200000e-07	-6.170189e-06	-4.195662e-09	-4.349542e+01	-2.815579e+02
3.300000e-07	-6.132658e-06	-4.275328e-09	-4.323085e+01	-2.809978e+02
3.400000e-07	-6.093969e-06	-4.282838e-09	-4.295813e+01	-2.804013e+02
3.500000e-07	-6.054409e-06	-4.275919e-09	-4.267926e+01	-2.797735e+02
3.600000e-07	-6.013806e-06	-4.245801e-09	-4.239303e+01	-2.791202e+02
3.700000e-07	-5.971806e-06	-4.163696e-09	-4.209696e+01	-2.784472e+02
3.800000e-07	-5.928521e-06	-4.201147e-09	-4.179183e+01	-2.777602e+02
3.900000e-07	-5.884204e-06	-4.308374e-09	-4.147943e+01	-2.770639e+02
4.000000e-07	-5.838808e-06	-4.210583e-09	-4.115942e+01	-2.763624e+02
4.100000e-07	-5.792378e-06	-4.094352e-09	-4.083212e+01	-2.756583e+02
4.200000e-07	-5.745069e-06	-4.190556e-09	-4.049863e+01	-2.749530e+02
4.300000e-07	-5.696689e-06	-4.243058e-09	-4.015759e+01	-2.742462e+02
4.400000e-07	-5.646994e-06	-4.153116e-09	-3.980727e+01	-2.735363e+02
4.500000e-07	-5.595913e-06	-4.098867e-09	-3.944718e+01	-2.728203e+02
4.600000e-07	-5.543655e-06	-4.131945e-09	-3.907880e+01	-2.720944e+02
4.700000e-07	-5.490484e-06	-4.152928e-09	-3.870399e+01	-2.713539e+02
4.800000e-07	-5.436363e-06	-4.113313e-09	-3.832247e+01	-2.705938e+02
4.900000e-07	-5.381361e-06	-4.075204e-09	-3.793475e+01	-2.698092e+02
5.000000e-07	-5.325550e-06	-4.063344e-09	-3.754132e+01	-2.689955e+02
5.100000e-07	-5.268799e-06	-4.073105e-09	-3.714127e+01	-2.681491e+02
5.200000e-07	-5.211003e-06	-4.074972e-09	-3.673384e+01	-2.672670e+02
5.300000e-07	-5.152166e-06	-4.044506e-09	-3.631908e+01	-2.663477e+02
5.400000e-07	-5.092354e-06	-4.012592e-09	-3.589746e+01	-2.653909e+02
5.500000e-07	-5.031690e-06	-4.006587e-09	-3.546982e+01	-2.643974e+02
5.600000e-07	-4.970354e-06	-4.023355e-09	-3.503744e+01	-2.633690e+02
5.700000e-07	-4.908319e-06	-4.006225e-09	-3.460014e+01	-2.623087e+02
5.800000e-07	-4.845395e-06	-3.948055e-09	-3.415657e+01	-2.612195e+02
5.900000e-07	-4.781604e-06	-3.927298e-09	-3.370689e+01	-2.601051e+02
6.000000e-07	-4.716916e-06	-3.951571e-09	-3.325088e+01	-2.589685e+02
6.100000e-07	-4.651231e-06	-3.937511e-09	-3.278786e+01	-2.578127e+02
6.200000e-07	-4.584572e-06	-3.877888e-09	-3.231796e+01	-2.566394e+02
6.300000e-07	-4.517065e-06	-3.859279e-09	-3.184208e+01	-2.554493e+02
6.400000e-07	-4.448910e-06	-3.876082e-09	-3.136163e+01	-2.542420e+02
6.500000e-07	-4.380061e-06	-3.857302e-09	-3.087630e+01	-2.530157e+02
6.600000e-07	-4.310378e-06	-3.814892e-09	-3.038508e+01	-2.517674e+02
6.700000e-07	-4.239928e-06	-3.792920e-09	-2.988846e+01	-2.504928e+02
6.800000e-07	-4.168814e-06	-3.785908e-09	-2.938716e+01	-2.491870e+02
6.900000e-07	-4.097021e-06	-3.773167e-09	-2.888107e+01	-2.478445e+02
7.000000e-07	-4.024389e-06	-3.748903e-09	-2.836907e+01	-2.464596e+02
7.100000e-07	-3.950766e-06	-3.713627e-09	-2.785007e+01	-2.450270e+02
7.200000e-07	-3.876220e-06	-3.683965e-09	-2.732458e+01	-2.435418e+02
7.300000e-07	-3.800913e-06	-3.672894e-09	-2.679372e+01	-2.419999e+02
7.400000e-07	-3.724921e-06	-3.658348e-09	-2.625803e+01	-2.403985e+02
7.500000e-07	-3.648164e-06	-3.620107e-09	-2.571694e+01	-2.387360e+02
7.600000e-07	-3.570572e-06	-3.582499e-09	-2.516998e+01	-2.370119e+02
7.700000e-07	-3.492230e-06	-3.566756e-09	-2.461772e+01	-2.352270e+02
7.800000e-07	-3.413211e-06	-3.549822e-09	-2.406070e+01	-2.333831e+02
7.900000e-07	-3.333500e-06	-3.508988e-09	-2.349879e+01	-2.314824e+02
8.000000e-07	-3.253023e-06	-3.462943e-09	-2.293149e+01	-2.295276e+02
8.100000e-07	-3.171885e-06	-3.439911e-09	-2.235952e+01	-2.275213e+02
8.200000e-07	-3.090365e-06	-3.422420e-09	-2.178486e+01	-2.254653e+02
8.300000e-07	-3.008469e-06	-3.384821e-09	-2.120756e+01	-2.233607e+02
8.400000e-07	-2.926055e-06	-3.341091e-09	-2.062660e+01	-2.212073e+02
8.500000e-07	-2.843171e-06	-3.309664e-09	-2.004232e+01	-2.190035e+02
8.600000e-07	-2.759923e-06	-3.284286e-09	-1.945549e+01	-2.167460e+02
8.700000e-07	-2.676363e-06	-3.250803e-09	-1.886645e+01	-2.144302e+02
8.800000e-07	-2.592445e-06	-3.208918e-09	-1.827488e+01	-2.120496e+02
8.900000e-07	-2.508093e-06	-3.166067e-09	-1.768026e+01	-2.095970e+02
9.000000e-07	-2.423369e-06	-3.127884e-09	-1.708302e+01	-2.070640e+02
9.100000e-07	-2.338413e-06	-3.091380e-09	-1.648414e+01	-2.044420e+02
9.200000e-07	-2.253163e-06	-3.047969e-09	-1.588319e+01	-2.017222e+02
9.300000e-07	-2.167508e-06	-2.998106e-09	-1.527938e+01	-1.988964e+02
9.400000e-07	-2.081486e-06	-2.951657e-09	-1.467299e+01	-1.959568e+02
9.500000e-07	-1.995093e-06	-2.912049e-09	-1.406398e+01	-1.928969e+02
9.600000e-07	-1.908404e-06	-2.864858e-09	-1.345288e+01	-1.897112e+02
9.700000e-07	-1.821432e-06	-2.808290e-09	-1.283979e+01	-1.863952e+02
9.800000e-07	-1.734146e-06	-2.754513e-09	-1.222449e+01	-1.829452e+02
9.900000e-07	-1.646597e-06	-2.704428e-09	-1.160733e+01	-1.793580e+02
1.000000e-06	-1.558750e-06	-2.649705e-09	-1.098807e+01	-1.756305e+02
1.010000e-06	-1.470623e-06	-2.585177e-09	-1.036684e+01	-1.717587e+02
1.020000e-06	-1.382198e-06	-2.521146e-09	-9.743505e+00	-1.677371e+02
1.030000e-06	-1.293471e-06	-2.461593e-09	-9.118047e+00	-1.635584e+02
1.040000e-06	-1.204471e-06	-2.396798e-09	-8.490663e+00	-1.592121e+02
1.050000e-06	-1.115201e-06	-2.323627e-09	-7.861367e+00	-1.546845e+02
1.060000e-06	-1.025677e-06	-2.247491e-09	-7.230289e+00	-1.499581e+02
1.070000e-06	-9.358638e-07	-2.172890e-09	-6.597171e+00	-1.450114e+02
1.080000e-06	-8.457659e-07	-2.094715e-09	-5.962045e+00	-1.398190e+02
1.090000e-06	-7.554461e-07	-2.010916e-09	-5.325355e+00	-1.343523e+02
1.100000e-06	-6.649315e-07	-1.921659e-09	-4.687292e+00	-1.285797e+02
1.110000e-06	-5.743292e-07	-1.828130e-09	-4.048610e+00	-1.224683e+02
1.120000e-06	-4.836533e-07	-1.732362e-09	-3.409410e+00	-1.159846e+02
1.130000e-06	-3.927847e-07	-1.630241e-09	-2.768851e+00	-1.090963e+02
1.140000e-06	-3.017539e-07	-1.519370e-09	-2.127150e+00	-1.017744e+02
1.150000e-06	-2.107170e-07	-1.398390e-09	-1.485405e+00	-9.399411e+01
1.160000e-06	-1.197260e-07	-1.274012e-09	-8.439830e-01	-8.573732e+01
1.170000e-06	-2.872294e-08	-1.145200e-09	-2.024762e-01	-7.699395e+01
1.180000e-06	6.225857e-08	-1.004186e-09	4.388784e-01	-6.776337e+01
1.190000e-06	1.531853e-07	-8.525459e-10	1.079847e+00	-5.805557e+01
1.200000e-06	2.440610e-07	-6.957724e-10	1.720456e+00	-4.789182e+01
1.210000e-06	3.349366e-07	-5.352704e-10	2.361063e+00	-3.730503e+01
1.220000e-06	4.257335e-07	-3.682402e-10	3.001117e+00	-2.633948e+01
1.230000e-06	5.163883e-07	-1.967818e-10	3.640168e+00	-1.505022e+01
1.240000e-06	6.069214e-07	-2.281961e-11	4.278362e+00	-3.501852e+00
1.250000e-06	6.972986e-07	1.529610e-10	4.915457e+00	8.233002e+00
1.260000e-06	7.875079e-07	3.307149e-10	5.551368e+00	2.007568e+01
1.270000e-06	8.774901e-07	5.104791e-10	6.185678e+00	3.194370e+01
1.280000e-06	9.671980e-07	6.899657e-10	6.818055e+00	4.375316e+01
1.290000e-06	1.056646e-06	8.687908e-10	7.448600e+00	5.542125e+01
1.300000e-06	1.145786e-06	1.042549e-09	8.076972e+00	6.686867e+01
1.310000e-06	1.234559e-06	1.210685e-09	8.702759e+00	7.802187e+01
1.320000e-06	1.323002e-06	1.374836e-09	9.326218e+00	8.881515e+01
1.330000e-06	1.411205e-06	1.534948e-09	9.947987e+00	9.919223e+01
1.340000e-06	1.499250e-06	1.686048e-09	1.056864e+01	1.091076e+02
1.350000e-06	1.587079e-06	1.827966e-09	1.118777e+01	1.185271e+02
1.360000e-06	1.674653e-06	1.963784e-09	1.180511e+01	1.274286e+02
1.370000e-06	1.762023e-06	2.089613e-09	1.242100e+01	1.358014e+02
1.380000e-06	1.849136e-06	2.205315e-09	1.303509e+01	1.436457e+02
1.390000e-06	1.935984e-06	2.312890e-09	1.364730e+01	1.509718e+02
1.400000e-06	2.022602e-06	2.414128e-09	1.425790e+01	1.577987e+02
1.410000e-06	2.108929e-06	2.507143e-09	1.486644e+01	1.641521e+02
1.420000e-06	2.194941e-06	2.593031e-09	1.547276e+01	1.700631e+02
1.430000e-06	2.280593e-06	2.675244e-09	1.607655e+01	1.755664e+02
1.440000e-06	2.365799e-06	2.753194e-09	1.667719e+01	1.806982e+02
1.450000e-06	2.450587e-06	2.825056e-09	1.727489e+01	1.854952e+02
1.460000e-06	2.535014e-06	2.893445e-09	1.787003e+01	1.899926e+02
1.470000e-06	2.619085e-06	2.960647e-09	1.846268e+01	1.942231e+02
1.480000e-06	2.702786e-06	3.025328e-09	1.905271e+01	1.982163e+02
1.490000e-06	2.786145e-06	3.083959e-09	1.964033e+01	2.019979e+02
1.500000e-06	2.869152e-06	3.137829e-09	2.022547e+01	2.055896e+02
1.510000e-06	2.951592e-06	3.187742e-09	2.080661e+01	2.090091e+02
1.520000e-06	3.033370e-06	3.234734e-09	2.138309e+01	2.122700e+02
1.530000e-06	3.114541e-06	3.280077e-09	2.195528e+01	2.153831e+02
1.540000e-06	3.195178e-06	3.321075e-09	2.252372e+01	2.183561e+02
1.550000e-06	3.275323e-06	3.359806e-09	2.308868e+01	2.211949e+02
1.560000e-06	3.354909e-06	3.397815e-09	2.364971e+01	2.239041e+02
1.570000e-06	3.433794e-06	3.437702e-09	2.420579e+01	2.264876e+02
1.580000e-06	3.511873e-06	3.475438e-09	2.475619e+01	2.289492e+02
1.590000e-06	3.589223e-06	3.508999e-09	2.530146e+01	2.312931e+02
1.600000e-06	3.665968e-06	3.541305e-09	2.584245e+01	2.335243e+02
1.610000e-06	3.742063e-06	3.571241e-09	2.637887e+01	2.356484e+02
1.620000e-06	3.817466e-06	3.600012e-09	2.691041e+01	2.376720e+02
1.630000e-06	3.892144e-06	3.625306e-09	2.743683e+01	2.396026e+02
1.640000e-06	3.965850e-06	3.649431e-09	2.795641e+01	2.414480e+02
1.650000e-06	4.038591e-06	3.673265e-09	2.846918e+01	2.432164e+02
1.660000e-06	4.110507e-06	3.697709e-09	2.897613e+01	2.449157e+02
1.670000e-06	4.181712e-06	3.723586e-09	2.947808e+01	2.465534e+02
1.680000e-06	4.252278e-06	3.747176e-09	2.997552e+01	2.481364e+02
1.690000e-06	4.322084e-06	3.771043e-09	3.046760e+01	2.496704e+02
1.700000e-06	4.391150e-06	3.793675e-09	3.095446e+01	2.511599e+02
1.710000e-06	4.459489e-06	3.814914e-09	3.143621e+01	2.526083e+02
1.720000e-06	4.527214e-06	3.836032e-09	3.191362e+01	2.540176e+02
1.730000e-06	4.594375e-06	3.855061e-09	3.238706e+01	2.553886e+02
1.740000e-06	4.660625e-06	3.871390e-09	3.285407e+01	2.567214e+02
1.750000e-06	4.725674e-06	3.887123e-09	3.331262e+01	2.580150e+02
1.760000e-06	4.789728e-06	3.905900e-09	3.376416e+01	2.592684e+02
1.770000e-06	4.853144e-06	3.923856e-09	3.421119e+01	2.604803e+02
1.780000e-06	4.915887e-06	3.939585e-09	3.465349e+01	2.616496e+02
1.790000e-06	4.977815e-06	3.955195e-09	3.509004e+01	2.627755e+02
1.800000e-06	5.038900e-06	3.970674e-09	3.552064e+01	2.638579e+02
1.810000e-06	5.099207e-06	3.985612e-09	3.594577e+01	2.648976e+02
1.820000e-06	5.158861e-06	3.999900e-09	3.636628e+01	2.658960e+02
1.830000e-06	5.217737e-06	4.013856e-09	3.678132e+01	2.668551e+02
1.840000e-06	5.275478e-06	4.027317e-09	3.718835e+01	2.677777e+02
1.850000e-06	5.332000e-06	4.041992e-09	3.758679e+01	2.686670e+02
1.860000e-06	5.387547e-06	4.057630e-09	3.797836e+01	2.695265e+02
1.870000e-06	5.442254e-06	4.072389e-09	3.836400e+01	2.703596e+02
1.880000e-06	5.496051e-06	4.084912e-09	3.874323e+01	2.711695e+02
1.890000e-06	5.548830e-06	4.097312e-09	3.911528e+01	2.719589e+02
1.900000e-06	5.600508e-06	4.111703e-09	3.947958e+01	2.727300e+02
1.910000e-06	5.650958e-06	4.126227e-09	3.983522e+01	2.734842e+02
1.920000e-06	5.699968e-06	4.138004e-09	4.018070e+01	2.742221e+02
1.930000e-06	5.747762e-06	4.147704e-09	4.051761e+01	2.749436e+02
1.940000e-06	5.794641e-06	4.158300e-09	4.084808e+01	2.756479e+02
1.950000e-06	5.840580e-06	4.168935e-09	4.117191e+01	2.763334e+02
1.960000e-06	5.885499e-06	4.179909e-09	4.148856e+01	2.769986e+02
1.970000e-06	5.929453e-06	4.190306e-09	4.179841e+01	2.776412e+02
1.980000e-06	5.972543e-06	4.200275e-09	4.210216e+01	2.782595e+02
1.990000e-06	6.014442e-06	4.210349e-09	4.239752e+01	2.788515e+02
2.000000e-06	6.054945e-06	4.219816e-09	4.268303e+01	2.794161e+02
2.010000e-06	6.094397e-06	4.228566e-09	4.296114e+01	2.799523e+02
2.020000e-06	6.132889e-06	4.235790e-09	4.323248e+01	2.804600e+02
2.030000e-06	6.170345e-06	4.243167e-09	4.349652e+01	2.809395e+02
2.040000e-06	6.206844e-06	4.251987e-09	4.375381e+01	2.813920e+02
2.050000e-06	6.242409e-06	4.261524e-09	4.400452e+01	2.818190e+02
2.060000e-06	6.276886e-06	4.269575e-09	4.424756e+01	2.822225e+02
2.070000e-06	6.309991e-06	4.275533e-09	4.448093e+01	2.826046e+02
2.080000e-06	6.341876e-06	4.283012e-09	4.470569e+01	2.829676e+02
2.090000e-06	6.372779e-06	4.291333e-09	4.492354e+01	2.833137e+02
2.100000e-06	6.402647e-06	4.296850e-09	4.513408e+01	2.836448e+02
2.110000e-06	6.431481e-06	4.300519e-09	4.533734e+01	2.839623e+02
2.120000e-06	6.459363e-06	4.304474e-09	4.553389e+01	2.842672e+02
2.130000e-06	6.486236e-06	4.310632e-09	4.572333e+01	2.845601e+02
2.140000e-06	6.511724e-06	4.317315e-09	4.590300e+01	2.848411e+02
2.150000e-06	6.535784e-06	4.322120e-09	4.607260e+01	2.851096e+02
2.160000e-06	6.558770e-06	4.326210e-09	4.623464e+01	2.853649e+02
2.170000e-06	6.580720e-06	4.330543e-09	4.638937e+01	2.856061e+02
2.180000e-06	6.601576e-06	4.335170e-09	4.653639e+01	2.858321e+02
2.190000e-06	6.621462e-06	4.339607e-09	4.667658e+01	2.860422e+02
2.200000e-06	6.640386e-06	4.342830e-09	4.680997e+01	2.862357e+02
2.210000e-06	6.658130e-06	4.345684e-09	4.693506e+01	2.864122e+02
2.220000e-06	6.674653e-06	4.349797e-09	4.705153e+01	2.865719e+02
2.230000e-06	6.689932e-06	4.354580e-09	4.715924e+01	2.867153e+02
2.240000e-06	6.703877e-06	4.357893e-09	4.725754e+01	2.868436e+02
2.250000e-06	6.716527e-06	4.359407e-09	4.734671e+01	2.869579e+02
2.260000e-06	6.727949e-06	4.362168e-09	4.742723e+01	2.870600e+02
2.270000e-06	6.738026e-06	4.367086e-09	4.749826e+01	2.871515e+02
2.280000e-06	6.746636e-06	4.371863e-09	4.755896e+01	2.872340e+02
2.290000e-06	6.753982e-06	4.373480e-09	4.761074e+01	2.873090e+02
2.300000e-06	6.760195e-06	4.373943e-09	4.765454e+01	2.873775e+02
2.310000e-06	6.765268e-06	4.378569e-09	4.769030e+01	2.874400e+02
2.320000e-06	6.769302e-06	4.383224e-09	4.771874e+01	2.874965e+02
2.330000e-06	6.772259e-06	4.384799e-09	4.773959e+01	2.875464e+02
2.340000e-06	6.773774e-06	4.386819e-09	4.775027e+01	2.875885e+02
2.350000e-06	6.773843e-06	4.390254e-09	4.775075e+01	2.876212e+02
2.360000e-06	6.772796e-06	4.393268e-09	4.774337e+01	2.876423e+02
2.370000e-06	6.770679e-06	4.392085e-09	4.772844e+01	2.876498e+02
2.380000e-06	6.767561e-06	4.388792e-09	4.770646e+01	2.876416e+02
2.390000e-06	6.763533e-06	4.387325e-09	4.767807e+01	2.876157e+02
2.400000e-06	6.758437e-06	4.387773e-09	4.764215e+01	2.875707e+02
2.410000e-06	6.751991e-06	4.389498e-09	4.759671e+01	2.875059e+02
2.420000e-06	6.744242e-06	4.393437e-09	4.754208e+01	2.874211e+02
2.430000e-06	6.735516e-06	4.408180e-09	4.748057e+01	2.873171e+02
2.440000e-06	6.725785e-06	4.364777e-09	4.741198e+01	2.871954e+02
2.450000e-06	6.714645e-06	4.280364e-09	4.733345e+01	2.870584e+02
2.460000e-06	6.701586e-06	4.279000e-09	4.724139e+01	2.869090e+02
2.470000e-06	6.686600e-06	4.353940e-09	4.713575e+01	2.867502e+02
2.480000e-06	6.670556e-06	4.529179e-09	4.702265e+01	2.865856e+02
2.490000e-06	6.654132e-06	4.444348e-09	4.690688e+01	2.864184e+02
2.500000e-06	6.636841e-06	4.209319e-09	4.678498e+01	2.862512e+02
2.510000e-06	6.618062e-06	4.367197e-09	4.665260e+01	2.860862e+02
2.520000e-06	6.598365e-06	4.419482e-09	4.651376e+01	2.859244e+02
2.530000e-06	6.578002e-06	4.374265e-09	4.637021e+01	2.857656e+02
2.540000e-06	6.556073e-06	4.483534e-09	4.621563e+01	2.856086e+02
2.550000e-06	6.532534e-06	4.280898e-09	4.604970e+01	2.854509e+02
2.560000e-06	6.508153e-06	4.215103e-09	4.587782e+01	2.852885e+02
2.570000e-06	6.482916e-06	4.509883e-09	4.569992e+01	2.851169e+02
2.580000e-06	6.456543e-06	4.388608e-09	4.551401e+01	2.849305e+02
2.590000e-06	6.429059e-06	4.199424e-09	4.532027e+01	2.847233e+02
2.600000e-06	6.400554e-06	4.372709e-09	4.511933e+01	2.844895e+02
2.610000e-06	6.371035e-06	4.423141e-09	4.491124e+01	2.842232e+02
2.620000e-06	6.340043e-06	4.418390e-09	4.469277e+01	2.839194e+02
2.630000e-06	6.307584e-06	4.314215e-09	4.446396e+01	2.835742e+02
2.640000e-06	6.274162e-06	4.225191e-09	4.422836e+01	2.831848e+02
2.650000e-06	6.239682e-06	4.402027e-09	4.398529e+01	2.827498e+02
2.660000e-06	6.204106e-06	4.355394e-09	4.373451e+01	2.822696e+02
2.670000e-06	6.167568e-06	4.290060e-09	4.347694e+01	2.817460e+02
2.680000e-06	6.129800e-06	4.336026e-09	4.321071e+01	2.811820e+02
2.690000e-06	6.090569e-06	4.221996e-09	4.293416e+01	2.805822e+02
2.700000e-06	6.050194e-06	4.273336e-09	4.264954e+01	2.799516e+02
2.710000e-06	6.008982e-06	4.362528e-09	4.235903e+01	2.792961e+02
2.720000e-06	5.966691e-06	4.274754e-09	4.206091e+01	2.786215e+02
2.730000e-06	5.923249e-06	4.169222e-09	4.175467e+01	2.779333e+02
2.740000e-06	5.878935e-06	4.219210e-09	4.144229e+01	2.772364e+02
2.750000e-06	5.833652e-06	4.344524e-09	4.112308e+01	2.765346e+02
2.760000e-06	5.787227e-06	4.213048e-09	4.079582e+01	2.758304e+02
2.770000e-06	5.739687e-06	4.126724e-09	4.046069e+01	2.751250e+02
2.780000e-06	5.691229e-06	4.221165e-09	4.011909e+01	2.744180e+02
2.790000e-06	5.641792e-06	4.230930e-09	3.977060e+01	2.737076e+02
2.800000e-06	5.591172e-06	4.185140e-09	3.941377e+01	2.729909e+02
2.810000e-06	5.539554e-06	4.129530e-09	3.904990e+01	2.722638e+02
2.820000e-06	5.486912e-06	4.169138e-09	3.867881e+01	2.715215e+02
2.830000e-06	5.433057e-06	4.172649e-09	3.829917e+01	2.707593e+02
2.840000e-06	5.378046e-06	4.114462e-09	3.791138e+01	2.699720e+02
2.850000e-06	5.322033e-06	4.127173e-09	3.751653e+01	2.691552e+02
2.860000e-06	5.265117e-06	4.108275e-09	3.711531e+01	2.683053e+02
2.870000e-06	5.207296e-06	4.090777e-09	3.670772e+01	2.674196e+02
2.880000e-06	5.148625e-06	4.082965e-09	3.629413e+01	2.664966e+02
2.890000e-06	5.089204e-06	4.075542e-09	3.587525e+01	2.655361e+02
2.900000e-06	5.029019e-06	4.038929e-09	3.545099e+01	2.645390e+02
2.910000e-06	4.967963e-06	4.005983e-09	3.502059e+01	2.635074e+02
2.920000e-06	4.905925e-06	4.041696e-09	3.458326e+01	2.624440e+02
2.930000e-06	4.842930e-06	4.022483e-09	3.413919e+01	2.613522e+02
2.940000e-06	4.778971e-06	3.963922e-09	3.368833e+01	2.602354e+02
2.950000e-06	4.714159e-06	3.953216e-09	3.323145e+01	2.590969e+02
