# Temperatura_=_20.0
# Concentracion g/m^3_=_9000.0
# C_Vs_to_Am_M_A/Vsm_=_65563218390.804596
# pendiente_HvsI_1/m_=_3716.3
# ordenada_HvsI_A/m_=_1297.0
# frecuencia_Hz_=_212904.9818317057

Tiempo_(s)	Campo_(V.s)	Magnetizacion_(V.s)	Campo_(kA/m)	Magnetizacion_(A/m)
0.000000e+00	-6.701704e-06	-4.329264e-09	-4.768376e+01	-2.835027e+02
1.000000e-08	-6.700456e-06	-4.329954e-09	-4.767488e+01	-2.835247e+02
2.000000e-08	-6.697769e-06	-4.331674e-09	-4.765576e+01	-2.835408e+02
3.000000e-08	-6.694027e-06	-4.331779e-09	-4.762914e+01	-2.835488e+02
4.000000e-08	-6.689331e-06	-4.329463e-09	-4.759572e+01	-2.835461e+02
5.000000e-08	-6.683476e-06	-4.324731e-09	-4.755407e+01	-2.835297e+02
6.000000e-08	-6.676547e-06	-4.321167e-09	-4.750476e+01	-2.834968e+02
7.000000e-08	-6.668747e-06	-4.309909e-09	-4.744926e+01	-2.834449e+02
8.000000e-08	-6.659825e-06	-4.285575e-09	-4.738578e+01	-2.833718e+02
9.000000e-08	-6.649228e-06	-4.346513e-09	-4.731039e+01	-2.832761e+02
1.000000e-07	-6.636964e-06	-4.426083e-09	-4.722312e+01	-2.831567e+02
1.100000e-07	-6.623181e-06	-4.410464e-09	-4.712506e+01	-2.830136e+02
1.200000e-07	-6.607811e-06	-4.318140e-09	-4.701570e+01	-2.828473e+02
1.300000e-07	-6.591128e-06	-4.102252e-09	-4.689699e+01	-2.826590e+02
1.400000e-07	-6.573584e-06	-4.219151e-09	-4.677216e+01	-2.824502e+02
1.500000e-07	-6.555151e-06	-4.529627e-09	-4.664101e+01	-2.822230e+02
1.600000e-07	-6.535885e-06	-4.303819e-09	-4.650393e+01	-2.819793e+02
1.700000e-07	-6.515887e-06	-4.198502e-09	-4.636164e+01	-2.817212e+02
1.800000e-07	-6.494686e-06	-4.258227e-09	-4.621079e+01	-2.814503e+02
1.900000e-07	-6.472390e-06	-4.150652e-09	-4.605215e+01	-2.811679e+02
2.000000e-07	-6.449394e-06	-4.420458e-09	-4.588853e+01	-2.808745e+02
2.100000e-07	-6.425198e-06	-4.461484e-09	-4.571637e+01	-2.805703e+02
2.200000e-07	-6.399401e-06	-4.034778e-09	-4.553282e+01	-2.802545e+02
2.300000e-07	-6.372344e-06	-4.173293e-09	-4.534031e+01	-2.799259e+02
2.400000e-07	-6.344288e-06	-4.479782e-09	-4.514068e+01	-2.795827e+02
2.500000e-07	-6.315243e-06	-4.321343e-09	-4.493402e+01	-2.792227e+02
2.600000e-07	-6.285098e-06	-4.174424e-09	-4.471954e+01	-2.788435e+02
2.700000e-07	-6.253815e-06	-4.098056e-09	-4.449695e+01	-2.784430e+02
2.800000e-07	-6.221617e-06	-4.245150e-09	-4.426786e+01	-2.780188e+02
2.900000e-07	-6.188363e-06	-4.391047e-09	-4.403125e+01	-2.775693e+02
3.000000e-07	-6.153709e-06	-4.178513e-09	-4.378468e+01	-2.770934e+02
3.100000e-07	-6.117793e-06	-4.098323e-09	-4.352913e+01	-2.765905e+02
3.200000e-07	-6.080768e-06	-4.207224e-09	-4.326570e+01	-2.760607e+02
3.300000e-07	-6.042604e-06	-4.225148e-09	-4.299415e+01	-2.755051e+02
3.400000e-07	-6.003489e-06	-4.231942e-09	-4.271584e+01	-2.749252e+02
3.500000e-07	-5.963415e-06	-4.206987e-09	-4.243071e+01	-2.743229e+02
3.600000e-07	-5.922061e-06	-4.083865e-09	-4.213647e+01	-2.737008e+02
3.700000e-07	-5.879427e-06	-4.111857e-09	-4.183312e+01	-2.730614e+02
3.800000e-07	-5.835689e-06	-4.295630e-09	-4.152192e+01	-2.724071e+02
3.900000e-07	-5.790894e-06	-4.183939e-09	-4.120319e+01	-2.717403e+02
4.000000e-07	-5.745043e-06	-3.981686e-09	-4.087695e+01	-2.710627e+02
4.100000e-07	-5.698242e-06	-4.121009e-09	-4.054396e+01	-2.703756e+02
4.200000e-07	-5.650550e-06	-4.233299e-09	-4.020462e+01	-2.696793e+02
4.300000e-07	-5.601679e-06	-4.109131e-09	-3.985689e+01	-2.689737e+02
4.400000e-07	-5.551374e-06	-4.022487e-09	-3.949897e+01	-2.682578e+02
4.500000e-07	-5.499776e-06	-4.074892e-09	-3.913184e+01	-2.675299e+02
4.600000e-07	-5.447154e-06	-4.122573e-09	-3.875742e+01	-2.667880e+02
4.700000e-07	-5.393618e-06	-4.073175e-09	-3.837651e+01	-2.660294e+02
4.800000e-07	-5.339236e-06	-4.019364e-09	-3.798956e+01	-2.652515e+02
4.900000e-07	-5.284057e-06	-4.000971e-09	-3.759696e+01	-2.644519e+02
5.000000e-07	-5.228025e-06	-4.021385e-09	-3.719828e+01	-2.636280e+02
5.100000e-07	-5.171077e-06	-4.037667e-09	-3.679309e+01	-2.627781e+02
5.200000e-07	-5.113117e-06	-3.996221e-09	-3.638069e+01	-2.619008e+02
5.300000e-07	-5.054042e-06	-3.955261e-09	-3.596037e+01	-2.609953e+02
5.400000e-07	-4.994048e-06	-3.951258e-09	-3.553350e+01	-2.600615e+02
5.500000e-07	-4.933372e-06	-3.981826e-09	-3.510178e+01	-2.591001e+02
5.600000e-07	-4.871925e-06	-3.976379e-09	-3.466457e+01	-2.581120e+02
5.700000e-07	-4.809626e-06	-3.898560e-09	-3.422130e+01	-2.570985e+02
5.800000e-07	-4.746577e-06	-3.858533e-09	-3.377270e+01	-2.560612e+02
5.900000e-07	-4.682700e-06	-3.904211e-09	-3.331821e+01	-2.550014e+02
6.000000e-07	-4.617911e-06	-3.912011e-09	-3.285722e+01	-2.539204e+02
6.100000e-07	-4.552129e-06	-3.830949e-09	-3.238917e+01	-2.528187e+02
6.200000e-07	-4.485273e-06	-3.794640e-09	-3.191348e+01	-2.516964e+02
6.300000e-07	-4.417624e-06	-3.830596e-09	-3.143214e+01	-2.505527e+02
6.400000e-07	-4.349417e-06	-3.825620e-09	-3.094684e+01	-2.493861e+02
6.500000e-07	-4.280535e-06	-3.774006e-09	-3.045673e+01	-2.481944e+02
6.600000e-07	-4.210841e-06	-3.742551e-09	-2.996085e+01	-2.469745e+02
6.700000e-07	-4.140384e-06	-3.738025e-09	-2.945953e+01	-2.457229e+02
6.800000e-07	-4.069299e-06	-3.732761e-09	-2.895375e+01	-2.444357e+02
6.900000e-07	-3.997527e-06	-3.711784e-09	-2.844308e+01	-2.431090e+02
7.000000e-07	-3.924855e-06	-3.671237e-09	-2.792601e+01	-2.417389e+02
7.100000e-07	-3.851214e-06	-3.633843e-09	-2.740204e+01	-2.403217e+02
7.200000e-07	-3.776752e-06	-3.626627e-09	-2.687223e+01	-2.388546e+02
7.300000e-07	-3.701557e-06	-3.624508e-09	-2.633720e+01	-2.373351e+02
7.400000e-07	-3.625571e-06	-3.587124e-09	-2.579655e+01	-2.357616e+02
7.500000e-07	-3.548829e-06	-3.540130e-09	-2.525052e+01	-2.341335e+02
7.600000e-07	-3.471337e-06	-3.526231e-09	-2.469915e+01	-2.324504e+02
7.700000e-07	-3.393204e-06	-3.520206e-09	-2.414322e+01	-2.307130e+02
7.800000e-07	-3.314523e-06	-3.482854e-09	-2.358339e+01	-2.289218e+02
7.900000e-07	-3.235074e-06	-3.429710e-09	-2.301810e+01	-2.270779e+02
8.000000e-07	-3.154842e-06	-3.406085e-09	-2.244724e+01	-2.251817e+02
8.100000e-07	-3.074076e-06	-3.399424e-09	-2.187257e+01	-2.232336e+02
8.200000e-07	-2.992850e-06	-3.365113e-09	-2.129463e+01	-2.212328e+02
8.300000e-07	-2.911113e-06	-3.318143e-09	-2.071306e+01	-2.191779e+02
8.400000e-07	-2.828892e-06	-3.287105e-09	-2.012805e+01	-2.170663e+02
8.500000e-07	-2.746322e-06	-3.266560e-09	-1.954054e+01	-2.148940e+02
8.600000e-07	-2.663482e-06	-3.234237e-09	-1.895112e+01	-2.126563e+02
8.700000e-07	-2.580281e-06	-3.189753e-09	-1.835914e+01	-2.103472e+02
8.800000e-07	-2.496599e-06	-3.147614e-09	-1.776373e+01	-2.079601e+02
8.900000e-07	-2.412520e-06	-3.111605e-09	-1.716549e+01	-2.054877e+02
9.000000e-07	-2.328202e-06	-3.079961e-09	-1.656555e+01	-2.029227e+02
9.100000e-07	-2.243663e-06	-3.039904e-09	-1.596404e+01	-2.002578e+02
9.200000e-07	-2.158878e-06	-2.988915e-09	-1.536079e+01	-1.974863e+02
9.300000e-07	-2.073762e-06	-2.942752e-09	-1.475517e+01	-1.946021e+02
9.400000e-07	-1.988181e-06	-2.906859e-09	-1.414625e+01	-1.916001e+02
9.500000e-07	-1.902207e-06	-2.865181e-09	-1.353452e+01	-1.884758e+02
9.600000e-07	-1.815973e-06	-2.808067e-09	-1.292096e+01	-1.852260e+02
9.700000e-07	-1.729451e-06	-2.751457e-09	-1.230534e+01	-1.818477e+02
9.800000e-07	-1.642573e-06	-2.705007e-09	-1.168718e+01	-1.783383e+02
9.900000e-07	-1.555417e-06	-2.655444e-09	-1.106706e+01	-1.746949e+02
1.000000e-06	-1.468030e-06	-2.594658e-09	-1.044528e+01	-1.709137e+02
1.010000e-06	-1.380420e-06	-2.530226e-09	-9.821921e+00	-1.669894e+02
1.020000e-06	-1.292549e-06	-2.470741e-09	-9.196706e+00	-1.629145e+02
1.030000e-06	-1.204372e-06	-2.409224e-09	-8.569312e+00	-1.586786e+02
1.040000e-06	-1.116014e-06	-2.339116e-09	-7.940625e+00	-1.542681e+02
1.050000e-06	-1.027467e-06	-2.265539e-09	-7.310604e+00	-1.496658e+02
1.060000e-06	-9.387004e-07	-2.191147e-09	-6.679012e+00	-1.448503e+02
1.070000e-06	-8.497726e-07	-2.115747e-09	-6.046276e+00	-1.397970e+02
1.080000e-06	-7.606903e-07	-2.035445e-09	-5.412441e+00	-1.344777e+02
1.090000e-06	-6.714654e-07	-1.949963e-09	-4.777590e+00	-1.288616e+02
1.100000e-06	-5.820794e-07	-1.859348e-09	-4.141593e+00	-1.229163e+02
1.110000e-06	-4.925231e-07	-1.764103e-09	-3.504386e+00	-1.166089e+02
1.120000e-06	-4.028688e-07	-1.667073e-09	-2.866480e+00	-1.099078e+02
1.130000e-06	-3.131511e-07	-1.562189e-09	-2.228123e+00	-1.027836e+02
1.140000e-06	-2.233797e-07	-1.443607e-09	-1.589385e+00	-9.521156e+01
1.150000e-06	-1.335711e-07	-1.319409e-09	-9.503808e-01	-8.717283e+01
1.160000e-06	-4.372450e-08	-1.193163e-09	-3.111072e-01	-7.865611e+01
1.170000e-06	4.610706e-08	-1.056847e-09	3.280595e-01	-6.965912e+01
1.180000e-06	1.358921e-07	-9.078958e-10	9.668951e-01	-6.018962e+01
1.190000e-06	2.256964e-07	-7.518555e-10	1.605868e+00	-5.026627e+01
1.200000e-06	3.154306e-07	-5.928311e-10	2.244342e+00	-3.991891e+01
1.210000e-06	4.049652e-07	-4.299439e-10	2.881396e+00	-2.918855e+01
1.220000e-06	4.943781e-07	-2.635712e-10	3.517584e+00	-1.812675e+01
1.230000e-06	5.836695e-07	-9.237229e-11	4.152907e+00	-6.794664e+00
1.240000e-06	6.728033e-07	8.234189e-11	4.787110e+00	4.738410e+00
1.250000e-06	7.617660e-07	2.571589e-10	5.420094e+00	1.639683e+01
1.260000e-06	8.505504e-07	4.337198e-10	6.051810e+00	2.810071e+01
1.270000e-06	9.391812e-07	6.120268e-10	6.682433e+00	3.976820e+01
1.280000e-06	1.027638e-06	7.912845e-10	7.311820e+00	5.131786e+01
1.290000e-06	1.115966e-06	9.654008e-10	7.940286e+00	6.267107e+01
1.300000e-06	1.204131e-06	1.132749e-09	8.567599e+00	7.375426e+01
1.310000e-06	1.292062e-06	1.297721e-09	9.193239e+00	8.450097e+01
1.320000e-06	1.379790e-06	1.457153e-09	9.817441e+00	9.485350e+01
1.330000e-06	1.467277e-06	1.605752e-09	1.043992e+01	1.047643e+02
1.340000e-06	1.554449e-06	1.746847e-09	1.106017e+01	1.141969e+02
1.350000e-06	1.641332e-06	1.882322e-09	1.167836e+01	1.231263e+02
1.360000e-06	1.727974e-06	2.010257e-09	1.229483e+01	1.315387e+02
1.370000e-06	1.814407e-06	2.127396e-09	1.290981e+01	1.394315e+02
1.380000e-06	1.900624e-06	2.235165e-09	1.352326e+01	1.468119e+02
1.390000e-06	1.986576e-06	2.337630e-09	1.413483e+01	1.536962e+02
1.400000e-06	2.072243e-06	2.432109e-09	1.474436e+01	1.601077e+02
1.410000e-06	2.157537e-06	2.518651e-09	1.535124e+01	1.660757e+02
1.420000e-06	2.242393e-06	2.601052e-09	1.595501e+01	1.716330e+02
1.430000e-06	2.326889e-06	2.679735e-09	1.655621e+01	1.768151e+02
1.440000e-06	2.411124e-06	2.752166e-09	1.715555e+01	1.816578e+02
1.450000e-06	2.495094e-06	2.820414e-09	1.775302e+01	1.861960e+02
1.460000e-06	2.578686e-06	2.887300e-09	1.834779e+01	1.904628e+02
1.470000e-06	2.661805e-06	2.950649e-09	1.893919e+01	1.944881e+02
1.480000e-06	2.744455e-06	3.009558e-09	1.952726e+01	1.982982e+02
1.490000e-06	2.826617e-06	3.065983e-09	2.011186e+01	2.019156e+02
1.500000e-06	2.908291e-06	3.119345e-09	2.069298e+01	2.053586e+02
1.510000e-06	2.989494e-06	3.168863e-09	2.127076e+01	2.086417e+02
1.520000e-06	3.070197e-06	3.213377e-09	2.184497e+01	2.117763e+02
1.530000e-06	3.150371e-06	3.254186e-09	2.241542e+01	2.147708e+02
1.540000e-06	3.229933e-06	3.293728e-09	2.298152e+01	2.176312e+02
1.550000e-06	3.308774e-06	3.331013e-09	2.354249e+01	2.203626e+02
1.560000e-06	3.386928e-06	3.366228e-09	2.409856e+01	2.229687e+02
1.570000e-06	3.464435e-06	3.400585e-09	2.465004e+01	2.254535e+02
1.580000e-06	3.541315e-06	3.434887e-09	2.519706e+01	2.278209e+02
1.590000e-06	3.617573e-06	3.469763e-09	2.573965e+01	2.300757e+02
1.600000e-06	3.693115e-06	3.502275e-09	2.627714e+01	2.322235e+02
1.610000e-06	3.767912e-06	3.531223e-09	2.680933e+01	2.342706e+02
1.620000e-06	3.841849e-06	3.556245e-09	2.733540e+01	2.362242e+02
1.630000e-06	3.914812e-06	3.579715e-09	2.785455e+01	2.380920e+02
1.640000e-06	3.986962e-06	3.602848e-09	2.836791e+01	2.398821e+02
1.650000e-06	4.058395e-06	3.626546e-09	2.887617e+01	2.416023e+02
1.660000e-06	4.129144e-06	3.651931e-09	2.937956e+01	2.432602e+02
1.670000e-06	4.199216e-06	3.675713e-09	2.987813e+01	2.448624e+02
1.680000e-06	4.268549e-06	3.698799e-09	3.037145e+01	2.464145e+02
1.690000e-06	4.337168e-06	3.722440e-09	3.085968e+01	2.479210e+02
1.700000e-06	4.405173e-06	3.746588e-09	3.134355e+01	2.493847e+02
1.710000e-06	4.472553e-06	3.769666e-09	3.182297e+01	2.508075e+02
1.720000e-06	4.539152e-06	3.789131e-09	3.229684e+01	2.521897e+02
1.730000e-06	4.604737e-06	3.806051e-09	3.276348e+01	2.535307e+02
1.740000e-06	4.669319e-06	3.821360e-09	3.322300e+01	2.548292e+02
1.750000e-06	4.733119e-06	3.837248e-09	3.367695e+01	2.560834e+02
1.760000e-06	4.796234e-06	3.854084e-09	3.412602e+01	2.572913e+02
1.770000e-06	4.858645e-06	3.870313e-09	3.457008e+01	2.584513e+02
1.780000e-06	4.920264e-06	3.886516e-09	3.500851e+01	2.595624e+02
1.790000e-06	4.981027e-06	3.902839e-09	3.544085e+01	2.606242e+02
1.800000e-06	5.041053e-06	3.918619e-09	3.586794e+01	2.616373e+02
1.810000e-06	5.100417e-06	3.933835e-09	3.629033e+01	2.626033e+02
1.820000e-06	5.158821e-06	3.947754e-09	3.670588e+01	2.635249e+02
1.830000e-06	5.216032e-06	3.960776e-09	3.711295e+01	2.644054e+02
1.840000e-06	5.272160e-06	3.973729e-09	3.751231e+01	2.652490e+02
1.850000e-06	5.327410e-06	3.986320e-09	3.790542e+01	2.660601e+02
1.860000e-06	5.381828e-06	3.998228e-09	3.829262e+01	2.668435e+02
1.870000e-06	5.435397e-06	4.010095e-09	3.867377e+01	2.676036e+02
1.880000e-06	5.488038e-06	4.022831e-09	3.904832e+01	2.683444e+02
1.890000e-06	5.539518e-06	4.036320e-09	3.941461e+01	2.690691e+02
1.900000e-06	5.589549e-06	4.051005e-09	3.977059e+01	2.697802e+02
1.910000e-06	5.638162e-06	4.063794e-09	4.011648e+01	2.704790e+02
1.920000e-06	5.685732e-06	4.073390e-09	4.045495e+01	2.711657e+02
1.930000e-06	5.732374e-06	4.082642e-09	4.078681e+01	2.718398e+02
1.940000e-06	5.778014e-06	4.093228e-09	4.111155e+01	2.724995e+02
1.950000e-06	5.822699e-06	4.101941e-09	4.142949e+01	2.731428e+02
1.960000e-06	5.866457e-06	4.108565e-09	4.174084e+01	2.737669e+02
1.970000e-06	5.909241e-06	4.116876e-09	4.204525e+01	2.743690e+02
1.980000e-06	5.950755e-06	4.127486e-09	4.234063e+01	2.749465e+02
1.990000e-06	5.990979e-06	4.138696e-09	4.262683e+01	2.754970e+02
2.000000e-06	6.030258e-06	4.148512e-09	4.290631e+01	2.760189e+02
2.010000e-06	6.068615e-06	4.157681e-09	4.317922e+01	2.765114e+02
2.020000e-06	6.105995e-06	4.166602e-09	4.344519e+01	2.769745e+02
2.030000e-06	6.142414e-06	4.175964e-09	4.370431e+01	2.774090e+02
2.040000e-06	6.177901e-06	4.184486e-09	4.395681e+01	2.778167e+02
2.050000e-06	6.212254e-06	4.190713e-09	4.420124e+01	2.782002e+02
2.060000e-06	6.245206e-06	4.195768e-09	4.443570e+01	2.785624e+02
2.070000e-06	6.276992e-06	4.201558e-09	4.466186e+01	2.789066e+02
2.080000e-06	6.307808e-06	4.207958e-09	4.488112e+01	2.792364e+02
2.090000e-06	6.337615e-06	4.214108e-09	4.509320e+01	2.795548e+02
2.100000e-06	6.366424e-06	4.220760e-09	4.529819e+01	2.798645e+02
2.110000e-06	6.394344e-06	4.227641e-09	4.549684e+01	2.801678e+02
2.120000e-06	6.421299e-06	4.234351e-09	4.568863e+01	2.804660e+02
2.130000e-06	6.446819e-06	4.240408e-09	4.587021e+01	2.807595e+02
2.140000e-06	6.470874e-06	4.244862e-09	4.604136e+01	2.810480e+02
2.150000e-06	6.493837e-06	4.247853e-09	4.620475e+01	2.813304e+02
2.160000e-06	6.515796e-06	4.250278e-09	4.636099e+01	2.816049e+02
2.170000e-06	6.536697e-06	4.254128e-09	4.650970e+01	2.818691e+02
2.180000e-06	6.556644e-06	4.259971e-09	4.665163e+01	2.821206e+02
2.190000e-06	6.575635e-06	4.264973e-09	4.678675e+01	2.823569e+02
2.200000e-06	6.593460e-06	4.268237e-09	4.691359e+01	2.825755e+02
2.210000e-06	6.610105e-06	4.272288e-09	4.703201e+01	2.827746e+02
2.220000e-06	6.625577e-06	4.277502e-09	4.714211e+01	2.829528e+02
2.230000e-06	6.639713e-06	4.281631e-09	4.724269e+01	2.831096e+02
2.240000e-06	6.652490e-06	4.283931e-09	4.733359e+01	2.832451e+02
2.250000e-06	6.664018e-06	4.285708e-09	4.741561e+01	2.833603e+02
2.260000e-06	6.674099e-06	4.287410e-09	4.748735e+01	2.834568e+02
2.270000e-06	6.682675e-06	4.290116e-09	4.754837e+01	2.835368e+02
2.280000e-06	6.690124e-06	4.291998e-09	4.760136e+01	2.836028e+02
2.290000e-06	6.696553e-06	4.293534e-09	4.764711e+01	2.836574e+02
2.300000e-06	6.701803e-06	4.295557e-09	4.768446e+01	2.837034e+02
2.310000e-06	6.705931e-06	4.297302e-09	4.771384e+01	2.837431e+02
2.320000e-06	6.709021e-06	4.299277e-09	4.773582e+01	2.837782e+02
2.330000e-06	6.710773e-06	4.302199e-09	4.774828e+01	2.838100e+02
2.340000e-06	6.711119e-06	4.306883e-09	4.775075e+01	2.838389e+02
2.350000e-06	6.710315e-06	4.308993e-09	4.774503e+01	2.838645e+02
2.360000e-06	6.708433e-06	4.305798e-09	4.773164e+01	2.838858e+02
2.370000e-06	6.705481e-06	4.303122e-09	4.771063e+01	2.839009e+02
2.380000e-06	6.701527e-06	4.303272e-09	4.768250e+01	2.839076e+02
2.390000e-06	6.696677e-06	4.303447e-09	4.764799e+01	2.839030e+02
2.400000e-06	6.690548e-06	4.302465e-09	4.760438e+01	2.838843e+02
2.410000e-06	6.683009e-06	4.308814e-09	4.755074e+01	2.838488e+02
2.420000e-06	6.674526e-06	4.344158e-09	4.749038e+01	2.837938e+02
2.430000e-06	6.665162e-06	4.303375e-09	4.742376e+01	2.837175e+02
2.440000e-06	6.654516e-06	4.175451e-09	4.734801e+01	2.836183e+02
2.450000e-06	6.641916e-06	4.167750e-09	4.725836e+01	2.834954e+02
2.460000e-06	6.627183e-06	4.239505e-09	4.715353e+01	2.833488e+02
2.470000e-06	6.611230e-06	4.503455e-09	4.704002e+01	2.831791e+02
2.480000e-06	6.594938e-06	4.439744e-09	4.692410e+01	2.829876e+02
2.490000e-06	6.578062e-06	4.051166e-09	4.680403e+01	2.827760e+02
2.500000e-06	6.559711e-06	4.289713e-09	4.667346e+01	2.825462e+02
2.510000e-06	6.540168e-06	4.365389e-09	4.653441e+01	2.823003e+02
2.520000e-06	6.520102e-06	4.259699e-09	4.639163e+01	2.820402e+02
2.530000e-06	6.498660e-06	4.511832e-09	4.623907e+01	2.817675e+02
2.540000e-06	6.475458e-06	4.218591e-09	4.607398e+01	2.814835e+02
2.550000e-06	6.451357e-06	4.022595e-09	4.590250e+01	2.811885e+02
2.560000e-06	6.426494e-06	4.516850e-09	4.572560e+01	2.808826e+02
2.570000e-06	6.400461e-06	4.379899e-09	4.554036e+01	2.805651e+02
2.580000e-06	6.373260e-06	4.030347e-09	4.534683e+01	2.802344e+02
2.590000e-06	6.345130e-06	4.333260e-09	4.514667e+01	2.798889e+02
2.600000e-06	6.316141e-06	4.403506e-09	4.494041e+01	2.795262e+02
2.610000e-06	6.285773e-06	4.377638e-09	4.472434e+01	2.791440e+02
2.620000e-06	6.253849e-06	4.287187e-09	4.449720e+01	2.787401e+02
2.630000e-06	6.220907e-06	4.118891e-09	4.426280e+01	2.783122e+02
2.640000e-06	6.186908e-06	4.380111e-09	4.402090e+01	2.778589e+02
2.650000e-06	6.151696e-06	4.319057e-09	4.377036e+01	2.773789e+02
2.660000e-06	6.115580e-06	4.214538e-09	4.351339e+01	2.768720e+02
2.670000e-06	6.078472e-06	4.338645e-09	4.324935e+01	2.763383e+02
2.680000e-06	6.039895e-06	4.148526e-09	4.297488e+01	2.757790e+02
2.690000e-06	5.999986e-06	4.202495e-09	4.269091e+01	2.751956e+02
2.700000e-06	5.959237e-06	4.353404e-09	4.240098e+01	2.745902e+02
2.710000e-06	5.917432e-06	4.245780e-09	4.210353e+01	2.739654e+02
2.720000e-06	5.874356e-06	4.097792e-09	4.179704e+01	2.733236e+02
2.730000e-06	5.830445e-06	4.129591e-09	4.148460e+01	2.726674e+02
2.740000e-06	5.785821e-06	4.361117e-09	4.116710e+01	2.719989e+02
2.750000e-06	5.740161e-06	4.190549e-09	4.084222e+01	2.713199e+02
2.760000e-06	5.693408e-06	4.024540e-09	4.050956e+01	2.706314e+02
2.770000e-06	5.645685e-06	4.180797e-09	4.017000e+01	2.699338e+02
2.780000e-06	5.596949e-06	4.208055e-09	3.982324e+01	2.692267e+02
2.790000e-06	5.546985e-06	4.162717e-09	3.946774e+01	2.685092e+02
2.800000e-06	5.495911e-06	4.061626e-09	3.910434e+01	2.677794e+02
2.810000e-06	5.444009e-06	4.114713e-09	3.873504e+01	2.670351e+02
2.820000e-06	5.391092e-06	4.158962e-09	3.835853e+01	2.662738e+02
2.830000e-06	5.336888e-06	4.068627e-09	3.797286e+01	2.654929e+02
2.840000e-06	5.281453e-06	4.088449e-09	3.757843e+01	2.646898e+02
2.850000e-06	5.225129e-06	4.062069e-09	3.717768e+01	2.638622e+02
2.860000e-06	5.168040e-06	4.048543e-09	3.677148e+01	2.630082e+02
2.870000e-06	5.110137e-06	4.043832e-09	3.635949e+01	2.621267e+02
2.880000e-06	5.051411e-06	4.044847e-09	3.594164e+01	2.612170e+02
2.890000e-06	4.991842e-06	4.013691e-09	3.551780e+01	2.602791e+02
2.900000e-06	4.931493e-06	3.946842e-09	3.508841e+01	2.593137e+02
2.910000e-06	4.870317e-06	4.009917e-09	3.465313e+01	2.583217e+02
2.920000e-06	4.808171e-06	4.014157e-09	3.421095e+01	2.573046e+02
2.930000e-06	4.744965e-06	3.932992e-09	3.376123e+01	2.562638e+02
2.940000e-06	4.680860e-06	3.900188e-09	3.330511e+01	2.552008e+02
2.950000e-06	4.616033e-06	3.946501e-09	3.284386e+01	2.541167e+02
