# Temperatura_=_20.0
# Concentracion g/m^3_=_9000.0
# C_Vs_to_Am_M_A/Vsm_=_65563218390.804596
# pendiente_HvsI_1/m_=_3716.3
# ordenada_HvsI_A/m_=_1297.0
# frecuencia_Hz_=_212903.82361136278

Tiempo_(s)	Campo_(V.s)	Magnetizacion_(V.s)	Campo_(kA/m)	Magnetizacion_(A/m)
0.000000e+00	-6.733454e-06	-4.299689e-09	-4.769459e+01	-2.826263e+02
1.000000e-08	-6.732935e-06	-4.299660e-09	-4.769092e+01	-2.826219e+02
2.000000e-08	-6.731059e-06	-4.301872e-09	-4.767764e+01	-2.826131e+02
3.000000e-08	-6.727861e-06	-4.300558e-09	-4.765498e+01	-2.826001e+02
4.000000e-08	-6.723666e-06	-4.299337e-09	-4.762527e+01	-2.825829e+02
5.000000e-08	-6.718456e-06	-4.297851e-09	-4.758837e+01	-2.825607e+02
6.000000e-08	-6.712141e-06	-4.296626e-09	-4.754363e+01	-2.825327e+02
7.000000e-08	-6.704836e-06	-4.294090e-09	-4.749189e+01	-2.824978e+02
8.000000e-08	-6.696583e-06	-4.285652e-09	-4.743343e+01	-2.824545e+02
9.000000e-08	-6.686900e-06	-4.294978e-09	-4.736485e+01	-2.824013e+02
1.000000e-07	-6.675505e-06	-4.332464e-09	-4.728413e+01	-2.823369e+02
1.100000e-07	-6.662551e-06	-4.338624e-09	-4.719238e+01	-2.822596e+02
1.200000e-07	-6.647961e-06	-4.322837e-09	-4.708903e+01	-2.821682e+02
1.300000e-07	-6.631878e-06	-4.249578e-09	-4.697511e+01	-2.820612e+02
1.400000e-07	-6.614815e-06	-4.214618e-09	-4.685425e+01	-2.819375e+02
1.500000e-07	-6.596874e-06	-4.335776e-09	-4.672717e+01	-2.817959e+02
1.600000e-07	-6.577984e-06	-4.306538e-09	-4.659337e+01	-2.816354e+02
1.700000e-07	-6.558355e-06	-4.245874e-09	-4.645433e+01	-2.814548e+02
1.800000e-07	-6.537771e-06	-4.276523e-09	-4.630853e+01	-2.812533e+02
1.900000e-07	-6.515933e-06	-4.197147e-09	-4.615385e+01	-2.810298e+02
2.000000e-07	-6.493205e-06	-4.245234e-09	-4.599286e+01	-2.807833e+02
2.100000e-07	-6.469591e-06	-4.366710e-09	-4.582559e+01	-2.805128e+02
2.200000e-07	-6.444476e-06	-4.228280e-09	-4.564770e+01	-2.802175e+02
2.300000e-07	-6.417885e-06	-4.184283e-09	-4.545935e+01	-2.798964e+02
2.400000e-07	-6.390268e-06	-4.296640e-09	-4.526373e+01	-2.795491e+02
2.500000e-07	-6.361692e-06	-4.265205e-09	-4.506132e+01	-2.791749e+02
2.600000e-07	-6.332043e-06	-4.271257e-09	-4.485131e+01	-2.787738e+02
2.700000e-07	-6.301269e-06	-4.223730e-09	-4.463333e+01	-2.783461e+02
2.800000e-07	-6.269554e-06	-4.163906e-09	-4.440869e+01	-2.778924e+02
2.900000e-07	-6.236803e-06	-4.245776e-09	-4.417670e+01	-2.774137e+02
3.000000e-07	-6.202720e-06	-4.250948e-09	-4.393528e+01	-2.769116e+02
3.100000e-07	-6.167334e-06	-4.182384e-09	-4.368464e+01	-2.763881e+02
3.200000e-07	-6.130729e-06	-4.179604e-09	-4.342536e+01	-2.758453e+02
3.300000e-07	-6.092998e-06	-4.172119e-09	-4.315810e+01	-2.752858e+02
3.400000e-07	-6.054268e-06	-4.174524e-09	-4.288376e+01	-2.747123e+02
3.500000e-07	-6.014643e-06	-4.221053e-09	-4.260309e+01	-2.741272e+02
3.600000e-07	-5.973833e-06	-4.179837e-09	-4.231402e+01	-2.735329e+02
3.700000e-07	-5.931657e-06	-4.093744e-09	-4.201528e+01	-2.729315e+02
3.800000e-07	-5.888379e-06	-4.150787e-09	-4.170874e+01	-2.723244e+02
3.900000e-07	-5.844058e-06	-4.208654e-09	-4.139480e+01	-2.717125e+02
4.000000e-07	-5.798566e-06	-4.113818e-09	-4.107257e+01	-2.710959e+02
4.100000e-07	-5.752013e-06	-4.081879e-09	-4.074283e+01	-2.704741e+02
4.200000e-07	-5.704640e-06	-4.123155e-09	-4.040727e+01	-2.698455e+02
4.300000e-07	-5.656270e-06	-4.113736e-09	-4.006465e+01	-2.692081e+02
4.400000e-07	-5.606468e-06	-4.092329e-09	-3.971189e+01	-2.685592e+02
4.500000e-07	-5.555217e-06	-4.083198e-09	-3.934888e+01	-2.678956e+02
4.600000e-07	-5.502859e-06	-4.066753e-09	-3.897801e+01	-2.672139e+02
4.700000e-07	-5.449617e-06	-4.047508e-09	-3.860089e+01	-2.665104e+02
4.800000e-07	-5.395508e-06	-4.058553e-09	-3.821762e+01	-2.657819e+02
4.900000e-07	-5.340532e-06	-4.044116e-09	-3.782821e+01	-2.650251e+02
5.000000e-07	-5.284749e-06	-3.998863e-09	-3.743309e+01	-2.642376e+02
5.100000e-07	-5.228059e-06	-3.988793e-09	-3.703154e+01	-2.634173e+02
5.200000e-07	-5.170259e-06	-4.000150e-09	-3.662213e+01	-2.625631e+02
5.300000e-07	-5.111382e-06	-3.994946e-09	-3.620509e+01	-2.616744e+02
5.400000e-07	-5.051594e-06	-3.954107e-09	-3.578160e+01	-2.607516e+02
5.500000e-07	-4.990996e-06	-3.931642e-09	-3.535237e+01	-2.597955e+02
5.600000e-07	-4.929697e-06	-3.951237e-09	-3.491817e+01	-2.588077e+02
5.700000e-07	-4.867671e-06	-3.943674e-09	-3.447883e+01	-2.577898e+02
5.800000e-07	-4.804832e-06	-3.897761e-09	-3.403373e+01	-2.567440e+02
5.900000e-07	-4.741158e-06	-3.872613e-09	-3.358271e+01	-2.556719e+02
6.000000e-07	-4.676578e-06	-3.879671e-09	-3.312527e+01	-2.545753e+02
6.100000e-07	-4.610980e-06	-3.865472e-09	-3.266063e+01	-2.534551e+02
6.200000e-07	-4.544384e-06	-3.833658e-09	-3.218891e+01	-2.523120e+02
6.300000e-07	-4.476952e-06	-3.813000e-09	-3.171128e+01	-2.511458e+02
6.400000e-07	-4.408821e-06	-3.794732e-09	-3.122869e+01	-2.499555e+02
6.500000e-07	-4.340039e-06	-3.784433e-09	-3.074149e+01	-2.487394e+02
6.600000e-07	-4.270460e-06	-3.773456e-09	-3.024865e+01	-2.474953e+02
6.700000e-07	-4.200023e-06	-3.744853e-09	-2.974972e+01	-2.462205e+02
6.800000e-07	-4.128926e-06	-3.711324e-09	-2.924613e+01	-2.449117e+02
6.900000e-07	-4.057275e-06	-3.700477e-09	-2.873861e+01	-2.435658e+02
7.000000e-07	-3.984767e-06	-3.698615e-09	-2.822501e+01	-2.421798e+02
7.100000e-07	-3.911208e-06	-3.666636e-09	-2.770398e+01	-2.407507e+02
7.200000e-07	-3.836774e-06	-3.623663e-09	-2.717675e+01	-2.392762e+02
7.300000e-07	-3.761612e-06	-3.606674e-09	-2.664436e+01	-2.377546e+02
7.400000e-07	-3.685795e-06	-3.599659e-09	-2.610733e+01	-2.361847e+02
7.500000e-07	-3.609237e-06	-3.573156e-09	-2.556506e+01	-2.345660e+02
7.600000e-07	-3.531876e-06	-3.534772e-09	-2.501708e+01	-2.328987e+02
7.700000e-07	-3.453773e-06	-3.508277e-09	-2.446386e+01	-2.311831e+02
7.800000e-07	-3.374978e-06	-3.488575e-09	-2.390574e+01	-2.294199e+02
7.900000e-07	-3.295458e-06	-3.459750e-09	-2.334248e+01	-2.276098e+02
8.000000e-07	-3.215204e-06	-3.425383e-09	-2.277403e+01	-2.257531e+02
8.100000e-07	-3.134379e-06	-3.394497e-09	-2.220153e+01	-2.238497e+02
8.200000e-07	-3.053028e-06	-3.367980e-09	-2.162530e+01	-2.218985e+02
8.300000e-07	-2.971154e-06	-3.342646e-09	-2.104536e+01	-2.198976e+02
8.400000e-07	-2.888856e-06	-3.314975e-09	-2.046243e+01	-2.178439e+02
8.500000e-07	-2.806172e-06	-3.279173e-09	-1.987676e+01	-2.157333e+02
8.600000e-07	-2.723152e-06	-3.242596e-09	-1.928871e+01	-2.135606e+02
8.700000e-07	-2.639844e-06	-3.215371e-09	-1.869862e+01	-2.113196e+02
8.800000e-07	-2.556215e-06	-3.182221e-09	-1.810625e+01	-2.090033e+02
8.900000e-07	-2.472151e-06	-3.137507e-09	-1.751081e+01	-2.066046e+02
9.000000e-07	-2.387744e-06	-3.094943e-09	-1.691294e+01	-2.041159e+02
9.100000e-07	-2.303058e-06	-3.059389e-09	-1.631309e+01	-2.015300e+02
9.200000e-07	-2.218070e-06	-3.021316e-09	-1.571110e+01	-1.988402e+02
9.300000e-07	-2.132750e-06	-2.972510e-09	-1.510676e+01	-1.960405e+02
9.400000e-07	-2.046995e-06	-2.924179e-09	-1.449933e+01	-1.931259e+02
9.500000e-07	-1.960855e-06	-2.881500e-09	-1.388918e+01	-1.900923e+02
9.600000e-07	-1.874435e-06	-2.838051e-09	-1.327705e+01	-1.869364e+02
9.700000e-07	-1.787749e-06	-2.788137e-09	-1.266303e+01	-1.836560e+02
9.800000e-07	-1.700749e-06	-2.733291e-09	-1.204680e+01	-1.802486e+02
9.900000e-07	-1.613511e-06	-2.679013e-09	-1.142887e+01	-1.767120e+02
1.000000e-06	-1.526044e-06	-2.624815e-09	-1.080932e+01	-1.730430e+02
1.010000e-06	-1.438253e-06	-2.568526e-09	-1.018747e+01	-1.692371e+02
1.020000e-06	-1.350201e-06	-2.506196e-09	-9.563780e+00	-1.652877e+02
1.030000e-06	-1.261909e-06	-2.440267e-09	-8.938394e+00	-1.611855e+02
1.040000e-06	-1.173328e-06	-2.374247e-09	-8.310950e+00	-1.569179e+02
1.050000e-06	-1.084450e-06	-2.307770e-09	-7.681409e+00	-1.524687e+02
1.060000e-06	-9.953122e-07	-2.234829e-09	-7.050025e+00	-1.478178e+02
1.070000e-06	-9.059585e-07	-2.154964e-09	-6.417111e+00	-1.429413e+02
1.080000e-06	-8.163951e-07	-2.074030e-09	-5.782713e+00	-1.378119e+02
1.090000e-06	-7.266327e-07	-1.993606e-09	-5.146906e+00	-1.323990e+02
1.100000e-06	-6.367233e-07	-1.908810e-09	-4.510057e+00	-1.266703e+02
1.110000e-06	-5.467128e-07	-1.813349e-09	-3.872492e+00	-1.205925e+02
1.120000e-06	-4.565424e-07	-1.714080e-09	-3.233794e+00	-1.141327e+02
1.130000e-06	-3.662704e-07	-1.614677e-09	-2.594377e+00	-1.072598e+02
1.140000e-06	-2.759224e-07	-1.508921e-09	-1.954422e+00	-9.994667e+01
1.150000e-06	-1.855059e-07	-1.389529e-09	-1.313981e+00	-9.217119e+01
1.160000e-06	-9.507551e-08	-1.261665e-09	-6.734416e-01	-8.391822e+01
1.170000e-06	-4.598880e-09	-1.131236e-09	-3.257492e-02	-7.518099e+01
1.180000e-06	8.587365e-08	-9.918414e-10	6.082627e-01	-6.596229e+01
1.190000e-06	1.762809e-07	-8.431435e-10	1.248638e+00	-5.627539e+01
1.200000e-06	2.665948e-07	-6.842606e-10	1.888352e+00	-4.614459e+01
1.210000e-06	3.568410e-07	-5.213093e-10	2.527586e+00	-3.560534e+01
1.220000e-06	4.469800e-07	-3.603917e-10	3.166062e+00	-2.470389e+01
1.230000e-06	5.369231e-07	-1.954134e-10	3.803149e+00	-1.349650e+01
1.240000e-06	6.266510e-07	-2.277266e-11	4.438712e+00	-2.048273e+00
1.250000e-06	7.162231e-07	1.560792e-10	5.073172e+00	9.568498e+00
1.260000e-06	8.056657e-07	3.326709e-10	5.706715e+00	2.127622e+01
1.270000e-06	8.949661e-07	5.101734e-10	6.339250e+00	3.299416e+01
1.280000e-06	9.841009e-07	6.904613e-10	6.970612e+00	4.464078e+01
1.290000e-06	1.072990e-06	8.691062e-10	7.600236e+00	5.613604e+01
1.300000e-06	1.161665e-06	1.039521e-09	8.228341e+00	6.740371e+01
1.310000e-06	1.250090e-06	1.201766e-09	8.854670e+00	7.837348e+01
1.320000e-06	1.338241e-06	1.362624e-09	9.479064e+00	8.898283e+01
1.330000e-06	1.426186e-06	1.518752e-09	1.010200e+01	9.917851e+01
1.340000e-06	1.513879e-06	1.667019e-09	1.072315e+01	1.089177e+02
1.350000e-06	1.601312e-06	1.805438e-09	1.134246e+01	1.181686e+02
1.360000e-06	1.688466e-06	1.937924e-09	1.195979e+01	1.269109e+02
1.370000e-06	1.775339e-06	2.063107e-09	1.257514e+01	1.351352e+02
1.380000e-06	1.861937e-06	2.179951e-09	1.318853e+01	1.428426e+02
1.390000e-06	1.948282e-06	2.286036e-09	1.380013e+01	1.500437e+02
1.400000e-06	2.034408e-06	2.380859e-09	1.441018e+01	1.567572e+02
1.410000e-06	2.120218e-06	2.469591e-09	1.501799e+01	1.630083e+02
1.420000e-06	2.205668e-06	2.554789e-09	1.562325e+01	1.688273e+02
1.430000e-06	2.290723e-06	2.635972e-09	1.622571e+01	1.742477e+02
1.440000e-06	2.375375e-06	2.710277e-09	1.682533e+01	1.793046e+02
1.450000e-06	2.459711e-06	2.780523e-09	1.742270e+01	1.840333e+02
1.460000e-06	2.543747e-06	2.851451e-09	1.801794e+01	1.884675e+02
1.470000e-06	2.627443e-06	2.920405e-09	1.861078e+01	1.926389e+02
1.480000e-06	2.710730e-06	2.980431e-09	1.920072e+01	1.965759e+02
1.490000e-06	2.793524e-06	3.034714e-09	1.978717e+01	2.003032e+02
1.500000e-06	2.875813e-06	3.088463e-09	2.037004e+01	2.038416e+02
1.510000e-06	2.957637e-06	3.138427e-09	2.094962e+01	2.072082e+02
1.520000e-06	3.039040e-06	3.184659e-09	2.152621e+01	2.104161e+02
1.530000e-06	3.119905e-06	3.228078e-09	2.209900e+01	2.134757e+02
1.540000e-06	3.200139e-06	3.269040e-09	2.266732e+01	2.163945e+02
1.550000e-06	3.279712e-06	3.309351e-09	2.323095e+01	2.191783e+02
1.560000e-06	3.358587e-06	3.346954e-09	2.378964e+01	2.218317e+02
1.570000e-06	3.436817e-06	3.382223e-09	2.434376e+01	2.243585e+02
1.580000e-06	3.514442e-06	3.415527e-09	2.489360e+01	2.267627e+02
1.590000e-06	3.591446e-06	3.450407e-09	2.543904e+01	2.290488e+02
1.600000e-06	3.667765e-06	3.483862e-09	2.597962e+01	2.312218e+02
1.610000e-06	3.743411e-06	3.511827e-09	2.651544e+01	2.332878e+02
1.620000e-06	3.818275e-06	3.538385e-09	2.704571e+01	2.352538e+02
1.630000e-06	3.892144e-06	3.563769e-09	2.756895e+01	2.371275e+02
1.640000e-06	3.965095e-06	3.589765e-09	2.808568e+01	2.389171e+02
1.650000e-06	4.037277e-06	3.613377e-09	2.859696e+01	2.406311e+02
1.660000e-06	4.108700e-06	3.636532e-09	2.910286e+01	2.422780e+02
1.670000e-06	4.179433e-06	3.661199e-09	2.960388e+01	2.438655e+02
1.680000e-06	4.249490e-06	3.684004e-09	3.010011e+01	2.454008e+02
1.690000e-06	4.318825e-06	3.708514e-09	3.059123e+01	2.468897e+02
1.700000e-06	4.387489e-06	3.730607e-09	3.107759e+01	2.483367e+02
1.710000e-06	4.455558e-06	3.751383e-09	3.155974e+01	2.497452e+02
1.720000e-06	4.522952e-06	3.771553e-09	3.203711e+01	2.511167e+02
1.730000e-06	4.589436e-06	3.789080e-09	3.250802e+01	2.524518e+02
1.740000e-06	4.654897e-06	3.805651e-09	3.297170e+01	2.537496e+02
1.750000e-06	4.719438e-06	3.821841e-09	3.342886e+01	2.550088e+02
1.760000e-06	4.783160e-06	3.839943e-09	3.388022e+01	2.562272e+02
1.770000e-06	4.846132e-06	3.857292e-09	3.432627e+01	2.574025e+02
1.780000e-06	4.908377e-06	3.874228e-09	3.476716e+01	2.585328e+02
1.790000e-06	4.969880e-06	3.891428e-09	3.520280e+01	2.596165e+02
1.800000e-06	5.030614e-06	3.908090e-09	3.563299e+01	2.606527e+02
1.810000e-06	5.090608e-06	3.923484e-09	3.605795e+01	2.616415e+02
1.820000e-06	5.149858e-06	3.937133e-09	3.647762e+01	2.625839e+02
1.830000e-06	5.208087e-06	3.951461e-09	3.689007e+01	2.634822e+02
1.840000e-06	5.265158e-06	3.966106e-09	3.729432e+01	2.643393e+02
1.850000e-06	5.321214e-06	3.979581e-09	3.769138e+01	2.651590e+02
1.860000e-06	5.376357e-06	3.992614e-09	3.808197e+01	2.659456e+02
1.870000e-06	5.430602e-06	4.005359e-09	3.846619e+01	2.667037e+02
1.880000e-06	5.483906e-06	4.018303e-09	3.884376e+01	2.674380e+02
1.890000e-06	5.536149e-06	4.030607e-09	3.921381e+01	2.681526e+02
1.900000e-06	5.587222e-06	4.041903e-09	3.957557e+01	2.688513e+02
1.910000e-06	5.636955e-06	4.054889e-09	3.992785e+01	2.695368e+02
1.920000e-06	5.685395e-06	4.067562e-09	4.027095e+01	2.702112e+02
1.930000e-06	5.732770e-06	4.077353e-09	4.060652e+01	2.708754e+02
1.940000e-06	5.779154e-06	4.087384e-09	4.093507e+01	2.715293e+02
1.950000e-06	5.824549e-06	4.098558e-09	4.125662e+01	2.721719e+02
1.960000e-06	5.869005e-06	4.108873e-09	4.157151e+01	2.728013e+02
1.970000e-06	5.912618e-06	4.118736e-09	4.188042e+01	2.734151e+02
1.980000e-06	5.955205e-06	4.129627e-09	4.218208e+01	2.740106e+02
1.990000e-06	5.996453e-06	4.140438e-09	4.247425e+01	2.745850e+02
2.000000e-06	6.036469e-06	4.149311e-09	4.275769e+01	2.751355e+02
2.010000e-06	6.075462e-06	4.157046e-09	4.303389e+01	2.756599e+02
2.020000e-06	6.113426e-06	4.164627e-09	4.330279e+01	2.761565e+02
2.030000e-06	6.150399e-06	4.172710e-09	4.356469e+01	2.766243e+02
2.040000e-06	6.186419e-06	4.182486e-09	4.381982e+01	2.770632e+02
2.050000e-06	6.221551e-06	4.191098e-09	4.406867e+01	2.774738e+02
2.060000e-06	6.255526e-06	4.198535e-09	4.430932e+01	2.778576e+02
2.070000e-06	6.288099e-06	4.205275e-09	4.454005e+01	2.782167e+02
2.080000e-06	6.319568e-06	4.211957e-09	4.476295e+01	2.785537e+02
2.090000e-06	6.350049e-06	4.219252e-09	4.497885e+01	2.788715e+02
2.100000e-06	6.379506e-06	4.226171e-09	4.518750e+01	2.791731e+02
2.110000e-06	6.408000e-06	4.232564e-09	4.538933e+01	2.794613e+02
2.120000e-06	6.435574e-06	4.236402e-09	4.558464e+01	2.797388e+02
2.130000e-06	6.461976e-06	4.242594e-09	4.577166e+01	2.800076e+02
2.140000e-06	6.486944e-06	4.248555e-09	4.594851e+01	2.802692e+02
2.150000e-06	6.510678e-06	4.252218e-09	4.611662e+01	2.805242e+02
2.160000e-06	6.533349e-06	4.254445e-09	4.627721e+01	2.807730e+02
2.170000e-06	6.554918e-06	4.255437e-09	4.642999e+01	2.810149e+02
2.180000e-06	6.575437e-06	4.260821e-09	4.657533e+01	2.812488e+02
2.190000e-06	6.595039e-06	4.266057e-09	4.671417e+01	2.814731e+02
2.200000e-06	6.613565e-06	4.269638e-09	4.684539e+01	2.816862e+02
2.210000e-06	6.630819e-06	4.273201e-09	4.696761e+01	2.818861e+02
2.220000e-06	6.646836e-06	4.278159e-09	4.708106e+01	2.820709e+02
2.230000e-06	6.661612e-06	4.282248e-09	4.718573e+01	2.822392e+02
2.240000e-06	6.675169e-06	4.284191e-09	4.728175e+01	2.823896e+02
2.250000e-06	6.687529e-06	4.287218e-09	4.736930e+01	2.825215e+02
2.260000e-06	6.698582e-06	4.289812e-09	4.744759e+01	2.826345e+02
2.270000e-06	6.708109e-06	4.292575e-09	4.751507e+01	2.827292e+02
2.280000e-06	6.716243e-06	4.295071e-09	4.757268e+01	2.828062e+02
2.290000e-06	6.723263e-06	4.296296e-09	4.762241e+01	2.828669e+02
2.300000e-06	6.729168e-06	4.298690e-09	4.766424e+01	2.829129e+02
2.310000e-06	6.733932e-06	4.302534e-09	4.769798e+01	2.829461e+02
2.320000e-06	6.737703e-06	4.305450e-09	4.772469e+01	2.829683e+02
2.330000e-06	6.740302e-06	4.306492e-09	4.774310e+01	2.829814e+02
2.340000e-06	6.741382e-06	4.309472e-09	4.775075e+01	2.829872e+02
2.350000e-06	6.741190e-06	4.311021e-09	4.774939e+01	2.829870e+02
2.360000e-06	6.739959e-06	4.310023e-09	4.774067e+01	2.829819e+02
2.370000e-06	6.737659e-06	4.308441e-09	4.772438e+01	2.829725e+02
2.380000e-06	6.734328e-06	4.308574e-09	4.770079e+01	2.829589e+02
2.390000e-06	6.730071e-06	4.309223e-09	4.767064e+01	2.829409e+02
2.400000e-06	6.724747e-06	4.309717e-09	4.763292e+01	2.829180e+02
2.410000e-06	6.718036e-06	4.310197e-09	4.758539e+01	2.828890e+02
2.420000e-06	6.710078e-06	4.312453e-09	4.752902e+01	2.828529e+02
2.430000e-06	6.701136e-06	4.317354e-09	4.746568e+01	2.828082e+02
2.440000e-06	6.691131e-06	4.258178e-09	4.739481e+01	2.827535e+02
2.450000e-06	6.679589e-06	4.241045e-09	4.731306e+01	2.826872e+02
2.460000e-06	6.666004e-06	4.247310e-09	4.721683e+01	2.826079e+02
2.470000e-06	6.650666e-06	4.328494e-09	4.710819e+01	2.825143e+02
2.480000e-06	6.634521e-06	4.394073e-09	4.699383e+01	2.824049e+02
2.490000e-06	6.618006e-06	4.240996e-09	4.687685e+01	2.822785e+02
2.500000e-06	6.600377e-06	4.251365e-09	4.675198e+01	2.821342e+02
2.510000e-06	6.581269e-06	4.322075e-09	4.661664e+01	2.819707e+02
2.520000e-06	6.561479e-06	4.240420e-09	4.647646e+01	2.817870e+02
2.530000e-06	6.540872e-06	4.351138e-09	4.633049e+01	2.815823e+02
2.540000e-06	6.518521e-06	4.366117e-09	4.617218e+01	2.813554e+02
2.550000e-06	6.494804e-06	4.196540e-09	4.600418e+01	2.811053e+02
2.560000e-06	6.470326e-06	4.341269e-09	4.583080e+01	2.808312e+02
2.570000e-06	6.444806e-06	4.410593e-09	4.565004e+01	2.805320e+02
2.580000e-06	6.418164e-06	4.251526e-09	4.546133e+01	2.802071e+02
2.590000e-06	6.390488e-06	4.304718e-09	4.526529e+01	2.798557e+02
2.600000e-06	6.361872e-06	4.289944e-09	4.506259e+01	2.794775e+02
2.610000e-06	6.332188e-06	4.251946e-09	4.485234e+01	2.790724e+02
2.620000e-06	6.300964e-06	4.347734e-09	4.463117e+01	2.786408e+02
2.630000e-06	6.268427e-06	4.235178e-09	4.440070e+01	2.781832e+02
2.640000e-06	6.234887e-06	4.228257e-09	4.416313e+01	2.777009e+02
2.650000e-06	6.200139e-06	4.281520e-09	4.391700e+01	2.771955e+02
2.660000e-06	6.164343e-06	4.210700e-09	4.366345e+01	2.766689e+02
2.670000e-06	6.127685e-06	4.287531e-09	4.340379e+01	2.761234e+02
2.680000e-06	6.089754e-06	4.230181e-09	4.313513e+01	2.755617e+02
2.690000e-06	6.050315e-06	4.142103e-09	4.285577e+01	2.749862e+02
2.700000e-06	6.009804e-06	4.223196e-09	4.256882e+01	2.743996e+02
2.710000e-06	5.968450e-06	4.246840e-09	4.227590e+01	2.738042e+02
2.720000e-06	5.925958e-06	4.196805e-09	4.197492e+01	2.732018e+02
2.730000e-06	5.882381e-06	4.108421e-09	4.166625e+01	2.725940e+02
2.740000e-06	5.838018e-06	4.178564e-09	4.135202e+01	2.719814e+02
2.750000e-06	5.792703e-06	4.215416e-09	4.103104e+01	2.713641e+02
2.760000e-06	5.746258e-06	4.119183e-09	4.070206e+01	2.707413e+02
2.770000e-06	5.698835e-06	4.135951e-09	4.036615e+01	2.701116e+02
2.780000e-06	5.650459e-06	4.124480e-09	4.002350e+01	2.694726e+02
2.790000e-06	5.600959e-06	4.122450e-09	3.967287e+01	2.688217e+02
2.800000e-06	5.550312e-06	4.120487e-09	3.931413e+01	2.681557e+02
2.810000e-06	5.498749e-06	4.098663e-09	3.894890e+01	2.674709e+02
2.820000e-06	5.446262e-06	4.098629e-09	3.857712e+01	2.667639e+02
2.830000e-06	5.392545e-06	4.048483e-09	3.819663e+01	2.660313e+02
2.840000e-06	5.337571e-06	4.076129e-09	3.780724e+01	2.652701e+02
2.850000e-06	5.281577e-06	4.084232e-09	3.741062e+01	2.644777e+02
2.860000e-06	5.224715e-06	4.033858e-09	3.700785e+01	2.636524e+02
2.870000e-06	5.166978e-06	4.011231e-09	3.659889e+01	2.627930e+02
2.880000e-06	5.108404e-06	4.021214e-09	3.618400e+01	2.618992e+02
2.890000e-06	5.049043e-06	4.037490e-09	3.576352e+01	2.609713e+02
2.900000e-06	4.988935e-06	3.973464e-09	3.533777e+01	2.600104e+02
2.910000e-06	4.928050e-06	3.954501e-09	3.490650e+01	2.590179e+02
2.920000e-06	4.866173e-06	3.976020e-09	3.446822e+01	2.579958e+02
2.930000e-06	4.803192e-06	3.958616e-09	3.402211e+01	2.569459e+02
2.940000e-06	4.739241e-06	3.926689e-09	3.356913e+01	2.558700e+02
2.950000e-06	4.674510e-06	3.905633e-09	3.311063e+01	2.547698e+02
