# Temperatura_=_20.0
# Concentracion g/m^3_=_9000.0
# C_Vs_to_Am_M_A/Vsm_=_65563218390.804596
# pendiente_HvsI_1/m_=_3716.3
# ordenada_HvsI_A/m_=_1297.0
# frecuencia_Hz_=_212905.75896811267

Tiempo_(s)	Campo_(V.s)	Magnetizacion_(V.s)	Campo_(kA/m)	Magnetizacion_(A/m)
0.000000e+00	-6.738485e-06	-4.314415e-09	-4.769309e+01	-2.837791e+02
1.000000e-08	-6.737074e-06	-4.312718e-09	-4.768310e+01	-2.837764e+02
2.000000e-08	-6.734281e-06	-4.313152e-09	-4.766334e+01	-2.837715e+02
3.000000e-08	-6.730401e-06	-4.314435e-09	-4.763587e+01	-2.837645e+02
4.000000e-08	-6.725536e-06	-4.314825e-09	-4.760144e+01	-2.837548e+02
5.000000e-08	-6.719568e-06	-4.313407e-09	-4.755920e+01	-2.837409e+02
6.000000e-08	-6.712514e-06	-4.309550e-09	-4.750928e+01	-2.837209e+02
7.000000e-08	-6.704504e-06	-4.303793e-09	-4.745259e+01	-2.836922e+02
8.000000e-08	-6.695328e-06	-4.295110e-09	-4.738764e+01	-2.836520e+02
9.000000e-08	-6.684536e-06	-4.322116e-09	-4.731126e+01	-2.835971e+02
1.000000e-07	-6.672086e-06	-4.358418e-09	-4.722314e+01	-2.835244e+02
1.100000e-07	-6.658192e-06	-4.351601e-09	-4.712480e+01	-2.834307e+02
1.200000e-07	-6.642855e-06	-4.305524e-09	-4.701625e+01	-2.833132e+02
1.300000e-07	-6.626194e-06	-4.196584e-09	-4.689833e+01	-2.831693e+02
1.400000e-07	-6.608593e-06	-4.226666e-09	-4.677376e+01	-2.829971e+02
1.500000e-07	-6.590115e-06	-4.366661e-09	-4.664297e+01	-2.827949e+02
1.600000e-07	-6.570761e-06	-4.299936e-09	-4.650599e+01	-2.825617e+02
1.700000e-07	-6.550496e-06	-4.251685e-09	-4.636256e+01	-2.822973e+02
1.800000e-07	-6.529036e-06	-4.256146e-09	-4.621067e+01	-2.820017e+02
1.900000e-07	-6.506505e-06	-4.180884e-09	-4.605120e+01	-2.816757e+02
2.000000e-07	-6.483135e-06	-4.296754e-09	-4.588580e+01	-2.813203e+02
2.100000e-07	-6.458556e-06	-4.367141e-09	-4.571184e+01	-2.809372e+02
2.200000e-07	-6.432493e-06	-4.184470e-09	-4.552737e+01	-2.805282e+02
2.300000e-07	-6.405239e-06	-4.186390e-09	-4.533447e+01	-2.800954e+02
2.400000e-07	-6.377032e-06	-4.326209e-09	-4.513483e+01	-2.796411e+02
2.500000e-07	-6.347771e-06	-4.331902e-09	-4.492773e+01	-2.791676e+02
2.600000e-07	-6.317418e-06	-4.286411e-09	-4.471290e+01	-2.786772e+02
2.700000e-07	-6.286035e-06	-4.188576e-09	-4.449078e+01	-2.781722e+02
2.800000e-07	-6.253626e-06	-4.195231e-09	-4.426140e+01	-2.776546e+02
2.900000e-07	-6.219994e-06	-4.319127e-09	-4.402336e+01	-2.771263e+02
3.000000e-07	-6.184999e-06	-4.286900e-09	-4.377568e+01	-2.765891e+02
3.100000e-07	-6.148816e-06	-4.189611e-09	-4.351958e+01	-2.760442e+02
3.200000e-07	-6.111517e-06	-4.174233e-09	-4.325559e+01	-2.754927e+02
3.300000e-07	-6.073109e-06	-4.193502e-09	-4.298375e+01	-2.749352e+02
3.400000e-07	-6.033769e-06	-4.242562e-09	-4.270531e+01	-2.743719e+02
3.500000e-07	-5.993386e-06	-4.250164e-09	-4.241949e+01	-2.738027e+02
3.600000e-07	-5.951632e-06	-4.145789e-09	-4.212397e+01	-2.732270e+02
3.700000e-07	-5.908621e-06	-4.099167e-09	-4.181955e+01	-2.726437e+02
3.800000e-07	-5.864598e-06	-4.217346e-09	-4.150797e+01	-2.720514e+02
3.900000e-07	-5.819533e-06	-4.237524e-09	-4.118901e+01	-2.714485e+02
4.000000e-07	-5.773407e-06	-4.102937e-09	-4.086255e+01	-2.708328e+02
4.100000e-07	-5.726374e-06	-4.081011e-09	-4.052966e+01	-2.702021e+02
4.200000e-07	-5.678395e-06	-4.152626e-09	-4.019007e+01	-2.695540e+02
4.300000e-07	-5.629155e-06	-4.155994e-09	-3.984157e+01	-2.688861e+02
4.400000e-07	-5.578487e-06	-4.106959e-09	-3.948295e+01	-2.681962e+02
4.500000e-07	-5.526574e-06	-4.073120e-09	-3.911553e+01	-2.674820e+02
4.600000e-07	-5.473633e-06	-4.070868e-09	-3.874083e+01	-2.667418e+02
4.700000e-07	-5.419797e-06	-4.084823e-09	-3.835979e+01	-2.659740e+02
4.800000e-07	-5.365143e-06	-4.082639e-09	-3.797297e+01	-2.651778e+02
4.900000e-07	-5.309628e-06	-4.030634e-09	-3.758005e+01	-2.643527e+02
5.000000e-07	-5.253185e-06	-3.989517e-09	-3.718056e+01	-2.634986e+02
5.100000e-07	-5.195741e-06	-4.011305e-09	-3.677399e+01	-2.626160e+02
5.200000e-07	-5.137252e-06	-4.027809e-09	-3.636002e+01	-2.617058e+02
5.300000e-07	-5.077802e-06	-3.991412e-09	-3.593925e+01	-2.607694e+02
5.400000e-07	-5.017499e-06	-3.943608e-09	-3.551244e+01	-2.598081e+02
5.500000e-07	-4.956397e-06	-3.946559e-09	-3.507997e+01	-2.588235e+02
5.600000e-07	-4.894515e-06	-3.972543e-09	-3.464199e+01	-2.578169e+02
5.700000e-07	-4.831868e-06	-3.946359e-09	-3.419860e+01	-2.567896e+02
5.800000e-07	-4.768453e-06	-3.888757e-09	-3.374976e+01	-2.557423e+02
5.900000e-07	-4.704174e-06	-3.876637e-09	-3.329482e+01	-2.546753e+02
6.000000e-07	-4.638963e-06	-3.897255e-09	-3.283327e+01	-2.535883e+02
6.100000e-07	-4.572729e-06	-3.877578e-09	-3.236448e+01	-2.524803e+02
6.200000e-07	-4.505564e-06	-3.828960e-09	-3.188911e+01	-2.513496e+02
6.300000e-07	-4.437690e-06	-3.805494e-09	-3.140871e+01	-2.501940e+02
6.400000e-07	-4.369127e-06	-3.806118e-09	-3.092345e+01	-2.490108e+02
6.500000e-07	-4.299834e-06	-3.799143e-09	-3.043301e+01	-2.477967e+02
6.600000e-07	-4.229717e-06	-3.770534e-09	-2.993674e+01	-2.465483e+02
6.700000e-07	-4.158851e-06	-3.734900e-09	-2.943518e+01	-2.452624e+02
6.800000e-07	-4.087338e-06	-3.716274e-09	-2.892902e+01	-2.439354e+02
6.900000e-07	-4.015057e-06	-3.714848e-09	-2.841743e+01	-2.425647e+02
7.000000e-07	-3.941898e-06	-3.696267e-09	-2.789964e+01	-2.411476e+02
7.100000e-07	-3.867803e-06	-3.650189e-09	-2.737522e+01	-2.396823e+02
7.200000e-07	-3.792755e-06	-3.617186e-09	-2.684404e+01	-2.381677e+02
7.300000e-07	-3.716906e-06	-3.616081e-09	-2.630721e+01	-2.366034e+02
7.400000e-07	-3.640409e-06	-3.604685e-09	-2.576579e+01	-2.349893e+02
7.500000e-07	-3.563208e-06	-3.559697e-09	-2.521938e+01	-2.333262e+02
7.600000e-07	-3.485251e-06	-3.520143e-09	-2.466762e+01	-2.316151e+02
7.700000e-07	-3.406719e-06	-3.507031e-09	-2.411180e+01	-2.298570e+02
7.800000e-07	-3.327572e-06	-3.492212e-09	-2.355161e+01	-2.280531e+02
7.900000e-07	-3.247605e-06	-3.453139e-09	-2.298563e+01	-2.262037e+02
8.000000e-07	-3.166941e-06	-3.408654e-09	-2.241471e+01	-2.243091e+02
8.100000e-07	-3.085727e-06	-3.381884e-09	-2.183991e+01	-2.223682e+02
8.200000e-07	-3.004067e-06	-3.362128e-09	-2.126193e+01	-2.203794e+02
8.300000e-07	-2.921967e-06	-3.331908e-09	-2.068086e+01	-2.183397e+02
8.400000e-07	-2.839382e-06	-3.289662e-09	-2.009634e+01	-2.162450e+02
8.500000e-07	-2.756390e-06	-3.249246e-09	-1.950895e+01	-2.140904e+02
8.600000e-07	-2.673099e-06	-3.222888e-09	-1.891944e+01	-2.118698e+02
8.700000e-07	-2.589500e-06	-3.197777e-09	-1.832775e+01	-2.095767e+02
8.800000e-07	-2.505517e-06	-3.154951e-09	-1.773334e+01	-2.072039e+02
8.900000e-07	-2.421171e-06	-3.104714e-09	-1.713636e+01	-2.047442e+02
9.000000e-07	-2.336503e-06	-3.067925e-09	-1.653711e+01	-2.021907e+02
9.100000e-07	-2.251517e-06	-3.039161e-09	-1.593560e+01	-1.995367e+02
9.200000e-07	-2.166158e-06	-2.995886e-09	-1.533145e+01	-1.967765e+02
9.300000e-07	-2.080413e-06	-2.938719e-09	-1.472458e+01	-1.939051e+02
9.400000e-07	-1.994336e-06	-2.889344e-09	-1.411534e+01	-1.909182e+02
9.500000e-07	-1.907964e-06	-2.850965e-09	-1.350403e+01	-1.878127e+02
9.600000e-07	-1.821328e-06	-2.805953e-09	-1.289085e+01	-1.845857e+02
9.700000e-07	-1.734412e-06	-2.746316e-09	-1.227568e+01	-1.812350e+02
9.800000e-07	-1.647244e-06	-2.685150e-09	-1.165873e+01	-1.777579e+02
9.900000e-07	-1.559773e-06	-2.633906e-09	-1.103964e+01	-1.741511e+02
1.000000e-06	-1.471971e-06	-2.584551e-09	-1.041819e+01	-1.704101e+02
1.010000e-06	-1.383924e-06	-2.523729e-09	-9.795022e+00	-1.665281e+02
1.020000e-06	-1.295610e-06	-2.452137e-09	-9.169961e+00	-1.624961e+02
1.030000e-06	-1.206974e-06	-2.382882e-09	-8.542619e+00	-1.583020e+02
1.040000e-06	-1.118088e-06	-2.320806e-09	-7.913512e+00	-1.539300e+02
1.050000e-06	-1.029039e-06	-2.253588e-09	-7.283248e+00	-1.493608e+02
1.060000e-06	-9.397908e-07	-2.173918e-09	-6.651573e+00	-1.445715e+02
1.070000e-06	-8.502369e-07	-2.090132e-09	-6.017736e+00	-1.395355e+02
1.080000e-06	-7.604551e-07	-2.010666e-09	-5.382286e+00	-1.342236e+02
1.090000e-06	-6.705231e-07	-1.930656e-09	-4.745773e+00	-1.286042e+02
1.100000e-06	-5.804222e-07	-1.836756e-09	-4.108064e+00	-1.226448e+02
1.110000e-06	-4.901875e-07	-1.732439e-09	-3.469408e+00	-1.163129e+02
1.120000e-06	-3.998467e-07	-1.630236e-09	-2.830002e+00	-1.095778e+02
1.130000e-06	-3.093860e-07	-1.528896e-09	-2.189747e+00	-1.024117e+02
1.140000e-06	-2.188268e-07	-1.416021e-09	-1.548794e+00	-9.479168e+01
1.150000e-06	-1.282580e-07	-1.288643e-09	-9.077739e-01	-8.670106e+01
1.160000e-06	-3.768434e-08	-1.157549e-09	-2.667191e-01	-7.813090e+01
1.170000e-06	5.288519e-08	-1.022620e-09	3.743064e-01	-6.908121e+01
1.180000e-06	1.434001e-07	-8.771281e-10	1.014945e+00	-5.956193e+01
1.190000e-06	2.338344e-07	-7.208190e-10	1.655013e+00	-4.959357e+01
1.200000e-06	3.241538e-07	-5.568847e-10	2.294269e+00	-3.920743e+01
1.210000e-06	4.143273e-07	-3.920003e-10	2.932492e+00	-2.844543e+01
1.220000e-06	5.043849e-07	-2.278926e-10	3.569894e+00	-1.735954e+01
1.230000e-06	5.943543e-07	-5.749543e-11	4.206672e+00	-6.010687e+00
1.240000e-06	6.841722e-07	1.202308e-10	4.842378e+00	5.532557e+00
1.250000e-06	7.737712e-07	2.994655e-10	5.476534e+00	1.719577e+01
1.260000e-06	8.631489e-07	4.769734e-10	6.109124e+00	2.890066e+01
1.270000e-06	9.523581e-07	6.545568e-10	6.740521e+00	4.056721e+01
1.280000e-06	1.041395e-06	8.333437e-10	7.370698e+00	5.211594e+01
1.290000e-06	1.130230e-06	1.008347e-09	7.999447e+00	6.347017e+01
1.300000e-06	1.218849e-06	1.176279e-09	8.626671e+00	7.455805e+01
1.310000e-06	1.307228e-06	1.338027e-09	9.252190e+00	8.531457e+01
1.320000e-06	1.395356e-06	1.497007e-09	9.875933e+00	9.568307e+01
1.330000e-06	1.483273e-06	1.649664e-09	1.049819e+01	1.056166e+02
1.340000e-06	1.570942e-06	1.792466e-09	1.111868e+01	1.150787e+02
1.350000e-06	1.658289e-06	1.926459e-09	1.173690e+01	1.240439e+02
1.360000e-06	1.745393e-06	2.052824e-09	1.235340e+01	1.324976e+02
1.370000e-06	1.832256e-06	2.171249e-09	1.296819e+01	1.404359e+02
1.380000e-06	1.918825e-06	2.280343e-09	1.358090e+01	1.478644e+02
1.390000e-06	2.005123e-06	2.382530e-09	1.419169e+01	1.547975e+02
1.400000e-06	2.091128e-06	2.477547e-09	1.480041e+01	1.612569e+02
1.410000e-06	2.176808e-06	2.565846e-09	1.540683e+01	1.672700e+02
1.420000e-06	2.262149e-06	2.649972e-09	1.601085e+01	1.728681e+02
1.430000e-06	2.347097e-06	2.728677e-09	1.661209e+01	1.780854e+02
1.440000e-06	2.431648e-06	2.801545e-09	1.721052e+01	1.829567e+02
1.450000e-06	2.515837e-06	2.872841e-09	1.780638e+01	1.875165e+02
1.460000e-06	2.599694e-06	2.941249e-09	1.839990e+01	1.917975e+02
1.470000e-06	2.683220e-06	3.002360e-09	1.899107e+01	1.958298e+02
1.480000e-06	2.766311e-06	3.059262e-09	1.957916e+01	1.996404e+02
1.490000e-06	2.848870e-06	3.116715e-09	2.016349e+01	2.032523e+02
1.500000e-06	2.930945e-06	3.171766e-09	2.074440e+01	2.066848e+02
1.510000e-06	3.012499e-06	3.220308e-09	2.132161e+01	2.099535e+02
1.520000e-06	3.093454e-06	3.265216e-09	2.189460e+01	2.130704e+02
1.530000e-06	3.173904e-06	3.308519e-09	2.246400e+01	2.160447e+02
1.540000e-06	3.253760e-06	3.350353e-09	2.302919e+01	2.188832e+02
1.550000e-06	3.332919e-06	3.389410e-09	2.358946e+01	2.215910e+02
1.560000e-06	3.411446e-06	3.424235e-09	2.414525e+01	2.241722e+02
1.570000e-06	3.489390e-06	3.458357e-09	2.469691e+01	2.266304e+02
1.580000e-06	3.566720e-06	3.493901e-09	2.524424e+01	2.289691e+02
1.590000e-06	3.643334e-06	3.529125e-09	2.578649e+01	2.311925e+02
1.600000e-06	3.719255e-06	3.561307e-09	2.632383e+01	2.333055e+02
1.610000e-06	3.794438e-06	3.589726e-09	2.685596e+01	2.353136e+02
1.620000e-06	3.868740e-06	3.616307e-09	2.738185e+01	2.372236e+02
1.630000e-06	3.942112e-06	3.641879e-09	2.790115e+01	2.390426e+02
1.640000e-06	4.014611e-06	3.665943e-09	2.841428e+01	2.407784e+02
1.650000e-06	4.086344e-06	3.688876e-09	2.892199e+01	2.424391e+02
1.660000e-06	4.157396e-06	3.712114e-09	2.942488e+01	2.440325e+02
1.670000e-06	4.227757e-06	3.736563e-09	2.992287e+01	2.455660e+02
1.680000e-06	4.297364e-06	3.761637e-09	3.041553e+01	2.470463e+02
1.690000e-06	4.366258e-06	3.785504e-09	3.090314e+01	2.484791e+02
1.700000e-06	4.434489e-06	3.806542e-09	3.138606e+01	2.498689e+02
1.710000e-06	4.502090e-06	3.826684e-09	3.186452e+01	2.512189e+02
1.720000e-06	4.568916e-06	3.845575e-09	3.233749e+01	2.525313e+02
1.730000e-06	4.634847e-06	3.862723e-09	3.280413e+01	2.538068e+02
1.740000e-06	4.699829e-06	3.878428e-09	3.326406e+01	2.550456e+02
1.750000e-06	4.763903e-06	3.894396e-09	3.371756e+01	2.562467e+02
1.760000e-06	4.827253e-06	3.911262e-09	3.416593e+01	2.574091e+02
1.770000e-06	4.889830e-06	3.927379e-09	3.460883e+01	2.585315e+02
1.780000e-06	4.951657e-06	3.944417e-09	3.504643e+01	2.596127e+02
1.790000e-06	5.012739e-06	3.960403e-09	3.547875e+01	2.606521e+02
1.800000e-06	5.073043e-06	3.974324e-09	3.590556e+01	2.616496e+02
1.810000e-06	5.132635e-06	3.988140e-09	3.632734e+01	2.626058e+02
1.820000e-06	5.191364e-06	4.003373e-09	3.674300e+01	2.635223e+02
1.830000e-06	5.248882e-06	4.018580e-09	3.715010e+01	2.644013e+02
1.840000e-06	5.305216e-06	4.031280e-09	3.754882e+01	2.652458e+02
1.850000e-06	5.360673e-06	4.043635e-09	3.794133e+01	2.660592e+02
1.860000e-06	5.415273e-06	4.056460e-09	3.832777e+01	2.668455e+02
1.870000e-06	5.468946e-06	4.068289e-09	3.870766e+01	2.676084e+02
1.880000e-06	5.521622e-06	4.080074e-09	3.908048e+01	2.683516e+02
1.890000e-06	5.573180e-06	4.093971e-09	3.944540e+01	2.690783e+02
1.900000e-06	5.623396e-06	4.107749e-09	3.980080e+01	2.697911e+02
1.910000e-06	5.672242e-06	4.119374e-09	4.014653e+01	2.704919e+02
1.920000e-06	5.720031e-06	4.129372e-09	4.048477e+01	2.711815e+02
1.930000e-06	5.766843e-06	4.140029e-09	4.081609e+01	2.718599e+02
1.940000e-06	5.812630e-06	4.152095e-09	4.114015e+01	2.725262e+02
1.950000e-06	5.857443e-06	4.162675e-09	4.145733e+01	2.731786e+02
1.960000e-06	5.901362e-06	4.171938e-09	4.176817e+01	2.738150e+02
1.970000e-06	5.944359e-06	4.182124e-09	4.207249e+01	2.744326e+02
1.980000e-06	5.986141e-06	4.192482e-09	4.236822e+01	2.750287e+02
1.990000e-06	6.026657e-06	4.201705e-09	4.265497e+01	2.756005e+02
2.000000e-06	6.066145e-06	4.210831e-09	4.293446e+01	2.761456e+02
2.010000e-06	6.104622e-06	4.219058e-09	4.320679e+01	2.766624e+02
2.020000e-06	6.142010e-06	4.225995e-09	4.347141e+01	2.771497e+02
2.030000e-06	6.178418e-06	4.235604e-09	4.372909e+01	2.776072e+02
2.040000e-06	6.213969e-06	4.245924e-09	4.398072e+01	2.780355e+02
2.050000e-06	6.248382e-06	4.254372e-09	4.422428e+01	2.784362e+02
2.060000e-06	6.281407e-06	4.261818e-09	4.445803e+01	2.788113e+02
2.070000e-06	6.313290e-06	4.267698e-09	4.468368e+01	2.791637e+02
2.080000e-06	6.344185e-06	4.274312e-09	4.490235e+01	2.794964e+02
2.090000e-06	6.374028e-06	4.280504e-09	4.511357e+01	2.798129e+02
2.100000e-06	6.402831e-06	4.285563e-09	4.531743e+01	2.801165e+02
2.110000e-06	6.430737e-06	4.290970e-09	4.551494e+01	2.804101e+02
2.120000e-06	6.457652e-06	4.297259e-09	4.570544e+01	2.806964e+02
2.130000e-06	6.483196e-06	4.302967e-09	4.588623e+01	2.809771e+02
2.140000e-06	6.507397e-06	4.307862e-09	4.605752e+01	2.812536e+02
2.150000e-06	6.530491e-06	4.313822e-09	4.622097e+01	2.815260e+02
2.160000e-06	6.552517e-06	4.318403e-09	4.637686e+01	2.817940e+02
2.170000e-06	6.573442e-06	4.321670e-09	4.652496e+01	2.820564e+02
2.180000e-06	6.593364e-06	4.326460e-09	4.666596e+01	2.823113e+02
2.190000e-06	6.612368e-06	4.331500e-09	4.680047e+01	2.825566e+02
2.200000e-06	6.630227e-06	4.334569e-09	4.692687e+01	2.827896e+02
2.210000e-06	6.646763e-06	4.337858e-09	4.704391e+01	2.830078e+02
2.220000e-06	6.662009e-06	4.342667e-09	4.715182e+01	2.832089e+02
2.230000e-06	6.676003e-06	4.347389e-09	4.725086e+01	2.833908e+02
2.240000e-06	6.688800e-06	4.350740e-09	4.734143e+01	2.835520e+02
2.250000e-06	6.700332e-06	4.354069e-09	4.742305e+01	2.836915e+02
2.260000e-06	6.710412e-06	4.357228e-09	4.749440e+01	2.838093e+02
2.270000e-06	6.719046e-06	4.360159e-09	4.755551e+01	2.839057e+02
2.280000e-06	6.726473e-06	4.363927e-09	4.760807e+01	2.839821e+02
2.290000e-06	6.732750e-06	4.365414e-09	4.765250e+01	2.840402e+02
2.300000e-06	6.737830e-06	4.367871e-09	4.768846e+01	2.840822e+02
2.310000e-06	6.741865e-06	4.372125e-09	4.771702e+01	2.841108e+02
2.320000e-06	6.744825e-06	4.374290e-09	4.773797e+01	2.841286e+02
2.330000e-06	6.746432e-06	4.377082e-09	4.774934e+01	2.841382e+02
2.340000e-06	6.746631e-06	4.381214e-09	4.775075e+01	2.841418e+02
2.350000e-06	6.745742e-06	4.383526e-09	4.774445e+01	2.841414e+02
2.360000e-06	6.743860e-06	4.383923e-09	4.773114e+01	2.841383e+02
2.370000e-06	6.740901e-06	4.384503e-09	4.771019e+01	2.841332e+02
2.380000e-06	6.736940e-06	4.385223e-09	4.768216e+01	2.841259e+02
2.390000e-06	6.731952e-06	4.383656e-09	4.764686e+01	2.841156e+02
2.400000e-06	6.725705e-06	4.382997e-09	4.760264e+01	2.841010e+02
2.410000e-06	6.718134e-06	4.384466e-09	4.754905e+01	2.840798e+02
2.420000e-06	6.709521e-06	4.395725e-09	4.748809e+01	2.840496e+02
2.430000e-06	6.699952e-06	4.368053e-09	4.742037e+01	2.840074e+02
2.440000e-06	6.689013e-06	4.304536e-09	4.734294e+01	2.839500e+02
2.450000e-06	6.676154e-06	4.299309e-09	4.725193e+01	2.838744e+02
2.460000e-06	6.661346e-06	4.337353e-09	4.714713e+01	2.837773e+02
2.470000e-06	6.645396e-06	4.454799e-09	4.703424e+01	2.836559e+02
2.480000e-06	6.629004e-06	4.442075e-09	4.691821e+01	2.835079e+02
2.490000e-06	6.611881e-06	4.274911e-09	4.679702e+01	2.833313e+02
2.500000e-06	6.593436e-06	4.346555e-09	4.666648e+01	2.831245e+02
2.510000e-06	6.573913e-06	4.373556e-09	4.652830e+01	2.828867e+02
2.520000e-06	6.553644e-06	4.329541e-09	4.638484e+01	2.826175e+02
2.530000e-06	6.532003e-06	4.481775e-09	4.623167e+01	2.823173e+02
2.540000e-06	6.508748e-06	4.393473e-09	4.606708e+01	2.819868e+02
2.550000e-06	6.484481e-06	4.244972e-09	4.589532e+01	2.816271e+02
2.560000e-06	6.459366e-06	4.412912e-09	4.571757e+01	2.812400e+02
2.570000e-06	6.433215e-06	4.376355e-09	4.553248e+01	2.808273e+02
2.580000e-06	6.405967e-06	4.174534e-09	4.533962e+01	2.803912e+02
2.590000e-06	6.377698e-06	4.198907e-09	4.513954e+01	2.799338e+02
2.600000e-06	6.348360e-06	4.201111e-09	4.493190e+01	2.794576e+02
2.610000e-06	6.317642e-06	4.245570e-09	4.471449e+01	2.789649e+02
2.620000e-06	6.285564e-06	4.256082e-09	4.448745e+01	2.784579e+02
2.630000e-06	6.252407e-06	4.110240e-09	4.425277e+01	2.779386e+02
2.640000e-06	6.218135e-06	4.153511e-09	4.401020e+01	2.774089e+02
2.650000e-06	6.182750e-06	4.190732e-09	4.375976e+01	2.768704e+02
2.660000e-06	6.146443e-06	4.187089e-09	4.350278e+01	2.763245e+02
2.670000e-06	6.109006e-06	4.220866e-09	4.323781e+01	2.757720e+02
2.680000e-06	6.070086e-06	4.092734e-09	4.296236e+01	2.752136e+02
2.690000e-06	6.029937e-06	4.080618e-09	4.267819e+01	2.746495e+02
2.700000e-06	5.988917e-06	4.199082e-09	4.238786e+01	2.740793e+02
2.710000e-06	5.946859e-06	4.199769e-09	4.209019e+01	2.735025e+02
2.720000e-06	5.903674e-06	4.083745e-09	4.178454e+01	2.729180e+02
2.730000e-06	5.859587e-06	4.024796e-09	4.147250e+01	2.723243e+02
2.740000e-06	5.814663e-06	4.154398e-09	4.115454e+01	2.717195e+02
2.750000e-06	5.768621e-06	4.157123e-09	4.082867e+01	2.711017e+02
2.760000e-06	5.721402e-06	4.050175e-09	4.049447e+01	2.704686e+02
2.770000e-06	5.673220e-06	4.041808e-09	4.015345e+01	2.698177e+02
2.780000e-06	5.624020e-06	4.049000e-09	3.980522e+01	2.691467e+02
2.790000e-06	5.573711e-06	4.081264e-09	3.944915e+01	2.684532e+02
2.800000e-06	5.522431e-06	4.054388e-09	3.908621e+01	2.677352e+02
2.810000e-06	5.470155e-06	4.013555e-09	3.871621e+01	2.669909e+02
2.820000e-06	5.416724e-06	4.002143e-09	3.833804e+01	2.662190e+02
2.830000e-06	5.362060e-06	3.996550e-09	3.795114e+01	2.654185e+02
2.840000e-06	5.306299e-06	4.032507e-09	3.755649e+01	2.645890e+02
2.850000e-06	5.249705e-06	3.999298e-09	3.715593e+01	2.637305e+02
2.860000e-06	5.192276e-06	3.950962e-09	3.674946e+01	2.628437e+02
2.870000e-06	5.133993e-06	3.948398e-09	3.633695e+01	2.619296e+02
2.880000e-06	5.074846e-06	3.970351e-09	3.591833e+01	2.609893e+02
2.890000e-06	5.014876e-06	3.960500e-09	3.549388e+01	2.600244e+02
2.900000e-06	4.954173e-06	3.892889e-09	3.506423e+01	2.590364e+02
2.910000e-06	4.892562e-06	3.890565e-09	3.462817e+01	2.580266e+02
2.920000e-06	4.829918e-06	3.913080e-09	3.418479e+01	2.569963e+02
2.930000e-06	4.766282e-06	3.886699e-09	3.373440e+01	2.559460e+02
2.940000e-06	4.701773e-06	3.842109e-09	3.327782e+01	2.548761e+02
2.950000e-06	4.636485e-06	3.832807e-09	3.281573e+01	2.537860e+02
