# Temperatura_=_20.0
# Concentracion g/m^3_=_9000.0
# C_Vs_to_Am_M_A/Vsm_=_65563218390.804596
# pendiente_HvsI_1/m_=_3716.3
# ordenada_HvsI_A/m_=_1297.0
# frecuencia_Hz_=_212905.34990320256

Tiempo_(s)	Campo_(V.s)	Magnetizacion_(V.s)	Campo_(kA/m)	Magnetizacion_(A/m)
0.000000e+00	-6.686020e-06	-4.274380e-09	-4.768938e+01	-2.804611e+02
1.000000e-08	-6.685801e-06	-4.271355e-09	-4.768782e+01	-2.804370e+02
2.000000e-08	-6.684394e-06	-4.274174e-09	-4.767778e+01	-2.804005e+02
3.000000e-08	-6.681553e-06	-4.276868e-09	-4.765752e+01	-2.803526e+02
4.000000e-08	-6.677620e-06	-4.277385e-09	-4.762947e+01	-2.802941e+02
5.000000e-08	-6.672694e-06	-4.273787e-09	-4.759433e+01	-2.802263e+02
6.000000e-08	-6.666632e-06	-4.269730e-09	-4.755109e+01	-2.801506e+02
7.000000e-08	-6.659510e-06	-4.266728e-09	-4.750029e+01	-2.800688e+02
8.000000e-08	-6.651465e-06	-4.251761e-09	-4.744291e+01	-2.799829e+02
9.000000e-08	-6.642276e-06	-4.237085e-09	-4.737737e+01	-2.798952e+02
1.000000e-07	-6.631465e-06	-4.304537e-09	-4.730025e+01	-2.798079e+02
1.100000e-07	-6.618975e-06	-4.355851e-09	-4.721116e+01	-2.797233e+02
1.200000e-07	-6.604969e-06	-4.337372e-09	-4.711127e+01	-2.796433e+02
1.300000e-07	-6.589484e-06	-4.229469e-09	-4.700082e+01	-2.795695e+02
1.400000e-07	-6.572802e-06	-4.057656e-09	-4.688183e+01	-2.795029e+02
1.500000e-07	-6.555256e-06	-4.239687e-09	-4.675668e+01	-2.794435e+02
1.600000e-07	-6.536777e-06	-4.420040e-09	-4.662487e+01	-2.793907e+02
1.700000e-07	-6.517472e-06	-4.225185e-09	-4.648718e+01	-2.793426e+02
1.800000e-07	-6.497285e-06	-4.199239e-09	-4.634319e+01	-2.792963e+02
1.900000e-07	-6.475819e-06	-4.164410e-09	-4.619008e+01	-2.792482e+02
2.000000e-07	-6.453411e-06	-4.125303e-09	-4.603024e+01	-2.791933e+02
2.100000e-07	-6.430314e-06	-4.422349e-09	-4.586550e+01	-2.791261e+02
2.200000e-07	-6.405885e-06	-4.338598e-09	-4.569126e+01	-2.790407e+02
2.300000e-07	-6.379909e-06	-4.045337e-09	-4.550598e+01	-2.789307e+02
2.400000e-07	-6.352760e-06	-4.257521e-09	-4.531234e+01	-2.787900e+02
2.500000e-07	-6.324629e-06	-4.416948e-09	-4.511169e+01	-2.786129e+02
2.600000e-07	-6.295447e-06	-4.294617e-09	-4.490354e+01	-2.783943e+02
2.700000e-07	-6.265141e-06	-4.182682e-09	-4.468737e+01	-2.781303e+02
2.800000e-07	-6.233808e-06	-4.120187e-09	-4.446388e+01	-2.778182e+02
2.900000e-07	-6.201540e-06	-4.259371e-09	-4.423373e+01	-2.774567e+02
3.000000e-07	-6.168055e-06	-4.345506e-09	-4.399489e+01	-2.770463e+02
3.100000e-07	-6.133170e-06	-4.186822e-09	-4.374606e+01	-2.765887e+02
3.200000e-07	-6.097099e-06	-4.133216e-09	-4.348878e+01	-2.760874e+02
3.300000e-07	-6.059924e-06	-4.177165e-09	-4.322362e+01	-2.755467e+02
3.400000e-07	-6.021689e-06	-4.215041e-09	-4.295091e+01	-2.749724e+02
3.500000e-07	-5.982517e-06	-4.251332e-09	-4.267150e+01	-2.743704e+02
3.600000e-07	-5.942335e-06	-4.184471e-09	-4.238489e+01	-2.737472e+02
3.700000e-07	-5.900841e-06	-4.062816e-09	-4.208893e+01	-2.731091e+02
3.800000e-07	-5.858073e-06	-4.123900e-09	-4.178388e+01	-2.724617e+02
3.900000e-07	-5.814246e-06	-4.274369e-09	-4.147128e+01	-2.718098e+02
4.000000e-07	-5.769318e-06	-4.147021e-09	-4.115082e+01	-2.711571e+02
4.100000e-07	-5.723340e-06	-4.007385e-09	-4.082287e+01	-2.705057e+02
4.200000e-07	-5.676482e-06	-4.122575e-09	-4.048865e+01	-2.698563e+02
4.300000e-07	-5.628769e-06	-4.191233e-09	-4.014832e+01	-2.692080e+02
4.400000e-07	-5.579842e-06	-4.101724e-09	-3.979935e+01	-2.685586e+02
4.500000e-07	-5.529486e-06	-4.040004e-09	-3.944017e+01	-2.679044e+02
4.600000e-07	-5.477887e-06	-4.069823e-09	-3.907213e+01	-2.672409e+02
4.700000e-07	-5.425250e-06	-4.085111e-09	-3.869668e+01	-2.665629e+02
4.800000e-07	-5.371721e-06	-4.063883e-09	-3.831488e+01	-2.658649e+02
4.900000e-07	-5.317311e-06	-4.038852e-09	-3.792679e+01	-2.651416e+02
5.000000e-07	-5.262016e-06	-3.996332e-09	-3.753238e+01	-2.643880e+02
5.100000e-07	-5.206014e-06	-3.997366e-09	-3.713294e+01	-2.635999e+02
5.200000e-07	-5.149122e-06	-4.031372e-09	-3.672714e+01	-2.627744e+02
5.300000e-07	-5.091038e-06	-4.011518e-09	-3.631285e+01	-2.619095e+02
5.400000e-07	-5.031869e-06	-3.951186e-09	-3.589081e+01	-2.610047e+02
5.500000e-07	-4.971836e-06	-3.934757e-09	-3.546262e+01	-2.600605e+02
5.600000e-07	-4.911107e-06	-3.973954e-09	-3.502946e+01	-2.590789e+02
5.700000e-07	-4.849642e-06	-3.967058e-09	-3.459105e+01	-2.580623e+02
5.800000e-07	-4.787324e-06	-3.897829e-09	-3.414655e+01	-2.570142e+02
5.900000e-07	-4.724173e-06	-3.860302e-09	-3.369611e+01	-2.559380e+02
6.000000e-07	-4.660321e-06	-3.888493e-09	-3.324068e+01	-2.548375e+02
6.100000e-07	-4.595666e-06	-3.895225e-09	-3.277951e+01	-2.537155e+02
6.200000e-07	-4.529850e-06	-3.841781e-09	-3.231006e+01	-2.525747e+02
6.300000e-07	-4.462900e-06	-3.805854e-09	-3.183253e+01	-2.514164e+02
6.400000e-07	-4.395245e-06	-3.812599e-09	-3.134997e+01	-2.502411e+02
6.500000e-07	-4.327015e-06	-3.813047e-09	-3.086330e+01	-2.490479e+02
6.600000e-07	-4.258018e-06	-3.782010e-09	-3.037117e+01	-2.478350e+02
6.700000e-07	-4.188260e-06	-3.747234e-09	-2.987361e+01	-2.465992e+02
6.800000e-07	-4.117811e-06	-3.724278e-09	-2.937112e+01	-2.453367e+02
6.900000e-07	-4.046655e-06	-3.713041e-09	-2.886358e+01	-2.440431e+02
7.000000e-07	-3.974847e-06	-3.706267e-09	-2.835139e+01	-2.427137e+02
7.100000e-07	-3.902287e-06	-3.675750e-09	-2.783385e+01	-2.413435e+02
7.200000e-07	-3.828769e-06	-3.631901e-09	-2.730947e+01	-2.399283e+02
7.300000e-07	-3.754306e-06	-3.615880e-09	-2.677834e+01	-2.384642e+02
7.400000e-07	-3.679045e-06	-3.619347e-09	-2.624153e+01	-2.369482e+02
7.500000e-07	-3.603097e-06	-3.590920e-09	-2.569981e+01	-2.353781e+02
7.600000e-07	-3.526482e-06	-3.540319e-09	-2.515334e+01	-2.337528e+02
7.700000e-07	-3.449143e-06	-3.516166e-09	-2.460170e+01	-2.320719e+02
7.800000e-07	-3.371167e-06	-3.506521e-09	-2.404553e+01	-2.303360e+02
7.900000e-07	-3.292571e-06	-3.476352e-09	-2.348492e+01	-2.285459e+02
8.000000e-07	-3.213165e-06	-3.431855e-09	-2.291854e+01	-2.267029e+02
8.100000e-07	-3.133001e-06	-3.401975e-09	-2.234676e+01	-2.248080e+02
8.200000e-07	-3.052272e-06	-3.383729e-09	-2.177094e+01	-2.228619e+02
8.300000e-07	-2.971053e-06	-3.354515e-09	-2.119163e+01	-2.208645e+02
8.400000e-07	-2.889384e-06	-3.315907e-09	-2.060911e+01	-2.188149e+02
8.500000e-07	-2.807242e-06	-3.279437e-09	-2.002322e+01	-2.167107e+02
8.600000e-07	-2.724733e-06	-3.249851e-09	-1.943471e+01	-2.145486e+02
8.700000e-07	-2.641956e-06	-3.222975e-09	-1.884428e+01	-2.123239e+02
8.800000e-07	-2.558775e-06	-3.185141e-09	-1.825098e+01	-2.100310e+02
8.900000e-07	-2.475130e-06	-3.138300e-09	-1.765436e+01	-2.076631e+02
9.000000e-07	-2.391168e-06	-3.098388e-09	-1.705549e+01	-2.052130e+02
9.100000e-07	-2.307018e-06	-3.067600e-09	-1.645527e+01	-2.026731e+02
9.200000e-07	-2.222634e-06	-3.030353e-09	-1.585338e+01	-2.000360e+02
9.300000e-07	-2.137917e-06	-2.976819e-09	-1.524912e+01	-1.972944e+02
9.400000e-07	-2.052796e-06	-2.926518e-09	-1.464198e+01	-1.944419e+02
9.500000e-07	-1.967270e-06	-2.889067e-09	-1.403195e+01	-1.914728e+02
9.600000e-07	-1.881417e-06	-2.848679e-09	-1.341959e+01	-1.883822e+02
9.700000e-07	-1.795262e-06	-2.793654e-09	-1.280507e+01	-1.851660e+02
9.800000e-07	-1.708799e-06	-2.734031e-09	-1.218835e+01	-1.818208e+02
9.900000e-07	-1.622061e-06	-2.683548e-09	-1.156967e+01	-1.783433e+02
1.000000e-06	-1.535049e-06	-2.635253e-09	-1.094904e+01	-1.747300e+02
1.010000e-06	-1.447784e-06	-2.577973e-09	-1.032661e+01	-1.709763e+02
1.020000e-06	-1.360295e-06	-2.512250e-09	-9.702579e+00	-1.670765e+02
1.030000e-06	-1.272553e-06	-2.448257e-09	-9.076741e+00	-1.630225e+02
1.040000e-06	-1.184576e-06	-2.388088e-09	-8.449229e+00	-1.588036e+02
1.050000e-06	-1.096463e-06	-2.324567e-09	-7.820739e+00	-1.544059e+02
1.060000e-06	-1.008201e-06	-2.251216e-09	-7.191196e+00	-1.498120e+02
1.070000e-06	-9.197535e-07	-2.170809e-09	-6.560326e+00	-1.450009e+02
1.080000e-06	-8.311139e-07	-2.091895e-09	-5.928086e+00	-1.399481e+02
1.090000e-06	-7.422573e-07	-2.015799e-09	-5.294299e+00	-1.346261e+02
1.100000e-06	-6.532142e-07	-1.932457e-09	-4.659182e+00	-1.290049e+02
1.110000e-06	-5.640186e-07	-1.835649e-09	-4.022976e+00	-1.230533e+02
1.120000e-06	-4.746978e-07	-1.736351e-09	-3.385877e+00	-1.167397e+02
1.130000e-06	-3.852885e-07	-1.639855e-09	-2.748148e+00	-1.100339e+02
1.140000e-06	-2.957765e-07	-1.536155e-09	-2.109685e+00	-1.029083e+02
1.150000e-06	-2.061770e-07	-1.416099e-09	-1.470599e+00	-9.533982e+01
1.160000e-06	-1.165506e-07	-1.287895e-09	-8.313203e-01	-8.731137e+01
1.170000e-06	-2.688255e-08	-1.160820e-09	-1.917452e-01	-7.881330e+01
1.180000e-06	6.276467e-08	-1.028793e-09	4.476816e-01	-6.984475e+01
1.190000e-06	1.523330e-07	-8.858842e-10	1.086546e+00	-6.041468e+01
1.200000e-06	2.418295e-07	-7.308562e-10	1.724897e+00	-5.054256e+01
1.210000e-06	3.312439e-07	-5.705430e-10	2.362664e+00	-4.025863e+01
1.220000e-06	4.205309e-07	-4.102520e-10	2.999521e+00	-2.960381e+01
1.230000e-06	5.096783e-07	-2.468124e-10	3.635383e+00	-1.862908e+01
1.240000e-06	5.986207e-07	-7.728229e-11	4.269782e+00	-7.394503e+00
1.250000e-06	6.873906e-07	9.920215e-11	4.902951e+00	4.032195e+00
1.260000e-06	7.760342e-07	2.762162e-10	5.535220e+00	1.557736e+01
1.270000e-06	8.645378e-07	4.525040e-10	6.166489e+00	2.716342e+01
1.280000e-06	9.529018e-07	6.289997e-10	6.796763e+00	3.871109e+01
1.290000e-06	1.041062e-06	8.061461e-10	7.425586e+00	5.014159e+01
1.300000e-06	1.129024e-06	9.791655e-10	8.052993e+00	6.137898e+01
1.310000e-06	1.216811e-06	1.145619e-09	8.679149e+00	7.235217e+01
1.320000e-06	1.304495e-06	1.308241e-09	9.304573e+00	8.299691e+01
1.330000e-06	1.392028e-06	1.466660e-09	9.928922e+00	9.325735e+01
1.340000e-06	1.479334e-06	1.617385e-09	1.055164e+01	1.030873e+02
1.350000e-06	1.566401e-06	1.758138e-09	1.117267e+01	1.124510e+02
1.360000e-06	1.653196e-06	1.892617e-09	1.179175e+01	1.213237e+02
1.370000e-06	1.739739e-06	2.017371e-09	1.240904e+01	1.296912e+02
1.380000e-06	1.826024e-06	2.134358e-09	1.302448e+01	1.375500e+02
1.390000e-06	1.912024e-06	2.244354e-09	1.363789e+01	1.449060e+02
1.400000e-06	1.997718e-06	2.345545e-09	1.424913e+01	1.517735e+02
1.410000e-06	2.083079e-06	2.438085e-09	1.485798e+01	1.581739e+02
1.420000e-06	2.168059e-06	2.525935e-09	1.546412e+01	1.641341e+02
1.430000e-06	2.252638e-06	2.609645e-09	1.606740e+01	1.696849e+02
1.440000e-06	2.336886e-06	2.686232e-09	1.666831e+01	1.748596e+02
1.450000e-06	2.420878e-06	2.759403e-09	1.726740e+01	1.796921e+02
1.460000e-06	2.504608e-06	2.831264e-09	1.786462e+01	1.842161e+02
1.470000e-06	2.587998e-06	2.898997e-09	1.845942e+01	1.884633e+02
1.480000e-06	2.670981e-06	2.960957e-09	1.905130e+01	1.924633e+02
1.490000e-06	2.753508e-06	3.019179e-09	1.963994e+01	1.962421e+02
1.500000e-06	2.835486e-06	3.075158e-09	2.022467e+01	1.998225e+02
1.510000e-06	2.916888e-06	3.126269e-09	2.080529e+01	2.032238e+02
1.520000e-06	2.997775e-06	3.172758e-09	2.138223e+01	2.064614e+02
1.530000e-06	3.078162e-06	3.216938e-09	2.195561e+01	2.095479e+02
1.540000e-06	3.158001e-06	3.259059e-09	2.252507e+01	2.124931e+02
1.550000e-06	3.237119e-06	3.300504e-09	2.308940e+01	2.153045e+02
1.560000e-06	3.315531e-06	3.339571e-09	2.364869e+01	2.179882e+02
1.570000e-06	3.393314e-06	3.376107e-09	2.420349e+01	2.205492e+02
1.580000e-06	3.470538e-06	3.411179e-09	2.475431e+01	2.229920e+02
1.590000e-06	3.547150e-06	3.447019e-09	2.530076e+01	2.253210e+02
1.600000e-06	3.623064e-06	3.481412e-09	2.584223e+01	2.275411e+02
1.610000e-06	3.698328e-06	3.510581e-09	2.637907e+01	2.296574e+02
1.620000e-06	3.772788e-06	3.538880e-09	2.691017e+01	2.316756e+02
1.630000e-06	3.846284e-06	3.567259e-09	2.743439e+01	2.336020e+02
1.640000e-06	3.918862e-06	3.594681e-09	2.795207e+01	2.354434e+02
1.650000e-06	3.990681e-06	3.618830e-09	2.846433e+01	2.372067e+02
1.660000e-06	4.061801e-06	3.641674e-09	2.897161e+01	2.388985e+02
1.670000e-06	4.132244e-06	3.665863e-09	2.947406e+01	2.405256e+02
1.680000e-06	4.201978e-06	3.689104e-09	2.997145e+01	2.420939e+02
1.690000e-06	4.270961e-06	3.712539e-09	3.046349e+01	2.436086e+02
1.700000e-06	4.339306e-06	3.734849e-09	3.095097e+01	2.450741e+02
1.710000e-06	4.407108e-06	3.756978e-09	3.143459e+01	2.464936e+02
1.720000e-06	4.474281e-06	3.778999e-09	3.191371e+01	2.478696e+02
1.730000e-06	4.540556e-06	3.798971e-09	3.238642e+01	2.492034e+02
1.740000e-06	4.605690e-06	3.816269e-09	3.285101e+01	2.504957e+02
1.750000e-06	4.669882e-06	3.832100e-09	3.330887e+01	2.517465e+02
1.760000e-06	4.733416e-06	3.849349e-09	3.376204e+01	2.529555e+02
1.770000e-06	4.796253e-06	3.867237e-09	3.421024e+01	2.541222e+02
1.780000e-06	4.858344e-06	3.884251e-09	3.465311e+01	2.552462e+02
1.790000e-06	4.919658e-06	3.899062e-09	3.509044e+01	2.563275e+02
1.800000e-06	4.980164e-06	3.913976e-09	3.552202e+01	2.573664e+02
1.810000e-06	5.039971e-06	3.930510e-09	3.594860e+01	2.583639e+02
1.820000e-06	5.099026e-06	3.946704e-09	3.636983e+01	2.593215e+02
1.830000e-06	5.157006e-06	3.961048e-09	3.678338e+01	2.602415e+02
1.840000e-06	5.213785e-06	3.974706e-09	3.718837e+01	2.611264e+02
1.850000e-06	5.269591e-06	3.988436e-09	3.758641e+01	2.619793e+02
1.860000e-06	5.324563e-06	4.001246e-09	3.797851e+01	2.628034e+02
1.870000e-06	5.378656e-06	4.014136e-09	3.836435e+01	2.636019e+02
1.880000e-06	5.431831e-06	4.026659e-09	3.874362e+01	2.643778e+02
1.890000e-06	5.484007e-06	4.037593e-09	3.911578e+01	2.651339e+02
1.900000e-06	5.534999e-06	4.048610e-09	3.947949e+01	2.658723e+02
1.910000e-06	5.584605e-06	4.062513e-09	3.983331e+01	2.665944e+02
1.920000e-06	5.632898e-06	4.076563e-09	4.017778e+01	2.673012e+02
1.930000e-06	5.680208e-06	4.087984e-09	4.051522e+01	2.679926e+02
1.940000e-06	5.726586e-06	4.099109e-09	4.084602e+01	2.686683e+02
1.950000e-06	5.772020e-06	4.110679e-09	4.117009e+01	2.693271e+02
1.960000e-06	5.816540e-06	4.120941e-09	4.148764e+01	2.699676e+02
1.970000e-06	5.860164e-06	4.129992e-09	4.179880e+01	2.705881e+02
1.980000e-06	5.902788e-06	4.140023e-09	4.210282e+01	2.711868e+02
1.990000e-06	5.944046e-06	4.149859e-09	4.239710e+01	2.717623e+02
2.000000e-06	5.984053e-06	4.159719e-09	4.268246e+01	2.723131e+02
2.010000e-06	6.023073e-06	4.170227e-09	4.296078e+01	2.728384e+02
2.020000e-06	6.061086e-06	4.178761e-09	4.323191e+01	2.733378e+02
2.030000e-06	6.098141e-06	4.185835e-09	4.349621e+01	2.738117e+02
2.040000e-06	6.134319e-06	4.194563e-09	4.375426e+01	2.742609e+02
2.050000e-06	6.169580e-06	4.203324e-09	4.400577e+01	2.746866e+02
2.060000e-06	6.203579e-06	4.210114e-09	4.424827e+01	2.750906e+02
2.070000e-06	6.236179e-06	4.215395e-09	4.448080e+01	2.754751e+02
2.080000e-06	6.267734e-06	4.221051e-09	4.470587e+01	2.758421e+02
2.090000e-06	6.298361e-06	4.227450e-09	4.492432e+01	2.761940e+02
2.100000e-06	6.327936e-06	4.233780e-09	4.513527e+01	2.765328e+02
2.110000e-06	6.356479e-06	4.239956e-09	4.533886e+01	2.768602e+02
2.120000e-06	6.384118e-06	4.245290e-09	4.553600e+01	2.771777e+02
2.130000e-06	6.410620e-06	4.251949e-09	4.572503e+01	2.774861e+02
2.140000e-06	6.435713e-06	4.259557e-09	4.590401e+01	2.777858e+02
2.150000e-06	6.459574e-06	4.265360e-09	4.607421e+01	2.780767e+02
2.160000e-06	6.482338e-06	4.268953e-09	4.623658e+01	2.783583e+02
2.170000e-06	6.504031e-06	4.271298e-09	4.639131e+01	2.786296e+02
2.180000e-06	6.524685e-06	4.274866e-09	4.653862e+01	2.788894e+02
2.190000e-06	6.544431e-06	4.280690e-09	4.667946e+01	2.791364e+02
2.200000e-06	6.563226e-06	4.285902e-09	4.681353e+01	2.793692e+02
2.210000e-06	6.580798e-06	4.288896e-09	4.693886e+01	2.795864e+02
2.220000e-06	6.597113e-06	4.293109e-09	4.705523e+01	2.797870e+02
2.230000e-06	6.612149e-06	4.299301e-09	4.716248e+01	2.799701e+02
2.240000e-06	6.625919e-06	4.302691e-09	4.726069e+01	2.801350e+02
2.250000e-06	6.638482e-06	4.303782e-09	4.735031e+01	2.802816e+02
2.260000e-06	6.649788e-06	4.306565e-09	4.743095e+01	2.804097e+02
2.270000e-06	6.659592e-06	4.309687e-09	4.750087e+01	2.805197e+02
2.280000e-06	6.667960e-06	4.312490e-09	4.756056e+01	2.806121e+02
2.290000e-06	6.675190e-06	4.314341e-09	4.761213e+01	2.806874e+02
2.300000e-06	6.681328e-06	4.315801e-09	4.765591e+01	2.807464e+02
2.310000e-06	6.686374e-06	4.320267e-09	4.769190e+01	2.807897e+02
2.320000e-06	6.690329e-06	4.324394e-09	4.772011e+01	2.808180e+02
2.330000e-06	6.693136e-06	4.325097e-09	4.774014e+01	2.808318e+02
2.340000e-06	6.694547e-06	4.326001e-09	4.775020e+01	2.808319e+02
2.350000e-06	6.694624e-06	4.328709e-09	4.775075e+01	2.808186e+02
2.360000e-06	6.693632e-06	4.330397e-09	4.774367e+01	2.807925e+02
2.370000e-06	6.691616e-06	4.326225e-09	4.772929e+01	2.807543e+02
2.380000e-06	6.688551e-06	4.325216e-09	4.770743e+01	2.807047e+02
2.390000e-06	6.684510e-06	4.325690e-09	4.767861e+01	2.806447e+02
2.400000e-06	6.679422e-06	4.326651e-09	4.764232e+01	2.805756e+02
2.410000e-06	6.673016e-06	4.329604e-09	4.759662e+01	2.804988e+02
2.420000e-06	6.665426e-06	4.336769e-09	4.754249e+01	2.804162e+02
2.430000e-06	6.656842e-06	4.368615e-09	4.748126e+01	2.803299e+02
2.440000e-06	6.647269e-06	4.295833e-09	4.741298e+01	2.802421e+02
2.450000e-06	6.636319e-06	4.209754e-09	4.733488e+01	2.801551e+02
2.460000e-06	6.623339e-06	4.208091e-09	4.724229e+01	2.800710e+02
2.470000e-06	6.608430e-06	4.303698e-09	4.713595e+01	2.799919e+02
2.480000e-06	6.592496e-06	4.528081e-09	4.702230e+01	2.799191e+02
2.490000e-06	6.576227e-06	4.362234e-09	4.690626e+01	2.798536e+02
2.500000e-06	6.559119e-06	4.118519e-09	4.678423e+01	2.797952e+02
2.510000e-06	6.540494e-06	4.333637e-09	4.665138e+01	2.797432e+02
2.520000e-06	6.520966e-06	4.302290e-09	4.651210e+01	2.796956e+02
2.530000e-06	6.500838e-06	4.345629e-09	4.636853e+01	2.796493e+02
2.540000e-06	6.479154e-06	4.521076e-09	4.621387e+01	2.796004e+02
2.550000e-06	6.455872e-06	4.154544e-09	4.604780e+01	2.795440e+02
2.560000e-06	6.431766e-06	4.146206e-09	4.587586e+01	2.794745e+02
2.570000e-06	6.406774e-06	4.488044e-09	4.569760e+01	2.793858e+02
2.580000e-06	6.380621e-06	4.216085e-09	4.551106e+01	2.792716e+02
2.590000e-06	6.353339e-06	4.057093e-09	4.531647e+01	2.791258e+02
2.600000e-06	6.325202e-06	4.277266e-09	4.511577e+01	2.789427e+02
2.610000e-06	6.296171e-06	4.247134e-09	4.490870e+01	2.787175e+02
2.620000e-06	6.265583e-06	4.292558e-09	4.469052e+01	2.784464e+02
2.630000e-06	6.233567e-06	4.173922e-09	4.446217e+01	2.781269e+02
2.640000e-06	6.200604e-06	4.080765e-09	4.422705e+01	2.777580e+02
2.650000e-06	6.166460e-06	4.278600e-09	4.398351e+01	2.773404e+02
2.660000e-06	6.131135e-06	4.165897e-09	4.373155e+01	2.768760e+02
2.670000e-06	6.094992e-06	4.199990e-09	4.347375e+01	2.763684e+02
2.680000e-06	6.057696e-06	4.223080e-09	4.320773e+01	2.758223e+02
2.690000e-06	6.018812e-06	4.026052e-09	4.293038e+01	2.752434e+02
2.700000e-06	5.978809e-06	4.156850e-09	4.264506e+01	2.746378e+02
2.710000e-06	5.938061e-06	4.248050e-09	4.235441e+01	2.740120e+02
2.720000e-06	5.896144e-06	4.153722e-09	4.205543e+01	2.733721e+02
2.730000e-06	5.852978e-06	4.005925e-09	4.174754e+01	2.727237e+02
2.740000e-06	5.809025e-06	4.080017e-09	4.143404e+01	2.720715e+02
2.750000e-06	5.764308e-06	4.267771e-09	4.111509e+01	2.714189e+02
2.760000e-06	5.718459e-06	4.073108e-09	4.078806e+01	2.707678e+02
2.770000e-06	5.671502e-06	4.005811e-09	4.045312e+01	2.701186e+02
2.780000e-06	5.623678e-06	4.096043e-09	4.011201e+01	2.694703e+02
2.790000e-06	5.574810e-06	4.097158e-09	3.976345e+01	2.688204e+02
2.800000e-06	5.524718e-06	4.084475e-09	3.940616e+01	2.681651e+02
2.810000e-06	5.473703e-06	4.008437e-09	3.904228e+01	2.674998e+02
2.820000e-06	5.421879e-06	4.047433e-09	3.867264e+01	2.668191e+02
2.830000e-06	5.368916e-06	4.025325e-09	3.829487e+01	2.661176e+02
2.840000e-06	5.314612e-06	4.011196e-09	3.790753e+01	2.653900e+02
2.850000e-06	5.259109e-06	4.051079e-09	3.751165e+01	2.646315e+02
2.860000e-06	5.202718e-06	3.980646e-09	3.710943e+01	2.638380e+02
2.870000e-06	5.145568e-06	3.962283e-09	3.670180e+01	2.630066e+02
2.880000e-06	5.087664e-06	3.970604e-09	3.628878e+01	2.621357e+02
2.890000e-06	5.028917e-06	3.998332e-09	3.586976e+01	2.612249e+02
2.900000e-06	4.969333e-06	3.939229e-09	3.544476e+01	2.602750e+02
2.910000e-06	4.909020e-06	3.877290e-09	3.501457e+01	2.592878e+02
2.920000e-06	4.847857e-06	3.931914e-09	3.457831e+01	2.582663e+02
2.930000e-06	4.785619e-06	3.930739e-09	3.413439e+01	2.572137e+02
2.940000e-06	4.722313e-06	3.880023e-09	3.368284e+01	2.561337e+02
2.950000e-06	4.658177e-06	3.843943e-09	3.322538e+01	2.550297e+02
