# Temperatura_=_20.0
# Concentracion g/m^3_=_12600.0
# C_Vs_to_Am_M_A/Vsm_=_65563218390.804596
# pendiente_HvsI_1/m_=_3716.3
# ordenada_HvsI_A/m_=_1297.0
# frecuencia_Hz_=_213200.6083967805

Tiempo_(s)	Campo_(V.s)	Magnetizacion_(V.s)	Campo_(kA/m)	Magnetizacion_(A/m)
0.000000e+00	-8.134309e-06	-5.525669e-09	-5.680728e+01	-3.610474e+02
1.000000e-08	-8.134007e-06	-5.523081e-09	-5.680517e+01	-3.610315e+02
2.000000e-08	-8.132212e-06	-5.520828e-09	-5.679264e+01	-3.609638e+02
3.000000e-08	-8.128849e-06	-5.523278e-09	-5.676914e+01	-3.608422e+02
4.000000e-08	-8.124221e-06	-5.525615e-09	-5.673682e+01	-3.606658e+02
5.000000e-08	-8.118362e-06	-5.523337e-09	-5.669591e+01	-3.604356e+02
6.000000e-08	-8.111200e-06	-5.513801e-09	-5.664589e+01	-3.601537e+02
7.000000e-08	-8.102809e-06	-5.502844e-09	-5.658729e+01	-3.598240e+02
8.000000e-08	-8.092764e-06	-5.497214e-09	-5.651714e+01	-3.594517e+02
9.000000e-08	-8.080927e-06	-5.498467e-09	-5.643447e+01	-3.590430e+02
1.000000e-07	-8.067361e-06	-5.497317e-09	-5.633974e+01	-3.586047e+02
1.100000e-07	-8.051733e-06	-5.504658e-09	-5.623060e+01	-3.581442e+02
1.200000e-07	-8.034330e-06	-5.513909e-09	-5.610905e+01	-3.576682e+02
1.300000e-07	-8.015616e-06	-5.506385e-09	-5.597837e+01	-3.571834e+02
1.400000e-07	-7.995923e-06	-5.452385e-09	-5.584084e+01	-3.566952e+02
1.500000e-07	-7.975268e-06	-5.357615e-09	-5.569659e+01	-3.562076e+02
1.600000e-07	-7.953329e-06	-5.388218e-09	-5.554337e+01	-3.557231e+02
1.700000e-07	-7.930161e-06	-5.517675e-09	-5.538158e+01	-3.552424e+02
1.800000e-07	-7.905739e-06	-5.527814e-09	-5.521102e+01	-3.547644e+02
1.900000e-07	-7.879497e-06	-5.428151e-09	-5.502776e+01	-3.542861e+02
2.000000e-07	-7.851790e-06	-5.261560e-09	-5.483426e+01	-3.538030e+02
2.100000e-07	-7.823076e-06	-5.220544e-09	-5.463373e+01	-3.533092e+02
2.200000e-07	-7.793026e-06	-5.464013e-09	-5.442387e+01	-3.527978e+02
2.300000e-07	-7.761601e-06	-5.546881e-09	-5.420441e+01	-3.522614e+02
2.400000e-07	-7.728769e-06	-5.267158e-09	-5.397512e+01	-3.516922e+02
2.500000e-07	-7.694394e-06	-5.096069e-09	-5.373506e+01	-3.510829e+02
2.600000e-07	-7.658648e-06	-5.236277e-09	-5.348542e+01	-3.504270e+02
2.700000e-07	-7.621551e-06	-5.440900e-09	-5.322635e+01	-3.497187e+02
2.800000e-07	-7.583010e-06	-5.447200e-09	-5.295719e+01	-3.489539e+02
2.900000e-07	-7.543267e-06	-5.231330e-09	-5.267964e+01	-3.481298e+02
3.000000e-07	-7.502203e-06	-5.072579e-09	-5.239287e+01	-3.472454e+02
3.100000e-07	-7.459520e-06	-5.208222e-09	-5.209478e+01	-3.463011e+02
3.200000e-07	-7.415383e-06	-5.439276e-09	-5.178654e+01	-3.452991e+02
3.300000e-07	-7.369948e-06	-5.367159e-09	-5.146924e+01	-3.442425e+02
3.400000e-07	-7.323199e-06	-5.073837e-09	-5.114276e+01	-3.431359e+02
3.500000e-07	-7.275126e-06	-4.987804e-09	-5.080703e+01	-3.419842e+02
3.600000e-07	-7.225554e-06	-5.191591e-09	-5.046084e+01	-3.407928e+02
3.700000e-07	-7.174257e-06	-5.344386e-09	-5.010260e+01	-3.395671e+02
3.800000e-07	-7.121326e-06	-5.187641e-09	-4.973295e+01	-3.383120e+02
3.900000e-07	-7.067107e-06	-4.943704e-09	-4.935430e+01	-3.370317e+02
4.000000e-07	-7.011839e-06	-4.954684e-09	-4.896833e+01	-3.357296e+02
4.100000e-07	-6.955432e-06	-5.137800e-09	-4.857440e+01	-3.344080e+02
4.200000e-07	-6.897612e-06	-5.190583e-09	-4.817060e+01	-3.330678e+02
4.300000e-07	-6.838402e-06	-5.042335e-09	-4.775710e+01	-3.317089e+02
4.400000e-07	-6.777986e-06	-4.900633e-09	-4.733517e+01	-3.303300e+02
4.500000e-07	-6.716458e-06	-4.916218e-09	-4.690548e+01	-3.289288e+02
4.600000e-07	-6.653865e-06	-5.018303e-09	-4.646836e+01	-3.275023e+02
4.700000e-07	-6.590171e-06	-5.044518e-09	-4.602353e+01	-3.260467e+02
4.800000e-07	-6.525245e-06	-4.937221e-09	-4.557012e+01	-3.245583e+02
4.900000e-07	-6.458994e-06	-4.818397e-09	-4.510744e+01	-3.230331e+02
5.000000e-07	-6.391458e-06	-4.809493e-09	-4.463579e+01	-3.214673e+02
5.100000e-07	-6.322823e-06	-4.879631e-09	-4.415647e+01	-3.198577e+02
5.200000e-07	-6.253211e-06	-4.886769e-09	-4.367032e+01	-3.182017e+02
5.300000e-07	-6.182640e-06	-4.785011e-09	-4.317748e+01	-3.164973e+02
5.400000e-07	-6.110936e-06	-4.693440e-09	-4.267672e+01	-3.147432e+02
5.500000e-07	-6.037997e-06	-4.697017e-09	-4.216734e+01	-3.129391e+02
5.600000e-07	-5.963838e-06	-4.737606e-09	-4.164944e+01	-3.110851e+02
5.700000e-07	-5.888446e-06	-4.719647e-09	-4.112293e+01	-3.091823e+02
5.800000e-07	-5.811866e-06	-4.645642e-09	-4.058811e+01	-3.072319e+02
5.900000e-07	-5.734145e-06	-4.580454e-09	-4.004534e+01	-3.052355e+02
6.000000e-07	-5.655289e-06	-4.561365e-09	-3.949463e+01	-3.031947e+02
6.100000e-07	-5.575314e-06	-4.582626e-09	-3.893612e+01	-3.011113e+02
6.200000e-07	-5.494247e-06	-4.579596e-09	-3.836997e+01	-2.989866e+02
6.300000e-07	-5.412153e-06	-4.506079e-09	-3.779665e+01	-2.968218e+02
6.400000e-07	-5.329158e-06	-4.415687e-09	-3.721705e+01	-2.946173e+02
6.500000e-07	-5.245302e-06	-4.394564e-09	-3.663143e+01	-2.923733e+02
6.600000e-07	-5.160692e-06	-4.420410e-09	-3.604054e+01	-2.900894e+02
6.700000e-07	-5.075307e-06	-4.395622e-09	-3.544424e+01	-2.877648e+02
6.800000e-07	-4.989088e-06	-4.308674e-09	-3.484211e+01	-2.853979e+02
6.900000e-07	-4.902063e-06	-4.233853e-09	-3.423436e+01	-2.829872e+02
7.000000e-07	-4.814143e-06	-4.217437e-09	-3.362036e+01	-2.805307e+02
7.100000e-07	-4.725293e-06	-4.227478e-09	-3.299986e+01	-2.780261e+02
7.200000e-07	-4.635688e-06	-4.198054e-09	-3.237409e+01	-2.754714e+02
7.300000e-07	-4.545338e-06	-4.115939e-09	-3.174311e+01	-2.728643e+02
7.400000e-07	-4.454033e-06	-4.040983e-09	-3.110547e+01	-2.702029e+02
7.500000e-07	-4.361823e-06	-4.024749e-09	-3.046150e+01	-2.674853e+02
7.600000e-07	-4.268871e-06	-4.033633e-09	-2.981236e+01	-2.647100e+02
7.700000e-07	-4.175247e-06	-3.995195e-09	-2.915852e+01	-2.618755e+02
7.800000e-07	-4.080985e-06	-3.907001e-09	-2.850022e+01	-2.589808e+02
7.900000e-07	-3.986079e-06	-3.836599e-09	-2.783744e+01	-2.560250e+02
8.000000e-07	-3.890379e-06	-3.822059e-09	-2.716910e+01	-2.530074e+02
8.100000e-07	-3.793800e-06	-3.817335e-09	-2.649462e+01	-2.499274e+02
8.200000e-07	-3.696546e-06	-3.757912e-09	-2.581543e+01	-2.467846e+02
8.300000e-07	-3.598737e-06	-3.657998e-09	-2.513237e+01	-2.435784e+02
8.400000e-07	-3.500278e-06	-3.591166e-09	-2.444476e+01	-2.403084e+02
8.500000e-07	-3.401001e-06	-3.582739e-09	-2.375145e+01	-2.369741e+02
8.600000e-07	-3.301002e-06	-3.567805e-09	-2.305309e+01	-2.335747e+02
8.700000e-07	-3.200514e-06	-3.492208e-09	-2.235132e+01	-2.301096e+02
8.800000e-07	-3.099475e-06	-3.396654e-09	-2.164569e+01	-2.265778e+02
8.900000e-07	-2.997909e-06	-3.347606e-09	-2.093639e+01	-2.229783e+02
9.000000e-07	-2.895924e-06	-3.336823e-09	-2.022416e+01	-2.193100e+02
9.100000e-07	-2.793505e-06	-3.297893e-09	-1.950890e+01	-2.155717e+02
9.200000e-07	-2.690609e-06	-3.208059e-09	-1.879030e+01	-2.117620e+02
9.300000e-07	-2.587166e-06	-3.118828e-09	-1.806789e+01	-2.078794e+02
9.400000e-07	-2.483166e-06	-3.074009e-09	-1.734159e+01	-2.039225e+02
9.500000e-07	-2.378565e-06	-3.047646e-09	-1.661110e+01	-1.998896e+02
9.600000e-07	-2.273471e-06	-2.988061e-09	-1.587716e+01	-1.957790e+02
9.700000e-07	-2.168030e-06	-2.893157e-09	-1.514079e+01	-1.915890e+02
9.800000e-07	-2.062281e-06	-2.813716e-09	-1.440228e+01	-1.873176e+02
9.900000e-07	-1.956254e-06	-2.769129e-09	-1.366182e+01	-1.829629e+02
1.000000e-06	-1.849885e-06	-2.724418e-09	-1.291897e+01	-1.785229e+02
1.010000e-06	-1.743129e-06	-2.648394e-09	-1.217343e+01	-1.739955e+02
1.020000e-06	-1.636055e-06	-2.554931e-09	-1.142566e+01	-1.693785e+02
1.030000e-06	-1.528691e-06	-2.478415e-09	-1.067586e+01	-1.646697e+02
1.040000e-06	-1.421011e-06	-2.421649e-09	-9.923862e+00	-1.598670e+02
1.050000e-06	-1.313058e-06	-2.361066e-09	-9.169956e+00	-1.549683e+02
1.060000e-06	-1.204832e-06	-2.278918e-09	-8.414139e+00	-1.499715e+02
1.070000e-06	-1.096317e-06	-2.184109e-09	-7.656312e+00	-1.448746e+02
1.080000e-06	-9.876363e-07	-2.101490e-09	-6.897320e+00	-1.396760e+02
1.090000e-06	-8.789005e-07	-2.036901e-09	-6.137945e+00	-1.343738e+02
1.100000e-06	-7.700038e-07	-1.969283e-09	-5.377448e+00	-1.289666e+02
1.110000e-06	-6.609023e-07	-1.877810e-09	-4.615520e+00	-1.234529e+02
1.120000e-06	-5.517063e-07	-1.771803e-09	-3.852931e+00	-1.178312e+02
1.130000e-06	-4.424193e-07	-1.679511e-09	-3.089708e+00	-1.121001e+02
1.140000e-06	-3.330579e-07	-1.607054e-09	-2.325964e+00	-1.062580e+02
1.150000e-06	-2.236879e-07	-1.528616e-09	-1.562161e+00	-1.003030e+02
1.160000e-06	-1.143165e-07	-1.423834e-09	-7.983481e-01	-9.423294e+01
1.170000e-06	-4.892270e-09	-1.311724e-09	-3.416597e-02	-8.804505e+01
1.180000e-06	1.045724e-07	-1.221475e-09	7.302988e-01	-8.173616e+01
1.190000e-06	2.139971e-07	-1.144802e-09	1.494484e+00	-7.530247e+01
1.200000e-06	3.233967e-07	-1.051830e-09	2.258494e+00	-6.873964e+01
1.210000e-06	4.327635e-07	-9.355359e-10	3.022274e+00	-6.204278e+01
1.220000e-06	5.420798e-07	-8.213205e-10	3.785703e+00	-5.520667e+01
1.230000e-06	6.513052e-07	-7.269730e-10	4.548497e+00	-4.822588e+01
1.240000e-06	7.604038e-07	-6.332701e-10	5.310404e+00	-4.109511e+01
1.250000e-06	8.693648e-07	-5.185271e-10	6.071351e+00	-3.380951e+01
1.260000e-06	9.781743e-07	-3.895534e-10	6.831240e+00	-2.636509e+01
1.270000e-06	1.086850e-06	-2.690706e-10	7.590194e+00	-1.875914e+01
1.280000e-06	1.195271e-06	-1.627295e-10	8.347372e+00	-1.099073e+01
1.290000e-06	1.303466e-06	-4.974939e-11	9.102967e+00	-3.061159e+00
1.300000e-06	1.411460e-06	8.046777e-11	9.857161e+00	5.025631e+00
1.310000e-06	1.519177e-06	2.161909e-10	1.060942e+01	1.326266e+01
1.320000e-06	1.626582e-06	3.422293e-10	1.135950e+01	2.163964e+01
1.330000e-06	1.733587e-06	4.612047e-10	1.210679e+01	3.014278e+01
1.340000e-06	1.840232e-06	5.888677e-10	1.285156e+01	3.875477e+01
1.350000e-06	1.946562e-06	7.293395e-10	1.359414e+01	4.745486e+01
1.360000e-06	2.052554e-06	8.713388e-10	1.433435e+01	5.621910e+01
1.370000e-06	2.158253e-06	1.005378e-09	1.507252e+01	6.502080e+01
1.380000e-06	2.263612e-06	1.134433e-09	1.580830e+01	7.383101e+01
1.390000e-06	2.368516e-06	1.267017e-09	1.654092e+01	8.261926e+01
1.400000e-06	2.472910e-06	1.407028e-09	1.726997e+01	9.135425e+01
1.410000e-06	2.576815e-06	1.547451e-09	1.799561e+01	1.000048e+02
1.420000e-06	2.680219e-06	1.676289e-09	1.871774e+01	1.085405e+02
1.430000e-06	2.783097e-06	1.795319e-09	1.943622e+01	1.169328e+02
1.440000e-06	2.885462e-06	1.918246e-09	2.015110e+01	1.251558e+02
1.450000e-06	2.987302e-06	2.047277e-09	2.086231e+01	1.331865e+02
1.460000e-06	3.088713e-06	2.171395e-09	2.157053e+01	1.410062e+02
1.470000e-06	3.189683e-06	2.281282e-09	2.227567e+01	1.486000e+02
1.480000e-06	3.290092e-06	2.385215e-09	2.297690e+01	1.559576e+02
1.490000e-06	3.389895e-06	2.493788e-09	2.367389e+01	1.630733e+02
1.500000e-06	3.489012e-06	2.602891e-09	2.436609e+01	1.699457e+02
1.510000e-06	3.587432e-06	2.702040e-09	2.505341e+01	1.765773e+02
1.520000e-06	3.685267e-06	2.792018e-09	2.573666e+01	1.829745e+02
1.530000e-06	3.782470e-06	2.882219e-09	2.641550e+01	1.891464e+02
1.540000e-06	3.878918e-06	2.976385e-09	2.708906e+01	1.951044e+02
1.550000e-06	3.974550e-06	3.069097e-09	2.775692e+01	2.008615e+02
1.560000e-06	4.069445e-06	3.152759e-09	2.841964e+01	2.064313e+02
1.570000e-06	4.163703e-06	3.230299e-09	2.907790e+01	2.118275e+02
1.580000e-06	4.257287e-06	3.310710e-09	2.973146e+01	2.170632e+02
1.590000e-06	4.350191e-06	3.392610e-09	3.038027e+01	2.221502e+02
1.600000e-06	4.442371e-06	3.469965e-09	3.102402e+01	2.270988e+02
1.610000e-06	4.533713e-06	3.542446e-09	3.166192e+01	2.319174e+02
1.620000e-06	4.624194e-06	3.612138e-09	3.229381e+01	2.366122e+02
1.630000e-06	4.713843e-06	3.681988e-09	3.291989e+01	2.411875e+02
1.640000e-06	4.802614e-06	3.751409e-09	3.353984e+01	2.456459e+02
1.650000e-06	4.890448e-06	3.817055e-09	3.415324e+01	2.499883e+02
1.660000e-06	4.977387e-06	3.877600e-09	3.476040e+01	2.542145e+02
1.670000e-06	5.063491e-06	3.937282e-09	3.536171e+01	2.583235e+02
1.680000e-06	5.148803e-06	3.998048e-09	3.595750e+01	2.623140e+02
1.690000e-06	5.233311e-06	4.056612e-09	3.654768e+01	2.661851e+02
1.700000e-06	5.316977e-06	4.111364e-09	3.713198e+01	2.699360e+02
1.710000e-06	5.399743e-06	4.163531e-09	3.770999e+01	2.735671e+02
1.720000e-06	5.481628e-06	4.214530e-09	3.828185e+01	2.770796e+02
1.730000e-06	5.562521e-06	4.265147e-09	3.884677e+01	2.804761e+02
1.740000e-06	5.642278e-06	4.314781e-09	3.940377e+01	2.837602e+02
1.750000e-06	5.721032e-06	4.359700e-09	3.995376e+01	2.869366e+02
1.760000e-06	5.798801e-06	4.401514e-09	4.049688e+01	2.900109e+02
1.770000e-06	5.875531e-06	4.442800e-09	4.103273e+01	2.929890e+02
1.780000e-06	5.951182e-06	4.484864e-09	4.156106e+01	2.958774e+02
1.790000e-06	6.025667e-06	4.527322e-09	4.208123e+01	2.986822e+02
1.800000e-06	6.098909e-06	4.566857e-09	4.259273e+01	3.014091e+02
1.810000e-06	6.170912e-06	4.604717e-09	4.309557e+01	3.040631e+02
1.820000e-06	6.241805e-06	4.642401e-09	4.359066e+01	3.066478e+02
1.830000e-06	6.311679e-06	4.679258e-09	4.407864e+01	3.091660e+02
1.840000e-06	6.380486e-06	4.715871e-09	4.455917e+01	3.116191e+02
1.850000e-06	6.448207e-06	4.749915e-09	4.503211e+01	3.140070e+02
1.860000e-06	6.514822e-06	4.781161e-09	4.549733e+01	3.163288e+02
1.870000e-06	6.580244e-06	4.810818e-09	4.595421e+01	3.185825e+02
1.880000e-06	6.644372e-06	4.840529e-09	4.640206e+01	3.207654e+02
1.890000e-06	6.707321e-06	4.871583e-09	4.684167e+01	3.228748e+02
1.900000e-06	6.769223e-06	4.899443e-09	4.727398e+01	3.249076e+02
1.910000e-06	6.830031e-06	4.927031e-09	4.769864e+01	3.268616e+02
1.920000e-06	6.889751e-06	4.954888e-09	4.811570e+01	3.287349e+02
1.930000e-06	6.948287e-06	4.982585e-09	4.852450e+01	3.305268e+02
1.940000e-06	7.005439e-06	5.009612e-09	4.892363e+01	3.322377e+02
1.950000e-06	7.061172e-06	5.035324e-09	4.931285e+01	3.338694e+02
1.960000e-06	7.115670e-06	5.060081e-09	4.969344e+01	3.354247e+02
1.970000e-06	7.168949e-06	5.083528e-09	5.006553e+01	3.369077e+02
1.980000e-06	7.220876e-06	5.107366e-09	5.042817e+01	3.383235e+02
1.990000e-06	7.271264e-06	5.129250e-09	5.078006e+01	3.396777e+02
2.000000e-06	7.319975e-06	5.147851e-09	5.112024e+01	3.409765e+02
2.010000e-06	7.367253e-06	5.166046e-09	5.145042e+01	3.422259e+02
2.020000e-06	7.413292e-06	5.185535e-09	5.177194e+01	3.434317e+02
2.030000e-06	7.458089e-06	5.207502e-09	5.208479e+01	3.445990e+02
2.040000e-06	7.501715e-06	5.229419e-09	5.238946e+01	3.457320e+02
2.050000e-06	7.544095e-06	5.247717e-09	5.268542e+01	3.468335e+02
2.060000e-06	7.584938e-06	5.261842e-09	5.297065e+01	3.479055e+02
2.070000e-06	7.624334e-06	5.274793e-09	5.324578e+01	3.489482e+02
2.080000e-06	7.662479e-06	5.290808e-09	5.351218e+01	3.499608e+02
2.090000e-06	7.699396e-06	5.305260e-09	5.376999e+01	3.509416e+02
2.100000e-06	7.735147e-06	5.317393e-09	5.401966e+01	3.518877e+02
2.110000e-06	7.769542e-06	5.330780e-09	5.425987e+01	3.527960e+02
2.120000e-06	7.802305e-06	5.345680e-09	5.448867e+01	3.536630e+02
2.130000e-06	7.833652e-06	5.362199e-09	5.470759e+01	3.544854e+02
2.140000e-06	7.863770e-06	5.377760e-09	5.491793e+01	3.552603e+02
2.150000e-06	7.892600e-06	5.389547e-09	5.511926e+01	3.559855e+02
2.160000e-06	7.920196e-06	5.400101e-09	5.531198e+01	3.566600e+02
2.170000e-06	7.946296e-06	5.411065e-09	5.549426e+01	3.572834e+02
2.180000e-06	7.970756e-06	5.419992e-09	5.566508e+01	3.578569e+02
2.190000e-06	7.993786e-06	5.426939e-09	5.582591e+01	3.583824e+02
2.200000e-06	8.015475e-06	5.432269e-09	5.597738e+01	3.588630e+02
2.210000e-06	8.035903e-06	5.437896e-09	5.612005e+01	3.593023e+02
2.220000e-06	8.055095e-06	5.448081e-09	5.625407e+01	3.597043e+02
2.230000e-06	8.072771e-06	5.459476e-09	5.637752e+01	3.600731e+02
2.240000e-06	8.088892e-06	5.466723e-09	5.649010e+01	3.604127e+02
2.250000e-06	8.103546e-06	5.468721e-09	5.659244e+01	3.607264e+02
2.260000e-06	8.116750e-06	5.471178e-09	5.668465e+01	3.610166e+02
2.270000e-06	8.128461e-06	5.475612e-09	5.676644e+01	3.612847e+02
2.280000e-06	8.138442e-06	5.478923e-09	5.683614e+01	3.615309e+02
2.290000e-06	8.146786e-06	5.480674e-09	5.689442e+01	3.617541e+02
2.300000e-06	8.153747e-06	5.482906e-09	5.694302e+01	3.619520e+02
2.310000e-06	8.159322e-06	5.487506e-09	5.698196e+01	3.621214e+02
2.320000e-06	8.163561e-06	5.490103e-09	5.701156e+01	3.622581e+02
2.330000e-06	8.166517e-06	5.491906e-09	5.703221e+01	3.623577e+02
2.340000e-06	8.167848e-06	5.492435e-09	5.704150e+01	3.624153e+02
2.350000e-06	8.167588e-06	5.490819e-09	5.703969e+01	3.624266e+02
2.360000e-06	8.166015e-06	5.491554e-09	5.702870e+01	3.623878e+02
2.370000e-06	8.163142e-06	5.491910e-09	5.700863e+01	3.622960e+02
2.380000e-06	8.159117e-06	5.488376e-09	5.698053e+01	3.621498e+02
2.390000e-06	8.153767e-06	5.484065e-09	5.694317e+01	3.619491e+02
2.400000e-06	8.146802e-06	5.481426e-09	5.689453e+01	3.616952e+02
2.410000e-06	8.138573e-06	5.483465e-09	5.683706e+01	3.613913e+02
2.420000e-06	8.129222e-06	5.486692e-09	5.677175e+01	3.610418e+02
2.430000e-06	8.118529e-06	5.479147e-09	5.669708e+01	3.606523e+02
2.440000e-06	8.106215e-06	5.469837e-09	5.661108e+01	3.602295e+02
2.450000e-06	8.091677e-06	5.444994e-09	5.650955e+01	3.597804e+02
2.460000e-06	8.074933e-06	5.428662e-09	5.639262e+01	3.593121e+02
2.470000e-06	8.056648e-06	5.427262e-09	5.626492e+01	3.588315e+02
2.480000e-06	8.037451e-06	5.481768e-09	5.613085e+01	3.583446e+02
2.490000e-06	8.017677e-06	5.554174e-09	5.599276e+01	3.578562e+02
2.500000e-06	7.996560e-06	5.468515e-09	5.584528e+01	3.573699e+02
2.510000e-06	7.973481e-06	5.325834e-09	5.568411e+01	3.568872e+02
2.520000e-06	7.949163e-06	5.259545e-09	5.551428e+01	3.564080e+02
2.530000e-06	7.923640e-06	5.309651e-09	5.533604e+01	3.559304e+02
2.540000e-06	7.896599e-06	5.472729e-09	5.514719e+01	3.554506e+02
2.550000e-06	7.868374e-06	5.421075e-09	5.495007e+01	3.549635e+02
2.560000e-06	7.838663e-06	5.237706e-09	5.474258e+01	3.544628e+02
2.570000e-06	7.807366e-06	5.383334e-09	5.452402e+01	3.539411e+02
2.580000e-06	7.774722e-06	5.652714e-09	5.429604e+01	3.533909e+02
2.590000e-06	7.740521e-06	5.632895e-09	5.405720e+01	3.528046e+02
2.600000e-06	7.705107e-06	5.415579e-09	5.380988e+01	3.521751e+02
2.610000e-06	7.668619e-06	5.240321e-09	5.355506e+01	3.514963e+02
2.620000e-06	7.630552e-06	5.267450e-09	5.328921e+01	3.507631e+02
2.630000e-06	7.590872e-06	5.446102e-09	5.301210e+01	3.499719e+02
2.640000e-06	7.549803e-06	5.501071e-09	5.272528e+01	3.491207e+02
2.650000e-06	7.507543e-06	5.315192e-09	5.243015e+01	3.482092e+02
2.660000e-06	7.464112e-06	5.074227e-09	5.212684e+01	3.472387e+02
2.670000e-06	7.419448e-06	5.187035e-09	5.181493e+01	3.462117e+02
2.680000e-06	7.373556e-06	5.490496e-09	5.149443e+01	3.451321e+02
2.690000e-06	7.326138e-06	5.421712e-09	5.116328e+01	3.440045e+02
2.700000e-06	7.277256e-06	5.100687e-09	5.082191e+01	3.428344e+02
2.710000e-06	7.227160e-06	5.026840e-09	5.047205e+01	3.416269e+02
2.720000e-06	7.175814e-06	5.277926e-09	5.011347e+01	3.403874e+02
2.730000e-06	7.122969e-06	5.394600e-09	4.974442e+01	3.391205e+02
2.740000e-06	7.068429e-06	5.209000e-09	4.936353e+01	3.378302e+02
2.750000e-06	7.012549e-06	5.056141e-09	4.897328e+01	3.365191e+02
2.760000e-06	6.955534e-06	5.055762e-09	4.857511e+01	3.351891e+02
2.770000e-06	6.897336e-06	5.151995e-09	4.816867e+01	3.338407e+02
2.780000e-06	6.837986e-06	5.201612e-09	4.775420e+01	3.324730e+02
2.790000e-06	6.777488e-06	5.124471e-09	4.733169e+01	3.310845e+02
2.800000e-06	6.715722e-06	4.997069e-09	4.690034e+01	3.296723e+02
2.810000e-06	6.652554e-06	4.932623e-09	4.645920e+01	3.282333e+02
2.820000e-06	6.588142e-06	5.016968e-09	4.600937e+01	3.267635e+02
2.830000e-06	6.522578e-06	5.088765e-09	4.555149e+01	3.252590e+02
2.840000e-06	6.455844e-06	5.006615e-09	4.508544e+01	3.237160e+02
2.850000e-06	6.388071e-06	4.857538e-09	4.461214e+01	3.221310e+02
2.860000e-06	6.319122e-06	4.838397e-09	4.413062e+01	3.205008e+02
2.870000e-06	6.248845e-06	4.939413e-09	4.363983e+01	3.188232e+02
2.880000e-06	6.177340e-06	4.948112e-09	4.314046e+01	3.170966e+02
2.890000e-06	6.104786e-06	4.844840e-09	4.263377e+01	3.153200e+02
2.900000e-06	6.031236e-06	4.753284e-09	4.212012e+01	3.134935e+02
2.910000e-06	5.956611e-06	4.752362e-09	4.159897e+01	3.116175e+02
2.920000e-06	5.880776e-06	4.783966e-09	4.106936e+01	3.096931e+02
2.930000e-06	5.803641e-06	4.781718e-09	4.053068e+01	3.077218e+02
2.940000e-06	5.725347e-06	4.713985e-09	3.998389e+01	3.057053e+02
