# Temperatura_=_20.0
# Concentracion g/m^3_=_12600.0
# C_Vs_to_Am_M_A/Vsm_=_65563218390.804596
# pendiente_HvsI_1/m_=_3716.3
# ordenada_HvsI_A/m_=_1297.0
# frecuencia_Hz_=_213200.92682865498

Tiempo_(s)	Campo_(V.s)	Magnetizacion_(V.s)	Campo_(kA/m)	Magnetizacion_(A/m)
0.000000e+00	-8.145514e-06	-5.503754e-09	-5.680895e+01	-3.607902e+02
1.000000e-08	-8.145027e-06	-5.503567e-09	-5.680556e+01	-3.607703e+02
2.000000e-08	-8.142999e-06	-5.505018e-09	-5.679141e+01	-3.607081e+02
3.000000e-08	-8.139432e-06	-5.506210e-09	-5.676653e+01	-3.606038e+02
4.000000e-08	-8.134646e-06	-5.507805e-09	-5.673315e+01	-3.604585e+02
5.000000e-08	-8.128692e-06	-5.504528e-09	-5.669163e+01	-3.602741e+02
6.000000e-08	-8.121477e-06	-5.496762e-09	-5.664131e+01	-3.600531e+02
7.000000e-08	-8.112879e-06	-5.486701e-09	-5.658135e+01	-3.597983e+02
8.000000e-08	-8.102655e-06	-5.476265e-09	-5.651004e+01	-3.595127e+02
9.000000e-08	-8.090696e-06	-5.493337e-09	-5.642664e+01	-3.591993e+02
1.000000e-07	-8.076908e-06	-5.505987e-09	-5.633047e+01	-3.588605e+02
1.100000e-07	-8.060997e-06	-5.497549e-09	-5.621951e+01	-3.584983e+02
1.200000e-07	-8.043380e-06	-5.503121e-09	-5.609664e+01	-3.581139e+02
1.300000e-07	-8.024527e-06	-5.468796e-09	-5.596516e+01	-3.577073e+02
1.400000e-07	-8.004672e-06	-5.401468e-09	-5.582668e+01	-3.572779e+02
1.500000e-07	-7.983800e-06	-5.422323e-09	-5.568111e+01	-3.568239e+02
1.600000e-07	-7.961624e-06	-5.418233e-09	-5.552645e+01	-3.563428e+02
1.700000e-07	-7.938282e-06	-5.481005e-09	-5.536366e+01	-3.558312e+02
1.800000e-07	-7.913553e-06	-5.550049e-09	-5.519119e+01	-3.552855e+02
1.900000e-07	-7.887017e-06	-5.380577e-09	-5.500612e+01	-3.547018e+02
2.000000e-07	-7.859131e-06	-5.250969e-09	-5.481164e+01	-3.540765e+02
2.100000e-07	-7.830122e-06	-5.309532e-09	-5.460932e+01	-3.534063e+02
2.200000e-07	-7.799775e-06	-5.442566e-09	-5.439767e+01	-3.526887e+02
2.300000e-07	-7.768139e-06	-5.486580e-09	-5.417704e+01	-3.519220e+02
2.400000e-07	-7.734964e-06	-5.254769e-09	-5.394567e+01	-3.511059e+02
2.500000e-07	-7.700273e-06	-5.086457e-09	-5.370372e+01	-3.502411e+02
2.600000e-07	-7.664360e-06	-5.274405e-09	-5.345325e+01	-3.493297e+02
2.700000e-07	-7.627047e-06	-5.445210e-09	-5.319302e+01	-3.483748e+02
2.800000e-07	-7.588334e-06	-5.409229e-09	-5.292303e+01	-3.473804e+02
2.900000e-07	-7.548396e-06	-5.179664e-09	-5.264449e+01	-3.463514e+02
3.000000e-07	-7.507066e-06	-5.047865e-09	-5.235625e+01	-3.452932e+02
3.100000e-07	-7.464179e-06	-5.239605e-09	-5.205714e+01	-3.442110e+02
3.200000e-07	-7.419869e-06	-5.441843e-09	-5.174811e+01	-3.431102e+02
3.300000e-07	-7.374217e-06	-5.334850e-09	-5.142972e+01	-3.419953e+02
3.400000e-07	-7.327204e-06	-5.021323e-09	-5.110184e+01	-3.408702e+02
3.500000e-07	-7.278809e-06	-4.976233e-09	-5.076433e+01	-3.397375e+02
3.600000e-07	-7.228842e-06	-5.220117e-09	-5.041584e+01	-3.385986e+02
3.700000e-07	-7.177236e-06	-5.313497e-09	-5.005593e+01	-3.374538e+02
3.800000e-07	-7.124170e-06	-5.135360e-09	-4.968583e+01	-3.363019e+02
3.900000e-07	-7.069809e-06	-4.926333e-09	-4.930670e+01	-3.351403e+02
4.000000e-07	-7.014286e-06	-4.965850e-09	-4.891947e+01	-3.339656e+02
4.100000e-07	-6.957524e-06	-5.144202e-09	-4.852360e+01	-3.327735e+02
4.200000e-07	-6.899396e-06	-5.165467e-09	-4.811819e+01	-3.315590e+02
4.300000e-07	-6.839975e-06	-5.021784e-09	-4.770378e+01	-3.303171e+02
4.400000e-07	-6.779370e-06	-4.889053e-09	-4.728111e+01	-3.290426e+02
4.500000e-07	-6.717575e-06	-4.921447e-09	-4.685013e+01	-3.277309e+02
4.600000e-07	-6.654674e-06	-5.028246e-09	-4.641145e+01	-3.263778e+02
4.700000e-07	-6.590717e-06	-5.035529e-09	-4.596539e+01	-3.249800e+02
4.800000e-07	-6.525434e-06	-4.910377e-09	-4.551009e+01	-3.235352e+02
4.900000e-07	-6.458826e-06	-4.792119e-09	-4.504555e+01	-3.220419e+02
5.000000e-07	-6.391097e-06	-4.817328e-09	-4.457318e+01	-3.204998e+02
5.100000e-07	-6.322317e-06	-4.896470e-09	-4.409350e+01	-3.189092e+02
5.200000e-07	-6.252496e-06	-4.879201e-09	-4.360655e+01	-3.172712e+02
5.300000e-07	-6.181666e-06	-4.760702e-09	-4.311256e+01	-3.155876e+02
5.400000e-07	-6.109661e-06	-4.682517e-09	-4.261038e+01	-3.138603e+02
5.500000e-07	-6.036369e-06	-4.709125e-09	-4.209922e+01	-3.120911e+02
5.600000e-07	-5.961926e-06	-4.751014e-09	-4.158004e+01	-3.102818e+02
5.700000e-07	-5.886289e-06	-4.715063e-09	-4.105253e+01	-3.084337e+02
5.800000e-07	-5.809452e-06	-4.627976e-09	-4.051665e+01	-3.065476e+02
5.900000e-07	-5.731391e-06	-4.572272e-09	-3.997222e+01	-3.046235e+02
6.000000e-07	-5.652139e-06	-4.571798e-09	-3.941950e+01	-3.026608e+02
6.100000e-07	-5.571831e-06	-4.589818e-09	-3.885941e+01	-3.006583e+02
6.200000e-07	-5.490427e-06	-4.566901e-09	-3.829168e+01	-2.986139e+02
6.300000e-07	-5.408060e-06	-4.491769e-09	-3.771723e+01	-2.965253e+02
6.400000e-07	-5.324894e-06	-4.420253e-09	-3.713721e+01	-2.943898e+02
6.500000e-07	-5.240851e-06	-4.408918e-09	-3.655107e+01	-2.922046e+02
6.600000e-07	-5.155986e-06	-4.418720e-09	-3.595920e+01	-2.899670e+02
6.700000e-07	-5.070373e-06	-4.380439e-09	-3.536211e+01	-2.876747e+02
6.800000e-07	-4.983929e-06	-4.303937e-09	-3.475923e+01	-2.853258e+02
6.900000e-07	-4.896691e-06	-4.240602e-09	-3.415080e+01	-2.829189e+02
7.000000e-07	-4.808591e-06	-4.222958e-09	-3.353637e+01	-2.804533e+02
7.100000e-07	-4.719506e-06	-4.223985e-09	-3.291508e+01	-2.779291e+02
7.200000e-07	-4.629604e-06	-4.190826e-09	-3.228807e+01	-2.753469e+02
7.300000e-07	-4.538969e-06	-4.114568e-09	-3.165596e+01	-2.727078e+02
7.400000e-07	-4.447377e-06	-4.045928e-09	-3.101718e+01	-2.700133e+02
7.500000e-07	-4.354878e-06	-4.032843e-09	-3.037206e+01	-2.672651e+02
7.600000e-07	-4.261748e-06	-4.037298e-09	-2.972255e+01	-2.644650e+02
7.700000e-07	-4.167977e-06	-3.990620e-09	-2.906856e+01	-2.616143e+02
7.800000e-07	-4.073524e-06	-3.900140e-09	-2.840982e+01	-2.587143e+02
7.900000e-07	-3.978406e-06	-3.833864e-09	-2.774645e+01	-2.557655e+02
8.000000e-07	-3.882484e-06	-3.822981e-09	-2.707746e+01	-2.527677e+02
8.100000e-07	-3.785726e-06	-3.812628e-09	-2.640265e+01	-2.497202e+02
8.200000e-07	-3.688244e-06	-3.747880e-09	-2.572278e+01	-2.466214e+02
8.300000e-07	-3.590177e-06	-3.655439e-09	-2.503883e+01	-2.434691e+02
8.400000e-07	-3.491490e-06	-3.602252e-09	-2.435056e+01	-2.402603e+02
8.500000e-07	-3.392024e-06	-3.595109e-09	-2.365687e+01	-2.369919e+02
8.600000e-07	-3.291807e-06	-3.567776e-09	-2.295792e+01	-2.336601e+02
8.700000e-07	-3.190997e-06	-3.487800e-09	-2.225485e+01	-2.302614e+02
8.800000e-07	-3.089738e-06	-3.402367e-09	-2.154864e+01	-2.267921e+02
8.900000e-07	-2.988002e-06	-3.359780e-09	-2.083911e+01	-2.232488e+02
9.000000e-07	-2.885800e-06	-3.341908e-09	-2.012633e+01	-2.196285e+02
9.100000e-07	-2.783197e-06	-3.294265e-09	-1.941075e+01	-2.159288e+02
9.200000e-07	-2.680066e-06	-3.208074e-09	-1.869149e+01	-2.121477e+02
9.300000e-07	-2.576334e-06	-3.129545e-09	-1.796803e+01	-2.082837e+02
9.400000e-07	-2.472081e-06	-3.086847e-09	-1.724094e+01	-2.043361e+02
9.500000e-07	-2.367260e-06	-3.055160e-09	-1.650989e+01	-2.003042e+02
9.600000e-07	-2.261988e-06	-2.992495e-09	-1.577569e+01	-1.961879e+02
9.700000e-07	-2.156405e-06	-2.901792e-09	-1.503933e+01	-1.919872e+02
9.800000e-07	-2.050492e-06	-2.825072e-09	-1.430067e+01	-1.877021e+02
9.900000e-07	-1.944274e-06	-2.776674e-09	-1.355987e+01	-1.833323e+02
1.000000e-06	-1.837737e-06	-2.728608e-09	-1.281686e+01	-1.788775e+02
1.010000e-06	-1.730847e-06	-2.652889e-09	-1.207138e+01	-1.743367e+02
1.020000e-06	-1.623559e-06	-2.560921e-09	-1.132313e+01	-1.697088e+02
1.030000e-06	-1.515901e-06	-2.484673e-09	-1.057229e+01	-1.649919e+02
1.040000e-06	-1.407974e-06	-2.427856e-09	-9.819578e+00	-1.601840e+02
1.050000e-06	-1.299693e-06	-2.368429e-09	-9.064401e+00	-1.552825e+02
1.060000e-06	-1.191098e-06	-2.287131e-09	-8.307027e+00	-1.502846e+02
1.070000e-06	-1.082369e-06	-2.193610e-09	-7.548727e+00	-1.451874e+02
1.080000e-06	-9.735781e-07	-2.112358e-09	-6.789989e+00	-1.399880e+02
1.090000e-06	-8.646748e-07	-2.045980e-09	-6.030469e+00	-1.346833e+02
1.100000e-06	-7.556066e-07	-1.973010e-09	-5.269799e+00	-1.292708e+02
1.110000e-06	-6.464546e-07	-1.876608e-09	-4.508544e+00	-1.237479e+02
1.120000e-06	-5.372108e-07	-1.771351e-09	-3.746649e+00	-1.181123e+02
1.130000e-06	-4.278765e-07	-1.682129e-09	-2.984123e+00	-1.123622e+02
1.140000e-06	-3.185123e-07	-1.607821e-09	-2.221388e+00	-1.064958e+02
1.150000e-06	-2.090839e-07	-1.523779e-09	-1.458206e+00	-1.005112e+02
1.160000e-06	-9.958564e-08	-1.418610e-09	-6.945364e-01	-9.440673e+01
1.170000e-06	9.899798e-09	-1.311620e-09	6.904379e-02	-8.818034e+01
1.180000e-06	1.193327e-07	-1.221654e-09	8.322577e-01	-8.182966e+01
1.190000e-06	2.287963e-07	-1.139736e-09	1.595685e+00	-7.535184e+01
1.200000e-06	3.382593e-07	-1.043540e-09	2.359109e+00	-6.874345e+01
1.210000e-06	4.476043e-07	-9.287899e-10	3.121710e+00	-6.200052e+01
1.220000e-06	5.569087e-07	-8.159469e-10	3.884028e+00	-5.511854e+01
1.230000e-06	6.661411e-07	-7.161857e-10	4.645843e+00	-4.809267e+01
1.240000e-06	7.752456e-07	-6.155034e-10	5.406766e+00	-4.091796e+01
1.250000e-06	8.842899e-07	-4.976108e-10	6.167270e+00	-3.358966e+01
1.260000e-06	9.932236e-07	-3.684998e-10	6.927002e+00	-2.610367e+01
1.270000e-06	1.102003e-06	-2.487614e-10	7.685661e+00	-1.845702e+01
1.280000e-06	1.210586e-06	-1.434201e-10	8.442944e+00	-1.064834e+01
1.290000e-06	1.318953e-06	-3.304649e-11	9.198723e+00	-2.678404e+00
1.300000e-06	1.427171e-06	9.453441e-11	9.953465e+00	5.449358e+00
1.310000e-06	1.535162e-06	2.315000e-10	1.070662e+01	1.372846e+01
1.320000e-06	1.642766e-06	3.588752e-10	1.145708e+01	2.214899e+01
1.330000e-06	1.749916e-06	4.780017e-10	1.220437e+01	3.069740e+01
1.340000e-06	1.856638e-06	6.078518e-10	1.294868e+01	3.935644e+01
1.350000e-06	1.963016e-06	7.494031e-10	1.369059e+01	4.810524e+01
1.360000e-06	2.069097e-06	8.908678e-10	1.443042e+01	5.691957e+01
1.370000e-06	2.174869e-06	1.022261e-09	1.516811e+01	6.577226e+01
1.380000e-06	2.280291e-06	1.151151e-09	1.590335e+01	7.463382e+01
1.390000e-06	2.385292e-06	1.288075e-09	1.663565e+01	8.347313e+01
1.400000e-06	2.489846e-06	1.429196e-09	1.736484e+01	9.225827e+01
1.410000e-06	2.593883e-06	1.566559e-09	1.809042e+01	1.009574e+02
1.420000e-06	2.697288e-06	1.694622e-09	1.881159e+01	1.095398e+02
1.430000e-06	2.800136e-06	1.820105e-09	1.952888e+01	1.179763e+02
1.440000e-06	2.902601e-06	1.949694e-09	2.024350e+01	1.262409e+02
1.450000e-06	3.004617e-06	2.077605e-09	2.095499e+01	1.343107e+02
1.460000e-06	3.106104e-06	2.197194e-09	2.166278e+01	1.421668e+02
1.470000e-06	3.207087e-06	2.306999e-09	2.236707e+01	1.497947e+02
1.480000e-06	3.307581e-06	2.414689e-09	2.306794e+01	1.571844e+02
1.490000e-06	3.407552e-06	2.523362e-09	2.376516e+01	1.643305e+02
1.500000e-06	3.506826e-06	2.629654e-09	2.445753e+01	1.712319e+02
1.510000e-06	3.605332e-06	2.728642e-09	2.514453e+01	1.778915e+02
1.520000e-06	3.703188e-06	2.820725e-09	2.582700e+01	1.843155e+02
1.530000e-06	3.800452e-06	2.911971e-09	2.650535e+01	1.905132e+02
1.540000e-06	3.896924e-06	3.005871e-09	2.717817e+01	1.964958e+02
1.550000e-06	3.992520e-06	3.097313e-09	2.784488e+01	2.022756e+02
1.560000e-06	4.087400e-06	3.179992e-09	2.850660e+01	2.078659e+02
1.570000e-06	4.181646e-06	3.258134e-09	2.916390e+01	2.132797e+02
1.580000e-06	4.275261e-06	3.339262e-09	2.981679e+01	2.185292e+02
1.590000e-06	4.368230e-06	3.422124e-09	3.046518e+01	2.236255e+02
1.600000e-06	4.460540e-06	3.499659e-09	3.110898e+01	2.285781e+02
1.610000e-06	4.551999e-06	3.569843e-09	3.174683e+01	2.333947e+02
1.620000e-06	4.642482e-06	3.636153e-09	3.237788e+01	2.380813e+02
1.630000e-06	4.732160e-06	3.704880e-09	3.300332e+01	2.426421e+02
1.640000e-06	4.820988e-06	3.774558e-09	3.362284e+01	2.470797e+02
1.650000e-06	4.908836e-06	3.840369e-09	3.423551e+01	2.513956e+02
1.660000e-06	4.995747e-06	3.901260e-09	3.484165e+01	2.555902e+02
1.670000e-06	5.081851e-06	3.959677e-09	3.544216e+01	2.596636e+02
1.680000e-06	5.167154e-06	4.018409e-09	3.603708e+01	2.636158e+02
1.690000e-06	5.251660e-06	4.076306e-09	3.662645e+01	2.674470e+02
1.700000e-06	5.335340e-06	4.131065e-09	3.721006e+01	2.711579e+02
1.710000e-06	5.418066e-06	4.182373e-09	3.778701e+01	2.747501e+02
1.720000e-06	5.499897e-06	4.231046e-09	3.835773e+01	2.782259e+02
1.730000e-06	5.580724e-06	4.281671e-09	3.892143e+01	2.815887e+02
1.740000e-06	5.660484e-06	4.333740e-09	3.947770e+01	2.848425e+02
1.750000e-06	5.739243e-06	4.380932e-09	4.002698e+01	2.879922e+02
1.760000e-06	5.816939e-06	4.422062e-09	4.056886e+01	2.910431e+02
1.770000e-06	5.893660e-06	4.461016e-09	4.110393e+01	2.940005e+02
1.780000e-06	5.969297e-06	4.503496e-09	4.163144e+01	2.968698e+02
1.790000e-06	6.043645e-06	4.547260e-09	4.214996e+01	2.996558e+02
1.800000e-06	6.116813e-06	4.587181e-09	4.266026e+01	3.023629e+02
1.810000e-06	6.188834e-06	4.624497e-09	4.316255e+01	3.049945e+02
1.820000e-06	6.259693e-06	4.660789e-09	4.365674e+01	3.075531e+02
1.830000e-06	6.329464e-06	4.697587e-09	4.414334e+01	3.100401e+02
1.840000e-06	6.398231e-06	4.734716e-09	4.462294e+01	3.124561e+02
1.850000e-06	6.465900e-06	4.767119e-09	4.509489e+01	3.148007e+02
1.860000e-06	6.532377e-06	4.795797e-09	4.555851e+01	3.170731e+02
1.870000e-06	6.597632e-06	4.824373e-09	4.601362e+01	3.192716e+02
1.880000e-06	6.661646e-06	4.854911e-09	4.646007e+01	3.213949e+02
1.890000e-06	6.724528e-06	4.885462e-09	4.689862e+01	3.234415e+02
1.900000e-06	6.786280e-06	4.913154e-09	4.732930e+01	3.254104e+02
1.910000e-06	6.846963e-06	4.940732e-09	4.775252e+01	3.273013e+02
1.920000e-06	6.906634e-06	4.968614e-09	4.816868e+01	3.291146e+02
1.930000e-06	6.965023e-06	4.996674e-09	4.857590e+01	3.308516e+02
1.940000e-06	7.021946e-06	5.023760e-09	4.897289e+01	3.325149e+02
1.950000e-06	7.077507e-06	5.048275e-09	4.936039e+01	3.341075e+02
1.960000e-06	7.131869e-06	5.070693e-09	4.973952e+01	3.356334e+02
1.970000e-06	7.185031e-06	5.091335e-09	5.011029e+01	3.370975e+02
1.980000e-06	7.236798e-06	5.112648e-09	5.047132e+01	3.385044e+02
1.990000e-06	7.287012e-06	5.134049e-09	5.082153e+01	3.398593e+02
2.000000e-06	7.335653e-06	5.155190e-09	5.116077e+01	3.411669e+02
2.010000e-06	7.382864e-06	5.174671e-09	5.149003e+01	3.424316e+02
2.020000e-06	7.428837e-06	5.193577e-09	5.181066e+01	3.436568e+02
2.030000e-06	7.473686e-06	5.215829e-09	5.212345e+01	3.448452e+02
2.040000e-06	7.517326e-06	5.238107e-09	5.242780e+01	3.459986e+02
2.050000e-06	7.559546e-06	5.256282e-09	5.272226e+01	3.471174e+02
2.060000e-06	7.600279e-06	5.269202e-09	5.300634e+01	3.482013e+02
2.070000e-06	7.639658e-06	5.281207e-09	5.328098e+01	3.492489e+02
2.080000e-06	7.677724e-06	5.296967e-09	5.354646e+01	3.502583e+02
2.090000e-06	7.714498e-06	5.310897e-09	5.380293e+01	3.512271e+02
2.100000e-06	7.750065e-06	5.320991e-09	5.405099e+01	3.521525e+02
2.110000e-06	7.784219e-06	5.330665e-09	5.428919e+01	3.530319e+02
2.120000e-06	7.816831e-06	5.345192e-09	5.451663e+01	3.538633e+02
2.130000e-06	7.848106e-06	5.365495e-09	5.473475e+01	3.546448e+02
2.140000e-06	7.878137e-06	5.382965e-09	5.494420e+01	3.553757e+02
2.150000e-06	7.906877e-06	5.394036e-09	5.514463e+01	3.560559e+02
2.160000e-06	7.934291e-06	5.402594e-09	5.533582e+01	3.566864e+02
2.170000e-06	7.960122e-06	5.412087e-09	5.551598e+01	3.572688e+02
2.180000e-06	7.984309e-06	5.420788e-09	5.568466e+01	3.578058e+02
2.190000e-06	8.007149e-06	5.427114e-09	5.584395e+01	3.583005e+02
2.200000e-06	8.028719e-06	5.430976e-09	5.599439e+01	3.587565e+02
2.210000e-06	8.049020e-06	5.436745e-09	5.613598e+01	3.591774e+02
2.220000e-06	8.068033e-06	5.449125e-09	5.626858e+01	3.595668e+02
2.230000e-06	8.085501e-06	5.462309e-09	5.639040e+01	3.599277e+02
2.240000e-06	8.101441e-06	5.469291e-09	5.650158e+01	3.602628e+02
2.250000e-06	8.115964e-06	5.472661e-09	5.660286e+01	3.605736e+02
2.260000e-06	8.128994e-06	5.477883e-09	5.669374e+01	3.608612e+02
2.270000e-06	8.140535e-06	5.484618e-09	5.677423e+01	3.611254e+02
2.280000e-06	8.150382e-06	5.488983e-09	5.684290e+01	3.613653e+02
2.290000e-06	8.158564e-06	5.490933e-09	5.689996e+01	3.615790e+02
2.300000e-06	8.165384e-06	5.492183e-09	5.694753e+01	3.617644e+02
2.310000e-06	8.170855e-06	5.494329e-09	5.698569e+01	3.619185e+02
2.320000e-06	8.175012e-06	5.499094e-09	5.701468e+01	3.620387e+02
2.330000e-06	8.177799e-06	5.504520e-09	5.703411e+01	3.621220e+02
2.340000e-06	8.178858e-06	5.507048e-09	5.704150e+01	3.621662e+02
2.350000e-06	8.178381e-06	5.507451e-09	5.703818e+01	3.621694e+02
2.360000e-06	8.176674e-06	5.508265e-09	5.702627e+01	3.621305e+02
2.370000e-06	8.173682e-06	5.508998e-09	5.700541e+01	3.620492e+02
2.380000e-06	8.169513e-06	5.504979e-09	5.697632e+01	3.619263e+02
2.390000e-06	8.164012e-06	5.499690e-09	5.693796e+01	3.617632e+02
2.400000e-06	8.156960e-06	5.497119e-09	5.688878e+01	3.615620e+02
2.410000e-06	8.148603e-06	5.503162e-09	5.683049e+01	3.613255e+02
2.420000e-06	8.139043e-06	5.512400e-09	5.676382e+01	3.610564e+02
2.430000e-06	8.128099e-06	5.482695e-09	5.668749e+01	3.607580e+02
2.440000e-06	8.115493e-06	5.474018e-09	5.659958e+01	3.604329e+02
2.450000e-06	8.100649e-06	5.473163e-09	5.649605e+01	3.600834e+02
2.460000e-06	8.083679e-06	5.451202e-09	5.637770e+01	3.597111e+02
2.470000e-06	8.065257e-06	5.495521e-09	5.624921e+01	3.593168e+02
2.480000e-06	8.045955e-06	5.493844e-09	5.611460e+01	3.589001e+02
2.490000e-06	8.026000e-06	5.482456e-09	5.597543e+01	3.584599e+02
2.500000e-06	8.004488e-06	5.519789e-09	5.582540e+01	3.579941e+02
2.510000e-06	7.981108e-06	5.311372e-09	5.566234e+01	3.574997e+02
2.520000e-06	7.956696e-06	5.250308e-09	5.549209e+01	3.569732e+02
2.530000e-06	7.931027e-06	5.437734e-09	5.531307e+01	3.564109e+02
2.540000e-06	7.903830e-06	5.451319e-09	5.512338e+01	3.558090e+02
2.550000e-06	7.875395e-06	5.403713e-09	5.492507e+01	3.551638e+02
2.560000e-06	7.845339e-06	5.351030e-09	5.471545e+01	3.544725e+02
2.570000e-06	7.813733e-06	5.407752e-09	5.449503e+01	3.537330e+02
2.580000e-06	7.780823e-06	5.673890e-09	5.426550e+01	3.529441e+02
2.590000e-06	7.746387e-06	5.607547e-09	5.402533e+01	3.521059e+02
2.600000e-06	7.710790e-06	5.319012e-09	5.377707e+01	3.512199e+02
2.610000e-06	7.674013e-06	5.243143e-09	5.352058e+01	3.502884e+02
2.620000e-06	7.635554e-06	5.233600e-09	5.325236e+01	3.493151e+02
2.630000e-06	7.595596e-06	5.450496e-09	5.297368e+01	3.483046e+02
2.640000e-06	7.554375e-06	5.469149e-09	5.268619e+01	3.472618e+02
2.650000e-06	7.511917e-06	5.162344e-09	5.239008e+01	3.461921e+02
2.660000e-06	7.468236e-06	5.020545e-09	5.208544e+01	3.451010e+02
2.670000e-06	7.423379e-06	5.186590e-09	5.177259e+01	3.439933e+02
2.680000e-06	7.377231e-06	5.494811e-09	5.145075e+01	3.428734e+02
2.690000e-06	7.329495e-06	5.337622e-09	5.111782e+01	3.417446e+02
2.700000e-06	7.280395e-06	4.998229e-09	5.077538e+01	3.406091e+02
2.710000e-06	7.230078e-06	5.053932e-09	5.042446e+01	3.394676e+02
2.720000e-06	7.178430e-06	5.245784e-09	5.006425e+01	3.383198e+02
2.730000e-06	7.125278e-06	5.340854e-09	4.969356e+01	3.371639e+02
2.740000e-06	7.070512e-06	5.156545e-09	4.931161e+01	3.359969e+02
2.750000e-06	7.014401e-06	5.012749e-09	4.892027e+01	3.348150e+02
2.760000e-06	6.957086e-06	5.048119e-09	4.852054e+01	3.336135e+02
2.770000e-06	6.898604e-06	5.107597e-09	4.811268e+01	3.323873e+02
2.780000e-06	6.839070e-06	5.190435e-09	4.769747e+01	3.311313e+02
2.790000e-06	6.778380e-06	5.084547e-09	4.727420e+01	3.298407e+02
2.800000e-06	6.716352e-06	4.937332e-09	4.684160e+01	3.285108e+02
2.810000e-06	6.652993e-06	4.900541e-09	4.639972e+01	3.271380e+02
2.820000e-06	6.588398e-06	5.012021e-09	4.594921e+01	3.257193e+02
2.830000e-06	6.522660e-06	5.084296e-09	4.549074e+01	3.242528e+02
2.840000e-06	6.455790e-06	4.937218e-09	4.502438e+01	3.227375e+02
2.850000e-06	6.387799e-06	4.799773e-09	4.455018e+01	3.211735e+02
2.860000e-06	6.318622e-06	4.817380e-09	4.406773e+01	3.195614e+02
2.870000e-06	6.248215e-06	4.940059e-09	4.357669e+01	3.179027e+02
2.880000e-06	6.176555e-06	4.926119e-09	4.307692e+01	3.161992e+02
2.890000e-06	6.103723e-06	4.797508e-09	4.256896e+01	3.144528e+02
2.900000e-06	6.029864e-06	4.723399e-09	4.205385e+01	3.126654e+02
2.910000e-06	5.954939e-06	4.741434e-09	4.153131e+01	3.108385e+02
2.920000e-06	5.878835e-06	4.782367e-09	4.100054e+01	3.089733e+02
2.930000e-06	5.801434e-06	4.752685e-09	4.046073e+01	3.070701e+02
2.940000e-06	5.722854e-06	4.675189e-09	3.991269e+01	3.051288e+02
