# Temperatura_=_20.0
# Concentracion g/m^3_=_12600.0
# C_Vs_to_Am_M_A/Vsm_=_65563218390.804596
# pendiente_HvsI_1/m_=_3716.3
# ordenada_HvsI_A/m_=_1297.0
# frecuencia_Hz_=_213205.6253468854

Tiempo_(s)	Campo_(V.s)	Magnetizacion_(V.s)	Campo_(kA/m)	Magnetizacion_(A/m)
0.000000e+00	-8.151128e-06	-5.471393e-09	-5.680177e+01	-3.566451e+02
1.000000e-08	-8.150788e-06	-5.472605e-09	-5.679940e+01	-3.566083e+02
2.000000e-08	-8.148997e-06	-5.469517e-09	-5.678692e+01	-3.565032e+02
3.000000e-08	-8.145627e-06	-5.469351e-09	-5.676343e+01	-3.563314e+02
4.000000e-08	-8.140875e-06	-5.469871e-09	-5.673031e+01	-3.560976e+02
5.000000e-08	-8.134888e-06	-5.469097e-09	-5.668859e+01	-3.558093e+02
6.000000e-08	-8.127715e-06	-5.470183e-09	-5.663861e+01	-3.554769e+02
7.000000e-08	-8.119238e-06	-5.470546e-09	-5.657954e+01	-3.551124e+02
8.000000e-08	-8.109170e-06	-5.466414e-09	-5.650938e+01	-3.547300e+02
9.000000e-08	-8.097338e-06	-5.478214e-09	-5.642693e+01	-3.543441e+02
1.000000e-07	-8.083686e-06	-5.444475e-09	-5.633179e+01	-3.539693e+02
1.100000e-07	-8.068006e-06	-5.436196e-09	-5.622252e+01	-3.536194e+02
1.200000e-07	-8.050598e-06	-5.462585e-09	-5.610121e+01	-3.533061e+02
1.300000e-07	-8.031892e-06	-5.422717e-09	-5.597086e+01	-3.530388e+02
1.400000e-07	-8.012149e-06	-5.429622e-09	-5.583328e+01	-3.528236e+02
1.500000e-07	-7.991474e-06	-5.458786e-09	-5.568920e+01	-3.526630e+02
1.600000e-07	-7.969544e-06	-5.323999e-09	-5.553639e+01	-3.525555e+02
1.700000e-07	-7.946295e-06	-5.430725e-09	-5.537437e+01	-3.524957e+02
1.800000e-07	-7.921763e-06	-5.449894e-09	-5.520342e+01	-3.524742e+02
1.900000e-07	-7.895515e-06	-5.335138e-09	-5.502050e+01	-3.524786e+02
2.000000e-07	-7.867799e-06	-5.470065e-09	-5.482737e+01	-3.524932e+02
2.100000e-07	-7.839013e-06	-5.340685e-09	-5.462677e+01	-3.525007e+02
2.200000e-07	-7.808860e-06	-5.255316e-09	-5.441665e+01	-3.524823e+02
2.300000e-07	-7.777295e-06	-5.428818e-09	-5.419668e+01	-3.524191e+02
2.400000e-07	-7.744313e-06	-5.363862e-09	-5.396684e+01	-3.522930e+02
2.500000e-07	-7.709848e-06	-5.277390e-09	-5.372667e+01	-3.520873e+02
2.600000e-07	-7.674034e-06	-5.338892e-09	-5.347710e+01	-3.517880e+02
2.700000e-07	-7.636786e-06	-5.291517e-09	-5.321753e+01	-3.513839e+02
2.800000e-07	-7.598016e-06	-5.332763e-09	-5.294736e+01	-3.508675e+02
2.900000e-07	-7.558116e-06	-5.333660e-09	-5.266932e+01	-3.502350e+02
3.000000e-07	-7.517056e-06	-5.286587e-09	-5.238319e+01	-3.494865e+02
3.100000e-07	-7.474395e-06	-5.278899e-09	-5.208590e+01	-3.486256e+02
3.200000e-07	-7.430176e-06	-5.259879e-09	-5.177776e+01	-3.476594e+02
3.300000e-07	-7.384562e-06	-5.238900e-09	-5.145989e+01	-3.465975e+02
3.400000e-07	-7.337653e-06	-5.211393e-09	-5.113300e+01	-3.454518e+02
3.500000e-07	-7.289582e-06	-5.238665e-09	-5.079802e+01	-3.442353e+02
3.600000e-07	-7.239939e-06	-5.184882e-09	-5.045208e+01	-3.429617e+02
3.700000e-07	-7.188400e-06	-5.118854e-09	-5.009292e+01	-3.416443e+02
3.800000e-07	-7.135347e-06	-5.157291e-09	-4.972322e+01	-3.402953e+02
3.900000e-07	-7.081122e-06	-5.150934e-09	-4.934535e+01	-3.389255e+02
4.000000e-07	-7.025748e-06	-5.116408e-09	-4.895947e+01	-3.375434e+02
4.100000e-07	-6.969214e-06	-5.069409e-09	-4.856550e+01	-3.361552e+02
4.200000e-07	-6.911293e-06	-5.039849e-09	-4.816188e+01	-3.347643e+02
4.300000e-07	-6.851944e-06	-5.071173e-09	-4.774830e+01	-3.333718e+02
4.400000e-07	-6.791439e-06	-5.068535e-09	-4.732667e+01	-3.319760e+02
4.500000e-07	-6.729788e-06	-5.007726e-09	-4.689705e+01	-3.305733e+02
4.600000e-07	-6.667027e-06	-4.942220e-09	-4.645969e+01	-3.291585e+02
4.700000e-07	-6.603215e-06	-4.951381e-09	-4.601502e+01	-3.277250e+02
4.800000e-07	-6.538179e-06	-4.985194e-09	-4.556181e+01	-3.262657e+02
4.900000e-07	-6.471718e-06	-4.955902e-09	-4.509867e+01	-3.247732e+02
5.000000e-07	-6.404000e-06	-4.868500e-09	-4.462677e+01	-3.232407e+02
5.100000e-07	-6.335222e-06	-4.814076e-09	-4.414749e+01	-3.216621e+02
5.200000e-07	-6.265443e-06	-4.839018e-09	-4.366122e+01	-3.200323e+02
5.300000e-07	-6.194603e-06	-4.852186e-09	-4.316757e+01	-3.183478e+02
5.400000e-07	-6.122745e-06	-4.792781e-09	-4.266682e+01	-3.166066e+02
5.500000e-07	-6.049828e-06	-4.715790e-09	-4.215869e+01	-3.148079e+02
5.600000e-07	-5.975493e-06	-4.705128e-09	-4.164068e+01	-3.129524e+02
5.700000e-07	-5.899849e-06	-4.725227e-09	-4.111356e+01	-3.110421e+02
5.800000e-07	-5.823074e-06	-4.708264e-09	-4.057854e+01	-3.090797e+02
5.900000e-07	-5.745178e-06	-4.649369e-09	-4.003571e+01	-3.070684e+02
6.000000e-07	-5.666096e-06	-4.594097e-09	-3.948463e+01	-3.050117e+02
6.100000e-07	-5.585819e-06	-4.581384e-09	-3.892521e+01	-3.029128e+02
6.200000e-07	-5.504524e-06	-4.574968e-09	-3.835870e+01	-3.007748e+02
6.300000e-07	-5.422222e-06	-4.541640e-09	-3.778517e+01	-2.985996e+02
6.400000e-07	-5.338969e-06	-4.475685e-09	-3.720502e+01	-2.963887e+02
6.500000e-07	-5.254984e-06	-4.423363e-09	-3.661976e+01	-2.941423e+02
6.600000e-07	-5.170263e-06	-4.405058e-09	-3.602938e+01	-2.918598e+02
6.700000e-07	-5.084690e-06	-4.390074e-09	-3.543305e+01	-2.895396e+02
6.800000e-07	-4.998280e-06	-4.354978e-09	-3.483090e+01	-2.871792e+02
6.900000e-07	-4.911048e-06	-4.297922e-09	-3.422302e+01	-2.847756e+02
7.000000e-07	-4.823082e-06	-4.252759e-09	-3.361002e+01	-2.823253e+02
7.100000e-07	-4.734262e-06	-4.227988e-09	-3.299107e+01	-2.798248e+02
7.200000e-07	-4.644367e-06	-4.204310e-09	-3.236463e+01	-2.772704e+02
7.300000e-07	-4.553485e-06	-4.160871e-09	-3.173131e+01	-2.746589e+02
7.400000e-07	-4.461759e-06	-4.098049e-09	-3.109211e+01	-2.719875e+02
7.500000e-07	-4.369200e-06	-4.048382e-09	-3.044711e+01	-2.692539e+02
7.600000e-07	-4.275916e-06	-4.022620e-09	-2.979705e+01	-2.664565e+02
7.700000e-07	-4.182054e-06	-3.995807e-09	-2.914296e+01	-2.635946e+02
7.800000e-07	-4.087572e-06	-3.945758e-09	-2.848456e+01	-2.606678e+02
7.900000e-07	-3.992408e-06	-3.878137e-09	-2.782140e+01	-2.576766e+02
8.000000e-07	-3.896628e-06	-3.828056e-09	-2.715396e+01	-2.546216e+02
8.100000e-07	-3.800173e-06	-3.798934e-09	-2.648180e+01	-2.515041e+02
8.200000e-07	-3.702867e-06	-3.757254e-09	-2.580372e+01	-2.483252e+02
8.300000e-07	-3.604678e-06	-3.691717e-09	-2.511948e+01	-2.450860e+02
8.400000e-07	-3.505742e-06	-3.623732e-09	-2.443004e+01	-2.417875e+02
8.500000e-07	-3.406172e-06	-3.581863e-09	-2.373618e+01	-2.384302e+02
8.600000e-07	-3.306071e-06	-3.550184e-09	-2.303861e+01	-2.350143e+02
8.700000e-07	-3.205470e-06	-3.499719e-09	-2.233756e+01	-2.315392e+02
8.800000e-07	-3.104339e-06	-3.435791e-09	-2.163282e+01	-2.280040e+02
8.900000e-07	-3.002730e-06	-3.376373e-09	-2.092476e+01	-2.244072e+02
9.000000e-07	-2.900588e-06	-3.332660e-09	-2.021297e+01	-2.207465e+02
9.100000e-07	-2.797756e-06	-3.285309e-09	-1.949638e+01	-2.170194e+02
9.200000e-07	-2.694408e-06	-3.221250e-09	-1.877619e+01	-2.132229e+02
9.300000e-07	-2.590742e-06	-3.152793e-09	-1.805378e+01	-2.093540e+02
9.400000e-07	-2.486677e-06	-3.090994e-09	-1.732860e+01	-2.054093e+02
9.500000e-07	-2.382154e-06	-3.036721e-09	-1.660022e+01	-2.013855e+02
9.600000e-07	-2.277089e-06	-2.978551e-09	-1.586807e+01	-1.972792e+02
9.700000e-07	-2.171553e-06	-2.913314e-09	-1.513263e+01	-1.930875e+02
9.800000e-07	-2.065663e-06	-2.846685e-09	-1.439473e+01	-1.888075e+02
9.900000e-07	-1.959270e-06	-2.779009e-09	-1.365333e+01	-1.844368e+02
1.000000e-06	-1.852355e-06	-2.713942e-09	-1.290828e+01	-1.799731e+02
1.010000e-06	-1.745051e-06	-2.649016e-09	-1.216052e+01	-1.754146e+02
1.020000e-06	-1.637476e-06	-2.579622e-09	-1.141088e+01	-1.707598e+02
1.030000e-06	-1.529734e-06	-2.504526e-09	-1.066007e+01	-1.660077e+02
1.040000e-06	-1.421773e-06	-2.424772e-09	-9.907736e+00	-1.611573e+02
1.050000e-06	-1.313554e-06	-2.351601e-09	-9.153603e+00	-1.562080e+02
1.060000e-06	-1.205136e-06	-2.280695e-09	-8.398081e+00	-1.511594e+02
1.070000e-06	-1.096551e-06	-2.203245e-09	-7.641400e+00	-1.460111e+02
1.080000e-06	-9.877488e-07	-2.119463e-09	-6.883204e+00	-1.407628e+02
1.090000e-06	-8.787260e-07	-2.033189e-09	-6.123470e+00	-1.354142e+02
1.100000e-06	-7.696011e-07	-1.954013e-09	-5.363025e+00	-1.299647e+02
1.110000e-06	-6.604130e-07	-1.874310e-09	-4.602139e+00	-1.244137e+02
1.120000e-06	-5.511382e-07	-1.786610e-09	-3.840649e+00	-1.187601e+02
1.130000e-06	-4.417580e-07	-1.692334e-09	-3.078425e+00	-1.130025e+02
1.140000e-06	-3.322660e-07	-1.599552e-09	-2.315421e+00	-1.071387e+02
1.150000e-06	-2.227534e-07	-1.513756e-09	-1.552274e+00	-1.011663e+02
1.160000e-06	-1.132111e-07	-1.424115e-09	-7.889204e-01	-9.508208e+01
1.170000e-06	-3.633115e-09	-1.327199e-09	-2.531764e-02	-8.888201e+01
1.180000e-06	1.059087e-07	-1.227296e-09	7.380333e-01	-8.256151e+01
1.190000e-06	2.154463e-07	-1.128662e-09	1.501354e+00	-7.611533e+01
1.200000e-06	3.250092e-07	-1.032229e-09	2.264852e+00	-6.953766e+01
1.210000e-06	4.345349e-07	-9.309491e-10	3.028090e+00	-6.282230e+01
1.220000e-06	5.439680e-07	-8.253126e-10	3.790683e+00	-5.596289e+01
1.230000e-06	6.533058e-07	-7.191306e-10	4.552612e+00	-4.895317e+01
1.240000e-06	7.625907e-07	-6.131945e-10	5.314172e+00	-4.178734e+01
1.250000e-06	8.717456e-07	-5.055053e-10	6.074827e+00	-3.446044e+01
1.260000e-06	9.806902e-07	-3.923001e-10	6.834015e+00	-2.696879e+01
1.270000e-06	1.089428e-06	-2.729757e-10	7.591766e+00	-1.931043e+01
1.280000e-06	1.197960e-06	-1.517709e-10	8.348080e+00	-1.148558e+01
1.290000e-06	1.306253e-06	-3.004817e-11	9.102725e+00	-3.497057e+00
1.300000e-06	1.414301e-06	8.795091e-11	9.855667e+00	4.649344e+00
1.310000e-06	1.522175e-06	2.117598e-10	1.060739e+01	1.294456e+01
1.320000e-06	1.629919e-06	3.428341e-10	1.135822e+01	2.137604e+01
1.330000e-06	1.737434e-06	4.759206e-10	1.210744e+01	2.992770e+01
1.340000e-06	1.844610e-06	6.074037e-10	1.285431e+01	3.857996e+01
1.350000e-06	1.951496e-06	7.383109e-10	1.359915e+01	4.730995e+01
1.360000e-06	2.057968e-06	8.748065e-10	1.434111e+01	5.609187e+01
1.370000e-06	2.163839e-06	1.012227e-09	1.507888e+01	6.489748e+01
1.380000e-06	2.269212e-06	1.146555e-09	1.581318e+01	7.369675e+01
1.390000e-06	2.374138e-06	1.277917e-09	1.654437e+01	8.245853e+01
1.400000e-06	2.478571e-06	1.407673e-09	1.727212e+01	9.115144e+01
1.410000e-06	2.582558e-06	1.538118e-09	1.799675e+01	9.974462e+01
1.420000e-06	2.686143e-06	1.672245e-09	1.871860e+01	1.082086e+02
1.430000e-06	2.789233e-06	1.800938e-09	1.943699e+01	1.165163e+02
1.440000e-06	2.891832e-06	1.919814e-09	2.015195e+01	1.246434e+02
1.450000e-06	2.993986e-06	2.033411e-09	2.086382e+01	1.325693e+02
1.460000e-06	3.095588e-06	2.152470e-09	2.157184e+01	1.402772e+02
1.470000e-06	3.196622e-06	2.269837e-09	2.227591e+01	1.477549e+02
1.480000e-06	3.297149e-06	2.377817e-09	2.297644e+01	1.549945e+02
1.490000e-06	3.397226e-06	2.477931e-09	2.367383e+01	1.619926e+02
1.500000e-06	3.496807e-06	2.577516e-09	2.436777e+01	1.687498e+02
1.510000e-06	3.595752e-06	2.678525e-09	2.505728e+01	1.752705e+02
1.520000e-06	3.693886e-06	2.776832e-09	2.574113e+01	1.815623e+02
1.530000e-06	3.791138e-06	2.869050e-09	2.641884e+01	1.876351e+02
1.540000e-06	3.887613e-06	2.955768e-09	2.709113e+01	1.935009e+02
1.550000e-06	3.983397e-06	3.041237e-09	2.775861e+01	1.991723e+02
1.560000e-06	4.078529e-06	3.125178e-09	2.842155e+01	2.046626e+02
1.570000e-06	4.172978e-06	3.206640e-09	2.907972e+01	2.099845e+02
1.580000e-06	4.266724e-06	3.284995e-09	2.973299e+01	2.151498e+02
1.590000e-06	4.359782e-06	3.359590e-09	3.038148e+01	2.201690e+02
1.600000e-06	4.452136e-06	3.432682e-09	3.102506e+01	2.250505e+02
1.610000e-06	4.543811e-06	3.505445e-09	3.166390e+01	2.298013e+02
1.620000e-06	4.634717e-06	3.575409e-09	3.229738e+01	2.344263e+02
1.630000e-06	4.724650e-06	3.641294e-09	3.292409e+01	2.389286e+02
1.640000e-06	4.813467e-06	3.703925e-09	3.354301e+01	2.433099e+02
1.650000e-06	4.901379e-06	3.766884e-09	3.415564e+01	2.475706e+02
1.660000e-06	4.988534e-06	3.828858e-09	3.476299e+01	2.517106e+02
1.670000e-06	5.074872e-06	3.887147e-09	3.536464e+01	2.557292e+02
1.680000e-06	5.160397e-06	3.943168e-09	3.596062e+01	2.596259e+02
1.690000e-06	5.245075e-06	3.998001e-09	3.655071e+01	2.634009e+02
1.700000e-06	5.328905e-06	4.052471e-09	3.713489e+01	2.670549e+02
1.710000e-06	5.411889e-06	4.107520e-09	3.771317e+01	2.705897e+02
1.720000e-06	5.493840e-06	4.159780e-09	3.828425e+01	2.740081e+02
1.730000e-06	5.574686e-06	4.207661e-09	3.884763e+01	2.773143e+02
1.740000e-06	5.654610e-06	4.252351e-09	3.940459e+01	2.805130e+02
1.750000e-06	5.733574e-06	4.297335e-09	3.995486e+01	2.836100e+02
1.760000e-06	5.811496e-06	4.342206e-09	4.049786e+01	2.866114e+02
1.770000e-06	5.888369e-06	4.381801e-09	4.103355e+01	2.895235e+02
1.780000e-06	5.964238e-06	4.419445e-09	4.156225e+01	2.923523e+02
1.790000e-06	6.038974e-06	4.459706e-09	4.208306e+01	2.951032e+02
1.800000e-06	6.112307e-06	4.501349e-09	4.259409e+01	2.977808e+02
1.810000e-06	6.184421e-06	4.542558e-09	4.309662e+01	3.003886e+02
1.820000e-06	6.255497e-06	4.580363e-09	4.359192e+01	3.029288e+02
1.830000e-06	6.325485e-06	4.616041e-09	4.407963e+01	3.054024e+02
1.840000e-06	6.394441e-06	4.652083e-09	4.456016e+01	3.078091e+02
1.850000e-06	6.462391e-06	4.686212e-09	4.503367e+01	3.101475e+02
1.860000e-06	6.529135e-06	4.718031e-09	4.549878e+01	3.124156e+02
1.870000e-06	6.594481e-06	4.746758e-09	4.595415e+01	3.146108e+02
1.880000e-06	6.658652e-06	4.773597e-09	4.640133e+01	3.167303e+02
1.890000e-06	6.721758e-06	4.801438e-09	4.684109e+01	3.187716e+02
1.900000e-06	6.783737e-06	4.830224e-09	4.727299e+01	3.207330e+02
1.910000e-06	6.844602e-06	4.859230e-09	4.769714e+01	3.226134e+02
1.920000e-06	6.904434e-06	4.885208e-09	4.811408e+01	3.244131e+02
1.930000e-06	6.963071e-06	4.910378e-09	4.852270e+01	3.261334e+02
1.940000e-06	7.020189e-06	4.936720e-09	4.892073e+01	3.277772e+02
1.950000e-06	7.076003e-06	4.963537e-09	4.930967e+01	3.293484e+02
1.960000e-06	7.130655e-06	4.987575e-09	4.969052e+01	3.308520e+02
1.970000e-06	7.184105e-06	5.006697e-09	5.006299e+01	3.322940e+02
1.980000e-06	7.236226e-06	5.026552e-09	5.042620e+01	3.336804e+02
1.990000e-06	7.286695e-06	5.048656e-09	5.077789e+01	3.350177e+02
2.000000e-06	7.335535e-06	5.072522e-09	5.111824e+01	3.363116e+02
2.010000e-06	7.382986e-06	5.094346e-09	5.144891e+01	3.375676e+02
2.020000e-06	7.429174e-06	5.112115e-09	5.177077e+01	3.387895e+02
2.030000e-06	7.474169e-06	5.132292e-09	5.208433e+01	3.399804e+02
2.040000e-06	7.518008e-06	5.155127e-09	5.238982e+01	3.411416e+02
2.050000e-06	7.560481e-06	5.175293e-09	5.268580e+01	3.422729e+02
2.060000e-06	7.601415e-06	5.189376e-09	5.297105e+01	3.433729e+02
2.070000e-06	7.640972e-06	5.199939e-09	5.324670e+01	3.444388e+02
2.080000e-06	7.679253e-06	5.214489e-09	5.351347e+01	3.454669e+02
2.090000e-06	7.716243e-06	5.231207e-09	5.377124e+01	3.464531e+02
2.100000e-06	7.752050e-06	5.245205e-09	5.402076e+01	3.473929e+02
2.110000e-06	7.786466e-06	5.255867e-09	5.426059e+01	3.482824e+02
2.120000e-06	7.819301e-06	5.267912e-09	5.448940e+01	3.491182e+02
2.130000e-06	7.850790e-06	5.284902e-09	5.470884e+01	3.498981e+02
2.140000e-06	7.881050e-06	5.301583e-09	5.491970e+01	3.506213e+02
2.150000e-06	7.910000e-06	5.312333e-09	5.512144e+01	3.512883e+02
2.160000e-06	7.937625e-06	5.318392e-09	5.531396e+01	3.519014e+02
2.170000e-06	7.963692e-06	5.326019e-09	5.549560e+01	3.524643e+02
2.180000e-06	7.988115e-06	5.334713e-09	5.566580e+01	3.529821e+02
2.190000e-06	8.011162e-06	5.342966e-09	5.582640e+01	3.534604e+02
2.200000e-06	8.032936e-06	5.350285e-09	5.597814e+01	3.539058e+02
2.210000e-06	8.053464e-06	5.356123e-09	5.612119e+01	3.543247e+02
2.220000e-06	8.072671e-06	5.364417e-09	5.625503e+01	3.547229e+02
2.230000e-06	8.090343e-06	5.376820e-09	5.637818e+01	3.551055e+02
2.240000e-06	8.106497e-06	5.387928e-09	5.649075e+01	3.554758e+02
2.250000e-06	8.121230e-06	5.391795e-09	5.659342e+01	3.558357e+02
2.260000e-06	8.134436e-06	5.393072e-09	5.668545e+01	3.561850e+02
2.270000e-06	8.146122e-06	5.396294e-09	5.676688e+01	3.565213e+02
2.280000e-06	8.156139e-06	5.400122e-09	5.683668e+01	3.568405e+02
2.290000e-06	8.164502e-06	5.403546e-09	5.689496e+01	3.571367e+02
2.300000e-06	8.171461e-06	5.406300e-09	5.694346e+01	3.574026e+02
2.310000e-06	8.177020e-06	5.408483e-09	5.698220e+01	3.576303e+02
2.320000e-06	8.181285e-06	5.410356e-09	5.701191e+01	3.578114e+02
2.330000e-06	8.184207e-06	5.414358e-09	5.703228e+01	3.579384e+02
2.340000e-06	8.185530e-06	5.418998e-09	5.704150e+01	3.580045e+02
2.350000e-06	8.185314e-06	5.417358e-09	5.703999e+01	3.580051e+02
2.360000e-06	8.183775e-06	5.413673e-09	5.702927e+01	3.579375e+02
2.370000e-06	8.180948e-06	5.415261e-09	5.700957e+01	3.578020e+02
2.380000e-06	8.176903e-06	5.410420e-09	5.698138e+01	3.576015e+02
2.390000e-06	8.171471e-06	5.407437e-09	5.694353e+01	3.573421e+02
2.400000e-06	8.164470e-06	5.403421e-09	5.689474e+01	3.570326e+02
2.410000e-06	8.156184e-06	5.398605e-09	5.683700e+01	3.566841e+02
2.420000e-06	8.146742e-06	5.394047e-09	5.677120e+01	3.563098e+02
2.430000e-06	8.136032e-06	5.353914e-09	5.669657e+01	3.559240e+02
2.440000e-06	8.123706e-06	5.412511e-09	5.661067e+01	3.555413e+02
2.450000e-06	8.109131e-06	5.406736e-09	5.650911e+01	3.551761e+02
2.460000e-06	8.092317e-06	5.371376e-09	5.639194e+01	3.548413e+02
2.470000e-06	8.073958e-06	5.419687e-09	5.626400e+01	3.545478e+02
2.480000e-06	8.054700e-06	5.300595e-09	5.612980e+01	3.543034e+02
2.490000e-06	8.034807e-06	5.355015e-09	5.599117e+01	3.541127e+02
2.500000e-06	8.013476e-06	5.445401e-09	5.584253e+01	3.539764e+02
2.510000e-06	7.990316e-06	5.217866e-09	5.568113e+01	3.538913e+02
2.520000e-06	7.966076e-06	5.328105e-09	5.551221e+01	3.538501e+02
2.530000e-06	7.940603e-06	5.341066e-09	5.533471e+01	3.538420e+02
2.540000e-06	7.913521e-06	5.219455e-09	5.514598e+01	3.538531e+02
2.550000e-06	7.885196e-06	5.517409e-09	5.494860e+01	3.538667e+02
2.560000e-06	7.855371e-06	5.491126e-09	5.474076e+01	3.538649e+02
2.570000e-06	7.823929e-06	5.361390e-09	5.452165e+01	3.538287e+02
2.580000e-06	7.791125e-06	5.526895e-09	5.429305e+01	3.537393e+02
2.590000e-06	7.756809e-06	5.436997e-09	5.405393e+01	3.535793e+02
2.600000e-06	7.721291e-06	5.451492e-09	5.380641e+01	3.533331e+02
2.610000e-06	7.684708e-06	5.469156e-09	5.355149e+01	3.529878e+02
2.620000e-06	7.646501e-06	5.326235e-09	5.328524e+01	3.525339e+02
2.630000e-06	7.606683e-06	5.451511e-09	5.300776e+01	3.519655e+02
2.640000e-06	7.565545e-06	5.343910e-09	5.272109e+01	3.512806e+02
2.650000e-06	7.523207e-06	5.347731e-09	5.242605e+01	3.504808e+02
2.660000e-06	7.479694e-06	5.447907e-09	5.212283e+01	3.495715e+02
2.670000e-06	7.434972e-06	5.333556e-09	5.181118e+01	3.485609e+02
2.680000e-06	7.388804e-06	5.322392e-09	5.148945e+01	3.474597e+02
2.690000e-06	7.341107e-06	5.246876e-09	5.115707e+01	3.462805e+02
2.700000e-06	7.292161e-06	5.335299e-09	5.081599e+01	3.450367e+02
2.710000e-06	7.241951e-06	5.353055e-09	5.046609e+01	3.437417e+02
2.720000e-06	7.190380e-06	5.192431e-09	5.010672e+01	3.424087e+02
2.730000e-06	7.137287e-06	5.226255e-09	4.973673e+01	3.410491e+02
2.740000e-06	7.082518e-06	5.200441e-09	4.935508e+01	3.396729e+02
2.750000e-06	7.026474e-06	5.275641e-09	4.896453e+01	3.382874e+02
2.760000e-06	6.969338e-06	5.226954e-09	4.856637e+01	3.368978e+02
2.770000e-06	6.910922e-06	5.088518e-09	4.815929e+01	3.355062e+02
2.780000e-06	6.851374e-06	5.114745e-09	4.774433e+01	3.341125e+02
2.790000e-06	6.790773e-06	5.127186e-09	4.732203e+01	3.327141e+02
2.800000e-06	6.728859e-06	5.170539e-09	4.689058e+01	3.313067e+02
2.810000e-06	6.665479e-06	5.057917e-09	4.644891e+01	3.298844e+02
2.820000e-06	6.600896e-06	4.971500e-09	4.599886e+01	3.284402e+02
2.830000e-06	6.535190e-06	4.993121e-09	4.554098e+01	3.269668e+02
2.840000e-06	6.468302e-06	5.040723e-09	4.507486e+01	3.254572e+02
2.850000e-06	6.400341e-06	5.029675e-09	4.460127e+01	3.239046e+02
2.860000e-06	6.331260e-06	4.911266e-09	4.411988e+01	3.223035e+02
2.870000e-06	6.260775e-06	4.888798e-09	4.362870e+01	3.206495e+02
2.880000e-06	6.189009e-06	4.903941e-09	4.312859e+01	3.189396e+02
2.890000e-06	6.116308e-06	4.913460e-09	4.262197e+01	3.171725e+02
2.900000e-06	6.042620e-06	4.850669e-09	4.210847e+01	3.153481e+02
2.910000e-06	5.967842e-06	4.782928e-09	4.158737e+01	3.134677e+02
2.920000e-06	5.891870e-06	4.764795e-09	4.105795e+01	3.115336e+02
2.930000e-06	5.814574e-06	4.750995e-09	4.051931e+01	3.095487e+02
2.940000e-06	5.735929e-06	4.737120e-09	3.997126e+01	3.075166e+02
