# Temperatura_=_20.0
# Concentracion g/m^3_=_12600.0
# C_Vs_to_Am_M_A/Vsm_=_65563218390.804596
# pendiente_HvsI_1/m_=_3716.3
# ordenada_HvsI_A/m_=_1297.0
# frecuencia_Hz_=_213199.68843240314

Tiempo_(s)	Campo_(V.s)	Magnetizacion_(V.s)	Campo_(kA/m)	Magnetizacion_(A/m)
0.000000e+00	-8.147375e-06	-5.581436e-09	-5.680521e+01	-3.633073e+02
1.000000e-08	-8.146968e-06	-5.580974e-09	-5.680237e+01	-3.632820e+02
2.000000e-08	-8.145009e-06	-5.578722e-09	-5.678871e+01	-3.631806e+02
3.000000e-08	-8.141484e-06	-5.580959e-09	-5.676413e+01	-3.630029e+02
4.000000e-08	-8.136799e-06	-5.581939e-09	-5.673147e+01	-3.627523e+02
5.000000e-08	-8.130887e-06	-5.579084e-09	-5.669025e+01	-3.624355e+02
6.000000e-08	-8.123660e-06	-5.573641e-09	-5.663986e+01	-3.620626e+02
7.000000e-08	-8.115201e-06	-5.566941e-09	-5.658088e+01	-3.616463e+02
8.000000e-08	-8.105135e-06	-5.566533e-09	-5.651070e+01	-3.612015e+02
9.000000e-08	-8.093242e-06	-5.575341e-09	-5.642778e+01	-3.607442e+02
1.000000e-07	-8.079569e-06	-5.549477e-09	-5.633245e+01	-3.602906e+02
1.100000e-07	-8.063837e-06	-5.550792e-09	-5.622277e+01	-3.598559e+02
1.200000e-07	-8.046317e-06	-5.576064e-09	-5.610061e+01	-3.594538e+02
1.300000e-07	-8.027552e-06	-5.553645e-09	-5.596978e+01	-3.590947e+02
1.400000e-07	-8.007775e-06	-5.522241e-09	-5.583189e+01	-3.587860e+02
1.500000e-07	-7.987007e-06	-5.459661e-09	-5.568709e+01	-3.585306e+02
1.600000e-07	-7.964972e-06	-5.408207e-09	-5.553346e+01	-3.583271e+02
1.700000e-07	-7.941691e-06	-5.590414e-09	-5.537114e+01	-3.581696e+02
1.800000e-07	-7.917092e-06	-5.629980e-09	-5.519962e+01	-3.580482e+02
1.900000e-07	-7.890784e-06	-5.473067e-09	-5.501620e+01	-3.579489e+02
2.000000e-07	-7.863037e-06	-5.376368e-09	-5.482275e+01	-3.578552e+02
2.100000e-07	-7.834180e-06	-5.286943e-09	-5.462154e+01	-3.577482e+02
2.200000e-07	-7.804013e-06	-5.493179e-09	-5.441122e+01	-3.576081e+02
2.300000e-07	-7.772418e-06	-5.654259e-09	-5.419093e+01	-3.574153e+02
2.400000e-07	-7.739312e-06	-5.354247e-09	-5.396011e+01	-3.571515e+02
2.500000e-07	-7.704689e-06	-5.139119e-09	-5.371871e+01	-3.568004e+02
2.600000e-07	-7.668746e-06	-5.293865e-09	-5.346811e+01	-3.563490e+02
2.700000e-07	-7.631469e-06	-5.509999e-09	-5.320820e+01	-3.557882e+02
2.800000e-07	-7.592834e-06	-5.558033e-09	-5.293883e+01	-3.551128e+02
2.900000e-07	-7.552950e-06	-5.310552e-09	-5.266075e+01	-3.543223e+02
3.000000e-07	-7.511767e-06	-5.119120e-09	-5.237362e+01	-3.534204e+02
3.100000e-07	-7.469041e-06	-5.258452e-09	-5.207572e+01	-3.524145e+02
3.200000e-07	-7.424830e-06	-5.508085e-09	-5.176747e+01	-3.513156e+02
3.300000e-07	-7.379324e-06	-5.469642e-09	-5.145019e+01	-3.501370e+02
3.400000e-07	-7.332436e-06	-5.157047e-09	-5.112328e+01	-3.488937e+02
3.500000e-07	-7.284160e-06	-5.046468e-09	-5.078670e+01	-3.476013e+02
3.600000e-07	-7.234337e-06	-5.231779e-09	-5.043931e+01	-3.462751e+02
3.700000e-07	-7.182821e-06	-5.407424e-09	-5.008014e+01	-3.449291e+02
3.800000e-07	-7.129813e-06	-5.293933e-09	-4.971055e+01	-3.435751e+02
3.900000e-07	-7.075572e-06	-5.031036e-09	-4.933237e+01	-3.422225e+02
4.000000e-07	-7.020163e-06	-5.009718e-09	-4.894605e+01	-3.408773e+02
4.100000e-07	-6.963568e-06	-5.189581e-09	-4.855146e+01	-3.395423e+02
4.200000e-07	-6.905650e-06	-5.270928e-09	-4.814764e+01	-3.382171e+02
4.300000e-07	-6.846312e-06	-5.138901e-09	-4.773392e+01	-3.368980e+02
4.400000e-07	-6.785743e-06	-4.970082e-09	-4.731162e+01	-3.355791e+02
4.500000e-07	-6.724035e-06	-4.970861e-09	-4.688138e+01	-3.342521e+02
4.600000e-07	-6.661238e-06	-5.088109e-09	-4.644355e+01	-3.329077e+02
4.700000e-07	-6.597368e-06	-5.134103e-09	-4.599823e+01	-3.315357e+02
4.800000e-07	-6.532266e-06	-5.018573e-09	-4.554433e+01	-3.301262e+02
4.900000e-07	-6.465783e-06	-4.885023e-09	-4.508080e+01	-3.286703e+02
5.000000e-07	-6.398037e-06	-4.881556e-09	-4.460846e+01	-3.271601e+02
5.100000e-07	-6.329247e-06	-4.967054e-09	-4.412884e+01	-3.255898e+02
5.200000e-07	-6.259450e-06	-4.974759e-09	-4.364220e+01	-3.239556e+02
5.300000e-07	-6.188636e-06	-4.857562e-09	-4.314847e+01	-3.222560e+02
5.400000e-07	-6.116713e-06	-4.758583e-09	-4.264701e+01	-3.204914e+02
5.500000e-07	-6.043600e-06	-4.766610e-09	-4.213725e+01	-3.186642e+02
5.600000e-07	-5.969243e-06	-4.815021e-09	-4.161881e+01	-3.167784e+02
5.700000e-07	-5.893622e-06	-4.792072e-09	-4.109157e+01	-3.148389e+02
5.800000e-07	-5.816806e-06	-4.715853e-09	-4.055599e+01	-3.128513e+02
5.900000e-07	-5.738827e-06	-4.659412e-09	-4.001231e+01	-3.108211e+02
6.000000e-07	-5.659686e-06	-4.644136e-09	-3.946052e+01	-3.087534e+02
6.100000e-07	-5.579457e-06	-4.659375e-09	-3.890115e+01	-3.066523e+02
6.200000e-07	-5.498154e-06	-4.649861e-09	-3.833429e+01	-3.045208e+02
6.300000e-07	-5.415854e-06	-4.581863e-09	-3.776047e+01	-3.023604e+02
6.400000e-07	-5.332690e-06	-4.494955e-09	-3.718064e+01	-3.001708e+02
6.500000e-07	-5.248672e-06	-4.465442e-09	-3.659485e+01	-2.979506e+02
6.600000e-07	-5.163859e-06	-4.483081e-09	-3.600351e+01	-2.956968e+02
6.700000e-07	-5.078306e-06	-4.464909e-09	-3.540702e+01	-2.934053e+02
6.800000e-07	-4.991975e-06	-4.390896e-09	-3.480510e+01	-2.910713e+02
6.900000e-07	-4.904807e-06	-4.315518e-09	-3.419735e+01	-2.886898e+02
7.000000e-07	-4.816757e-06	-4.289973e-09	-3.358344e+01	-2.862555e+02
7.100000e-07	-4.727764e-06	-4.296561e-09	-3.296296e+01	-2.837638e+02
7.200000e-07	-4.637878e-06	-4.270366e-09	-3.233626e+01	-2.812107e+02
7.300000e-07	-4.547180e-06	-4.191886e-09	-3.170389e+01	-2.785930e+02
7.400000e-07	-4.455579e-06	-4.113567e-09	-3.106523e+01	-2.759089e+02
7.500000e-07	-4.363101e-06	-4.092937e-09	-3.042045e+01	-2.731575e+02
7.600000e-07	-4.269938e-06	-4.101368e-09	-2.977090e+01	-2.703391e+02
7.700000e-07	-4.176207e-06	-4.063609e-09	-2.911739e+01	-2.674548e+02
7.800000e-07	-4.081863e-06	-3.980429e-09	-2.845961e+01	-2.645067e+02
7.900000e-07	-3.986760e-06	-3.912141e-09	-2.779653e+01	-2.614970e+02
8.000000e-07	-3.890862e-06	-3.894209e-09	-2.712791e+01	-2.584282e+02
8.100000e-07	-3.794185e-06	-3.885617e-09	-2.645386e+01	-2.553026e+02
8.200000e-07	-3.696747e-06	-3.826458e-09	-2.577450e+01	-2.521219e+02
8.300000e-07	-3.598625e-06	-3.733154e-09	-2.509037e+01	-2.488871e+02
8.400000e-07	-3.499849e-06	-3.669183e-09	-2.440168e+01	-2.455986e+02
8.500000e-07	-3.400368e-06	-3.656720e-09	-2.370808e+01	-2.422553e+02
8.600000e-07	-3.300230e-06	-3.636306e-09	-2.300990e+01	-2.388556e+02
8.700000e-07	-3.199535e-06	-3.559932e-09	-2.230783e+01	-2.353968e+02
8.800000e-07	-3.098285e-06	-3.471541e-09	-2.160189e+01	-2.318754e+02
8.900000e-07	-2.996549e-06	-3.426623e-09	-2.089257e+01	-2.282875e+02
9.000000e-07	-2.894351e-06	-3.411800e-09	-2.018002e+01	-2.246289e+02
9.100000e-07	-2.791689e-06	-3.368115e-09	-1.946424e+01	-2.208951e+02
9.200000e-07	-2.688603e-06	-3.279592e-09	-1.874550e+01	-2.170822e+02
9.300000e-07	-2.584995e-06	-3.195868e-09	-1.802313e+01	-2.131865e+02
9.400000e-07	-2.480816e-06	-3.151173e-09	-1.729677e+01	-2.092052e+02
9.500000e-07	-2.376047e-06	-3.119198e-09	-1.656630e+01	-2.051359e+02
9.600000e-07	-2.270753e-06	-3.055195e-09	-1.583216e+01	-2.009772e+02
9.700000e-07	-2.165091e-06	-2.962498e-09	-1.509547e+01	-1.967284e+02
9.800000e-07	-2.059135e-06	-2.886093e-09	-1.435672e+01	-1.923894e+02
9.900000e-07	-1.952897e-06	-2.840059e-09	-1.361601e+01	-1.879608e+02
1.000000e-06	-1.846326e-06	-2.794073e-09	-1.287297e+01	-1.834433e+02
1.010000e-06	-1.739447e-06	-2.717567e-09	-1.212779e+01	-1.788377e+02
1.020000e-06	-1.632263e-06	-2.624285e-09	-1.138048e+01	-1.741447e+02
1.030000e-06	-1.524661e-06	-2.548641e-09	-1.063026e+01	-1.693647e+02
1.040000e-06	-1.416641e-06	-2.491107e-09	-9.877117e+00	-1.644975e+02
1.050000e-06	-1.308308e-06	-2.426975e-09	-9.121798e+00	-1.595421e+02
1.060000e-06	-1.199813e-06	-2.342464e-09	-8.365345e+00	-1.544970e+02
1.070000e-06	-1.091180e-06	-2.248906e-09	-7.607937e+00	-1.493600e+02
1.080000e-06	-9.823565e-07	-2.168450e-09	-6.849196e+00	-1.441279e+02
1.090000e-06	-8.733984e-07	-2.100482e-09	-6.089517e+00	-1.387972e+02
1.100000e-06	-7.643589e-07	-2.026752e-09	-5.329271e+00	-1.333637e+02
1.110000e-06	-6.552440e-07	-1.932671e-09	-4.568499e+00	-1.278231e+02
1.120000e-06	-5.460364e-07	-1.828923e-09	-3.807080e+00	-1.221708e+02
1.130000e-06	-4.367456e-07	-1.738877e-09	-3.045082e+00	-1.164025e+02
1.140000e-06	-3.273875e-07	-1.661915e-09	-2.282614e+00	-1.105137e+02
1.150000e-06	-2.179802e-07	-1.578754e-09	-1.519804e+00	-1.045003e+02
1.160000e-06	-1.085172e-07	-1.473490e-09	-7.566048e-01	-9.835867e+01
1.170000e-06	1.013775e-09	-1.364258e-09	7.068254e-03	-9.208525e+01
1.180000e-06	1.105337e-07	-1.274118e-09	7.706644e-01	-8.567689e+01
1.190000e-06	2.199821e-07	-1.191785e-09	1.533761e+00	-7.913066e+01
1.200000e-06	3.294236e-07	-1.093348e-09	2.296811e+00	-7.244374e+01
1.210000e-06	4.388660e-07	-9.742598e-10	3.059866e+00	-6.561346e+01
1.220000e-06	5.482508e-07	-8.610442e-10	3.822520e+00	-5.863713e+01
1.230000e-06	6.575164e-07	-7.662302e-10	4.584342e+00	-5.151217e+01
1.240000e-06	7.666670e-07	-6.684813e-10	5.345363e+00	-4.423605e+01
1.250000e-06	8.757616e-07	-5.480602e-10	6.105994e+00	-3.680652e+01
1.260000e-06	9.847899e-07	-4.141688e-10	6.866162e+00	-2.922178e+01
1.270000e-06	1.093618e-06	-2.919306e-10	7.624937e+00	-2.148078e+01
1.280000e-06	1.202179e-06	-1.846965e-10	8.381847e+00	-1.358357e+01
1.290000e-06	1.310592e-06	-7.162961e-11	9.137720e+00	-5.531753e+00
1.300000e-06	1.418829e-06	5.882142e-11	9.892377e+00	2.671109e+00
1.310000e-06	1.526780e-06	1.985734e-10	1.064503e+01	1.101904e+01
1.320000e-06	1.634339e-06	3.261968e-10	1.139496e+01	1.950324e+01
1.330000e-06	1.741548e-06	4.455938e-10	1.214244e+01	2.811178e+01
1.340000e-06	1.848455e-06	5.759625e-10	1.288781e+01	3.682934e+01
1.350000e-06	1.954966e-06	7.204989e-10	1.363043e+01	4.563715e+01
1.360000e-06	2.061106e-06	8.644627e-10	1.437046e+01	5.451303e+01
1.370000e-06	2.166903e-06	9.950067e-10	1.510810e+01	6.343166e+01
1.380000e-06	2.272344e-06	1.123697e-09	1.584326e+01	7.236500e+01
1.390000e-06	2.377451e-06	1.259820e-09	1.657609e+01	8.128288e+01
1.400000e-06	2.482127e-06	1.401980e-09	1.730591e+01	9.015370e+01
1.410000e-06	2.586224e-06	1.541396e-09	1.803170e+01	9.894535e+01
1.420000e-06	2.689738e-06	1.669568e-09	1.875342e+01	1.076261e+02
1.430000e-06	2.792748e-06	1.791922e-09	1.947163e+01	1.161656e+02
1.440000e-06	2.895324e-06	1.919183e-09	2.018681e+01	1.245358e+02
1.450000e-06	2.997385e-06	2.049679e-09	2.089840e+01	1.327117e+02
1.460000e-06	3.098916e-06	2.174259e-09	2.160629e+01	1.406725e+02
1.470000e-06	3.199982e-06	2.285242e-09	2.231094e+01	1.484017e+02
1.480000e-06	3.300556e-06	2.392256e-09	2.301217e+01	1.558875e+02
1.490000e-06	3.400559e-06	2.502377e-09	2.370941e+01	1.631236e+02
1.500000e-06	3.499897e-06	2.611369e-09	2.440202e+01	1.701082e+02
1.510000e-06	3.598530e-06	2.711931e-09	2.508971e+01	1.768443e+02
1.520000e-06	3.696409e-06	2.804187e-09	2.577214e+01	1.833390e+02
1.530000e-06	3.793667e-06	2.896612e-09	2.645024e+01	1.896028e+02
1.540000e-06	3.890234e-06	2.991848e-09	2.712353e+01	1.956488e+02
1.550000e-06	3.985918e-06	3.084914e-09	2.779066e+01	2.014919e+02
1.560000e-06	4.080897e-06	3.169911e-09	2.845287e+01	2.071473e+02
1.570000e-06	4.175217e-06	3.248952e-09	2.911049e+01	2.126306e+02
1.580000e-06	4.268812e-06	3.329236e-09	2.976305e+01	2.179561e+02
1.590000e-06	4.361731e-06	3.411031e-09	3.041090e+01	2.231364e+02
1.600000e-06	4.454015e-06	3.490649e-09	3.105432e+01	2.281820e+02
1.610000e-06	4.545566e-06	3.564687e-09	3.169264e+01	2.331011e+02
1.620000e-06	4.636241e-06	3.632138e-09	3.232485e+01	2.378990e+02
1.630000e-06	4.726008e-06	3.699225e-09	3.295072e+01	2.425786e+02
1.640000e-06	4.814887e-06	3.769437e-09	3.357040e+01	2.471405e+02
1.650000e-06	4.902827e-06	3.839145e-09	3.418354e+01	2.515836e+02
1.660000e-06	4.989838e-06	3.901686e-09	3.479020e+01	2.559054e+02
1.670000e-06	5.076011e-06	3.959922e-09	3.539102e+01	2.601028e+02
1.680000e-06	5.161385e-06	4.019991e-09	3.598626e+01	2.641727e+02
1.690000e-06	5.245970e-06	4.080129e-09	3.657600e+01	2.681125e+02
1.700000e-06	5.329741e-06	4.136900e-09	3.716007e+01	2.719207e+02
1.710000e-06	5.412549e-06	4.189456e-09	3.773743e+01	2.755971e+02
1.720000e-06	5.494377e-06	4.239637e-09	3.830795e+01	2.791434e+02
1.730000e-06	5.575322e-06	4.290534e-09	3.887231e+01	2.825630e+02
1.740000e-06	5.655207e-06	4.343148e-09	3.942929e+01	2.858611e+02
1.750000e-06	5.734029e-06	4.392348e-09	3.997885e+01	2.890442e+02
1.760000e-06	5.811853e-06	4.435408e-09	4.052146e+01	2.921201e+02
1.770000e-06	5.888697e-06	4.476455e-09	4.105723e+01	2.950972e+02
1.780000e-06	5.964499e-06	4.518458e-09	4.158574e+01	2.979839e+02
1.790000e-06	6.039015e-06	4.560734e-09	4.210528e+01	3.007884e+02
1.800000e-06	6.112261e-06	4.601505e-09	4.261596e+01	3.035179e+02
1.810000e-06	6.184362e-06	4.639903e-09	4.311867e+01	3.061783e+02
1.820000e-06	6.255338e-06	4.676562e-09	4.361353e+01	3.087738e+02
1.830000e-06	6.325182e-06	4.713787e-09	4.410049e+01	3.113068e+02
1.840000e-06	6.393960e-06	4.752722e-09	4.458003e+01	3.137780e+02
1.850000e-06	6.461827e-06	4.788612e-09	4.505321e+01	3.161861e+02
1.860000e-06	6.528599e-06	4.819990e-09	4.551876e+01	3.185286e+02
1.870000e-06	6.594003e-06	4.849269e-09	4.597477e+01	3.208016e+02
1.880000e-06	6.658115e-06	4.878471e-09	4.642178e+01	3.230008e+02
1.890000e-06	6.721068e-06	4.908070e-09	4.686069e+01	3.251218e+02
1.900000e-06	6.782888e-06	4.936423e-09	4.729172e+01	3.271606e+02
1.910000e-06	6.843669e-06	4.964116e-09	4.771550e+01	3.291140e+02
1.920000e-06	6.903548e-06	4.990425e-09	4.813298e+01	3.309802e+02
1.930000e-06	6.962193e-06	5.017873e-09	4.854187e+01	3.327592e+02
1.940000e-06	7.019277e-06	5.045956e-09	4.893987e+01	3.344526e+02
1.950000e-06	7.075008e-06	5.071082e-09	4.932844e+01	3.360638e+02
1.960000e-06	7.129536e-06	5.092125e-09	4.970862e+01	3.375980e+02
1.970000e-06	7.182833e-06	5.110975e-09	5.008022e+01	3.390616e+02
1.980000e-06	7.234775e-06	5.132543e-09	5.044237e+01	3.404622e+02
1.990000e-06	7.285068e-06	5.155430e-09	5.079302e+01	3.418076e+02
2.000000e-06	7.333754e-06	5.176786e-09	5.113247e+01	3.431056e+02
2.010000e-06	7.381060e-06	5.196213e-09	5.146230e+01	3.443637e+02
2.020000e-06	7.427086e-06	5.215380e-09	5.178320e+01	3.455879e+02
2.030000e-06	7.471922e-06	5.237037e-09	5.209581e+01	3.467827e+02
2.040000e-06	7.515636e-06	5.258800e-09	5.240059e+01	3.479511e+02
2.050000e-06	7.557967e-06	5.276705e-09	5.269574e+01	3.490937e+02
2.060000e-06	7.598767e-06	5.288864e-09	5.298020e+01	3.502095e+02
2.070000e-06	7.638237e-06	5.300519e-09	5.325539e+01	3.512952e+02
2.080000e-06	7.676439e-06	5.317256e-09	5.352175e+01	3.523466e+02
2.090000e-06	7.713392e-06	5.332779e-09	5.377939e+01	3.533579e+02
2.100000e-06	7.749180e-06	5.343319e-09	5.402891e+01	3.543232e+02
2.110000e-06	7.783611e-06	5.352993e-09	5.426897e+01	3.552364e+02
2.120000e-06	7.816455e-06	5.366263e-09	5.449796e+01	3.560922e+02
2.130000e-06	7.847901e-06	5.384164e-09	5.471721e+01	3.568864e+02
2.140000e-06	7.878026e-06	5.399986e-09	5.492725e+01	3.576164e+02
2.150000e-06	7.906823e-06	5.410257e-09	5.512803e+01	3.582818e+02
2.160000e-06	7.934420e-06	5.418678e-09	5.532044e+01	3.588841e+02
2.170000e-06	7.960451e-06	5.428153e-09	5.550193e+01	3.594270e+02
2.180000e-06	7.984800e-06	5.438001e-09	5.567170e+01	3.599160e+02
2.190000e-06	8.007781e-06	5.445181e-09	5.583193e+01	3.603583e+02
2.200000e-06	8.029398e-06	5.448781e-09	5.598265e+01	3.607620e+02
2.210000e-06	8.049769e-06	5.452327e-09	5.612468e+01	3.611358e+02
2.220000e-06	8.068908e-06	5.461837e-09	5.625812e+01	3.614880e+02
2.230000e-06	8.086560e-06	5.474032e-09	5.638120e+01	3.618261e+02
2.240000e-06	8.102735e-06	5.481411e-09	5.649397e+01	3.621559e+02
2.250000e-06	8.117449e-06	5.484539e-09	5.659656e+01	3.624815e+02
2.260000e-06	8.130581e-06	5.487569e-09	5.668811e+01	3.628041e+02
2.270000e-06	8.142206e-06	5.492092e-09	5.676917e+01	3.631227e+02
2.280000e-06	8.152183e-06	5.495718e-09	5.683873e+01	3.634333e+02
2.290000e-06	8.160493e-06	5.497186e-09	5.689667e+01	3.637297e+02
2.300000e-06	8.167358e-06	5.498022e-09	5.694453e+01	3.640038e+02
2.310000e-06	8.172865e-06	5.500238e-09	5.698293e+01	3.642457e+02
2.320000e-06	8.177079e-06	5.503400e-09	5.701231e+01	3.644452e+02
2.330000e-06	8.179980e-06	5.506380e-09	5.703254e+01	3.645920e+02
2.340000e-06	8.181266e-06	5.507313e-09	5.704150e+01	3.646768e+02
2.350000e-06	8.180969e-06	5.506117e-09	5.703944e+01	3.646921e+02
2.360000e-06	8.179403e-06	5.506292e-09	5.702851e+01	3.646328e+02
2.370000e-06	8.176596e-06	5.506926e-09	5.700894e+01	3.644970e+02
2.380000e-06	8.172595e-06	5.501223e-09	5.698105e+01	3.642859e+02
2.390000e-06	8.167228e-06	5.496477e-09	5.694363e+01	3.640045e+02
2.400000e-06	8.160217e-06	5.492489e-09	5.689474e+01	3.636611e+02
2.410000e-06	8.151865e-06	5.490815e-09	5.683651e+01	3.632670e+02
2.420000e-06	8.142362e-06	5.484837e-09	5.677026e+01	3.628361e+02
2.430000e-06	8.131559e-06	5.463678e-09	5.669494e+01	3.623837e+02
2.440000e-06	8.119159e-06	5.506247e-09	5.660848e+01	3.619261e+02
2.450000e-06	8.104544e-06	5.491256e-09	5.650658e+01	3.614793e+02
2.460000e-06	8.087762e-06	5.459832e-09	5.638958e+01	3.610578e+02
2.470000e-06	8.069393e-06	5.465477e-09	5.626150e+01	3.606740e+02
2.480000e-06	8.050113e-06	5.425925e-09	5.612707e+01	3.603370e+02
2.490000e-06	8.030187e-06	5.539035e-09	5.598815e+01	3.600522e+02
2.500000e-06	8.008783e-06	5.514087e-09	5.583892e+01	3.598206e+02
2.510000e-06	7.985486e-06	5.248830e-09	5.567648e+01	3.596389e+02
2.520000e-06	7.961055e-06	5.252250e-09	5.550615e+01	3.594992e+02
2.530000e-06	7.935513e-06	5.317522e-09	5.532806e+01	3.593897e+02
2.540000e-06	7.908453e-06	5.435727e-09	5.513940e+01	3.592952e+02
2.550000e-06	7.880087e-06	5.551362e-09	5.494162e+01	3.591980e+02
2.560000e-06	7.850193e-06	5.347852e-09	5.473319e+01	3.590786e+02
2.570000e-06	7.818710e-06	5.455190e-09	5.451369e+01	3.589173e+02
2.580000e-06	7.785850e-06	5.831870e-09	5.428458e+01	3.586947e+02
2.590000e-06	7.751513e-06	5.778294e-09	5.404518e+01	3.583935e+02
2.600000e-06	7.715993e-06	5.563688e-09	5.379752e+01	3.579987e+02
2.610000e-06	7.679312e-06	5.339233e-09	5.354177e+01	3.574991e+02
2.620000e-06	7.641048e-06	5.321404e-09	5.327499e+01	3.568871e+02
2.630000e-06	7.601189e-06	5.618602e-09	5.299708e+01	3.561598e+02
2.640000e-06	7.560004e-06	5.626820e-09	5.270993e+01	3.553185e+02
2.650000e-06	7.517686e-06	5.430188e-09	5.241489e+01	3.543687e+02
2.660000e-06	7.474146e-06	5.171564e-09	5.211132e+01	3.533195e+02
2.670000e-06	7.429350e-06	5.238450e-09	5.179899e+01	3.521830e+02
2.680000e-06	7.383273e-06	5.608928e-09	5.147773e+01	3.509735e+02
2.690000e-06	7.335621e-06	5.540790e-09	5.114549e+01	3.497062e+02
2.700000e-06	7.286584e-06	5.251862e-09	5.080360e+01	3.483968e+02
2.710000e-06	7.236318e-06	5.111339e-09	5.045313e+01	3.470602e+02
2.720000e-06	7.184706e-06	5.305594e-09	5.009328e+01	3.457093e+02
2.730000e-06	7.131618e-06	5.524919e-09	4.972314e+01	3.443551e+02
2.740000e-06	7.076846e-06	5.352458e-09	4.934126e+01	3.430053e+02
2.750000e-06	7.020710e-06	5.186089e-09	4.894986e+01	3.416646e+02
2.760000e-06	6.963446e-06	5.124460e-09	4.855061e+01	3.403343e+02
2.770000e-06	6.904997e-06	5.232210e-09	4.814308e+01	3.390125e+02
2.780000e-06	6.845423e-06	5.340805e-09	4.772773e+01	3.376945e+02
2.790000e-06	6.784716e-06	5.238817e-09	4.730446e+01	3.363731e+02
2.800000e-06	6.722711e-06	5.096443e-09	4.687215e+01	3.350395e+02
2.810000e-06	6.659322e-06	5.009586e-09	4.643019e+01	3.336840e+02
2.820000e-06	6.594744e-06	5.125390e-09	4.597994e+01	3.322964e+02
2.830000e-06	6.529089e-06	5.203419e-09	4.552218e+01	3.308671e+02
2.840000e-06	6.462245e-06	5.110487e-09	4.505613e+01	3.293877e+02
2.850000e-06	6.394287e-06	4.954800e-09	4.458231e+01	3.278511e+02
2.860000e-06	6.325258e-06	4.929202e-09	4.410103e+01	3.262525e+02
2.870000e-06	6.254949e-06	5.048599e-09	4.361082e+01	3.245890e+02
2.880000e-06	6.183322e-06	5.053095e-09	4.311142e+01	3.228600e+02
2.890000e-06	6.110533e-06	4.953320e-09	4.260392e+01	3.210669e+02
2.900000e-06	6.036718e-06	4.855273e-09	4.208926e+01	3.192128e+02
2.910000e-06	5.961847e-06	4.855067e-09	4.156725e+01	3.173023e+02
2.920000e-06	5.885789e-06	4.879636e-09	4.103696e+01	3.153405e+02
2.930000e-06	5.808510e-06	4.871917e-09	4.049815e+01	3.133331e+02
2.940000e-06	5.730039e-06	4.816581e-09	3.995104e+01	3.112855e+02
