# Temperatura_=_20.0
# Concentracion g/m^3_=_12600.0
# C_Vs_to_Am_M_A/Vsm_=_65563218390.804596
# pendiente_HvsI_1/m_=_3716.3
# ordenada_HvsI_A/m_=_1297.0
# frecuencia_Hz_=_213205.00274544812

Tiempo_(s)	Campo_(V.s)	Magnetizacion_(V.s)	Campo_(kA/m)	Magnetizacion_(A/m)
0.000000e+00	-8.141014e-06	-5.455051e-09	-5.680520e+01	-3.550786e+02
1.000000e-08	-8.140535e-06	-5.453749e-09	-5.680185e+01	-3.550474e+02
2.000000e-08	-8.138545e-06	-5.457049e-09	-5.678797e+01	-3.548992e+02
3.000000e-08	-8.134982e-06	-5.460872e-09	-5.676311e+01	-3.546322e+02
4.000000e-08	-8.130205e-06	-5.462261e-09	-5.672977e+01	-3.542507e+02
5.000000e-08	-8.124160e-06	-5.457248e-09	-5.668759e+01	-3.537659e+02
6.000000e-08	-8.116867e-06	-5.450366e-09	-5.663671e+01	-3.531950e+02
7.000000e-08	-8.108361e-06	-5.442746e-09	-5.657735e+01	-3.525612e+02
8.000000e-08	-8.098211e-06	-5.428646e-09	-5.650653e+01	-3.518918e+02
9.000000e-08	-8.086215e-06	-5.439505e-09	-5.642283e+01	-3.512174e+02
1.000000e-07	-8.072470e-06	-5.462070e-09	-5.632692e+01	-3.505694e+02
1.100000e-07	-8.056658e-06	-5.455251e-09	-5.621659e+01	-3.499788e+02
1.200000e-07	-8.039072e-06	-5.442795e-09	-5.609388e+01	-3.494738e+02
1.300000e-07	-8.020164e-06	-5.394451e-09	-5.596194e+01	-3.490780e+02
1.400000e-07	-8.000273e-06	-5.321950e-09	-5.582315e+01	-3.488089e+02
1.500000e-07	-7.979505e-06	-5.381406e-09	-5.567824e+01	-3.486765e+02
1.600000e-07	-7.957439e-06	-5.408695e-09	-5.552427e+01	-3.486827e+02
1.700000e-07	-7.934111e-06	-5.395632e-09	-5.536150e+01	-3.488204e+02
1.800000e-07	-7.909466e-06	-5.418045e-09	-5.518953e+01	-3.490743e+02
1.900000e-07	-7.883016e-06	-5.313367e-09	-5.500498e+01	-3.494209e+02
2.000000e-07	-7.855135e-06	-5.260420e-09	-5.481043e+01	-3.498302e+02
2.100000e-07	-7.826214e-06	-5.335443e-09	-5.460863e+01	-3.502672e+02
2.200000e-07	-7.795892e-06	-5.360857e-09	-5.439705e+01	-3.506934e+02
2.300000e-07	-7.764150e-06	-5.352200e-09	-5.417557e+01	-3.510692e+02
2.400000e-07	-7.730952e-06	-5.259001e-09	-5.394392e+01	-3.513562e+02
2.500000e-07	-7.696226e-06	-5.182142e-09	-5.370161e+01	-3.515189e+02
2.600000e-07	-7.660251e-06	-5.307785e-09	-5.345060e+01	-3.515270e+02
2.700000e-07	-7.622931e-06	-5.369379e-09	-5.319019e+01	-3.513566e+02
2.800000e-07	-7.584206e-06	-5.327217e-09	-5.291998e+01	-3.509917e+02
2.900000e-07	-7.544315e-06	-5.239753e-09	-5.264164e+01	-3.504249e+02
3.000000e-07	-7.503028e-06	-5.165942e-09	-5.235355e+01	-3.496572e+02
3.100000e-07	-7.460072e-06	-5.242767e-09	-5.205381e+01	-3.486980e+02
3.200000e-07	-7.415682e-06	-5.313743e-09	-5.174408e+01	-3.475642e+02
3.300000e-07	-7.370015e-06	-5.229581e-09	-5.142543e+01	-3.462790e+02
3.400000e-07	-7.323017e-06	-5.061698e-09	-5.109749e+01	-3.448702e+02
3.500000e-07	-7.274734e-06	-5.051072e-09	-5.076059e+01	-3.433683e+02
3.600000e-07	-7.224896e-06	-5.190423e-09	-5.041284e+01	-3.418048e+02
3.700000e-07	-7.173325e-06	-5.192347e-09	-5.005300e+01	-3.402102e+02
3.800000e-07	-7.120249e-06	-5.053922e-09	-4.968264e+01	-3.386123e+02
3.900000e-07	-7.065927e-06	-4.954438e-09	-4.930361e+01	-3.370343e+02
4.000000e-07	-7.010514e-06	-5.004485e-09	-4.891695e+01	-3.354943e+02
4.100000e-07	-6.953926e-06	-5.101414e-09	-4.852210e+01	-3.340040e+02
4.200000e-07	-6.895848e-06	-5.059176e-09	-4.811686e+01	-3.325686e+02
4.300000e-07	-6.836382e-06	-4.950609e-09	-4.770192e+01	-3.311868e+02
4.400000e-07	-6.775854e-06	-4.896572e-09	-4.727958e+01	-3.298513e+02
4.500000e-07	-6.714225e-06	-4.933131e-09	-4.684955e+01	-3.285498e+02
4.600000e-07	-6.651456e-06	-4.979563e-09	-4.641157e+01	-3.272663e+02
4.700000e-07	-6.587645e-06	-4.946086e-09	-4.596632e+01	-3.259821e+02
4.800000e-07	-6.522678e-06	-4.860246e-09	-4.551301e+01	-3.246775e+02
4.900000e-07	-6.456220e-06	-4.798771e-09	-4.504928e+01	-3.233332e+02
5.000000e-07	-6.388440e-06	-4.820346e-09	-4.457634e+01	-3.219315e+02
5.100000e-07	-6.319662e-06	-4.850197e-09	-4.409643e+01	-3.204577e+02
5.200000e-07	-6.249861e-06	-4.805761e-09	-4.360938e+01	-3.189007e+02
5.300000e-07	-6.178975e-06	-4.720139e-09	-4.311476e+01	-3.172537e+02
5.400000e-07	-6.107063e-06	-4.679130e-09	-4.261299e+01	-3.155142e+02
5.500000e-07	-6.034105e-06	-4.701849e-09	-4.210391e+01	-3.136840e+02
5.600000e-07	-5.959719e-06	-4.711628e-09	-4.158487e+01	-3.117687e+02
5.700000e-07	-5.883936e-06	-4.662386e-09	-4.105608e+01	-3.097771e+02
5.800000e-07	-5.807125e-06	-4.595681e-09	-4.052012e+01	-3.077202e+02
5.900000e-07	-5.729221e-06	-4.565322e-09	-3.997654e+01	-3.056099e+02
6.000000e-07	-5.650127e-06	-4.569360e-09	-3.942464e+01	-3.034585e+02
6.100000e-07	-5.569868e-06	-4.564866e-09	-3.886462e+01	-3.012773e+02
6.200000e-07	-5.488459e-06	-4.518153e-09	-3.829658e+01	-2.990758e+02
6.300000e-07	-5.406099e-06	-4.447561e-09	-3.772190e+01	-2.968611e+02
6.400000e-07	-5.322929e-06	-4.401513e-09	-3.714157e+01	-2.946371e+02
6.500000e-07	-5.238951e-06	-4.400888e-09	-3.655560e+01	-2.924047e+02
6.600000e-07	-5.154211e-06	-4.394108e-09	-3.596431e+01	-2.901616e+02
6.700000e-07	-5.068688e-06	-4.335344e-09	-3.536756e+01	-2.879027e+02
6.800000e-07	-4.982337e-06	-4.265284e-09	-3.476504e+01	-2.856205e+02
6.900000e-07	-4.895178e-06	-4.231194e-09	-3.415687e+01	-2.833056e+02
7.000000e-07	-4.807176e-06	-4.226122e-09	-3.354282e+01	-2.809479e+02
7.100000e-07	-4.718317e-06	-4.204355e-09	-3.292280e+01	-2.785370e+02
7.200000e-07	-4.628580e-06	-4.146825e-09	-3.229664e+01	-2.760633e+02
7.300000e-07	-4.537844e-06	-4.082435e-09	-3.166352e+01	-2.735183e+02
7.400000e-07	-4.446189e-06	-4.043692e-09	-3.102398e+01	-2.708956e+02
7.500000e-07	-4.353757e-06	-4.033476e-09	-3.037902e+01	-2.681908e+02
7.600000e-07	-4.260651e-06	-4.009627e-09	-2.972936e+01	-2.654021e+02
7.700000e-07	-4.166855e-06	-3.948226e-09	-2.907488e+01	-2.625300e+02
7.800000e-07	-4.072376e-06	-3.876504e-09	-2.841564e+01	-2.595771e+02
7.900000e-07	-3.977248e-06	-3.832229e-09	-2.775187e+01	-2.565480e+02
8.000000e-07	-3.881396e-06	-3.815837e-09	-2.708305e+01	-2.534482e+02
8.100000e-07	-3.784773e-06	-3.783781e-09	-2.640885e+01	-2.502843e+02
8.200000e-07	-3.687378e-06	-3.709927e-09	-2.572925e+01	-2.470624e+02
8.300000e-07	-3.589296e-06	-3.630279e-09	-2.504487e+01	-2.437883e+02
8.400000e-07	-3.490571e-06	-3.592756e-09	-2.435600e+01	-2.404667e+02
8.500000e-07	-3.391150e-06	-3.582265e-09	-2.366228e+01	-2.371005e+02
8.600000e-07	-3.291013e-06	-3.540851e-09	-2.296356e+01	-2.336908e+02
8.700000e-07	-3.190283e-06	-3.457970e-09	-2.226070e+01	-2.302369e+02
8.800000e-07	-3.089101e-06	-3.385669e-09	-2.155468e+01	-2.267360e+02
8.900000e-07	-2.987470e-06	-3.355647e-09	-2.084554e+01	-2.231835e+02
9.000000e-07	-2.885372e-06	-3.334880e-09	-2.013314e+01	-2.195737e+02
9.100000e-07	-2.782780e-06	-3.273335e-09	-1.941728e+01	-2.158996e+02
9.200000e-07	-2.679635e-06	-3.179967e-09	-1.869757e+01	-2.121539e+02
9.300000e-07	-2.575961e-06	-3.108509e-09	-1.797417e+01	-2.083294e+02
9.400000e-07	-2.471754e-06	-3.076254e-09	-1.724705e+01	-2.044193e+02
9.500000e-07	-2.367013e-06	-3.041253e-09	-1.651620e+01	-2.004179e+02
9.600000e-07	-2.261821e-06	-2.964967e-09	-1.578221e+01	-1.963207e+02
9.700000e-07	-2.156376e-06	-2.871019e-09	-1.504645e+01	-1.921249e+02
9.800000e-07	-2.050656e-06	-2.805506e-09	-1.430877e+01	-1.878289e+02
9.900000e-07	-1.944563e-06	-2.767436e-09	-1.356849e+01	-1.834330e+02
1.000000e-06	-1.838075e-06	-2.715154e-09	-1.282546e+01	-1.789386e+02
1.010000e-06	-1.731155e-06	-2.627467e-09	-1.207940e+01	-1.743482e+02
1.020000e-06	-1.623848e-06	-2.536198e-09	-1.133065e+01	-1.696648e+02
1.030000e-06	-1.516193e-06	-2.473418e-09	-1.057947e+01	-1.648917e+02
1.040000e-06	-1.408215e-06	-2.424601e-09	-9.826041e+00	-1.600320e+02
1.050000e-06	-1.300008e-06	-2.357118e-09	-9.071010e+00	-1.550883e+02
1.060000e-06	-1.191600e-06	-2.264395e-09	-8.314573e+00	-1.500619e+02
1.070000e-06	-1.082961e-06	-2.172254e-09	-7.556533e+00	-1.449533e+02
1.080000e-06	-9.742017e-07	-2.103558e-09	-6.797645e+00	-1.397612e+02
1.090000e-06	-8.653092e-07	-2.040883e-09	-6.037830e+00	-1.344833e+02
1.100000e-06	-7.562602e-07	-1.957647e-09	-5.276923e+00	-1.291156e+02
1.110000e-06	-6.471085e-07	-1.855243e-09	-4.515301e+00	-1.236532e+02
1.120000e-06	-5.378531e-07	-1.758813e-09	-3.752954e+00	-1.180901e+02
1.130000e-06	-4.285109e-07	-1.681747e-09	-2.990001e+00	-1.124196e+02
1.140000e-06	-3.191027e-07	-1.607553e-09	-2.226589e+00	-1.066347e+02
1.150000e-06	-2.096465e-07	-1.515733e-09	-1.462841e+00	-1.007284e+02
1.160000e-06	-1.001715e-07	-1.407937e-09	-6.989626e-01	-9.469408e+01
1.170000e-06	9.303524e-09	-1.308144e-09	6.491679e-02	-8.852550e+01
1.180000e-06	1.187716e-07	-1.226953e-09	8.287473e-01	-8.221720e+01
1.190000e-06	2.282261e-07	-1.144922e-09	1.592483e+00	-7.576456e+01
1.200000e-06	3.376607e-07	-1.040567e-09	2.356080e+00	-6.916383e+01
1.210000e-06	4.470435e-07	-9.215905e-10	3.119316e+00	-6.241219e+01
1.220000e-06	5.563661e-07	-8.149762e-10	3.882131e+00	-5.550765e+01
1.230000e-06	6.656046e-07	-7.259230e-10	4.644360e+00	-4.844903e+01
1.240000e-06	7.747348e-07	-6.296988e-10	5.405833e+00	-4.123590e+01
1.250000e-06	8.837615e-07	-5.117741e-10	6.166583e+00	-3.386858e+01
1.260000e-06	9.926912e-07	-3.850754e-10	6.926658e+00	-2.634813e+01
1.270000e-06	1.101456e-06	-2.710074e-10	7.685578e+00	-1.867649e+01
1.280000e-06	1.210030e-06	-1.689720e-10	8.443175e+00	-1.085661e+01
1.290000e-06	1.318408e-06	-5.597024e-11	9.199399e+00	-2.892731e+00
1.300000e-06	1.426439e-06	7.757095e-11	9.953203e+00	5.209373e+00
1.310000e-06	1.534127e-06	2.164072e-10	1.070461e+01	1.344201e+01
1.320000e-06	1.641515e-06	3.404297e-10	1.145393e+01	2.179526e+01
1.330000e-06	1.748585e-06	4.551423e-10	1.220102e+01	3.025663e+01
1.340000e-06	1.855280e-06	5.828098e-10	1.294551e+01	3.881078e+01
1.350000e-06	1.961591e-06	7.260033e-10	1.368731e+01	4.743938e+01
1.360000e-06	2.067508e-06	8.657710e-10	1.442636e+01	5.612109e+01
1.370000e-06	2.173040e-06	9.925155e-10	1.516273e+01	6.483161e+01
1.380000e-06	2.278240e-06	1.116574e-09	1.589678e+01	7.354405e+01
1.390000e-06	2.383147e-06	1.251485e-09	1.662878e+01	8.222937e+01
1.400000e-06	2.487672e-06	1.394013e-09	1.735812e+01	9.085701e+01
1.410000e-06	2.591680e-06	1.527733e-09	1.808385e+01	9.939570e+01
1.420000e-06	2.695208e-06	1.647263e-09	1.880624e+01	1.078144e+02
1.430000e-06	2.798135e-06	1.765082e-09	1.952442e+01	1.160832e+02
1.440000e-06	2.900497e-06	1.890991e-09	2.023867e+01	1.241743e+02
1.450000e-06	3.002400e-06	2.018178e-09	2.094971e+01	1.320630e+02
1.460000e-06	3.103859e-06	2.133854e-09	2.165766e+01	1.397288e+02
1.470000e-06	3.204925e-06	2.238324e-09	2.236286e+01	1.471556e+02
1.480000e-06	3.305434e-06	2.341740e-09	2.306418e+01	1.543323e+02
1.490000e-06	3.405257e-06	2.449283e-09	2.376071e+01	1.612534e+02
1.500000e-06	3.504338e-06	2.554396e-09	2.445207e+01	1.679186e+02
1.510000e-06	3.602673e-06	2.649346e-09	2.513821e+01	1.743327e+02
1.520000e-06	3.700366e-06	2.736752e-09	2.581988e+01	1.805049e+02
1.530000e-06	3.797519e-06	2.824592e-09	2.649778e+01	1.864484e+02
1.540000e-06	3.894002e-06	2.916878e-09	2.717100e+01	1.921790e+02
1.550000e-06	3.989676e-06	3.005349e-09	2.783859e+01	1.977144e+02
1.560000e-06	4.084621e-06	3.084771e-09	2.850108e+01	2.030727e+02
1.570000e-06	4.178835e-06	3.161061e-09	2.915847e+01	2.082721e+02
1.580000e-06	4.272376e-06	3.240325e-09	2.981117e+01	2.133289e+02
1.590000e-06	4.365330e-06	3.320414e-09	3.045977e+01	2.182575e+02
1.600000e-06	4.457566e-06	3.396038e-09	3.110336e+01	2.230692e+02
1.610000e-06	4.548881e-06	3.466430e-09	3.174052e+01	2.277723e+02
1.620000e-06	4.639243e-06	3.532127e-09	3.237104e+01	2.323715e+02
1.630000e-06	4.728810e-06	3.597318e-09	3.299601e+01	2.368682e+02
1.640000e-06	4.817652e-06	3.663548e-09	3.361592e+01	2.412611e+02
1.650000e-06	4.905586e-06	3.725321e-09	3.422949e+01	2.455463e+02
1.660000e-06	4.992476e-06	3.782219e-09	3.483578e+01	2.497185e+02
1.670000e-06	5.078452e-06	3.838732e-09	3.543569e+01	2.537715e+02
1.680000e-06	5.163751e-06	3.898484e-09	3.603088e+01	2.576994e+02
1.690000e-06	5.248348e-06	3.957340e-09	3.662117e+01	2.614969e+02
1.700000e-06	5.331954e-06	4.011088e-09	3.720454e+01	2.651607e+02
1.710000e-06	5.414535e-06	4.062593e-09	3.778077e+01	2.686893e+02
1.720000e-06	5.496284e-06	4.112803e-09	3.835118e+01	2.720842e+02
1.730000e-06	5.577069e-06	4.161815e-09	3.891487e+01	2.753492e+02
1.740000e-06	5.656718e-06	4.210951e-09	3.947063e+01	2.784909e+02
1.750000e-06	5.735326e-06	4.253133e-09	4.001913e+01	2.815180e+02
1.760000e-06	5.812973e-06	4.291340e-09	4.056093e+01	2.844410e+02
1.770000e-06	5.889649e-06	4.331078e-09	4.109594e+01	2.872715e+02
1.780000e-06	5.965204e-06	4.373430e-09	4.162314e+01	2.900213e+02
1.790000e-06	6.039538e-06	4.415637e-09	4.214182e+01	2.927015e+02
1.800000e-06	6.112787e-06	4.453019e-09	4.265293e+01	2.953222e+02
1.810000e-06	6.184869e-06	4.490365e-09	4.315589e+01	2.978912e+02
1.820000e-06	6.255678e-06	4.527140e-09	4.364997e+01	3.004141e+02
1.830000e-06	6.325435e-06	4.562938e-09	4.413671e+01	3.028934e+02
1.840000e-06	6.394230e-06	4.597708e-09	4.461674e+01	3.053289e+02
1.850000e-06	6.461932e-06	4.628680e-09	4.508914e+01	3.077176e+02
1.860000e-06	6.528400e-06	4.657196e-09	4.555293e+01	3.100540e+02
1.870000e-06	6.593714e-06	4.685033e-09	4.600867e+01	3.123309e+02
1.880000e-06	6.657838e-06	4.715482e-09	4.645610e+01	3.145399e+02
1.890000e-06	6.720727e-06	4.747921e-09	4.689492e+01	3.166724e+02
1.900000e-06	6.782515e-06	4.775527e-09	4.732606e+01	3.187202e+02
1.910000e-06	6.843299e-06	4.800126e-09	4.775019e+01	3.206765e+02
1.920000e-06	6.902977e-06	4.825902e-09	4.816660e+01	3.225366e+02
1.930000e-06	6.961290e-06	4.854246e-09	4.857349e+01	3.242983e+02
1.940000e-06	7.018358e-06	4.882238e-09	4.897169e+01	3.259622e+02
1.950000e-06	7.074119e-06	4.905213e-09	4.936077e+01	3.275320e+02
1.960000e-06	7.128521e-06	4.924525e-09	4.974036e+01	3.290141e+02
1.970000e-06	7.181723e-06	4.944674e-09	5.011159e+01	3.304173e+02
1.980000e-06	7.233474e-06	4.967510e-09	5.047269e+01	3.317524e+02
1.990000e-06	7.283590e-06	4.989118e-09	5.082239e+01	3.330310e+02
2.000000e-06	7.332197e-06	5.008331e-09	5.116155e+01	3.342651e+02
2.010000e-06	7.379392e-06	5.028683e-09	5.149086e+01	3.354658e+02
2.020000e-06	7.425231e-06	5.049337e-09	5.181071e+01	3.366430e+02
2.030000e-06	7.469940e-06	5.071638e-09	5.212267e+01	3.378040e+02
2.040000e-06	7.513491e-06	5.093509e-09	5.242655e+01	3.389535e+02
2.050000e-06	7.555655e-06	5.111058e-09	5.272076e+01	3.400931e+02
2.060000e-06	7.596410e-06	5.122548e-09	5.300513e+01	3.412209e+02
2.070000e-06	7.635762e-06	5.132123e-09	5.327972e+01	3.423323e+02
2.080000e-06	7.673850e-06	5.148009e-09	5.354549e+01	3.434199e+02
2.090000e-06	7.710763e-06	5.163627e-09	5.380305e+01	3.444746e+02
2.100000e-06	7.746324e-06	5.175868e-09	5.405119e+01	3.454859e+02
2.110000e-06	7.780398e-06	5.188420e-09	5.428894e+01	3.464435e+02
2.120000e-06	7.813064e-06	5.204555e-09	5.451687e+01	3.473376e+02
2.130000e-06	7.844381e-06	5.224244e-09	5.473540e+01	3.481604e+02
2.140000e-06	7.874364e-06	5.238607e-09	5.494460e+01	3.489065e+02
2.150000e-06	7.903143e-06	5.246434e-09	5.514541e+01	3.495737e+02
2.160000e-06	7.930592e-06	5.254074e-09	5.533694e+01	3.501633e+02
2.170000e-06	7.956422e-06	5.262427e-09	5.551717e+01	3.506801e+02
2.180000e-06	7.980685e-06	5.271249e-09	5.568648e+01	3.511323e+02
2.190000e-06	8.003582e-06	5.278478e-09	5.584624e+01	3.515306e+02
2.200000e-06	8.025162e-06	5.284613e-09	5.599682e+01	3.518881e+02
2.210000e-06	8.045485e-06	5.291543e-09	5.613863e+01	3.522186e+02
2.220000e-06	8.064486e-06	5.302385e-09	5.627121e+01	3.525359e+02
2.230000e-06	8.081972e-06	5.315420e-09	5.639322e+01	3.528525e+02
2.240000e-06	8.097968e-06	5.323551e-09	5.650484e+01	3.531785e+02
2.250000e-06	8.112520e-06	5.326894e-09	5.660637e+01	3.535207e+02
2.260000e-06	8.125554e-06	5.328992e-09	5.669732e+01	3.538817e+02
2.270000e-06	8.136982e-06	5.331593e-09	5.677706e+01	3.542599e+02
2.280000e-06	8.146650e-06	5.334285e-09	5.684452e+01	3.546486e+02
2.290000e-06	8.154734e-06	5.335160e-09	5.690093e+01	3.550371e+02
2.300000e-06	8.161498e-06	5.336164e-09	5.694812e+01	3.554109e+02
2.310000e-06	8.166928e-06	5.339115e-09	5.698601e+01	3.557526e+02
2.320000e-06	8.171082e-06	5.344461e-09	5.701500e+01	3.560433e+02
2.330000e-06	8.173834e-06	5.349612e-09	5.703420e+01	3.562639e+02
2.340000e-06	8.174880e-06	5.351415e-09	5.704150e+01	3.563967e+02
2.350000e-06	8.174473e-06	5.351762e-09	5.703866e+01	3.564269e+02
2.360000e-06	8.172857e-06	5.348419e-09	5.702739e+01	3.563438e+02
2.370000e-06	8.169969e-06	5.343886e-09	5.700723e+01	3.561422e+02
2.380000e-06	8.165911e-06	5.337999e-09	5.697892e+01	3.558228e+02
2.390000e-06	8.160434e-06	5.335183e-09	5.694070e+01	3.553932e+02
2.400000e-06	8.153277e-06	5.335722e-09	5.689076e+01	3.548673e+02
2.410000e-06	8.144807e-06	5.341139e-09	5.683166e+01	3.542650e+02
2.420000e-06	8.135247e-06	5.356139e-09	5.676496e+01	3.536117e+02
2.430000e-06	8.124370e-06	5.330524e-09	5.668906e+01	3.529363e+02
2.440000e-06	8.111782e-06	5.301908e-09	5.660122e+01	3.522700e+02
2.450000e-06	8.096909e-06	5.307644e-09	5.649745e+01	3.516443e+02
2.460000e-06	8.079907e-06	5.309232e-09	5.637881e+01	3.510891e+02
2.470000e-06	8.061503e-06	5.374015e-09	5.625039e+01	3.506307e+02
2.480000e-06	8.042207e-06	5.341763e-09	5.611576e+01	3.502903e+02
2.490000e-06	8.022200e-06	5.206862e-09	5.597615e+01	3.500821e+02
2.500000e-06	8.000711e-06	5.202776e-09	5.582621e+01	3.500125e+02
2.510000e-06	7.977390e-06	5.064980e-09	5.566348e+01	3.500793e+02
2.520000e-06	7.953010e-06	5.023012e-09	5.549337e+01	3.502719e+02
2.530000e-06	7.927289e-06	5.239002e-09	5.531390e+01	3.505709e+02
2.540000e-06	7.899954e-06	5.281999e-09	5.512316e+01	3.509499e+02
2.550000e-06	7.871514e-06	5.293518e-09	5.492472e+01	3.513764e+02
2.560000e-06	7.841518e-06	5.440080e-09	5.471541e+01	3.518135e+02
2.570000e-06	7.809941e-06	5.520846e-09	5.449508e+01	3.522220e+02
2.580000e-06	7.777111e-06	5.646353e-09	5.426601e+01	3.525626e+02
2.590000e-06	7.742743e-06	5.616980e-09	5.402620e+01	3.527979e+02
2.600000e-06	7.707201e-06	5.432820e-09	5.377820e+01	3.528946e+02
2.610000e-06	7.670528e-06	5.443457e-09	5.352231e+01	3.528250e+02
2.620000e-06	7.632097e-06	5.403888e-09	5.325415e+01	3.525687e+02
2.630000e-06	7.592099e-06	5.478123e-09	5.297506e+01	3.521135e+02
2.640000e-06	7.550839e-06	5.545693e-09	5.268716e+01	3.514557e+02
2.650000e-06	7.508334e-06	5.352965e-09	5.239057e+01	3.506003e+02
2.660000e-06	7.464649e-06	5.264053e-09	5.208575e+01	3.495602e+02
2.670000e-06	7.419804e-06	5.335462e-09	5.177284e+01	3.483552e+02
2.680000e-06	7.373624e-06	5.493798e-09	5.145061e+01	3.470109e+02
2.690000e-06	7.325923e-06	5.409174e-09	5.111777e+01	3.455564e+02
2.700000e-06	7.276908e-06	5.158507e-09	5.077576e+01	3.440230e+02
2.710000e-06	7.226623e-06	5.246174e-09	5.042489e+01	3.424420e+02
2.720000e-06	7.174997e-06	5.362498e-09	5.006466e+01	3.408428e+02
2.730000e-06	7.121828e-06	5.347709e-09	4.969367e+01	3.392514e+02
2.740000e-06	7.066960e-06	5.225541e-09	4.931081e+01	3.376888e+02
2.750000e-06	7.010810e-06	5.141662e-09	4.891902e+01	3.361702e+02
2.760000e-06	6.953542e-06	5.207670e-09	4.851942e+01	3.347045e+02
2.770000e-06	6.894999e-06	5.201956e-09	4.811093e+01	3.332938e+02
2.780000e-06	6.835361e-06	5.207917e-09	4.769480e+01	3.319342e+02
2.790000e-06	6.774675e-06	5.147579e-09	4.727135e+01	3.306159e+02
2.800000e-06	6.712610e-06	5.058614e-09	4.683828e+01	3.293249e+02
2.810000e-06	6.649084e-06	5.053468e-09	4.639502e+01	3.280436e+02
2.820000e-06	6.584437e-06	5.087252e-09	4.594394e+01	3.267527e+02
2.830000e-06	6.518756e-06	5.115681e-09	4.548563e+01	3.254327e+02
2.840000e-06	6.451925e-06	5.011432e-09	4.501931e+01	3.240647e+02
2.850000e-06	6.383967e-06	4.929788e-09	4.454513e+01	3.226323e+02
2.860000e-06	6.314859e-06	4.948832e-09	4.406292e+01	3.211223e+02
2.870000e-06	6.244420e-06	5.000037e-09	4.357141e+01	3.195255e+02
2.880000e-06	6.172679e-06	4.965890e-09	4.307083e+01	3.178371e+02
2.890000e-06	6.099931e-06	4.860363e-09	4.256322e+01	3.160564e+02
2.900000e-06	6.026188e-06	4.822685e-09	4.204866e+01	3.141871e+02
2.910000e-06	5.951367e-06	4.833875e-09	4.152659e+01	3.122364e+02
2.920000e-06	5.875369e-06	4.844770e-09	4.099631e+01	3.102141e+02
2.930000e-06	5.798062e-06	4.791015e-09	4.045688e+01	3.081317e+02
2.940000e-06	5.719490e-06	4.716216e-09	3.990863e+01	3.060016e+02
