# Temperatura_=_20.0
# Concentracion g/m^3_=_12600.0
# C_Vs_to_Am_M_A/Vsm_=_65563218390.804596
# pendiente_HvsI_1/m_=_3716.3
# ordenada_HvsI_A/m_=_1297.0
# frecuencia_Hz_=_213200.98302342548

Tiempo_(s)	Campo_(V.s)	Magnetizacion_(V.s)	Campo_(kA/m)	Magnetizacion_(A/m)
0.000000e+00	-8.191832e-06	-5.442902e-09	-5.680478e+01	-3.542471e+02
1.000000e-08	-8.190025e-06	-5.444065e-09	-5.679225e+01	-3.541094e+02
2.000000e-08	-8.186657e-06	-5.447051e-09	-5.676889e+01	-3.538714e+02
3.000000e-08	-8.182109e-06	-5.448646e-09	-5.673736e+01	-3.535381e+02
4.000000e-08	-8.176311e-06	-5.443586e-09	-5.669715e+01	-3.531201e+02
5.000000e-08	-8.169237e-06	-5.435167e-09	-5.664810e+01	-3.526331e+02
6.000000e-08	-8.160874e-06	-5.428290e-09	-5.659011e+01	-3.520972e+02
7.000000e-08	-8.150810e-06	-5.427050e-09	-5.652032e+01	-3.515361e+02
8.000000e-08	-8.138978e-06	-5.438047e-09	-5.643828e+01	-3.509755e+02
9.000000e-08	-8.125409e-06	-5.427870e-09	-5.634418e+01	-3.504417e+02
1.000000e-07	-8.109722e-06	-5.411305e-09	-5.623541e+01	-3.499598e+02
1.100000e-07	-8.092311e-06	-5.431061e-09	-5.611467e+01	-3.495524e+02
1.200000e-07	-8.073624e-06	-5.430977e-09	-5.598508e+01	-3.492377e+02
1.300000e-07	-8.053863e-06	-5.377642e-09	-5.584806e+01	-3.490283e+02
1.400000e-07	-8.033119e-06	-5.298590e-09	-5.570421e+01	-3.489305e+02
1.500000e-07	-8.011045e-06	-5.267675e-09	-5.555114e+01	-3.489432e+02
1.600000e-07	-7.987831e-06	-5.399887e-09	-5.539017e+01	-3.490581e+02
1.700000e-07	-7.963445e-06	-5.490468e-09	-5.522107e+01	-3.492598e+02
1.800000e-07	-7.937232e-06	-5.357079e-09	-5.503930e+01	-3.495265e+02
1.900000e-07	-7.909483e-06	-5.209197e-09	-5.484688e+01	-3.498311e+02
2.000000e-07	-7.880597e-06	-5.170679e-09	-5.464658e+01	-3.501425e+02
2.100000e-07	-7.850334e-06	-5.337751e-09	-5.443672e+01	-3.504276e+02
2.200000e-07	-7.818751e-06	-5.510430e-09	-5.421772e+01	-3.506526e+02
2.300000e-07	-7.785621e-06	-5.281455e-09	-5.398798e+01	-3.507855e+02
2.400000e-07	-7.750913e-06	-5.010110e-09	-5.374730e+01	-3.507970e+02
2.500000e-07	-7.714984e-06	-5.123596e-09	-5.349816e+01	-3.506629e+02
2.600000e-07	-7.677650e-06	-5.370040e-09	-5.323928e+01	-3.503648e+02
2.700000e-07	-7.638927e-06	-5.453858e-09	-5.297076e+01	-3.498912e+02
2.800000e-07	-7.599012e-06	-5.245908e-09	-5.269397e+01	-3.492379e+02
2.900000e-07	-7.557630e-06	-5.006536e-09	-5.240702e+01	-3.484081e+02
3.000000e-07	-7.514723e-06	-5.103751e-09	-5.210949e+01	-3.474120e+02
3.100000e-07	-7.470422e-06	-5.375878e-09	-5.180229e+01	-3.462660e+02
3.200000e-07	-7.424750e-06	-5.399043e-09	-5.148559e+01	-3.449912e+02
3.300000e-07	-7.377804e-06	-5.098556e-09	-5.116005e+01	-3.436127e+02
3.400000e-07	-7.329394e-06	-4.920332e-09	-5.082436e+01	-3.421575e+02
3.500000e-07	-7.279325e-06	-5.088737e-09	-5.047717e+01	-3.406527e+02
3.600000e-07	-7.227638e-06	-5.289469e-09	-5.011875e+01	-3.391246e+02
3.700000e-07	-7.174435e-06	-5.211427e-09	-4.974982e+01	-3.375963e+02
3.800000e-07	-7.119985e-06	-4.935575e-09	-4.937225e+01	-3.360875e+02
3.900000e-07	-7.064444e-06	-4.857712e-09	-4.898711e+01	-3.346126e+02
4.000000e-07	-7.007577e-06	-5.040665e-09	-4.859278e+01	-3.331808e+02
4.100000e-07	-6.949282e-06	-5.157894e-09	-4.818854e+01	-3.317957e+02
4.200000e-07	-6.889815e-06	-5.046196e-09	-4.777618e+01	-3.304552e+02
4.300000e-07	-6.829185e-06	-4.857412e-09	-4.735575e+01	-3.291524e+02
4.400000e-07	-6.767294e-06	-4.836211e-09	-4.692658e+01	-3.278763e+02
4.500000e-07	-6.704344e-06	-4.965024e-09	-4.649006e+01	-3.266125e+02
4.600000e-07	-6.640313e-06	-5.032966e-09	-4.604605e+01	-3.253448e+02
4.700000e-07	-6.574895e-06	-4.928651e-09	-4.559242e+01	-3.240562e+02
4.800000e-07	-6.508136e-06	-4.775554e-09	-4.512949e+01	-3.227301e+02
4.900000e-07	-6.440250e-06	-4.758519e-09	-4.465875e+01	-3.213515e+02
5.000000e-07	-6.371262e-06	-4.847551e-09	-4.418036e+01	-3.199078e+02
5.100000e-07	-6.301232e-06	-4.874262e-09	-4.369475e+01	-3.183893e+02
5.200000e-07	-6.230279e-06	-4.770395e-09	-4.320275e+01	-3.167902e+02
5.300000e-07	-6.158187e-06	-4.662290e-09	-4.270284e+01	-3.151080e+02
5.400000e-07	-6.084713e-06	-4.659635e-09	-4.219334e+01	-3.133440e+02
5.500000e-07	-6.009972e-06	-4.707389e-09	-4.167506e+01	-3.115022e+02
5.600000e-07	-5.934053e-06	-4.699245e-09	-4.114862e+01	-3.095894e+02
5.700000e-07	-5.856981e-06	-4.628731e-09	-4.061418e+01	-3.076141e+02
5.800000e-07	-5.778714e-06	-4.561365e-09	-4.007145e+01	-3.055856e+02
5.900000e-07	-5.699177e-06	-4.533485e-09	-3.951991e+01	-3.035134e+02
6.000000e-07	-5.618506e-06	-4.548989e-09	-3.896051e+01	-3.014062e+02
6.100000e-07	-5.536819e-06	-4.557230e-09	-3.839407e+01	-2.992712e+02
6.200000e-07	-5.454215e-06	-4.501342e-09	-3.782127e+01	-2.971137e+02
6.300000e-07	-5.370854e-06	-4.409265e-09	-3.724321e+01	-2.949368e+02
6.400000e-07	-5.286586e-06	-4.371911e-09	-3.665888e+01	-2.927409e+02
6.500000e-07	-5.201427e-06	-4.394161e-09	-3.606835e+01	-2.905242e+02
6.600000e-07	-5.115558e-06	-4.384294e-09	-3.547291e+01	-2.882826e+02
6.700000e-07	-5.028947e-06	-4.306941e-09	-3.487232e+01	-2.860104e+02
6.800000e-07	-4.941537e-06	-4.219496e-09	-3.426619e+01	-2.837005e+02
6.900000e-07	-4.853135e-06	-4.188964e-09	-3.365319e+01	-2.813453e+02
7.000000e-07	-4.763698e-06	-4.202034e-09	-3.303300e+01	-2.789371e+02
7.100000e-07	-4.673373e-06	-4.184638e-09	-3.240666e+01	-2.764688e+02
7.200000e-07	-4.582268e-06	-4.106503e-09	-3.177491e+01	-2.739344e+02
7.300000e-07	-4.490307e-06	-4.025868e-09	-3.113723e+01	-2.713294e+02
7.400000e-07	-4.397516e-06	-4.007681e-09	-3.049378e+01	-2.686507e+02
7.500000e-07	-4.304030e-06	-4.020703e-09	-2.984552e+01	-2.658973e+02
7.600000e-07	-4.209873e-06	-3.985620e-09	-2.919260e+01	-2.630699e+02
7.700000e-07	-4.115079e-06	-3.898763e-09	-2.853527e+01	-2.601705e+02
7.800000e-07	-4.019570e-06	-3.828200e-09	-2.787298e+01	-2.572026e+02
7.900000e-07	-3.923194e-06	-3.810239e-09	-2.720468e+01	-2.541702e+02
8.000000e-07	-3.825889e-06	-3.804267e-09	-2.652993e+01	-2.510777e+02
8.100000e-07	-3.727826e-06	-3.750915e-09	-2.584993e+01	-2.479294e+02
8.200000e-07	-3.629253e-06	-3.659121e-09	-2.516640e+01	-2.447288e+02
8.300000e-07	-3.530126e-06	-3.592847e-09	-2.447902e+01	-2.414785e+02
8.400000e-07	-3.430268e-06	-3.577132e-09	-2.378657e+01	-2.381800e+02
8.500000e-07	-3.329659e-06	-3.559385e-09	-2.308892e+01	-2.348331e+02
8.600000e-07	-3.228440e-06	-3.491423e-09	-2.238704e+01	-2.314362e+02
8.700000e-07	-3.126746e-06	-3.403458e-09	-2.168186e+01	-2.279865e+02
8.800000e-07	-3.024578e-06	-3.352737e-09	-2.097339e+01	-2.244796e+02
8.900000e-07	-2.921919e-06	-3.337722e-09	-2.026152e+01	-2.209106e+02
9.000000e-07	-2.818815e-06	-3.301537e-09	-1.954656e+01	-2.172739e+02
9.100000e-07	-2.715297e-06	-3.220490e-09	-1.882874e+01	-2.135637e+02
9.200000e-07	-2.611180e-06	-3.137976e-09	-1.810676e+01	-2.097745e+02
9.300000e-07	-2.506330e-06	-3.091834e-09	-1.737969e+01	-2.059011e+02
9.400000e-07	-2.400927e-06	-3.062085e-09	-1.664879e+01	-2.019396e+02
9.500000e-07	-2.295118e-06	-3.005407e-09	-1.591508e+01	-1.978867e+02
9.600000e-07	-2.188982e-06	-2.917679e-09	-1.517910e+01	-1.937406e+02
9.700000e-07	-2.082520e-06	-2.839886e-09	-1.444086e+01	-1.895003e+02
9.800000e-07	-1.975694e-06	-2.790752e-09	-1.370010e+01	-1.851661e+02
9.900000e-07	-1.868553e-06	-2.744528e-09	-1.295714e+01	-1.807391e+02
1.000000e-06	-1.761075e-06	-2.673322e-09	-1.221186e+01	-1.762208e+02
1.010000e-06	-1.653176e-06	-2.585612e-09	-1.146365e+01	-1.716133e+02
1.020000e-06	-1.544889e-06	-2.512073e-09	-1.071275e+01	-1.669184e+02
1.030000e-06	-1.436399e-06	-2.455376e-09	-9.960447e+00	-1.621377e+02
1.040000e-06	-1.327722e-06	-2.394871e-09	-9.206848e+00	-1.572721e+02
1.050000e-06	-1.218843e-06	-2.317556e-09	-8.451849e+00	-1.523217e+02
1.060000e-06	-1.109796e-06	-2.228162e-09	-7.695683e+00	-1.472856e+02
1.070000e-06	-1.000545e-06	-2.147074e-09	-6.938096e+00	-1.421620e+02
1.080000e-06	-8.910977e-07	-2.078794e-09	-6.179156e+00	-1.369479e+02
1.090000e-06	-7.815313e-07	-2.008243e-09	-5.419388e+00	-1.316394e+02
1.100000e-06	-6.718554e-07	-1.920642e-09	-4.658860e+00	-1.262319e+02
1.110000e-06	-5.620617e-07	-1.821441e-09	-3.897516e+00	-1.207202e+02
1.120000e-06	-4.521915e-07	-1.733141e-09	-3.135640e+00	-1.150986e+02
1.130000e-06	-3.422668e-07	-1.659904e-09	-2.373387e+00	-1.093615e+02
1.140000e-06	-2.322521e-07	-1.581064e-09	-1.610510e+00	-1.035031e+02
1.150000e-06	-1.221501e-07	-1.479869e-09	-8.470278e-01	-9.751806e+01
1.160000e-06	-1.206592e-08	-1.371166e-09	-8.366894e-02	-9.140122e+01
1.170000e-06	9.799517e-08	-1.280147e-09	6.795298e-01	-8.514794e+01
1.180000e-06	2.080699e-07	-1.199122e-09	1.442823e+00	-7.875404e+01
1.190000e-06	3.181063e-07	-1.103179e-09	2.205851e+00	-7.221580e+01
1.200000e-06	4.280953e-07	-9.881276e-10	2.968549e+00	-6.552993e+01
1.210000e-06	5.380118e-07	-8.747481e-10	3.730746e+00	-5.869354e+01
1.220000e-06	6.478528e-07	-7.802901e-10	4.492418e+00	-5.170414e+01
1.230000e-06	7.576134e-07	-6.878572e-10	5.253533e+00	-4.455963e+01
1.240000e-06	8.672590e-07	-5.773000e-10	6.013851e+00	-3.725840e+01
1.250000e-06	9.767312e-07	-4.507883e-10	6.772966e+00	-2.979944e+01
1.260000e-06	1.086016e-06	-3.300135e-10	7.530779e+00	-2.218260e+01
1.270000e-06	1.195180e-06	-2.232393e-10	8.287762e+00	-1.440882e+01
1.280000e-06	1.304174e-06	-1.099296e-10	9.043561e+00	-6.480519e+00
1.290000e-06	1.412908e-06	2.129222e-11	9.797555e+00	1.598043e+00
1.300000e-06	1.521338e-06	1.590615e-10	1.054944e+01	9.820351e+00
1.310000e-06	1.629496e-06	2.866224e-10	1.129944e+01	1.817725e+01
1.320000e-06	1.737338e-06	4.050398e-10	1.204726e+01	2.665660e+01
1.330000e-06	1.844781e-06	5.326805e-10	1.279230e+01	3.524306e+01
1.340000e-06	1.951842e-06	6.729988e-10	1.353470e+01	4.391792e+01
1.350000e-06	2.058564e-06	8.123547e-10	1.427474e+01	5.265914e+01
1.360000e-06	2.165042e-06	9.434075e-10	1.501309e+01	6.144158e+01
1.370000e-06	2.271256e-06	1.071655e-09	1.574962e+01	7.023732e+01
1.380000e-06	2.377093e-06	1.205129e-09	1.648352e+01	7.901625e+01
1.390000e-06	2.482468e-06	1.344299e-09	1.721422e+01	8.774675e+01
1.400000e-06	2.587239e-06	1.484111e-09	1.794074e+01	9.639659e+01
1.410000e-06	2.691308e-06	1.613837e-09	1.866239e+01	1.049338e+02
1.420000e-06	2.794788e-06	1.733832e-09	1.937995e+01	1.133278e+02
1.430000e-06	2.897783e-06	1.854647e-09	2.009415e+01	1.215501e+02
1.440000e-06	3.000321e-06	1.980717e-09	2.080518e+01	1.295755e+02
1.450000e-06	3.102456e-06	2.103509e-09	2.151342e+01	1.373829e+02
1.460000e-06	3.204118e-06	2.213278e-09	2.221838e+01	1.449555e+02
1.470000e-06	3.305279e-06	2.316850e-09	2.291986e+01	1.522819e+02
1.480000e-06	3.405892e-06	2.425871e-09	2.361754e+01	1.593557e+02
1.490000e-06	3.505810e-06	2.534757e-09	2.431040e+01	1.661756e+02
1.500000e-06	3.605009e-06	2.633042e-09	2.499828e+01	1.727452e+02
1.510000e-06	3.703624e-06	2.722191e-09	2.568211e+01	1.790725e+02
1.520000e-06	3.801707e-06	2.810838e-09	2.636225e+01	1.851689e+02
1.530000e-06	3.899046e-06	2.902845e-09	2.703723e+01	1.910485e+02
1.540000e-06	3.995491e-06	2.991826e-09	2.770601e+01	1.967270e+02
1.550000e-06	4.091078e-06	3.072520e-09	2.836884e+01	2.022209e+02
1.560000e-06	4.185918e-06	3.149075e-09	2.902649e+01	2.075462e+02
1.570000e-06	4.280111e-06	3.229354e-09	2.967966e+01	2.127180e+02
1.580000e-06	4.373615e-06	3.311262e-09	3.032804e+01	2.177490e+02
1.590000e-06	4.466403e-06	3.388599e-09	3.097146e+01	2.226500e+02
1.600000e-06	4.558414e-06	3.459161e-09	3.160950e+01	2.274285e+02
1.610000e-06	4.649628e-06	3.525448e-09	3.224200e+01	2.320893e+02
1.620000e-06	4.740138e-06	3.591347e-09	3.286963e+01	2.366347e+02
1.630000e-06	4.829800e-06	3.657361e-09	3.349138e+01	2.410642e+02
1.640000e-06	4.918359e-06	3.721348e-09	3.410547e+01	2.453758e+02
1.650000e-06	5.005892e-06	3.779491e-09	3.471246e+01	2.495660e+02
1.660000e-06	5.092624e-06	3.835521e-09	3.531388e+01	2.536310e+02
1.670000e-06	5.178551e-06	3.895274e-09	3.590973e+01	2.575672e+02
1.680000e-06	5.263623e-06	3.954706e-09	3.649964e+01	2.613718e+02
1.690000e-06	5.347884e-06	4.009610e-09	3.708393e+01	2.650437e+02
1.700000e-06	5.431301e-06	4.060737e-09	3.766237e+01	2.685835e+02
1.710000e-06	5.513857e-06	4.109478e-09	3.823484e+01	2.719939e+02
1.720000e-06	5.595430e-06	4.158055e-09	3.880050e+01	2.752800e+02
1.730000e-06	5.675891e-06	4.205841e-09	3.935844e+01	2.784488e+02
1.740000e-06	5.755307e-06	4.250789e-09	3.990913e+01	2.815088e+02
1.750000e-06	5.833705e-06	4.291073e-09	4.045277e+01	2.844698e+02
1.760000e-06	5.911052e-06	4.327712e-09	4.098912e+01	2.873421e+02
1.770000e-06	5.987343e-06	4.368011e-09	4.151815e+01	2.901359e+02
1.780000e-06	6.062526e-06	4.411316e-09	4.203949e+01	2.928605e+02
1.790000e-06	6.136616e-06	4.452541e-09	4.255326e+01	2.955236e+02
1.800000e-06	6.209448e-06	4.490451e-09	4.305830e+01	2.981313e+02
1.810000e-06	6.280933e-06	4.528235e-09	4.355400e+01	3.006870e+02
1.820000e-06	6.351296e-06	4.567706e-09	4.404192e+01	3.031919e+02
1.830000e-06	6.420631e-06	4.604888e-09	4.452270e+01	3.056444e+02
1.840000e-06	6.488873e-06	4.635448e-09	4.499592e+01	3.080408e+02
1.850000e-06	6.555987e-06	4.662652e-09	4.546131e+01	3.103756e+02
1.860000e-06	6.621927e-06	4.692328e-09	4.591855e+01	3.126420e+02
1.870000e-06	6.686546e-06	4.724503e-09	4.636665e+01	3.148325e+02
1.880000e-06	6.749967e-06	4.755880e-09	4.680643e+01	3.169398e+02
1.890000e-06	6.812280e-06	4.784723e-09	4.723852e+01	3.189575e+02
1.900000e-06	6.873480e-06	4.814505e-09	4.766290e+01	3.208807e+02
1.910000e-06	6.933620e-06	4.844698e-09	4.807993e+01	3.227064e+02
1.920000e-06	6.992655e-06	4.872725e-09	4.848930e+01	3.244344e+02
1.930000e-06	7.050348e-06	4.897732e-09	4.888937e+01	3.260670e+02
1.940000e-06	7.106540e-06	4.921344e-09	4.927902e+01	3.276092e+02
1.950000e-06	7.161483e-06	4.942534e-09	4.966001e+01	3.290682e+02
1.960000e-06	7.215298e-06	4.962190e-09	5.003318e+01	3.304534e+02
1.970000e-06	7.267786e-06	4.984119e-09	5.039715e+01	3.317755e+02
1.980000e-06	7.318733e-06	5.006969e-09	5.075043e+01	3.330458e+02
1.990000e-06	7.368038e-06	5.028439e-09	5.109233e+01	3.342754e+02
2.000000e-06	7.415819e-06	5.049224e-09	5.142366e+01	3.354743e+02
2.010000e-06	7.462283e-06	5.070964e-09	5.174585e+01	3.366512e+02
2.020000e-06	7.507530e-06	5.093024e-09	5.205961e+01	3.378122e+02
2.030000e-06	7.551601e-06	5.113097e-09	5.236521e+01	3.389606e+02
2.040000e-06	7.594338e-06	5.129915e-09	5.266157e+01	3.400971e+02
2.050000e-06	7.635512e-06	5.142326e-09	5.294708e+01	3.412191e+02
2.060000e-06	7.675277e-06	5.153293e-09	5.322282e+01	3.423216e+02
2.070000e-06	7.713796e-06	5.168480e-09	5.348992e+01	3.433972e+02
2.080000e-06	7.751042e-06	5.183731e-09	5.374820e+01	3.444370e+02
2.090000e-06	7.787072e-06	5.196387e-09	5.399804e+01	3.454314e+02
2.100000e-06	7.821781e-06	5.208432e-09	5.423873e+01	3.463709e+02
2.110000e-06	7.854928e-06	5.223271e-09	5.446858e+01	3.472468e+02
2.120000e-06	7.886628e-06	5.240698e-09	5.468840e+01	3.480523e+02
2.130000e-06	7.917024e-06	5.254478e-09	5.489918e+01	3.487831e+02
2.140000e-06	7.946072e-06	5.262609e-09	5.510060e+01	3.494376e+02
2.150000e-06	7.973892e-06	5.269698e-09	5.529352e+01	3.500177e+02
2.160000e-06	8.000316e-06	5.279043e-09	5.547675e+01	3.505281e+02
2.170000e-06	8.025095e-06	5.287893e-09	5.564857e+01	3.509766e+02
2.180000e-06	8.048356e-06	5.294430e-09	5.580987e+01	3.513733e+02
2.190000e-06	8.070282e-06	5.299974e-09	5.596191e+01	3.517299e+02
2.200000e-06	8.090939e-06	5.306901e-09	5.610515e+01	3.520589e+02
2.210000e-06	8.110404e-06	5.316031e-09	5.624013e+01	3.523724e+02
2.220000e-06	8.128437e-06	5.325861e-09	5.636518e+01	3.526813e+02
2.230000e-06	8.144850e-06	5.333748e-09	5.647899e+01	3.529943e+02
2.240000e-06	8.159747e-06	5.336318e-09	5.658229e+01	3.533169e+02
2.250000e-06	8.173174e-06	5.336906e-09	5.667540e+01	3.536512e+02
2.260000e-06	8.185181e-06	5.339849e-09	5.675866e+01	3.539952e+02
2.270000e-06	8.195490e-06	5.344342e-09	5.683014e+01	3.543432e+02
2.280000e-06	8.204023e-06	5.347951e-09	5.688931e+01	3.546857e+02
2.290000e-06	8.211116e-06	5.349320e-09	5.693850e+01	3.550100e+02
2.300000e-06	8.216926e-06	5.352451e-09	5.697879e+01	3.553014e+02
2.310000e-06	8.221406e-06	5.357525e-09	5.700986e+01	3.555442e+02
2.320000e-06	8.224514e-06	5.361854e-09	5.703140e+01	3.557227e+02
2.330000e-06	8.225970e-06	5.361813e-09	5.704150e+01	3.558227e+02
2.340000e-06	8.225872e-06	5.359005e-09	5.704083e+01	3.558327e+02
2.350000e-06	8.224535e-06	5.355587e-09	5.703155e+01	3.557450e+02
2.360000e-06	8.221843e-06	5.353474e-09	5.701289e+01	3.555565e+02
2.370000e-06	8.217856e-06	5.348145e-09	5.698524e+01	3.552695e+02
2.380000e-06	8.212538e-06	5.339429e-09	5.694836e+01	3.548919e+02
2.390000e-06	8.205676e-06	5.334930e-09	5.690078e+01	3.544367e+02
2.400000e-06	8.197447e-06	5.337078e-09	5.684372e+01	3.539221e+02
2.410000e-06	8.188009e-06	5.338146e-09	5.677827e+01	3.533701e+02
2.420000e-06	8.177299e-06	5.313024e-09	5.670400e+01	3.528056e+02
2.430000e-06	8.165053e-06	5.315708e-09	5.661909e+01	3.522548e+02
2.440000e-06	8.150586e-06	5.328822e-09	5.651876e+01	3.517435e+02
2.450000e-06	8.133883e-06	5.303544e-09	5.640294e+01	3.512960e+02
2.460000e-06	8.115618e-06	5.303044e-09	5.627629e+01	3.509326e+02
2.470000e-06	8.096400e-06	5.310041e-09	5.614302e+01	3.506689e+02
2.480000e-06	8.076576e-06	5.349771e-09	5.600556e+01	3.505146e+02
2.490000e-06	8.055389e-06	5.346680e-09	5.585864e+01	3.504723e+02
2.500000e-06	8.032300e-06	5.158891e-09	5.569853e+01	3.505372e+02
2.510000e-06	8.007982e-06	5.097550e-09	5.552991e+01	3.506975e+02
2.520000e-06	7.982350e-06	5.216254e-09	5.535216e+01	3.509345e+02
2.530000e-06	7.955126e-06	5.319371e-09	5.516339e+01	3.512234e+02
2.540000e-06	7.926742e-06	5.383636e-09	5.496656e+01	3.515351e+02
2.550000e-06	7.896856e-06	5.310516e-09	5.475932e+01	3.518372e+02
2.560000e-06	7.865370e-06	5.350960e-09	5.454099e+01	3.520960e+02
2.570000e-06	7.832586e-06	5.711312e-09	5.431366e+01	3.522785e+02
2.580000e-06	7.798265e-06	5.806077e-09	5.407566e+01	3.523536e+02
2.590000e-06	7.762711e-06	5.557962e-09	5.382912e+01	3.522947e+02
2.600000e-06	7.725985e-06	5.352260e-09	5.357445e+01	3.520801e+02
2.610000e-06	7.687601e-06	5.261827e-09	5.330828e+01	3.516949e+02
2.620000e-06	7.647681e-06	5.508440e-09	5.303146e+01	3.511311e+02
2.630000e-06	7.606472e-06	5.663938e-09	5.274571e+01	3.503883e+02
2.640000e-06	7.564079e-06	5.426755e-09	5.245174e+01	3.494734e+02
2.650000e-06	7.520445e-06	5.124274e-09	5.214917e+01	3.483995e+02
2.660000e-06	7.475499e-06	5.115430e-09	5.183750e+01	3.471858e+02
2.670000e-06	7.429384e-06	5.494334e-09	5.151772e+01	3.458556e+02
2.680000e-06	7.381799e-06	5.550744e-09	5.118775e+01	3.444349e+02
2.690000e-06	7.332671e-06	5.200831e-09	5.084708e+01	3.429511e+02
2.700000e-06	7.282273e-06	5.047148e-09	5.049761e+01	3.414312e+02
2.710000e-06	7.230618e-06	5.195269e-09	5.013941e+01	3.398999e+02
2.720000e-06	7.177408e-06	5.435401e-09	4.977044e+01	3.383789e+02
2.730000e-06	7.122493e-06	5.346656e-09	4.938964e+01	3.368851e+02
2.740000e-06	7.066282e-06	5.116158e-09	4.899985e+01	3.354306e+02
2.750000e-06	7.008911e-06	5.049665e-09	4.860202e+01	3.340217e+02
2.760000e-06	6.950356e-06	5.127198e-09	4.819599e+01	3.326591e+02
2.770000e-06	6.890757e-06	5.274808e-09	4.778271e+01	3.313383e+02
2.780000e-06	6.829997e-06	5.201618e-09	4.736138e+01	3.300500e+02
2.790000e-06	6.767797e-06	5.019037e-09	4.693006e+01	3.287816e+02
2.800000e-06	6.704236e-06	4.932699e-09	4.648931e+01	3.275176e+02
2.810000e-06	6.639509e-06	5.029765e-09	4.604047e+01	3.262413e+02
2.820000e-06	6.573621e-06	5.152677e-09	4.558359e+01	3.249355e+02
2.830000e-06	6.506613e-06	5.059692e-09	4.511893e+01	3.235846e+02
2.840000e-06	6.438506e-06	4.900934e-09	4.464666e+01	3.221744e+02
2.850000e-06	6.369066e-06	4.857365e-09	4.416514e+01	3.206939e+02
2.860000e-06	6.298339e-06	4.960030e-09	4.367470e+01	3.191353e+02
2.870000e-06	6.226509e-06	4.992094e-09	4.317660e+01	3.174944e+02
2.880000e-06	6.153546e-06	4.898818e-09	4.267065e+01	3.157705e+02
2.890000e-06	6.079520e-06	4.805853e-09	4.215733e+01	3.139665e+02
2.900000e-06	6.004443e-06	4.774967e-09	4.163673e+01	3.120879e+02
2.910000e-06	5.928127e-06	4.800362e-09	4.110753e+01	3.101424e+02
2.920000e-06	5.850411e-06	4.810640e-09	4.056862e+01	3.081389e+02
2.930000e-06	5.771482e-06	4.774343e-09	4.002130e+01	3.060871e+02
2.940000e-06	5.691515e-06	4.660190e-09	3.946679e+01	3.039959e+02
2.950000e-06	5.610528e-06	4.586882e-09	3.890519e+01	3.018737e+02
