# Temperatura_=_20.0
# Concentracion g/m^3_=_12600.0
# C_Vs_to_Am_M_A/Vsm_=_65563218390.804596
# pendiente_HvsI_1/m_=_3716.3
# ordenada_HvsI_A/m_=_1297.0
# frecuencia_Hz_=_213202.4672106766

Tiempo_(s)	Campo_(V.s)	Magnetizacion_(V.s)	Campo_(kA/m)	Magnetizacion_(A/m)
0.000000e+00	-8.161661e-06	-5.394646e-09	-5.680169e+01	-3.505419e+02
1.000000e-08	-8.161309e-06	-5.393569e-09	-5.679924e+01	-3.505192e+02
2.000000e-08	-8.159406e-06	-5.391855e-09	-5.678600e+01	-3.503874e+02
3.000000e-08	-8.155992e-06	-5.396266e-09	-5.676224e+01	-3.501456e+02
4.000000e-08	-8.151369e-06	-5.399552e-09	-5.673006e+01	-3.497989e+02
5.000000e-08	-8.145478e-06	-5.397716e-09	-5.668907e+01	-3.493585e+02
6.000000e-08	-8.138261e-06	-5.392359e-09	-5.663884e+01	-3.488414e+02
7.000000e-08	-8.129743e-06	-5.385952e-09	-5.657956e+01	-3.482692e+02
8.000000e-08	-8.119595e-06	-5.380856e-09	-5.650893e+01	-3.476678e+02
9.000000e-08	-8.107660e-06	-5.385521e-09	-5.642587e+01	-3.470649e+02
1.000000e-07	-8.093983e-06	-5.365715e-09	-5.633068e+01	-3.464893e+02
1.100000e-07	-8.078291e-06	-5.373476e-09	-5.622147e+01	-3.459685e+02
1.200000e-07	-8.060856e-06	-5.398927e-09	-5.610013e+01	-3.455271e+02
1.300000e-07	-8.042109e-06	-5.372225e-09	-5.596966e+01	-3.451853e+02
1.400000e-07	-8.022282e-06	-5.313349e-09	-5.583168e+01	-3.449572e+02
1.500000e-07	-8.001466e-06	-5.242755e-09	-5.568680e+01	-3.448500e+02
1.600000e-07	-7.979383e-06	-5.247988e-09	-5.553311e+01	-3.448631e+02
1.700000e-07	-7.956118e-06	-5.419534e-09	-5.537120e+01	-3.449881e+02
1.800000e-07	-7.931567e-06	-5.432141e-09	-5.520034e+01	-3.452089e+02
1.900000e-07	-7.905251e-06	-5.294140e-09	-5.501719e+01	-3.455025e+02
2.000000e-07	-7.877475e-06	-5.180159e-09	-5.482388e+01	-3.458401e+02
2.100000e-07	-7.848539e-06	-5.103740e-09	-5.462250e+01	-3.461891e+02
2.200000e-07	-7.818289e-06	-5.338715e-09	-5.441197e+01	-3.465141e+02
2.300000e-07	-7.786620e-06	-5.483407e-09	-5.419156e+01	-3.467794e+02
2.400000e-07	-7.753455e-06	-5.177003e-09	-5.396075e+01	-3.469509e+02
2.500000e-07	-7.718825e-06	-4.970356e-09	-5.371974e+01	-3.469979e+02
2.600000e-07	-7.682836e-06	-5.127570e-09	-5.346927e+01	-3.468947e+02
2.700000e-07	-7.645456e-06	-5.352793e-09	-5.320912e+01	-3.466221e+02
2.800000e-07	-7.606788e-06	-5.401298e-09	-5.294001e+01	-3.461680e+02
2.900000e-07	-7.566874e-06	-5.168814e-09	-5.266222e+01	-3.455284e+02
3.000000e-07	-7.525496e-06	-4.967814e-09	-5.237426e+01	-3.447072e+02
3.100000e-07	-7.482580e-06	-5.076288e-09	-5.207557e+01	-3.437154e+02
3.200000e-07	-7.438238e-06	-5.332452e-09	-5.176697e+01	-3.425708e+02
3.300000e-07	-7.392583e-06	-5.316385e-09	-5.144924e+01	-3.412962e+02
3.400000e-07	-7.345542e-06	-5.001731e-09	-5.112185e+01	-3.399183e+02
3.500000e-07	-7.297100e-06	-4.864707e-09	-5.078471e+01	-3.384656e+02
3.600000e-07	-7.247171e-06	-5.041831e-09	-5.043723e+01	-3.369670e+02
3.700000e-07	-7.195568e-06	-5.231084e-09	-5.007810e+01	-3.354499e+02
3.800000e-07	-7.142478e-06	-5.120946e-09	-4.970861e+01	-3.339384e+02
3.900000e-07	-7.088187e-06	-4.844630e-09	-4.933077e+01	-3.324525e+02
4.000000e-07	-7.032677e-06	-4.813684e-09	-4.894444e+01	-3.310069e+02
4.100000e-07	-6.975901e-06	-5.002768e-09	-4.854930e+01	-3.296102e+02
4.200000e-07	-6.917823e-06	-5.095890e-09	-4.814510e+01	-3.282651e+02
4.300000e-07	-6.858379e-06	-4.962471e-09	-4.773140e+01	-3.269684e+02
4.400000e-07	-6.797736e-06	-4.793210e-09	-4.730935e+01	-3.257117e+02
4.500000e-07	-6.735987e-06	-4.795597e-09	-4.687960e+01	-3.244822e+02
4.600000e-07	-6.673143e-06	-4.919303e-09	-4.644224e+01	-3.232638e+02
4.700000e-07	-6.609166e-06	-4.976546e-09	-4.599699e+01	-3.220386e+02
4.800000e-07	-6.543879e-06	-4.862493e-09	-4.554262e+01	-3.207882e+02
4.900000e-07	-6.477261e-06	-4.719904e-09	-4.507898e+01	-3.194947e+02
5.000000e-07	-6.409436e-06	-4.708117e-09	-4.460695e+01	-3.181422e+02
5.100000e-07	-6.340558e-06	-4.798929e-09	-4.412759e+01	-3.167177e+02
5.200000e-07	-6.270655e-06	-4.821060e-09	-4.364110e+01	-3.152116e+02
5.300000e-07	-6.199730e-06	-4.710788e-09	-4.314749e+01	-3.136184e+02
5.400000e-07	-6.127654e-06	-4.605884e-09	-4.264587e+01	-3.119364e+02
5.500000e-07	-6.054364e-06	-4.608093e-09	-4.213580e+01	-3.101680e+02
5.600000e-07	-5.979946e-06	-4.663197e-09	-4.161788e+01	-3.083188e+02
5.700000e-07	-5.904322e-06	-4.654696e-09	-4.109157e+01	-3.063968e+02
5.800000e-07	-5.827476e-06	-4.581353e-09	-4.055676e+01	-3.044122e+02
5.900000e-07	-5.749405e-06	-4.511054e-09	-4.001341e+01	-3.023757e+02
6.000000e-07	-5.670157e-06	-4.484789e-09	-3.946188e+01	-3.002981e+02
6.100000e-07	-5.589760e-06	-4.510718e-09	-3.890235e+01	-2.981891e+02
6.200000e-07	-5.508352e-06	-4.519506e-09	-3.833579e+01	-2.960566e+02
6.300000e-07	-5.426050e-06	-4.452205e-09	-3.776300e+01	-2.939065e+02
6.400000e-07	-5.342816e-06	-4.354355e-09	-3.718373e+01	-2.917416e+02
6.500000e-07	-5.258718e-06	-4.327078e-09	-3.659844e+01	-2.895623e+02
6.600000e-07	-5.173884e-06	-4.359713e-09	-3.600803e+01	-2.873661e+02
6.700000e-07	-5.088303e-06	-4.345543e-09	-3.541242e+01	-2.851482e+02
6.800000e-07	-5.001893e-06	-4.258637e-09	-3.481105e+01	-2.829019e+02
6.900000e-07	-4.914578e-06	-4.174747e-09	-3.420338e+01	-2.806193e+02
7.000000e-07	-4.826312e-06	-4.156534e-09	-3.358908e+01	-2.782920e+02
7.100000e-07	-4.737149e-06	-4.171064e-09	-3.296854e+01	-2.759114e+02
7.200000e-07	-4.647239e-06	-4.143770e-09	-3.234280e+01	-2.734700e+02
7.300000e-07	-4.556500e-06	-4.062052e-09	-3.171131e+01	-2.709615e+02
7.400000e-07	-4.464751e-06	-3.989081e-09	-3.107277e+01	-2.683812e+02
7.500000e-07	-4.372209e-06	-3.977607e-09	-3.042871e+01	-2.657267e+02
7.600000e-07	-4.279012e-06	-3.988687e-09	-2.978010e+01	-2.629974e+02
7.700000e-07	-4.185122e-06	-3.948657e-09	-2.912667e+01	-2.601947e+02
7.800000e-07	-4.090562e-06	-3.863071e-09	-2.846857e+01	-2.573215e+02
7.900000e-07	-3.995284e-06	-3.796130e-09	-2.780548e+01	-2.543823e+02
8.000000e-07	-3.899151e-06	-3.780699e-09	-2.713643e+01	-2.513819e+02
8.100000e-07	-3.802244e-06	-3.773824e-09	-2.646200e+01	-2.483258e+02
8.200000e-07	-3.704666e-06	-3.716604e-09	-2.578290e+01	-2.452186e+02
8.300000e-07	-3.606437e-06	-3.623343e-09	-2.509927e+01	-2.420643e+02
8.400000e-07	-3.507504e-06	-3.561011e-09	-2.441073e+01	-2.388657e+02
8.500000e-07	-3.407816e-06	-3.553786e-09	-2.371695e+01	-2.356236e+02
8.600000e-07	-3.307483e-06	-3.539317e-09	-2.301868e+01	-2.323375e+02
8.700000e-07	-3.206609e-06	-3.468205e-09	-2.231664e+01	-2.290047e+02
8.800000e-07	-3.105221e-06	-3.379665e-09	-2.161102e+01	-2.256210e+02
8.900000e-07	-3.003279e-06	-3.333126e-09	-2.090154e+01	-2.221810e+02
9.000000e-07	-2.900846e-06	-3.319929e-09	-2.018865e+01	-2.186779e+02
9.100000e-07	-2.798005e-06	-3.278135e-09	-1.947293e+01	-2.151047e+02
9.200000e-07	-2.694664e-06	-3.191378e-09	-1.875371e+01	-2.114541e+02
9.300000e-07	-2.590767e-06	-3.107821e-09	-1.803064e+01	-2.077193e+02
9.400000e-07	-2.486330e-06	-3.064763e-09	-1.730380e+01	-2.038943e+02
9.500000e-07	-2.381392e-06	-3.037860e-09	-1.657347e+01	-1.999743e+02
9.600000e-07	-2.276060e-06	-2.980255e-09	-1.584041e+01	-1.959559e+02
9.700000e-07	-2.170397e-06	-2.890959e-09	-1.510504e+01	-1.918371e+02
9.800000e-07	-2.064321e-06	-2.812807e-09	-1.436680e+01	-1.876176e+02
9.900000e-07	-1.957846e-06	-2.765953e-09	-1.362578e+01	-1.832985e+02
1.000000e-06	-1.851027e-06	-2.720200e-09	-1.288236e+01	-1.788818e+02
1.010000e-06	-1.743749e-06	-2.643590e-09	-1.213575e+01	-1.743705e+02
1.020000e-06	-1.636097e-06	-2.552078e-09	-1.138654e+01	-1.697680e+02
1.030000e-06	-1.528138e-06	-2.479032e-09	-1.063519e+01	-1.650777e+02
1.040000e-06	-1.419913e-06	-2.424758e-09	-9.881988e+00	-1.603024e+02
1.050000e-06	-1.311461e-06	-2.365174e-09	-9.127210e+00	-1.554445e+02
1.060000e-06	-1.202773e-06	-2.283408e-09	-8.370789e+00	-1.505050e+02
1.070000e-06	-1.093931e-06	-2.191691e-09	-7.613296e+00	-1.454839e+02
1.080000e-06	-9.850111e-07	-2.113304e-09	-6.855258e+00	-1.403797e+02
1.090000e-06	-8.759902e-07	-2.047803e-09	-6.096519e+00	-1.351896e+02
1.100000e-06	-7.667964e-07	-1.975809e-09	-5.336577e+00	-1.299097e+02
1.110000e-06	-6.575008e-07	-1.883015e-09	-4.575926e+00	-1.245350e+02
1.120000e-06	-5.481434e-07	-1.782625e-09	-3.814845e+00	-1.190595e+02
1.130000e-06	-4.387017e-07	-1.696076e-09	-3.053177e+00	-1.134771e+02
1.140000e-06	-3.292322e-07	-1.623561e-09	-2.291316e+00	-1.077811e+02
1.150000e-06	-2.196837e-07	-1.541297e-09	-1.528905e+00	-1.019652e+02
1.160000e-06	-1.100732e-07	-1.437560e-09	-7.660627e-01	-9.602321e+01
1.170000e-06	-4.650004e-10	-1.331995e-09	-3.236205e-03	-8.994948e+01
1.180000e-06	1.091864e-07	-1.243443e-09	7.598911e-01	-8.373906e+01
1.190000e-06	2.188308e-07	-1.166015e-09	1.522969e+00	-7.738766e+01
1.200000e-06	3.283989e-07	-1.073299e-09	2.285517e+00	-7.089168e+01
1.210000e-06	4.378961e-07	-9.590393e-10	3.047571e+00	-6.424820e+01
1.220000e-06	5.473672e-07	-8.482334e-10	3.809443e+00	-5.745489e+01
1.230000e-06	6.567630e-07	-7.541500e-10	4.570792e+00	-5.050995e+01
1.240000e-06	7.660364e-07	-6.593821e-10	5.331288e+00	-4.341209e+01
1.250000e-06	8.751995e-07	-5.447156e-10	6.091017e+00	-3.616053e+01
1.260000e-06	9.842428e-07	-4.177104e-10	6.849911e+00	-2.875506e+01
1.270000e-06	1.093166e-06	-3.009754e-10	7.607974e+00	-2.119622e+01
1.280000e-06	1.201907e-06	-1.990269e-10	8.364760e+00	-1.348552e+01
1.290000e-06	1.310544e-06	-9.044864e-11	9.120830e+00	-5.625755e+00
1.300000e-06	1.418994e-06	3.434391e-11	9.875597e+00	2.378662e+00
1.310000e-06	1.527099e-06	1.700212e-10	1.062796e+01	1.052126e+01
1.320000e-06	1.634867e-06	2.963906e-10	1.137798e+01	1.879314e+01
1.330000e-06	1.742323e-06	4.143566e-10	1.212582e+01	2.718258e+01
1.340000e-06	1.849468e-06	5.409154e-10	1.287151e+01	3.567479e+01
1.350000e-06	1.956253e-06	6.792295e-10	1.361469e+01	4.425170e+01
1.360000e-06	2.062668e-06	8.201120e-10	1.435529e+01	5.289195e+01
1.370000e-06	2.168670e-06	9.501536e-10	1.509302e+01	6.157101e+01
1.380000e-06	2.274265e-06	1.075905e-09	1.582792e+01	7.026155e+01
1.390000e-06	2.379434e-06	1.206843e-09	1.655985e+01	7.893388e+01
1.400000e-06	2.484121e-06	1.343364e-09	1.728842e+01	8.755672e+01
1.410000e-06	2.588272e-06	1.478253e-09	1.801327e+01	9.609797e+01
1.420000e-06	2.691927e-06	1.603777e-09	1.873466e+01	1.045257e+02
1.430000e-06	2.795116e-06	1.722683e-09	1.945282e+01	1.128091e+02
1.440000e-06	2.897814e-06	1.844247e-09	2.016756e+01	1.209197e+02
1.450000e-06	3.000014e-06	1.969339e-09	2.087882e+01	1.288320e+02
1.460000e-06	3.101661e-06	2.091135e-09	2.158625e+01	1.365246e+02
1.470000e-06	3.202791e-06	2.198723e-09	2.229006e+01	1.439808e+02
1.480000e-06	3.303460e-06	2.301190e-09	2.299068e+01	1.511889e+02
1.490000e-06	3.403692e-06	2.407399e-09	2.368825e+01	1.581430e+02
1.500000e-06	3.503365e-06	2.512653e-09	2.438193e+01	1.648421e+02
1.510000e-06	3.602291e-06	2.608775e-09	2.507041e+01	1.712906e+02
1.520000e-06	3.700444e-06	2.696778e-09	2.575352e+01	1.774972e+02
1.530000e-06	3.797857e-06	2.785116e-09	2.643147e+01	1.834745e+02
1.540000e-06	3.894519e-06	2.875749e-09	2.710420e+01	1.892379e+02
1.550000e-06	3.990415e-06	2.962442e-09	2.777160e+01	1.948045e+02
1.560000e-06	4.085645e-06	3.043038e-09	2.843435e+01	2.001921e+02
1.570000e-06	4.180196e-06	3.121417e-09	2.909238e+01	2.054183e+02
1.580000e-06	4.274014e-06	3.201671e-09	2.974532e+01	2.104992e+02
1.590000e-06	4.367143e-06	3.281954e-09	3.039346e+01	2.154488e+02
1.600000e-06	4.459578e-06	3.356852e-09	3.103677e+01	2.202784e+02
1.610000e-06	4.551320e-06	3.425817e-09	3.167525e+01	2.249961e+02
1.620000e-06	4.642318e-06	3.490362e-09	3.230856e+01	2.296068e+02
1.630000e-06	4.732327e-06	3.553649e-09	3.293499e+01	2.341121e+02
1.640000e-06	4.821265e-06	3.618895e-09	3.355395e+01	2.385110e+02
1.650000e-06	4.909329e-06	3.682609e-09	3.416684e+01	2.428003e+02
1.660000e-06	4.996567e-06	3.742078e-09	3.477398e+01	2.469751e+02
1.670000e-06	5.082984e-06	3.800447e-09	3.537541e+01	2.510299e+02
1.680000e-06	5.168556e-06	3.860124e-09	3.597096e+01	2.549593e+02
1.690000e-06	5.253222e-06	3.918549e-09	3.656019e+01	2.587585e+02
1.700000e-06	5.337097e-06	3.970106e-09	3.714392e+01	2.624245e+02
1.710000e-06	5.420211e-06	4.019171e-09	3.772236e+01	2.659562e+02
1.720000e-06	5.502264e-06	4.067837e-09	3.829342e+01	2.693550e+02
1.730000e-06	5.583168e-06	4.117497e-09	3.885648e+01	2.726244e+02
1.740000e-06	5.663122e-06	4.168585e-09	3.941292e+01	2.757707e+02
1.750000e-06	5.742119e-06	4.213500e-09	3.996271e+01	2.788018e+02
1.760000e-06	5.820098e-06	4.254700e-09	4.050541e+01	2.817274e+02
1.770000e-06	5.897112e-06	4.295174e-09	4.104139e+01	2.845580e+02
1.780000e-06	5.973113e-06	4.336008e-09	4.157033e+01	2.873042e+02
1.790000e-06	6.047948e-06	4.378242e-09	4.209115e+01	2.899762e+02
1.800000e-06	6.121432e-06	4.414150e-09	4.260257e+01	2.925828e+02
1.810000e-06	6.193645e-06	4.447244e-09	4.310514e+01	2.951310e+02
1.820000e-06	6.264774e-06	4.483792e-09	4.360016e+01	2.976257e+02
1.830000e-06	6.334842e-06	4.521472e-09	4.408781e+01	3.000690e+02
1.840000e-06	6.403830e-06	4.558288e-09	4.456794e+01	3.024606e+02
1.850000e-06	6.471808e-06	4.588303e-09	4.504103e+01	3.047978e+02
1.860000e-06	6.538764e-06	4.615749e-09	4.550702e+01	3.070757e+02
1.870000e-06	6.604374e-06	4.646024e-09	4.596364e+01	3.092882e+02
1.880000e-06	6.668640e-06	4.678095e-09	4.641090e+01	3.114282e+02
1.890000e-06	6.731814e-06	4.709963e-09	4.685056e+01	3.134884e+02
1.900000e-06	6.793872e-06	4.735081e-09	4.728246e+01	3.154626e+02
1.910000e-06	6.854749e-06	4.759425e-09	4.770614e+01	3.173456e+02
1.920000e-06	6.914610e-06	4.786048e-09	4.812274e+01	3.191343e+02
1.930000e-06	6.973419e-06	4.814087e-09	4.853203e+01	3.208281e+02
1.940000e-06	7.030732e-06	4.840073e-09	4.893090e+01	3.224288e+02
1.950000e-06	7.086605e-06	4.861631e-09	4.931976e+01	3.239411e+02
1.960000e-06	7.141215e-06	4.882249e-09	4.969982e+01	3.253719e+02
1.970000e-06	7.194613e-06	4.903586e-09	5.007145e+01	3.267303e+02
1.980000e-06	7.246755e-06	4.926636e-09	5.043434e+01	3.280268e+02
1.990000e-06	7.297311e-06	4.949676e-09	5.078618e+01	3.292723e+02
2.000000e-06	7.346204e-06	4.971060e-09	5.112646e+01	3.304780e+02
2.010000e-06	7.393683e-06	4.989603e-09	5.145689e+01	3.316537e+02
2.020000e-06	7.439882e-06	5.007719e-09	5.177842e+01	3.328080e+02
2.030000e-06	7.484802e-06	5.028095e-09	5.209104e+01	3.339467e+02
2.040000e-06	7.528541e-06	5.048800e-09	5.239545e+01	3.350733e+02
2.050000e-06	7.570906e-06	5.065189e-09	5.269029e+01	3.361879e+02
2.060000e-06	7.611743e-06	5.076528e-09	5.297450e+01	3.372880e+02
2.070000e-06	7.651278e-06	5.086176e-09	5.324965e+01	3.383682e+02
2.080000e-06	7.689580e-06	5.100129e-09	5.351621e+01	3.394208e+02
2.090000e-06	7.726610e-06	5.115930e-09	5.377392e+01	3.404367e+02
2.100000e-06	7.762489e-06	5.128566e-09	5.402363e+01	3.414059e+02
2.110000e-06	7.796990e-06	5.140280e-09	5.426374e+01	3.423189e+02
2.120000e-06	7.829861e-06	5.153734e-09	5.449251e+01	3.431670e+02
2.130000e-06	7.861331e-06	5.168835e-09	5.471152e+01	3.439435e+02
2.140000e-06	7.891539e-06	5.182526e-09	5.492176e+01	3.446443e+02
2.150000e-06	7.920454e-06	5.191769e-09	5.512299e+01	3.452684e+02
2.160000e-06	7.948136e-06	5.198721e-09	5.531564e+01	3.458182e+02
2.170000e-06	7.974275e-06	5.207388e-09	5.549757e+01	3.462994e+02
2.180000e-06	7.998746e-06	5.215854e-09	5.566787e+01	3.467208e+02
2.190000e-06	8.021809e-06	5.221711e-09	5.582838e+01	3.470936e+02
2.200000e-06	8.043500e-06	5.226477e-09	5.597934e+01	3.474306e+02
2.210000e-06	8.063878e-06	5.233429e-09	5.612117e+01	3.477452e+02
2.220000e-06	8.083050e-06	5.244219e-09	5.625459e+01	3.480507e+02
2.230000e-06	8.100768e-06	5.254583e-09	5.637791e+01	3.483587e+02
2.240000e-06	8.116902e-06	5.260550e-09	5.649019e+01	3.486782e+02
2.250000e-06	8.131631e-06	5.263280e-09	5.659269e+01	3.490151e+02
2.260000e-06	8.144904e-06	5.266215e-09	5.668507e+01	3.493711e+02
2.270000e-06	8.156621e-06	5.269890e-09	5.676662e+01	3.497438e+02
2.280000e-06	8.166685e-06	5.273056e-09	5.683666e+01	3.501261e+02
2.290000e-06	8.175052e-06	5.275879e-09	5.689489e+01	3.505073e+02
2.300000e-06	8.181993e-06	5.279711e-09	5.694319e+01	3.508730e+02
2.310000e-06	8.187608e-06	5.285241e-09	5.698227e+01	3.512067e+02
2.320000e-06	8.191883e-06	5.288721e-09	5.701202e+01	3.514904e+02
2.330000e-06	8.194816e-06	5.289798e-09	5.703244e+01	3.517064e+02
2.340000e-06	8.196118e-06	5.291187e-09	5.704150e+01	3.518386e+02
2.350000e-06	8.195854e-06	5.292112e-09	5.703966e+01	3.518737e+02
2.360000e-06	8.194302e-06	5.291979e-09	5.702886e+01	3.518025e+02
2.370000e-06	8.191510e-06	5.289767e-09	5.700943e+01	3.516211e+02
2.380000e-06	8.187502e-06	5.280923e-09	5.698153e+01	3.513312e+02
2.390000e-06	8.182133e-06	5.275743e-09	5.694417e+01	3.509408e+02
2.400000e-06	8.175188e-06	5.274327e-09	5.689584e+01	3.504636e+02
2.410000e-06	8.166859e-06	5.276567e-09	5.683787e+01	3.499189e+02
2.420000e-06	8.157361e-06	5.277697e-09	5.677177e+01	3.493303e+02
2.430000e-06	8.146613e-06	5.255926e-09	5.669697e+01	3.487248e+02
2.440000e-06	8.134234e-06	5.284350e-09	5.661081e+01	3.481309e+02
2.450000e-06	8.119574e-06	5.265574e-09	5.650879e+01	3.475768e+02
2.460000e-06	8.102683e-06	5.234855e-09	5.639123e+01	3.470891e+02
2.470000e-06	8.084288e-06	5.252087e-09	5.626321e+01	3.466905e+02
2.480000e-06	8.065023e-06	5.245153e-09	5.612913e+01	3.463986e+02
2.490000e-06	8.045085e-06	5.308032e-09	5.599037e+01	3.462246e+02
2.500000e-06	8.023748e-06	5.222304e-09	5.584187e+01	3.461723e+02
2.510000e-06	8.000524e-06	4.987741e-09	5.568025e+01	3.462374e+02
2.520000e-06	7.976080e-06	4.973466e-09	5.551013e+01	3.464080e+02
2.530000e-06	7.950428e-06	5.068537e-09	5.533160e+01	3.466649e+02
2.540000e-06	7.923242e-06	5.262204e-09	5.514240e+01	3.469823e+02
2.550000e-06	7.894748e-06	5.375303e-09	5.494409e+01	3.473294e+02
2.560000e-06	7.864736e-06	5.194225e-09	5.473522e+01	3.476722e+02
2.570000e-06	7.833207e-06	5.332081e-09	5.451579e+01	3.479748e+02
2.580000e-06	7.800358e-06	5.710754e-09	5.428718e+01	3.482021e+02
2.590000e-06	7.766018e-06	5.683058e-09	5.404818e+01	3.483213e+02
2.600000e-06	7.730482e-06	5.478577e-09	5.380087e+01	3.483037e+02
2.610000e-06	7.693830e-06	5.245820e-09	5.354579e+01	3.481263e+02
2.620000e-06	7.655640e-06	5.207902e-09	5.328000e+01	3.477732e+02
2.630000e-06	7.615871e-06	5.478894e-09	5.300322e+01	3.472358e+02
2.640000e-06	7.574700e-06	5.542963e-09	5.271669e+01	3.465137e+02
2.650000e-06	7.532284e-06	5.381210e-09	5.242149e+01	3.456141e+02
2.660000e-06	7.488676e-06	5.059180e-09	5.211800e+01	3.445511e+02
2.670000e-06	7.443859e-06	5.074937e-09	5.180610e+01	3.433450e+02
2.680000e-06	7.397765e-06	5.473814e-09	5.148530e+01	3.420206e+02
2.690000e-06	7.350057e-06	5.457580e-09	5.115327e+01	3.406056e+02
2.700000e-06	7.300833e-06	5.156813e-09	5.081069e+01	3.391289e+02
2.710000e-06	7.250392e-06	4.979821e-09	5.045964e+01	3.376189e+02
2.720000e-06	7.198680e-06	5.175626e-09	5.009976e+01	3.361016e+02
2.730000e-06	7.145537e-06	5.411297e-09	4.972990e+01	3.345996e+02
2.740000e-06	7.090815e-06	5.246573e-09	4.934906e+01	3.331305e+02
2.750000e-06	7.034717e-06	5.074406e-09	4.895864e+01	3.317064e+02
2.760000e-06	6.977390e-06	5.003398e-09	4.855967e+01	3.303331e+02
2.770000e-06	6.918857e-06	5.107166e-09	4.815231e+01	3.290106e+02
2.780000e-06	6.859217e-06	5.217552e-09	4.773723e+01	3.277334e+02
2.790000e-06	6.798411e-06	5.127165e-09	4.731405e+01	3.264909e+02
2.800000e-06	6.736310e-06	4.989804e-09	4.688185e+01	3.252686e+02
2.810000e-06	6.672822e-06	4.889155e-09	4.644001e+01	3.240496e+02
2.820000e-06	6.608100e-06	5.000387e-09	4.598957e+01	3.228155e+02
2.830000e-06	6.542328e-06	5.090711e-09	4.553183e+01	3.215479e+02
2.840000e-06	6.475444e-06	5.011355e-09	4.506634e+01	3.202298e+02
2.850000e-06	6.407331e-06	4.853604e-09	4.459230e+01	3.188465e+02
2.860000e-06	6.337976e-06	4.809698e-09	4.410962e+01	3.173864e+02
2.870000e-06	6.267548e-06	4.924830e-09	4.361947e+01	3.158416e+02
2.880000e-06	6.195885e-06	4.943096e-09	4.312072e+01	3.142086e+02
2.890000e-06	6.123029e-06	4.859605e-09	4.261368e+01	3.124874e+02
2.900000e-06	6.049219e-06	4.756214e-09	4.209999e+01	3.106819e+02
2.910000e-06	5.974301e-06	4.740097e-09	4.157860e+01	3.087989e+02
2.920000e-06	5.898090e-06	4.766719e-09	4.104820e+01	3.068476e+02
2.930000e-06	5.820617e-06	4.777365e-09	4.050902e+01	3.048384e+02
2.940000e-06	5.741989e-06	4.731134e-09	3.996180e+01	3.027823e+02
