# Temperatura_=_20.0
# Concentracion g/m^3_=_12600.0
# C_Vs_to_Am_M_A/Vsm_=_65563218390.804596
# pendiente_HvsI_1/m_=_3716.3
# ordenada_HvsI_A/m_=_1297.0
# frecuencia_Hz_=_213201.44733551604

Tiempo_(s)	Campo_(V.s)	Magnetizacion_(V.s)	Campo_(kA/m)	Magnetizacion_(A/m)
0.000000e+00	-8.127826e-06	-5.606462e-09	-5.680538e+01	-3.649887e+02
1.000000e-08	-8.127479e-06	-5.605788e-09	-5.680296e+01	-3.649038e+02
2.000000e-08	-8.125529e-06	-5.604038e-09	-5.678933e+01	-3.647515e+02
3.000000e-08	-8.122023e-06	-5.604199e-09	-5.676483e+01	-3.645357e+02
4.000000e-08	-8.117317e-06	-5.604745e-09	-5.673194e+01	-3.642632e+02
5.000000e-08	-8.111334e-06	-5.601737e-09	-5.669012e+01	-3.639432e+02
6.000000e-08	-8.104039e-06	-5.594391e-09	-5.663914e+01	-3.635869e+02
7.000000e-08	-8.095580e-06	-5.586011e-09	-5.658002e+01	-3.632072e+02
8.000000e-08	-8.085583e-06	-5.579670e-09	-5.651015e+01	-3.628177e+02
9.000000e-08	-8.073790e-06	-5.588721e-09	-5.642772e+01	-3.624319e+02
1.000000e-07	-8.060259e-06	-5.595166e-09	-5.633316e+01	-3.620626e+02
1.100000e-07	-8.044638e-06	-5.594644e-09	-5.622398e+01	-3.617205e+02
1.200000e-07	-8.027174e-06	-5.601914e-09	-5.610193e+01	-3.614144e+02
1.300000e-07	-8.008373e-06	-5.574713e-09	-5.597053e+01	-3.611496e+02
1.400000e-07	-7.988557e-06	-5.494825e-09	-5.583203e+01	-3.609282e+02
1.500000e-07	-7.967800e-06	-5.468820e-09	-5.568696e+01	-3.607484e+02
1.600000e-07	-7.945822e-06	-5.490471e-09	-5.553335e+01	-3.606048e+02
1.700000e-07	-7.922658e-06	-5.570054e-09	-5.537146e+01	-3.604884e+02
1.800000e-07	-7.898218e-06	-5.618242e-09	-5.520065e+01	-3.603870e+02
1.900000e-07	-7.871906e-06	-5.474059e-09	-5.501676e+01	-3.602861e+02
2.000000e-07	-7.844106e-06	-5.321901e-09	-5.482247e+01	-3.601694e+02
2.100000e-07	-7.815376e-06	-5.361812e-09	-5.462167e+01	-3.600197e+02
2.200000e-07	-7.785313e-06	-5.552343e-09	-5.441156e+01	-3.598198e+02
2.300000e-07	-7.753792e-06	-5.602929e-09	-5.419126e+01	-3.595537e+02
2.400000e-07	-7.720796e-06	-5.349451e-09	-5.396065e+01	-3.592069e+02
2.500000e-07	-7.686249e-06	-5.168578e-09	-5.371920e+01	-3.587678e+02
2.600000e-07	-7.650371e-06	-5.332345e-09	-5.346845e+01	-3.582277e+02
2.700000e-07	-7.613134e-06	-5.537810e-09	-5.320820e+01	-3.575816e+02
2.800000e-07	-7.574569e-06	-5.542739e-09	-5.293867e+01	-3.568281e+02
2.900000e-07	-7.534843e-06	-5.321967e-09	-5.266103e+01	-3.559695e+02
3.000000e-07	-7.493756e-06	-5.130274e-09	-5.237387e+01	-3.550114e+02
3.100000e-07	-7.451065e-06	-5.272074e-09	-5.207550e+01	-3.539624e+02
3.200000e-07	-7.406897e-06	-5.543043e-09	-5.176681e+01	-3.528334e+02
3.300000e-07	-7.361457e-06	-5.502226e-09	-5.144923e+01	-3.516371e+02
3.400000e-07	-7.314693e-06	-5.172342e-09	-5.112240e+01	-3.503868e+02
3.500000e-07	-7.266600e-06	-5.048967e-09	-5.078627e+01	-3.490958e+02
3.600000e-07	-7.217004e-06	-5.271235e-09	-5.043965e+01	-3.477768e+02
3.700000e-07	-7.165656e-06	-5.451630e-09	-5.008077e+01	-3.464411e+02
3.800000e-07	-7.112747e-06	-5.313131e-09	-4.971100e+01	-3.450977e+02
3.900000e-07	-7.058619e-06	-5.043428e-09	-4.933270e+01	-3.437535e+02
4.000000e-07	-7.003374e-06	-5.017125e-09	-4.894659e+01	-3.424126e+02
4.100000e-07	-6.946952e-06	-5.216962e-09	-4.855226e+01	-3.410766e+02
4.200000e-07	-6.889202e-06	-5.302053e-09	-4.814864e+01	-3.397441e+02
4.300000e-07	-6.829963e-06	-5.152664e-09	-4.773462e+01	-3.384119e+02
4.400000e-07	-6.769534e-06	-4.969846e-09	-4.731228e+01	-3.370745e+02
4.500000e-07	-6.708075e-06	-4.975567e-09	-4.688274e+01	-3.357251e+02
4.600000e-07	-6.645440e-06	-5.119919e-09	-4.644498e+01	-3.343560e+02
4.700000e-07	-6.581723e-06	-5.169821e-09	-4.599966e+01	-3.329594e+02
4.800000e-07	-6.516812e-06	-5.028815e-09	-4.554601e+01	-3.315274e+02
4.900000e-07	-6.450519e-06	-4.870911e-09	-4.508268e+01	-3.300531e+02
5.000000e-07	-6.382941e-06	-4.889377e-09	-4.461038e+01	-3.285304e+02
5.100000e-07	-6.314326e-06	-5.006942e-09	-4.413083e+01	-3.269550e+02
5.200000e-07	-6.244720e-06	-5.011151e-09	-4.364435e+01	-3.253238e+02
5.300000e-07	-6.174126e-06	-4.870448e-09	-4.315097e+01	-3.236353e+02
5.400000e-07	-6.102417e-06	-4.762374e-09	-4.264980e+01	-3.218896e+02
5.500000e-07	-6.029480e-06	-4.791758e-09	-4.214004e+01	-3.200880e+02
5.600000e-07	-5.955420e-06	-4.855660e-09	-4.162244e+01	-3.182328e+02
5.700000e-07	-5.880118e-06	-4.824575e-09	-4.109615e+01	-3.163270e+02
5.800000e-07	-5.803494e-06	-4.728326e-09	-4.056063e+01	-3.143739e+02
5.900000e-07	-5.725667e-06	-4.663755e-09	-4.001669e+01	-3.123767e+02
6.000000e-07	-5.646746e-06	-4.660553e-09	-3.946511e+01	-3.103384e+02
6.100000e-07	-5.566692e-06	-4.685549e-09	-3.890562e+01	-3.082611e+02
6.200000e-07	-5.485493e-06	-4.672685e-09	-3.833812e+01	-3.061465e+02
6.300000e-07	-5.403342e-06	-4.595273e-09	-3.776396e+01	-3.039948e+02
6.400000e-07	-5.320338e-06	-4.508908e-09	-3.718385e+01	-3.018058e+02
6.500000e-07	-5.236512e-06	-4.489570e-09	-3.659799e+01	-2.995781e+02
6.600000e-07	-5.151944e-06	-4.512219e-09	-3.600694e+01	-2.973095e+02
6.700000e-07	-5.066658e-06	-4.489185e-09	-3.541087e+01	-2.949974e+02
6.800000e-07	-4.980575e-06	-4.407123e-09	-3.480924e+01	-2.926387e+02
6.900000e-07	-4.893635e-06	-4.328357e-09	-3.420162e+01	-2.902303e+02
7.000000e-07	-4.805836e-06	-4.306280e-09	-3.358799e+01	-2.877690e+02
7.100000e-07	-4.717232e-06	-4.319600e-09	-3.296874e+01	-2.852522e+02
7.200000e-07	-4.627738e-06	-4.296976e-09	-3.234327e+01	-2.826776e+02
7.300000e-07	-4.537311e-06	-4.212006e-09	-3.171127e+01	-2.800435e+02
7.400000e-07	-4.445975e-06	-4.127861e-09	-3.107292e+01	-2.773489e+02
7.500000e-07	-4.353757e-06	-4.113926e-09	-3.042841e+01	-2.745933e+02
7.600000e-07	-4.260853e-06	-4.132213e-09	-2.977911e+01	-2.717768e+02
7.700000e-07	-4.167353e-06	-4.094510e-09	-2.912563e+01	-2.689000e+02
7.800000e-07	-4.073174e-06	-3.996505e-09	-2.846741e+01	-2.659637e+02
7.900000e-07	-3.978286e-06	-3.920136e-09	-2.780424e+01	-2.629686e+02
8.000000e-07	-3.882679e-06	-3.910920e-09	-2.713604e+01	-2.599156e+02
8.100000e-07	-3.786268e-06	-3.910193e-09	-2.646223e+01	-2.568052e+02
8.200000e-07	-3.689133e-06	-3.847449e-09	-2.578335e+01	-2.536373e+02
8.300000e-07	-3.591399e-06	-3.744126e-09	-2.510029e+01	-2.504116e+02
8.400000e-07	-3.492891e-06	-3.681397e-09	-2.441182e+01	-2.471269e+02
8.500000e-07	-3.393597e-06	-3.677485e-09	-2.371785e+01	-2.437818e+02
8.600000e-07	-3.293683e-06	-3.658937e-09	-2.301955e+01	-2.403739e+02
8.700000e-07	-3.193189e-06	-3.579779e-09	-2.231720e+01	-2.369008e+02
8.800000e-07	-3.092237e-06	-3.487836e-09	-2.161164e+01	-2.333595e+02
8.900000e-07	-2.990880e-06	-3.442656e-09	-2.090326e+01	-2.297470e+02
9.000000e-07	-2.889027e-06	-3.427742e-09	-2.019141e+01	-2.260600e+02
9.100000e-07	-2.786629e-06	-3.383184e-09	-1.947575e+01	-2.222957e+02
9.200000e-07	-2.683696e-06	-3.295777e-09	-1.875636e+01	-2.184511e+02
9.300000e-07	-2.580258e-06	-3.211453e-09	-1.803343e+01	-2.145240e+02
9.400000e-07	-2.476329e-06	-3.165057e-09	-1.730706e+01	-2.105122e+02
9.500000e-07	-2.371923e-06	-3.133321e-09	-1.657737e+01	-2.064143e+02
9.600000e-07	-2.267098e-06	-3.073569e-09	-1.584475e+01	-2.022290e+02
9.700000e-07	-2.161910e-06	-2.984340e-09	-1.510959e+01	-1.979556e+02
9.800000e-07	-2.056333e-06	-2.905156e-09	-1.437171e+01	-1.935934e+02
9.900000e-07	-1.950338e-06	-2.853503e-09	-1.363092e+01	-1.891421e+02
1.000000e-06	-1.844000e-06	-2.804307e-09	-1.288772e+01	-1.846014e+02
1.010000e-06	-1.737316e-06	-2.729576e-09	-1.214210e+01	-1.799709e+02
1.020000e-06	-1.630286e-06	-2.639282e-09	-1.139407e+01	-1.752501e+02
1.030000e-06	-1.522940e-06	-2.562063e-09	-1.064383e+01	-1.704382e+02
1.040000e-06	-1.415304e-06	-2.501708e-09	-9.891563e+00	-1.655341e+02
1.050000e-06	-1.307392e-06	-2.440289e-09	-9.137363e+00	-1.605367e+02
1.060000e-06	-1.199199e-06	-2.360570e-09	-8.381204e+00	-1.554441e+02
1.070000e-06	-1.090773e-06	-2.267458e-09	-7.623413e+00	-1.502547e+02
1.080000e-06	-9.821924e-07	-2.182307e-09	-6.864544e+00	-1.449663e+02
1.090000e-06	-8.734895e-07	-2.112549e-09	-6.104819e+00	-1.395767e+02
1.100000e-06	-7.646856e-07	-2.040387e-09	-5.344389e+00	-1.340838e+02
1.110000e-06	-6.557585e-07	-1.947558e-09	-4.583097e+00	-1.284851e+02
1.120000e-06	-5.466741e-07	-1.842652e-09	-3.820706e+00	-1.227786e+02
1.130000e-06	-4.375355e-07	-1.750152e-09	-3.057936e+00	-1.169619e+02
1.140000e-06	-3.283562e-07	-1.674762e-09	-2.294882e+00	-1.110327e+02
1.150000e-06	-2.191597e-07	-1.593645e-09	-1.531707e+00	-1.049887e+02
1.160000e-06	-1.099529e-07	-1.488936e-09	-7.684609e-01	-9.882734e+01
1.170000e-06	-7.048217e-10	-1.377446e-09	-4.925999e-03	-9.254591e+01
1.180000e-06	1.085120e-07	-1.285221e-09	7.583906e-01	-8.614124e+01
1.190000e-06	2.176813e-07	-1.202883e-09	1.521375e+00	-7.960978e+01
1.200000e-06	3.268819e-07	-1.105183e-09	2.284578e+00	-7.294749e+01
1.210000e-06	4.360816e-07	-9.875258e-10	3.047774e+00	-6.614985e+01
1.220000e-06	5.451569e-07	-8.716001e-10	3.810102e+00	-5.921192e+01
1.230000e-06	6.541928e-07	-7.740387e-10	4.572154e+00	-5.212852e+01
1.240000e-06	7.632199e-07	-6.799518e-10	5.334145e+00	-4.489440e+01
1.250000e-06	8.721306e-07	-5.678503e-10	6.095321e+00	-3.750459e+01
1.260000e-06	9.808671e-07	-4.397482e-10	6.855281e+00	-2.995478e+01
1.270000e-06	1.089436e-06	-3.177111e-10	7.614071e+00	-2.224175e+01
1.280000e-06	1.197861e-06	-2.084260e-10	8.371849e+00	-1.436388e+01
1.290000e-06	1.306036e-06	-9.414250e-11	9.127890e+00	-6.321614e+00
1.300000e-06	1.413951e-06	3.897441e-11	9.882102e+00	1.881991e+00
1.310000e-06	1.521607e-06	1.813004e-10	1.063451e+01	1.024088e+01
1.320000e-06	1.628924e-06	3.107736e-10	1.138455e+01	1.874561e+01
1.330000e-06	1.735852e-06	4.297357e-10	1.213187e+01	2.738311e+01
1.340000e-06	1.842469e-06	5.575215e-10	1.287702e+01	3.613661e+01
1.350000e-06	1.948745e-06	6.998081e-10	1.361978e+01	4.498564e+01
1.360000e-06	2.054567e-06	8.438452e-10	1.435937e+01	5.390628e+01
1.370000e-06	2.160013e-06	9.785018e-10	1.509633e+01	6.287157e+01
1.380000e-06	2.265071e-06	1.109761e-09	1.583059e+01	7.185205e+01
1.390000e-06	2.369696e-06	1.247253e-09	1.656181e+01	8.081647e+01
1.400000e-06	2.473923e-06	1.390521e-09	1.729025e+01	8.973260e+01
1.410000e-06	2.577763e-06	1.532199e-09	1.801599e+01	9.856814e+01
1.420000e-06	2.681099e-06	1.663392e-09	1.873820e+01	1.072916e+02
1.430000e-06	2.783892e-06	1.787670e-09	1.945662e+01	1.158734e+02
1.440000e-06	2.886226e-06	1.915407e-09	2.017184e+01	1.242863e+02
1.450000e-06	2.988075e-06	2.044099e-09	2.088366e+01	1.325068e+02
1.460000e-06	3.089407e-06	2.167439e-09	2.159187e+01	1.405150e+02
1.470000e-06	3.190284e-06	2.279381e-09	2.229690e+01	1.482956e+02
1.480000e-06	3.290654e-06	2.387873e-09	2.299838e+01	1.558380e+02
1.490000e-06	3.390430e-06	2.500539e-09	2.369572e+01	1.631362e+02
1.500000e-06	3.489565e-06	2.612431e-09	2.438857e+01	1.701887e+02
1.510000e-06	3.587938e-06	2.717653e-09	2.507610e+01	1.769980e+02
1.520000e-06	3.685617e-06	2.813017e-09	2.575878e+01	1.835704e+02
1.530000e-06	3.782643e-06	2.905195e-09	2.643690e+01	1.899150e+02
1.540000e-06	3.878970e-06	3.000613e-09	2.711013e+01	1.960432e+02
1.550000e-06	3.974548e-06	3.094241e-09	2.777812e+01	2.019676e+02
1.560000e-06	4.069382e-06	3.179045e-09	2.844091e+01	2.077014e+02
1.570000e-06	4.163561e-06	3.257042e-09	2.909913e+01	2.132579e+02
1.580000e-06	4.257091e-06	3.336857e-09	2.975281e+01	2.186494e+02
1.590000e-06	4.349911e-06	3.419480e-09	3.040153e+01	2.238869e+02
1.600000e-06	4.441991e-06	3.500147e-09	3.104508e+01	2.289798e+02
1.610000e-06	4.533277e-06	3.574552e-09	3.168307e+01	2.339357e+02
1.620000e-06	4.623661e-06	3.643218e-09	3.231477e+01	2.387600e+02
1.630000e-06	4.713174e-06	3.711010e-09	3.294037e+01	2.434564e+02
1.640000e-06	4.801791e-06	3.781372e-09	3.355972e+01	2.480272e+02
1.650000e-06	4.889480e-06	3.851042e-09	3.417258e+01	2.524732e+02
1.660000e-06	4.976338e-06	3.911851e-09	3.477963e+01	2.567944e+02
1.670000e-06	5.062380e-06	3.968397e-09	3.538098e+01	2.609906e+02
1.680000e-06	5.147582e-06	4.028523e-09	3.597646e+01	2.650613e+02
1.690000e-06	5.231980e-06	4.090894e-09	3.656631e+01	2.690066e+02
1.700000e-06	5.315554e-06	4.148816e-09	3.715041e+01	2.728274e+02
1.710000e-06	5.398242e-06	4.200638e-09	3.772832e+01	2.765254e+02
1.720000e-06	5.479982e-06	4.251457e-09	3.829960e+01	2.801034e+02
1.730000e-06	5.560692e-06	4.303546e-09	3.886368e+01	2.835652e+02
1.740000e-06	5.640366e-06	4.356096e-09	3.942052e+01	2.869157e+02
1.750000e-06	5.719049e-06	4.403475e-09	3.997044e+01	2.901602e+02
1.760000e-06	5.796716e-06	4.445084e-09	4.051325e+01	2.933046e+02
1.770000e-06	5.873350e-06	4.485413e-09	4.104885e+01	2.963549e+02
1.780000e-06	5.948862e-06	4.526492e-09	4.157660e+01	2.993167e+02
1.790000e-06	6.023170e-06	4.569969e-09	4.209594e+01	3.021951e+02
1.800000e-06	6.096328e-06	4.612545e-09	4.260724e+01	3.049942e+02
1.810000e-06	6.168334e-06	4.651772e-09	4.311049e+01	3.077172e+02
1.820000e-06	6.239211e-06	4.688357e-09	4.360585e+01	3.103658e+02
1.830000e-06	6.308978e-06	4.727034e-09	4.409345e+01	3.129407e+02
1.840000e-06	6.377702e-06	4.767697e-09	4.457377e+01	3.154414e+02
1.850000e-06	6.445453e-06	4.801310e-09	4.504728e+01	3.178663e+02
1.860000e-06	6.512024e-06	4.831482e-09	4.551254e+01	3.202135e+02
1.870000e-06	6.577231e-06	4.860973e-09	4.596827e+01	3.224804e+02
1.880000e-06	6.641174e-06	4.890295e-09	4.641517e+01	3.246646e+02
1.890000e-06	6.704017e-06	4.920587e-09	4.685438e+01	3.267641e+02
1.900000e-06	6.765782e-06	4.948723e-09	4.728606e+01	3.287775e+02
1.910000e-06	6.826494e-06	4.978990e-09	4.771037e+01	3.307047e+02
1.920000e-06	6.886183e-06	5.008133e-09	4.812754e+01	3.325466e+02
1.930000e-06	6.944593e-06	5.035696e-09	4.853577e+01	3.343053e+02
1.940000e-06	7.001520e-06	5.062297e-09	4.893363e+01	3.359845e+02
1.950000e-06	7.057108e-06	5.086955e-09	4.932213e+01	3.375889e+02
1.960000e-06	7.111546e-06	5.110517e-09	4.970260e+01	3.391242e+02
1.970000e-06	7.164782e-06	5.131062e-09	5.007467e+01	3.405965e+02
1.980000e-06	7.216609e-06	5.151817e-09	5.043688e+01	3.420125e+02
1.990000e-06	7.266829e-06	5.173408e-09	5.078787e+01	3.433786e+02
2.000000e-06	7.315430e-06	5.195899e-09	5.112755e+01	3.447007e+02
2.010000e-06	7.362621e-06	5.217861e-09	5.145736e+01	3.459836e+02
2.020000e-06	7.408586e-06	5.238171e-09	5.177861e+01	3.472313e+02
2.030000e-06	7.453364e-06	5.260734e-09	5.209156e+01	3.484461e+02
2.040000e-06	7.496995e-06	5.283398e-09	5.239651e+01	3.496288e+02
2.050000e-06	7.539322e-06	5.302593e-09	5.269233e+01	3.507788e+02
2.060000e-06	7.580067e-06	5.317111e-09	5.297709e+01	3.518943e+02
2.070000e-06	7.619407e-06	5.328332e-09	5.325204e+01	3.529722e+02
2.080000e-06	7.657503e-06	5.341814e-09	5.351829e+01	3.540088e+02
2.090000e-06	7.694332e-06	5.355727e-09	5.377570e+01	3.549999e+02
2.100000e-06	7.730032e-06	5.367841e-09	5.402520e+01	3.559415e+02
2.110000e-06	7.764391e-06	5.380631e-09	5.426533e+01	3.568301e+02
2.120000e-06	7.797115e-06	5.396588e-09	5.449405e+01	3.576631e+02
2.130000e-06	7.828450e-06	5.415485e-09	5.471304e+01	3.584391e+02
2.140000e-06	7.858530e-06	5.431380e-09	5.492328e+01	3.591582e+02
2.150000e-06	7.887304e-06	5.441433e-09	5.512437e+01	3.598219e+02
2.160000e-06	7.914862e-06	5.449467e-09	5.531697e+01	3.604334e+02
2.170000e-06	7.940905e-06	5.458127e-09	5.549899e+01	3.609969e+02
2.180000e-06	7.965292e-06	5.466612e-09	5.566943e+01	3.615179e+02
2.190000e-06	7.988260e-06	5.473335e-09	5.582995e+01	3.620025e+02
2.200000e-06	8.009908e-06	5.478759e-09	5.598125e+01	3.624569e+02
2.210000e-06	8.030306e-06	5.484390e-09	5.612382e+01	3.628870e+02
2.220000e-06	8.049431e-06	5.493271e-09	5.625748e+01	3.632978e+02
2.230000e-06	8.067108e-06	5.503763e-09	5.638103e+01	3.636933e+02
2.240000e-06	8.083226e-06	5.510943e-09	5.649368e+01	3.640755e+02
2.250000e-06	8.097852e-06	5.513782e-09	5.659589e+01	3.644449e+02
2.260000e-06	8.111012e-06	5.516176e-09	5.668787e+01	3.647997e+02
2.270000e-06	8.122666e-06	5.519913e-09	5.676932e+01	3.651362e+02
2.280000e-06	8.132556e-06	5.522798e-09	5.683844e+01	3.654493e+02
2.290000e-06	8.140779e-06	5.524585e-09	5.689591e+01	3.657321e+02
2.300000e-06	8.147658e-06	5.526577e-09	5.694399e+01	3.659770e+02
2.310000e-06	8.153195e-06	5.529626e-09	5.698269e+01	3.661761e+02
2.320000e-06	8.157425e-06	5.532614e-09	5.701225e+01	3.663218e+02
2.330000e-06	8.160329e-06	5.535669e-09	5.703254e+01	3.664074e+02
2.340000e-06	8.161610e-06	5.537022e-09	5.704150e+01	3.664281e+02
2.350000e-06	8.161347e-06	5.535108e-09	5.703966e+01	3.663807e+02
2.360000e-06	8.159771e-06	5.531523e-09	5.702865e+01	3.662650e+02
2.370000e-06	8.156901e-06	5.529025e-09	5.700859e+01	3.660833e+02
2.380000e-06	8.152880e-06	5.523031e-09	5.698048e+01	3.658408e+02
2.390000e-06	8.147500e-06	5.517299e-09	5.694289e+01	3.655454e+02
2.400000e-06	8.140474e-06	5.514323e-09	5.689378e+01	3.652074e+02
2.410000e-06	8.132126e-06	5.517494e-09	5.683543e+01	3.648387e+02
2.420000e-06	8.122644e-06	5.524782e-09	5.676917e+01	3.644528e+02
2.430000e-06	8.111896e-06	5.498206e-09	5.669405e+01	3.640631e+02
2.440000e-06	8.099590e-06	5.476700e-09	5.660804e+01	3.636831e+02
2.450000e-06	8.085011e-06	5.465013e-09	5.650615e+01	3.633246e+02
2.460000e-06	8.068249e-06	5.450126e-09	5.638900e+01	3.629976e+02
2.470000e-06	8.049944e-06	5.493551e-09	5.626107e+01	3.627095e+02
2.480000e-06	8.030718e-06	5.532685e-09	5.612669e+01	3.624640e+02
2.490000e-06	8.010936e-06	5.533983e-09	5.598844e+01	3.622616e+02
2.500000e-06	7.989730e-06	5.522240e-09	5.584023e+01	3.620988e+02
2.510000e-06	7.966523e-06	5.383761e-09	5.567804e+01	3.619685e+02
2.520000e-06	7.942168e-06	5.334124e-09	5.550782e+01	3.618604e+02
2.530000e-06	7.916619e-06	5.473754e-09	5.532926e+01	3.617610e+02
2.540000e-06	7.889494e-06	5.547030e-09	5.513968e+01	3.616549e+02
2.550000e-06	7.861157e-06	5.482276e-09	5.494163e+01	3.615253e+02
2.560000e-06	7.831312e-06	5.407964e-09	5.473305e+01	3.613549e+02
2.570000e-06	7.799878e-06	5.536371e-09	5.451336e+01	3.611269e+02
2.580000e-06	7.767157e-06	5.833828e-09	5.428467e+01	3.608259e+02
2.590000e-06	7.733013e-06	5.825735e-09	5.404604e+01	3.604387e+02
2.600000e-06	7.697649e-06	5.540609e-09	5.379887e+01	3.599549e+02
2.610000e-06	7.661088e-06	5.378745e-09	5.354335e+01	3.593673e+02
2.620000e-06	7.622865e-06	5.375689e-09	5.327621e+01	3.586726e+02
2.630000e-06	7.583058e-06	5.606455e-09	5.299800e+01	3.578711e+02
2.640000e-06	7.541952e-06	5.736850e-09	5.271071e+01	3.569667e+02
2.650000e-06	7.499666e-06	5.461140e-09	5.241518e+01	3.559662e+02
2.660000e-06	7.456105e-06	5.131824e-09	5.211073e+01	3.548796e+02
2.670000e-06	7.411390e-06	5.257065e-09	5.179821e+01	3.537186e+02
2.680000e-06	7.365549e-06	5.665094e-09	5.147783e+01	3.524961e+02
2.690000e-06	7.318132e-06	5.627300e-09	5.114643e+01	3.512257e+02
2.700000e-06	7.269230e-06	5.230883e-09	5.080466e+01	3.499204e+02
2.710000e-06	7.219113e-06	5.111880e-09	5.045439e+01	3.485924e+02
2.720000e-06	7.167782e-06	5.349922e-09	5.009564e+01	3.472521e+02
2.730000e-06	7.115001e-06	5.547584e-09	4.972675e+01	3.459074e+02
2.740000e-06	7.060507e-06	5.401490e-09	4.934589e+01	3.445642e+02
2.750000e-06	7.004566e-06	5.174607e-09	4.895492e+01	3.432253e+02
2.760000e-06	6.947400e-06	5.129033e-09	4.855538e+01	3.418910e+02
2.770000e-06	6.889035e-06	5.253461e-09	4.814747e+01	3.405590e+02
2.780000e-06	6.829548e-06	5.383016e-09	4.773171e+01	3.392250e+02
2.790000e-06	6.768985e-06	5.289968e-09	4.730844e+01	3.378829e+02
2.800000e-06	6.707205e-06	5.076061e-09	4.687666e+01	3.365255e+02
2.810000e-06	6.643982e-06	5.005290e-09	4.643480e+01	3.351448e+02
2.820000e-06	6.579554e-06	5.161212e-09	4.598451e+01	3.337330e+02
2.830000e-06	6.514101e-06	5.268283e-09	4.552706e+01	3.322826e+02
2.840000e-06	6.447469e-06	5.130006e-09	4.506137e+01	3.307870e+02
2.850000e-06	6.379643e-06	4.939124e-09	4.458733e+01	3.292409e+02
2.860000e-06	6.310730e-06	4.943644e-09	4.410570e+01	3.276405e+02
2.870000e-06	6.240627e-06	5.085458e-09	4.361575e+01	3.259834e+02
2.880000e-06	6.169198e-06	5.097251e-09	4.311653e+01	3.242689e+02
2.890000e-06	6.096594e-06	4.966240e-09	4.260910e+01	3.224976e+02
2.900000e-06	6.022975e-06	4.865501e-09	4.209458e+01	3.206714e+02
2.910000e-06	5.948327e-06	4.871555e-09	4.157286e+01	3.187928e+02
2.920000e-06	5.872521e-06	4.908667e-09	4.104306e+01	3.168651e+02
2.930000e-06	5.795496e-06	4.905996e-09	4.050473e+01	3.148916e+02
2.940000e-06	5.717195e-06	4.842424e-09	3.995748e+01	3.128755e+02
