# Temperatura_=_20.0
# Concentracion g/m^3_=_12600.0
# C_Vs_to_Am_M_A/Vsm_=_65563218390.804596
# pendiente_HvsI_1/m_=_3716.3
# ordenada_HvsI_A/m_=_1297.0
# frecuencia_Hz_=_213202.86872790672

Tiempo_(s)	Campo_(V.s)	Magnetizacion_(V.s)	Campo_(kA/m)	Magnetizacion_(A/m)
0.000000e+00	-8.156324e-06	-5.490808e-09	-5.680464e+01	-3.560385e+02
1.000000e-08	-8.155967e-06	-5.486100e-09	-5.680215e+01	-3.559708e+02
2.000000e-08	-8.154079e-06	-5.479678e-09	-5.678900e+01	-3.557971e+02
3.000000e-08	-8.150675e-06	-5.480776e-09	-5.676529e+01	-3.555209e+02
4.000000e-08	-8.146014e-06	-5.483718e-09	-5.673283e+01	-3.551512e+02
5.000000e-08	-8.140121e-06	-5.483074e-09	-5.669179e+01	-3.547036e+02
6.000000e-08	-8.133003e-06	-5.479992e-09	-5.664222e+01	-3.541987e+02
7.000000e-08	-8.124531e-06	-5.477412e-09	-5.658321e+01	-3.536615e+02
8.000000e-08	-8.114412e-06	-5.481325e-09	-5.651274e+01	-3.531201e+02
9.000000e-08	-8.102633e-06	-5.500607e-09	-5.643070e+01	-3.526040e+02
1.000000e-07	-8.089023e-06	-5.445059e-09	-5.633592e+01	-3.521420e+02
1.100000e-07	-8.073379e-06	-5.430556e-09	-5.622697e+01	-3.517610e+02
1.200000e-07	-8.056070e-06	-5.474962e-09	-5.610642e+01	-3.514833e+02
1.300000e-07	-8.037400e-06	-5.444349e-09	-5.597639e+01	-3.513259e+02
1.400000e-07	-8.017584e-06	-5.448119e-09	-5.583838e+01	-3.512985e+02
1.500000e-07	-7.996778e-06	-5.405885e-09	-5.569348e+01	-3.514030e+02
1.600000e-07	-7.974751e-06	-5.261713e-09	-5.554007e+01	-3.516332e+02
1.700000e-07	-7.951515e-06	-5.507532e-09	-5.537824e+01	-3.519744e+02
1.800000e-07	-7.926923e-06	-5.545154e-09	-5.520698e+01	-3.524042e+02
1.900000e-07	-7.900616e-06	-5.339806e-09	-5.502376e+01	-3.528936e+02
2.000000e-07	-7.872863e-06	-5.384284e-09	-5.483047e+01	-3.534087e+02
2.100000e-07	-7.843917e-06	-5.226059e-09	-5.462888e+01	-3.539118e+02
2.200000e-07	-7.813675e-06	-5.343415e-09	-5.441826e+01	-3.543644e+02
2.300000e-07	-7.782112e-06	-5.615465e-09	-5.419844e+01	-3.547282e+02
2.400000e-07	-7.749063e-06	-5.302886e-09	-5.396827e+01	-3.549683e+02
2.500000e-07	-7.714468e-06	-5.047343e-09	-5.372733e+01	-3.550540e+02
2.600000e-07	-7.678551e-06	-5.259420e-09	-5.347719e+01	-3.549613e+02
2.700000e-07	-7.641281e-06	-5.462757e-09	-5.321762e+01	-3.546735e+02
2.800000e-07	-7.602620e-06	-5.517104e-09	-5.294837e+01	-3.541824e+02
2.900000e-07	-7.562730e-06	-5.249759e-09	-5.267055e+01	-3.534882e+02
3.000000e-07	-7.521478e-06	-5.047243e-09	-5.238326e+01	-3.525994e+02
3.100000e-07	-7.478696e-06	-5.221150e-09	-5.208531e+01	-3.515320e+02
3.200000e-07	-7.434517e-06	-5.481053e-09	-5.177762e+01	-3.503084e+02
3.300000e-07	-7.389056e-06	-5.415341e-09	-5.146101e+01	-3.489560e+02
3.400000e-07	-7.342217e-06	-5.056753e-09	-5.113479e+01	-3.475049e+02
3.500000e-07	-7.293899e-06	-4.981024e-09	-5.079828e+01	-3.459866e+02
3.600000e-07	-7.243994e-06	-5.192883e-09	-5.045072e+01	-3.444319e+02
3.700000e-07	-7.192443e-06	-5.345343e-09	-5.009170e+01	-3.428690e+02
3.800000e-07	-7.139458e-06	-5.221082e-09	-4.972268e+01	-3.413220e+02
3.900000e-07	-7.085169e-06	-4.930892e-09	-4.934459e+01	-3.398098e+02
4.000000e-07	-7.029662e-06	-4.929959e-09	-4.895801e+01	-3.383452e+02
4.100000e-07	-6.973030e-06	-5.148856e-09	-4.856359e+01	-3.369344e+02
4.200000e-07	-6.915112e-06	-5.215839e-09	-4.816023e+01	-3.355773e+02
4.300000e-07	-6.855846e-06	-5.047999e-09	-4.774747e+01	-3.342676e+02
4.400000e-07	-6.795324e-06	-4.865448e-09	-4.732596e+01	-3.329937e+02
4.500000e-07	-6.733620e-06	-4.906367e-09	-4.689623e+01	-3.317403e+02
4.600000e-07	-6.670806e-06	-5.051598e-09	-4.645876e+01	-3.304889e+02
4.700000e-07	-6.606891e-06	-5.078298e-09	-4.601362e+01	-3.292199e+02
4.800000e-07	-6.541771e-06	-4.924754e-09	-4.556010e+01	-3.279139e+02
4.900000e-07	-6.475262e-06	-4.795264e-09	-4.509690e+01	-3.265527e+02
5.000000e-07	-6.407467e-06	-4.834680e-09	-4.462474e+01	-3.251211e+02
5.100000e-07	-6.338674e-06	-4.932331e-09	-4.414563e+01	-3.236071e+02
5.200000e-07	-6.268912e-06	-4.916944e-09	-4.365978e+01	-3.220031e+02
5.300000e-07	-6.198060e-06	-4.776958e-09	-4.316633e+01	-3.203056e+02
5.400000e-07	-6.126038e-06	-4.682902e-09	-4.266473e+01	-3.185156e+02
5.500000e-07	-6.052888e-06	-4.712209e-09	-4.215528e+01	-3.166381e+02
5.600000e-07	-5.978602e-06	-4.773346e-09	-4.163791e+01	-3.146812e+02
5.700000e-07	-5.903102e-06	-4.736488e-09	-4.111209e+01	-3.126554e+02
5.800000e-07	-5.826307e-06	-4.639151e-09	-4.057726e+01	-3.105726e+02
5.900000e-07	-5.748274e-06	-4.584258e-09	-4.003380e+01	-3.084451e+02
6.000000e-07	-5.669164e-06	-4.585563e-09	-3.948283e+01	-3.062845e+02
6.100000e-07	-5.588941e-06	-4.610364e-09	-3.892412e+01	-3.041007e+02
6.200000e-07	-5.507616e-06	-4.588554e-09	-3.835774e+01	-3.019013e+02
6.300000e-07	-5.425321e-06	-4.507865e-09	-3.778459e+01	-2.996913e+02
6.400000e-07	-5.342129e-06	-4.423522e-09	-3.720520e+01	-2.974723e+02
6.500000e-07	-5.258080e-06	-4.410294e-09	-3.661985e+01	-2.952428e+02
6.600000e-07	-5.173284e-06	-4.436053e-09	-3.602929e+01	-2.929985e+02
6.700000e-07	-5.087774e-06	-4.405575e-09	-3.543375e+01	-2.907327e+02
6.800000e-07	-5.001438e-06	-4.317572e-09	-3.483246e+01	-2.884369e+02
6.900000e-07	-4.914164e-06	-4.241114e-09	-3.422465e+01	-2.861013e+02
7.000000e-07	-4.825961e-06	-4.231344e-09	-3.361035e+01	-2.837162e+02
7.100000e-07	-4.736949e-06	-4.247132e-09	-3.299044e+01	-2.812720e+02
7.200000e-07	-4.647077e-06	-4.211778e-09	-3.236452e+01	-2.787607e+02
7.300000e-07	-4.556268e-06	-4.120767e-09	-3.173208e+01	-2.761756e+02
7.400000e-07	-4.464596e-06	-4.045708e-09	-3.109364e+01	-2.735126e+02
7.500000e-07	-4.372129e-06	-4.042675e-09	-3.044964e+01	-2.707698e+02
7.600000e-07	-4.278974e-06	-4.058034e-09	-2.980087e+01	-2.679474e+02
7.700000e-07	-4.185202e-06	-4.008352e-09	-2.914780e+01	-2.650481e+02
7.800000e-07	-4.090682e-06	-3.910660e-09	-2.848952e+01	-2.620763e+02
7.900000e-07	-3.995392e-06	-3.842909e-09	-2.782587e+01	-2.590375e+02
8.000000e-07	-3.899333e-06	-3.836452e-09	-2.715687e+01	-2.559381e+02
8.100000e-07	-3.802498e-06	-3.830475e-09	-2.648246e+01	-2.527843e+02
8.200000e-07	-3.704970e-06	-3.761136e-09	-2.580323e+01	-2.495818e+02
8.300000e-07	-3.606802e-06	-3.660563e-09	-2.511954e+01	-2.463353e+02
8.400000e-07	-3.507947e-06	-3.601509e-09	-2.443106e+01	-2.430477e+02
8.500000e-07	-3.408439e-06	-3.597911e-09	-2.373804e+01	-2.397201e+02
8.600000e-07	-3.308229e-06	-3.579825e-09	-2.304013e+01	-2.363515e+02
8.700000e-07	-3.207328e-06	-3.501543e-09	-2.233740e+01	-2.329390e+02
8.800000e-07	-3.106018e-06	-3.410805e-09	-2.163183e+01	-2.294778e+02
8.900000e-07	-3.004266e-06	-3.365057e-09	-2.092318e+01	-2.259616e+02
9.000000e-07	-2.901979e-06	-3.354452e-09	-2.021080e+01	-2.223830e+02
9.100000e-07	-2.799188e-06	-3.313967e-09	-1.949491e+01	-2.187343e+02
9.200000e-07	-2.695913e-06	-3.224303e-09	-1.877566e+01	-2.150076e+02
9.300000e-07	-2.592143e-06	-3.137326e-09	-1.805295e+01	-2.111954e+02
9.400000e-07	-2.487740e-06	-3.093513e-09	-1.732584e+01	-2.072916e+02
9.500000e-07	-2.382770e-06	-3.070299e-09	-1.659478e+01	-2.032911e+02
9.600000e-07	-2.277422e-06	-3.013916e-09	-1.586108e+01	-1.991903e+02
9.700000e-07	-2.171765e-06	-2.920098e-09	-1.512523e+01	-1.949877e+02
9.800000e-07	-2.065761e-06	-2.838541e-09	-1.438697e+01	-1.906830e+02
9.900000e-07	-1.959369e-06	-2.792033e-09	-1.364601e+01	-1.862776e+02
1.000000e-06	-1.852673e-06	-2.749929e-09	-1.290293e+01	-1.817741e+02
1.010000e-06	-1.745659e-06	-2.674555e-09	-1.215763e+01	-1.771758e+02
1.020000e-06	-1.638353e-06	-2.579920e-09	-1.141030e+01	-1.724864e+02
1.030000e-06	-1.530736e-06	-2.502215e-09	-1.066079e+01	-1.677097e+02
1.040000e-06	-1.422743e-06	-2.445211e-09	-9.908681e+00	-1.628486e+02
1.050000e-06	-1.314445e-06	-2.388427e-09	-9.154441e+00	-1.579056e+02
1.060000e-06	-1.205904e-06	-2.310131e-09	-8.398506e+00	-1.528818e+02
1.070000e-06	-1.097114e-06	-2.216150e-09	-7.640842e+00	-1.477770e+02
1.080000e-06	-9.881483e-07	-2.133130e-09	-6.881949e+00	-1.425895e+02
1.090000e-06	-8.790836e-07	-2.065101e-09	-6.122369e+00	-1.373164e+02
1.100000e-06	-7.699160e-07	-1.995132e-09	-5.362072e+00	-1.319533e+02
1.110000e-06	-6.606563e-07	-1.904623e-09	-4.601134e+00	-1.264950e+02
1.120000e-06	-5.513066e-07	-1.801331e-09	-3.839569e+00	-1.209354e+02
1.130000e-06	-4.418835e-07	-1.710026e-09	-3.077493e+00	-1.152679e+02
1.140000e-06	-3.323755e-07	-1.635618e-09	-2.314826e+00	-1.094858e+02
1.150000e-06	-2.228083e-07	-1.557994e-09	-1.551746e+00	-1.035827e+02
1.160000e-06	-1.131975e-07	-1.455956e-09	-7.883629e-01	-9.755235e+01
1.170000e-06	-3.553132e-09	-1.346437e-09	-2.474575e-02	-9.138918e+01
1.180000e-06	1.060891e-07	-1.254034e-09	7.388568e-01	-8.508831e+01
1.190000e-06	2.157043e-07	-1.173372e-09	1.502270e+00	-7.864556e+01
1.200000e-06	3.252438e-07	-1.079059e-09	2.265157e+00	-7.205748e+01
1.210000e-06	4.347241e-07	-9.622626e-10	3.027631e+00	-6.532129e+01
1.220000e-06	5.441804e-07	-8.469786e-10	3.789939e+00	-5.843476e+01
1.230000e-06	6.535738e-07	-7.508903e-10	4.551808e+00	-5.139619e+01
1.240000e-06	7.628936e-07	-6.592447e-10	5.313165e+00	-4.420435e+01
1.250000e-06	8.721300e-07	-5.482018e-10	6.073941e+00	-3.685846e+01
1.260000e-06	9.812379e-07	-4.212212e-10	6.833822e+00	-2.935832e+01
1.270000e-06	1.090231e-06	-3.017381e-10	7.592902e+00	-2.170445e+01
1.280000e-06	1.199060e-06	-1.965279e-10	8.350841e+00	-1.389836e+01
1.290000e-06	1.307627e-06	-8.489968e-11	9.106957e+00	-5.942854e+00
1.300000e-06	1.415950e-06	4.542558e-11	9.861366e+00	2.157572e+00
1.310000e-06	1.524007e-06	1.865620e-10	1.061393e+01	1.039632e+01
1.320000e-06	1.631732e-06	3.156005e-10	1.136418e+01	1.876427e+01
1.330000e-06	1.739095e-06	4.336586e-10	1.211191e+01	2.724942e+01
1.340000e-06	1.846041e-06	5.612203e-10	1.285673e+01	3.583663e+01
1.350000e-06	1.952538e-06	7.027494e-10	1.359843e+01	4.450740e+01
1.360000e-06	2.058648e-06	8.439023e-10	1.433743e+01	5.323993e+01
1.370000e-06	2.164483e-06	9.733686e-10	1.507452e+01	6.200922e+01
1.380000e-06	2.270043e-06	1.100124e-09	1.580969e+01	7.078751e+01
1.390000e-06	2.375259e-06	1.233304e-09	1.654247e+01	7.954479e+01
1.400000e-06	2.480028e-06	1.372597e-09	1.727213e+01	8.824949e+01
1.410000e-06	2.584285e-06	1.508530e-09	1.799823e+01	9.686943e+01
1.420000e-06	2.688037e-06	1.634223e-09	1.872080e+01	1.053727e+02
1.430000e-06	2.791233e-06	1.754020e-09	1.943951e+01	1.137288e+02
1.440000e-06	2.893833e-06	1.876846e-09	2.015407e+01	1.219096e+02
1.450000e-06	2.995894e-06	2.001490e-09	2.086487e+01	1.298902e+02
1.460000e-06	3.097559e-06	2.120433e-09	2.157292e+01	1.376497e+02
1.470000e-06	3.198829e-06	2.226953e-09	2.227821e+01	1.451724e+02
1.480000e-06	3.299564e-06	2.329189e-09	2.297978e+01	1.524474e+02
1.490000e-06	3.399661e-06	2.435139e-09	2.367691e+01	1.594693e+02
1.500000e-06	3.499076e-06	2.542092e-09	2.436928e+01	1.662379e+02
1.510000e-06	3.597849e-06	2.640159e-09	2.505718e+01	1.727581e+02
1.520000e-06	3.695984e-06	2.729313e-09	2.574064e+01	1.790389e+02
1.530000e-06	3.793500e-06	2.818822e-09	2.641979e+01	1.850929e+02
1.540000e-06	3.890291e-06	2.910980e-09	2.709389e+01	1.909352e+02
1.550000e-06	3.986195e-06	2.999874e-09	2.776181e+01	1.965823e+02
1.560000e-06	4.081359e-06	3.080573e-09	2.842459e+01	2.020514e+02
1.570000e-06	4.175886e-06	3.156777e-09	2.908292e+01	2.073590e+02
1.580000e-06	4.269706e-06	3.236395e-09	2.973632e+01	2.125199e+02
1.590000e-06	4.362779e-06	3.317385e-09	3.038453e+01	2.175470e+02
1.600000e-06	4.455192e-06	3.394153e-09	3.102814e+01	2.224502e+02
1.610000e-06	4.546907e-06	3.465308e-09	3.166689e+01	2.272365e+02
1.620000e-06	4.637669e-06	3.531503e-09	3.229900e+01	2.319098e+02
1.630000e-06	4.727549e-06	3.598547e-09	3.292496e+01	2.364712e+02
1.640000e-06	4.816677e-06	3.665278e-09	3.354570e+01	2.409191e+02
1.650000e-06	4.904816e-06	3.728121e-09	3.415954e+01	2.452505e+02
1.660000e-06	4.991911e-06	3.785966e-09	3.476611e+01	2.494610e+02
1.670000e-06	5.078180e-06	3.840920e-09	3.536693e+01	2.535459e+02
1.680000e-06	5.163684e-06	3.899459e-09	3.596243e+01	2.575011e+02
1.690000e-06	5.248359e-06	3.956473e-09	3.655214e+01	2.613236e+02
1.700000e-06	5.332152e-06	4.009809e-09	3.713572e+01	2.650122e+02
1.710000e-06	5.415085e-06	4.061762e-09	3.771331e+01	2.685677e+02
1.720000e-06	5.497174e-06	4.111938e-09	3.828501e+01	2.719935e+02
1.730000e-06	5.578264e-06	4.161093e-09	3.884976e+01	2.752952e+02
1.740000e-06	5.658272e-06	4.208275e-09	3.940698e+01	2.784806e+02
1.750000e-06	5.737237e-06	4.253475e-09	3.995693e+01	2.815590e+02
1.760000e-06	5.815131e-06	4.295051e-09	4.049942e+01	2.845410e+02
1.770000e-06	5.892002e-06	4.333911e-09	4.103478e+01	2.874375e+02
1.780000e-06	5.967855e-06	4.374451e-09	4.156306e+01	2.902590e+02
1.790000e-06	6.042550e-06	4.416602e-09	4.208328e+01	2.930149e+02
1.800000e-06	6.116026e-06	4.456889e-09	4.259500e+01	2.957132e+02
1.810000e-06	6.188268e-06	4.494047e-09	4.309813e+01	2.983590e+02
1.820000e-06	6.259338e-06	4.531148e-09	4.359310e+01	3.009555e+02
1.830000e-06	6.329358e-06	4.569601e-09	4.408075e+01	3.035026e+02
1.840000e-06	6.398363e-06	4.607194e-09	4.456133e+01	3.059979e+02
1.850000e-06	6.466266e-06	4.639400e-09	4.503425e+01	3.084364e+02
1.860000e-06	6.532960e-06	4.668133e-09	4.549874e+01	3.108116e+02
1.870000e-06	6.598435e-06	4.698111e-09	4.595473e+01	3.131155e+02
1.880000e-06	6.662663e-06	4.728222e-09	4.640205e+01	3.153399e+02
1.890000e-06	6.725745e-06	4.756998e-09	4.684138e+01	3.174768e+02
1.900000e-06	6.787781e-06	4.783349e-09	4.727343e+01	3.195196e+02
1.910000e-06	6.848756e-06	4.811220e-09	4.769809e+01	3.214634e+02
1.920000e-06	6.908641e-06	4.839523e-09	4.811516e+01	3.233059e+02
1.930000e-06	6.967323e-06	4.866715e-09	4.852385e+01	3.250475e+02
1.940000e-06	7.024626e-06	4.892390e-09	4.892294e+01	3.266915e+02
1.950000e-06	7.080537e-06	4.916750e-09	4.931233e+01	3.282442e+02
1.960000e-06	7.135200e-06	4.938212e-09	4.969303e+01	3.297143e+02
1.970000e-06	7.188656e-06	4.957590e-09	5.006532e+01	3.311122e+02
1.980000e-06	7.240763e-06	4.978186e-09	5.042822e+01	3.324500e+02
1.990000e-06	7.291310e-06	4.999348e-09	5.078025e+01	3.337399e+02
2.000000e-06	7.340275e-06	5.020273e-09	5.112127e+01	3.349937e+02
2.010000e-06	7.387782e-06	5.039296e-09	5.145213e+01	3.362218e+02
2.020000e-06	7.433949e-06	5.057628e-09	5.177366e+01	3.374326e+02
2.030000e-06	7.478847e-06	5.078900e-09	5.208635e+01	3.386317e+02
2.040000e-06	7.522561e-06	5.101909e-09	5.239080e+01	3.398218e+02
2.050000e-06	7.565014e-06	5.120505e-09	5.268647e+01	3.410020e+02
2.060000e-06	7.605924e-06	5.132692e-09	5.297138e+01	3.421686e+02
2.070000e-06	7.645382e-06	5.142586e-09	5.324618e+01	3.433150e+02
2.080000e-06	7.683641e-06	5.156677e-09	5.351264e+01	3.444324e+02
2.090000e-06	7.720724e-06	5.171416e-09	5.377090e+01	3.455104e+02
2.100000e-06	7.756603e-06	5.183218e-09	5.402078e+01	3.465385e+02
2.110000e-06	7.791118e-06	5.193745e-09	5.426116e+01	3.475062e+02
2.120000e-06	7.824090e-06	5.208836e-09	5.449079e+01	3.484047e+02
2.130000e-06	7.855578e-06	5.228366e-09	5.471010e+01	3.492274e+02
2.140000e-06	7.885748e-06	5.245038e-09	5.492021e+01	3.499706e+02
2.150000e-06	7.914654e-06	5.255196e-09	5.512153e+01	3.506336e+02
2.160000e-06	7.942307e-06	5.262744e-09	5.531412e+01	3.512198e+02
2.170000e-06	7.968423e-06	5.272288e-09	5.549600e+01	3.517355e+02
2.180000e-06	7.992894e-06	5.280043e-09	5.566643e+01	3.521902e+02
2.190000e-06	8.015946e-06	5.283935e-09	5.582697e+01	3.525956e+02
2.200000e-06	8.037631e-06	5.287503e-09	5.597800e+01	3.529648e+02
2.210000e-06	8.058047e-06	5.293986e-09	5.612019e+01	3.533115e+02
2.220000e-06	8.077250e-06	5.304458e-09	5.625393e+01	3.536483e+02
2.230000e-06	8.095019e-06	5.316120e-09	5.637768e+01	3.539861e+02
2.240000e-06	8.111262e-06	5.324994e-09	5.649080e+01	3.543332e+02
2.250000e-06	8.125981e-06	5.328461e-09	5.659332e+01	3.546940e+02
2.260000e-06	8.139187e-06	5.329259e-09	5.668528e+01	3.550690e+02
2.270000e-06	8.150925e-06	5.332165e-09	5.676703e+01	3.554541e+02
2.280000e-06	8.160926e-06	5.335698e-09	5.683668e+01	3.558413e+02
2.290000e-06	8.169243e-06	5.336782e-09	5.689461e+01	3.562185e+02
2.300000e-06	8.176186e-06	5.337582e-09	5.694296e+01	3.565711e+02
2.310000e-06	8.181774e-06	5.342394e-09	5.698188e+01	3.568824e+02
2.320000e-06	8.186074e-06	5.348808e-09	5.701183e+01	3.571351e+02
2.330000e-06	8.189002e-06	5.352358e-09	5.703222e+01	3.573130e+02
2.340000e-06	8.190334e-06	5.352877e-09	5.704150e+01	3.574019e+02
2.350000e-06	8.190146e-06	5.350533e-09	5.704019e+01	3.573916e+02
2.360000e-06	8.188667e-06	5.349909e-09	5.702989e+01	3.572761e+02
2.370000e-06	8.185889e-06	5.352483e-09	5.701054e+01	3.570555e+02
2.380000e-06	8.181885e-06	5.344592e-09	5.698266e+01	3.567357e+02
2.390000e-06	8.176626e-06	5.339524e-09	5.694603e+01	3.563287e+02
2.400000e-06	8.169779e-06	5.336659e-09	5.689834e+01	3.558523e+02
2.410000e-06	8.161520e-06	5.336572e-09	5.684082e+01	3.553295e+02
2.420000e-06	8.152110e-06	5.328490e-09	5.677529e+01	3.547868e+02
2.430000e-06	8.141408e-06	5.286387e-09	5.670075e+01	3.542531e+02
2.440000e-06	8.129008e-06	5.375729e-09	5.661439e+01	3.537579e+02
2.450000e-06	8.114393e-06	5.377215e-09	5.651261e+01	3.533292e+02
2.460000e-06	8.097626e-06	5.331411e-09	5.639584e+01	3.529921e+02
2.470000e-06	8.079337e-06	5.351563e-09	5.626846e+01	3.527668e+02
2.480000e-06	8.060147e-06	5.224793e-09	5.613481e+01	3.526671e+02
2.490000e-06	8.040229e-06	5.367396e-09	5.599609e+01	3.526993e+02
2.500000e-06	8.018824e-06	5.406418e-09	5.584702e+01	3.528617e+02
2.510000e-06	7.995652e-06	5.043325e-09	5.568564e+01	3.531441e+02
2.520000e-06	7.971360e-06	5.133348e-09	5.551646e+01	3.535283e+02
2.530000e-06	7.945866e-06	5.195839e-09	5.533890e+01	3.539888e+02
2.540000e-06	7.918850e-06	5.240198e-09	5.515075e+01	3.544942e+02
2.550000e-06	7.890433e-06	5.568514e-09	5.495284e+01	3.550086e+02
2.560000e-06	7.860513e-06	5.375823e-09	5.474446e+01	3.554938e+02
2.570000e-06	7.829138e-06	5.404728e-09	5.452595e+01	3.559109e+02
2.580000e-06	7.796411e-06	5.912080e-09	5.429803e+01	3.562232e+02
2.590000e-06	7.762144e-06	5.816655e-09	5.405938e+01	3.563971e+02
2.600000e-06	7.726626e-06	5.574646e-09	5.381201e+01	3.564051e+02
2.610000e-06	7.689893e-06	5.361717e-09	5.355618e+01	3.562261e+02
2.620000e-06	7.651635e-06	5.309352e-09	5.328973e+01	3.558474e+02
2.630000e-06	7.611871e-06	5.734110e-09	5.301280e+01	3.552643e+02
2.640000e-06	7.570753e-06	5.667973e-09	5.272643e+01	3.544809e+02
2.650000e-06	7.528431e-06	5.391780e-09	5.243168e+01	3.535093e+02
2.660000e-06	7.484870e-06	5.168782e-09	5.212830e+01	3.523685e+02
2.670000e-06	7.440072e-06	5.235431e-09	5.181630e+01	3.510833e+02
2.680000e-06	7.393999e-06	5.680992e-09	5.149543e+01	3.496826e+02
2.690000e-06	7.346429e-06	5.535455e-09	5.116413e+01	3.481973e+02
2.700000e-06	7.297415e-06	5.216378e-09	5.082277e+01	3.466589e+02
2.710000e-06	7.247096e-06	5.107043e-09	5.047233e+01	3.450972e+02
2.720000e-06	7.195497e-06	5.283031e-09	5.011297e+01	3.435387e+02
2.730000e-06	7.142459e-06	5.584139e-09	4.974358e+01	3.420053e+02
2.740000e-06	7.087795e-06	5.348205e-09	4.936288e+01	3.405133e+02
2.750000e-06	7.031745e-06	5.148348e-09	4.897252e+01	3.390725e+02
2.760000e-06	6.974486e-06	5.108667e-09	4.857374e+01	3.376863e+02
2.770000e-06	6.916036e-06	5.239960e-09	4.816666e+01	3.363516e+02
2.780000e-06	6.856461e-06	5.395353e-09	4.775175e+01	3.350596e+02
2.790000e-06	6.795740e-06	5.211184e-09	4.732886e+01	3.337971e+02
2.800000e-06	6.733702e-06	5.055962e-09	4.689680e+01	3.325469e+02
2.810000e-06	6.670268e-06	4.995797e-09	4.645502e+01	3.312900e+02
2.820000e-06	6.605640e-06	5.153272e-09	4.600491e+01	3.300066e+02
2.830000e-06	6.539906e-06	5.228197e-09	4.554711e+01	3.286779e+02
2.840000e-06	6.473040e-06	5.080379e-09	4.508142e+01	3.272867e+02
2.850000e-06	6.405015e-06	4.930007e-09	4.460766e+01	3.258192e+02
2.860000e-06	6.335791e-06	4.909920e-09	4.412555e+01	3.242653e+02
2.870000e-06	6.265368e-06	5.062299e-09	4.363510e+01	3.226194e+02
2.880000e-06	6.193719e-06	5.059602e-09	4.313610e+01	3.208799e+02
2.890000e-06	6.120906e-06	4.938592e-09	4.262899e+01	3.190497e+02
2.900000e-06	6.046985e-06	4.824918e-09	4.211417e+01	3.171352e+02
2.910000e-06	5.971961e-06	4.833212e-09	4.159166e+01	3.151459e+02
2.920000e-06	5.895806e-06	4.890664e-09	4.106128e+01	3.130928e+02
2.930000e-06	5.818462e-06	4.877335e-09	4.052262e+01	3.109884e+02
2.940000e-06	5.739945e-06	4.806585e-09	3.997579e+01	3.088446e+02
