# Temperatura_=_20.0
# Concentracion g/m^3_=_12600.0
# C_Vs_to_Am_M_A/Vsm_=_65563218390.804596
# pendiente_HvsI_1/m_=_3716.3
# ordenada_HvsI_A/m_=_1297.0
# frecuencia_Hz_=_213202.21564961612

Tiempo_(s)	Campo_(V.s)	Magnetizacion_(V.s)	Campo_(kA/m)	Magnetizacion_(A/m)
0.000000e+00	-8.206148e-06	-5.460381e-09	-5.680632e+01	-3.541960e+02
1.000000e-08	-8.205881e-06	-5.458392e-09	-5.680447e+01	-3.541226e+02
2.000000e-08	-8.204086e-06	-5.456417e-09	-5.679205e+01	-3.539332e+02
3.000000e-08	-8.200691e-06	-5.459114e-09	-5.676855e+01	-3.536307e+02
4.000000e-08	-8.196042e-06	-5.463217e-09	-5.673636e+01	-3.532244e+02
5.000000e-08	-8.190166e-06	-5.462484e-09	-5.669569e+01	-3.527307e+02
6.000000e-08	-8.182984e-06	-5.456395e-09	-5.664597e+01	-3.521718e+02
7.000000e-08	-8.174431e-06	-5.448608e-09	-5.658676e+01	-3.515747e+02
8.000000e-08	-8.164279e-06	-5.441347e-09	-5.651649e+01	-3.509702e+02
9.000000e-08	-8.152372e-06	-5.449515e-09	-5.643407e+01	-3.503907e+02
1.000000e-07	-8.138687e-06	-5.448887e-09	-5.633933e+01	-3.498684e+02
1.100000e-07	-8.122989e-06	-5.445973e-09	-5.623066e+01	-3.494335e+02
1.200000e-07	-8.105490e-06	-5.452855e-09	-5.610952e+01	-3.491117e+02
1.300000e-07	-8.086635e-06	-5.432400e-09	-5.597900e+01	-3.489228e+02
1.400000e-07	-8.066720e-06	-5.361290e-09	-5.584114e+01	-3.488794e+02
1.500000e-07	-8.045846e-06	-5.307610e-09	-5.569665e+01	-3.489852e+02
1.600000e-07	-8.023753e-06	-5.345773e-09	-5.554371e+01	-3.492353e+02
1.700000e-07	-8.000483e-06	-5.452387e-09	-5.538263e+01	-3.496153e+02
1.800000e-07	-7.975933e-06	-5.472757e-09	-5.521268e+01	-3.501026e+02
1.900000e-07	-7.949566e-06	-5.367463e-09	-5.503016e+01	-3.506669e+02
2.000000e-07	-7.921668e-06	-5.230592e-09	-5.483703e+01	-3.512720e+02
2.100000e-07	-7.892643e-06	-5.209565e-09	-5.463611e+01	-3.518775e+02
2.200000e-07	-7.862263e-06	-5.419286e-09	-5.442581e+01	-3.524412e+02
2.300000e-07	-7.830577e-06	-5.511237e-09	-5.420647e+01	-3.529212e+02
2.400000e-07	-7.797367e-06	-5.233707e-09	-5.397658e+01	-3.532782e+02
2.500000e-07	-7.762568e-06	-5.049937e-09	-5.373568e+01	-3.534776e+02
2.600000e-07	-7.726572e-06	-5.225007e-09	-5.348650e+01	-3.534913e+02
2.700000e-07	-7.689178e-06	-5.442544e-09	-5.322764e+01	-3.532991e+02
2.800000e-07	-7.650306e-06	-5.461095e-09	-5.295855e+01	-3.528897e+02
2.900000e-07	-7.610213e-06	-5.218846e-09	-5.268102e+01	-3.522611e+02
3.000000e-07	-7.568682e-06	-5.031221e-09	-5.239352e+01	-3.514205e+02
3.100000e-07	-7.525559e-06	-5.190268e-09	-5.209501e+01	-3.503834e+02
3.200000e-07	-7.481035e-06	-5.437664e-09	-5.178679e+01	-3.491726e+02
3.300000e-07	-7.435218e-06	-5.380560e-09	-5.146963e+01	-3.478168e+02
3.400000e-07	-7.388112e-06	-5.053417e-09	-5.114354e+01	-3.463484e+02
3.500000e-07	-7.339540e-06	-4.931979e-09	-5.080731e+01	-3.448015e+02
3.600000e-07	-7.289331e-06	-5.162011e-09	-5.045974e+01	-3.432104e+02
3.700000e-07	-7.237501e-06	-5.345064e-09	-5.010095e+01	-3.416066e+02
3.800000e-07	-7.184166e-06	-5.184684e-09	-4.973174e+01	-3.400183e+02
3.900000e-07	-7.129621e-06	-4.895271e-09	-4.935416e+01	-3.384677e+02
4.000000e-07	-7.073996e-06	-4.899790e-09	-4.896911e+01	-3.369710e+02
4.100000e-07	-7.017046e-06	-5.124136e-09	-4.857487e+01	-3.355372e+02
4.200000e-07	-6.958638e-06	-5.190653e-09	-4.817055e+01	-3.341683e+02
4.300000e-07	-6.898938e-06	-5.017445e-09	-4.775728e+01	-3.328594e+02
4.400000e-07	-6.838072e-06	-4.840847e-09	-4.733594e+01	-3.315998e+02
4.500000e-07	-6.776026e-06	-4.877609e-09	-4.690643e+01	-3.303737e+02
4.600000e-07	-6.712854e-06	-5.024005e-09	-4.646913e+01	-3.291620e+02
4.700000e-07	-6.648528e-06	-5.052892e-09	-4.602384e+01	-3.279436e+02
4.800000e-07	-6.582890e-06	-4.911374e-09	-4.556946e+01	-3.266968e+02
4.900000e-07	-6.515953e-06	-4.772463e-09	-4.510610e+01	-3.254012e+02
5.000000e-07	-6.447911e-06	-4.794515e-09	-4.463508e+01	-3.240386e+02
5.100000e-07	-6.378771e-06	-4.898611e-09	-4.415647e+01	-3.225944e+02
5.200000e-07	-6.308577e-06	-4.897912e-09	-4.367056e+01	-3.210583e+02
5.300000e-07	-6.237366e-06	-4.760780e-09	-4.317761e+01	-3.194245e+02
5.400000e-07	-6.164914e-06	-4.657455e-09	-4.267606e+01	-3.176921e+02
5.500000e-07	-6.091191e-06	-4.685201e-09	-4.216572e+01	-3.158645e+02
5.600000e-07	-6.016301e-06	-4.749394e-09	-4.164731e+01	-3.139488e+02
5.700000e-07	-5.940293e-06	-4.725910e-09	-4.112114e+01	-3.119555e+02
5.800000e-07	-5.863053e-06	-4.632886e-09	-4.058646e+01	-3.098964e+02
5.900000e-07	-5.784434e-06	-4.563849e-09	-4.004222e+01	-3.077848e+02
6.000000e-07	-5.704626e-06	-4.559907e-09	-3.948976e+01	-3.056334e+02
6.100000e-07	-5.623813e-06	-4.595988e-09	-3.893034e+01	-3.034535e+02
6.200000e-07	-5.541977e-06	-4.588229e-09	-3.836384e+01	-3.012547e+02
6.300000e-07	-5.459220e-06	-4.499678e-09	-3.779096e+01	-2.990434e+02
6.400000e-07	-5.375589e-06	-4.401679e-09	-3.721204e+01	-2.968231e+02
6.500000e-07	-5.291058e-06	-4.393557e-09	-3.662687e+01	-2.945938e+02
6.600000e-07	-5.205702e-06	-4.434728e-09	-3.603600e+01	-2.923525e+02
6.700000e-07	-5.119571e-06	-4.404650e-09	-3.543977e+01	-2.900932e+02
6.800000e-07	-5.032697e-06	-4.301586e-09	-3.483839e+01	-2.878080e+02
6.900000e-07	-4.944915e-06	-4.222030e-09	-3.423073e+01	-2.854873e+02
7.000000e-07	-4.856139e-06	-4.220280e-09	-3.361619e+01	-2.831210e+02
7.100000e-07	-4.766469e-06	-4.240817e-09	-3.299545e+01	-2.806989e+02
7.200000e-07	-4.675961e-06	-4.204064e-09	-3.236892e+01	-2.782120e+02
7.300000e-07	-4.584632e-06	-4.112652e-09	-3.173670e+01	-2.756527e+02
7.400000e-07	-4.492422e-06	-4.041079e-09	-3.109839e+01	-2.730156e+02
7.500000e-07	-4.399384e-06	-4.038177e-09	-3.045434e+01	-2.702975e+02
7.600000e-07	-4.305662e-06	-4.050854e-09	-2.980556e+01	-2.674979e+02
7.700000e-07	-4.211326e-06	-4.004239e-09	-2.915253e+01	-2.646183e+02
7.800000e-07	-4.116319e-06	-3.910097e-09	-2.849485e+01	-2.616625e+02
7.900000e-07	-4.020522e-06	-3.841490e-09	-2.783170e+01	-2.586357e+02
8.000000e-07	-3.923859e-06	-3.832667e-09	-2.716256e+01	-2.555442e+02
8.100000e-07	-3.826386e-06	-3.830738e-09	-2.648782e+01	-2.523945e+02
8.200000e-07	-3.728233e-06	-3.770774e-09	-2.580836e+01	-2.491929e+02
8.300000e-07	-3.629494e-06	-3.668661e-09	-2.512485e+01	-2.459446e+02
8.400000e-07	-3.530114e-06	-3.602495e-09	-2.443690e+01	-2.426536e+02
8.500000e-07	-3.430056e-06	-3.599927e-09	-2.374425e+01	-2.393220e+02
8.600000e-07	-3.329346e-06	-3.589367e-09	-2.304710e+01	-2.359497e+02
8.700000e-07	-3.227923e-06	-3.511960e-09	-2.234501e+01	-2.325347e+02
8.800000e-07	-3.125937e-06	-3.411737e-09	-2.163902e+01	-2.290732e+02
8.900000e-07	-3.023569e-06	-3.362497e-09	-2.093039e+01	-2.255593e+02
9.000000e-07	-2.920766e-06	-3.360066e-09	-2.021874e+01	-2.219862e+02
9.100000e-07	-2.817447e-06	-3.326607e-09	-1.950353e+01	-2.183463e+02
9.200000e-07	-2.713563e-06	-3.233870e-09	-1.878440e+01	-2.146314e+02
9.300000e-07	-2.609061e-06	-3.140584e-09	-1.806099e+01	-2.108341e+02
9.400000e-07	-2.503934e-06	-3.098399e-09	-1.733326e+01	-2.069474e+02
9.500000e-07	-2.398252e-06	-3.079264e-09	-1.660169e+01	-2.029657e+02
9.600000e-07	-2.292154e-06	-3.020893e-09	-1.586723e+01	-1.988848e+02
9.700000e-07	-2.185766e-06	-2.921656e-09	-1.513077e+01	-1.947022e+02
9.800000e-07	-2.079040e-06	-2.837782e-09	-1.439197e+01	-1.904171e+02
9.900000e-07	-1.971973e-06	-2.794626e-09	-1.365080e+01	-1.860302e+02
1.000000e-06	-1.864659e-06	-2.754378e-09	-1.290794e+01	-1.815435e+02
1.010000e-06	-1.757026e-06	-2.678157e-09	-1.216286e+01	-1.769601e+02
1.020000e-06	-1.649028e-06	-2.581671e-09	-1.141525e+01	-1.722835e+02
1.030000e-06	-1.540788e-06	-2.504759e-09	-1.066597e+01	-1.675173e+02
1.040000e-06	-1.432263e-06	-2.450308e-09	-9.914712e+00	-1.626648e+02
1.050000e-06	-1.323387e-06	-2.391737e-09	-9.161025e+00	-1.577287e+02
1.060000e-06	-1.214308e-06	-2.310465e-09	-8.405935e+00	-1.527103e+02
1.070000e-06	-1.104988e-06	-2.216108e-09	-7.649179e+00	-1.476098e+02
1.080000e-06	-9.954374e-07	-2.133194e-09	-6.890826e+00	-1.424260e+02
1.090000e-06	-8.857576e-07	-2.065803e-09	-6.131577e+00	-1.371561e+02
1.100000e-06	-7.759469e-07	-1.996172e-09	-5.371423e+00	-1.317960e+02
1.110000e-06	-6.659751e-07	-1.906476e-09	-4.610153e+00	-1.263404e+02
1.120000e-06	-5.558941e-07	-1.802255e-09	-3.848127e+00	-1.207832e+02
1.130000e-06	-4.457574e-07	-1.708222e-09	-3.085716e+00	-1.151173e+02
1.140000e-06	-3.355637e-07	-1.634108e-09	-2.322909e+00	-1.093358e+02
1.150000e-06	-2.253332e-07	-1.558161e-09	-1.559849e+00	-1.034316e+02
1.160000e-06	-1.150720e-07	-1.456078e-09	-7.965754e-01	-9.739774e+01
1.170000e-06	-4.814410e-09	-1.343383e-09	-3.332732e-02	-9.122807e+01
1.180000e-06	1.054074e-07	-1.249182e-09	7.296730e-01	-8.491700e+01
1.190000e-06	2.155866e-07	-1.169519e-09	1.492379e+00	-7.845979e+01
1.200000e-06	3.258059e-07	-1.076197e-09	2.255362e+00	-7.185250e+01
1.210000e-06	4.360349e-07	-9.585929e-10	3.018412e+00	-6.509204e+01
1.220000e-06	5.461687e-07	-8.432410e-10	3.780804e+00	-5.817613e+01
1.230000e-06	6.562371e-07	-7.514386e-10	4.542743e+00	-5.110317e+01
1.240000e-06	7.662522e-07	-6.630370e-10	5.304312e+00	-4.387229e+01
1.250000e-06	8.761373e-07	-5.516811e-10	6.064982e+00	-3.648332e+01
1.260000e-06	9.858592e-07	-4.232110e-10	6.824522e+00	-2.893682e+01
1.270000e-06	1.095396e-06	-3.006634e-10	7.582783e+00	-2.123426e+01
1.280000e-06	1.204690e-06	-1.922231e-10	8.339359e+00	-1.337817e+01
1.290000e-06	1.313796e-06	-7.901499e-11	9.094634e+00	-5.372458e+00
1.300000e-06	1.422692e-06	5.059086e-11	9.848456e+00	2.777305e+00
1.310000e-06	1.531290e-06	1.896764e-10	1.060022e+01	1.106350e+01
1.320000e-06	1.639555e-06	3.185722e-10	1.134967e+01	1.947611e+01
1.330000e-06	1.747483e-06	4.385341e-10	1.209679e+01	2.800240e+01
1.340000e-06	1.855088e-06	5.651907e-10	1.284168e+01	3.662667e+01
1.350000e-06	1.962368e-06	7.038767e-10	1.358432e+01	4.533008e+01
1.360000e-06	2.069327e-06	8.457211e-10	1.432473e+01	5.409068e+01
1.370000e-06	2.175946e-06	9.791133e-10	1.506279e+01	6.288355e+01
1.380000e-06	2.282255e-06	1.107106e-09	1.579871e+01	7.168115e+01
1.390000e-06	2.388303e-06	1.238919e-09	1.653281e+01	8.045381e+01
1.400000e-06	2.493917e-06	1.375743e-09	1.726392e+01	8.917043e+01
1.410000e-06	2.598895e-06	1.511457e-09	1.799062e+01	9.779929e+01
1.420000e-06	2.703251e-06	1.638078e-09	1.871301e+01	1.063090e+02
1.430000e-06	2.806974e-06	1.756410e-09	1.943103e+01	1.146694e+02
1.440000e-06	2.910132e-06	1.876848e-09	2.014513e+01	1.228526e+02
1.450000e-06	3.012854e-06	2.000587e-09	2.085621e+01	1.308340e+02
1.460000e-06	3.115172e-06	2.123007e-09	2.156450e+01	1.385928e+02
1.470000e-06	3.216997e-06	2.233128e-09	2.226938e+01	1.461131e+02
1.480000e-06	3.318238e-06	2.336506e-09	2.297021e+01	1.533839e+02
1.490000e-06	3.418907e-06	2.442048e-09	2.366707e+01	1.603993e+02
1.500000e-06	3.518907e-06	2.547623e-09	2.435932e+01	1.671589e+02
1.510000e-06	3.618194e-06	2.645296e-09	2.504663e+01	1.736671e+02
1.520000e-06	3.716901e-06	2.733490e-09	2.572992e+01	1.799323e+02
1.530000e-06	3.815093e-06	2.820343e-09	2.640964e+01	1.859669e+02
1.540000e-06	3.912630e-06	2.911566e-09	2.708483e+01	1.917856e+02
1.550000e-06	4.009287e-06	3.000751e-09	2.775393e+01	1.974049e+02
1.560000e-06	4.105056e-06	3.081630e-09	2.841688e+01	2.028418e+02
1.570000e-06	4.200094e-06	3.157724e-09	2.907478e+01	2.081130e+02
1.580000e-06	4.294464e-06	3.236484e-09	2.972804e+01	2.132337e+02
1.590000e-06	4.388096e-06	3.316544e-09	3.037620e+01	2.182172e+02
1.600000e-06	4.481000e-06	3.391835e-09	3.101932e+01	2.230741e+02
1.610000e-06	4.573123e-06	3.461508e-09	3.165704e+01	2.278120e+02
1.620000e-06	4.664437e-06	3.528644e-09	3.228915e+01	2.324356e+02
1.630000e-06	4.755048e-06	3.595690e-09	3.291640e+01	2.369466e+02
1.640000e-06	4.844896e-06	3.662503e-09	3.353835e+01	2.413444e+02
1.650000e-06	4.933570e-06	3.725505e-09	3.415219e+01	2.456265e+02
1.660000e-06	5.021076e-06	3.782895e-09	3.475795e+01	2.497890e+02
1.670000e-06	5.107875e-06	3.839140e-09	3.535881e+01	2.538277e+02
1.680000e-06	5.193960e-06	3.894692e-09	3.595472e+01	2.577385e+02
1.690000e-06	5.279118e-06	3.950565e-09	3.654422e+01	2.615186e+02
1.700000e-06	5.363349e-06	4.004920e-09	3.712730e+01	2.651666e+02
1.710000e-06	5.446721e-06	4.058467e-09	3.770444e+01	2.686829e+02
1.720000e-06	5.529308e-06	4.111799e-09	3.827614e+01	2.720706e+02
1.730000e-06	5.610959e-06	4.163304e-09	3.884136e+01	2.753345e+02
1.740000e-06	5.691423e-06	4.214234e-09	3.939837e+01	2.784819e+02
1.750000e-06	5.770901e-06	4.259374e-09	3.994854e+01	2.815216e+02
1.760000e-06	5.849386e-06	4.297936e-09	4.049185e+01	2.844634e+02
1.770000e-06	5.926770e-06	4.334504e-09	4.102753e+01	2.873176e+02
1.780000e-06	6.003127e-06	4.375063e-09	4.155611e+01	2.900945e+02
1.790000e-06	6.078300e-06	4.418323e-09	4.207649e+01	2.928032e+02
1.800000e-06	6.152219e-06	4.457260e-09	4.258818e+01	2.954513e+02
1.810000e-06	6.224864e-06	4.493559e-09	4.309106e+01	2.980443e+02
1.820000e-06	6.296313e-06	4.531028e-09	4.358566e+01	3.005853e+02
1.830000e-06	6.366750e-06	4.570212e-09	4.407326e+01	3.030748e+02
1.840000e-06	6.436130e-06	4.606534e-09	4.455353e+01	3.055109e+02
1.850000e-06	6.504412e-06	4.636533e-09	4.502621e+01	3.078894e+02
1.860000e-06	6.571679e-06	4.664270e-09	4.549186e+01	3.102042e+02
1.870000e-06	6.637764e-06	4.692554e-09	4.594933e+01	3.124482e+02
1.880000e-06	6.702431e-06	4.721267e-09	4.639698e+01	3.146141e+02
1.890000e-06	6.765865e-06	4.750008e-09	4.683609e+01	3.166946e+02
1.900000e-06	6.828281e-06	4.777225e-09	4.726816e+01	3.186838e+02
1.910000e-06	6.889607e-06	4.804843e-09	4.769269e+01	3.205773e+02
1.920000e-06	6.949775e-06	4.832825e-09	4.810919e+01	3.223733e+02
1.930000e-06	7.008739e-06	4.860569e-09	4.851737e+01	3.240725e+02
1.940000e-06	7.066343e-06	4.885446e-09	4.891612e+01	3.256784e+02
1.950000e-06	7.122482e-06	4.908024e-09	4.930475e+01	3.271972e+02
1.960000e-06	7.177433e-06	4.928954e-09	4.968513e+01	3.286373e+02
1.970000e-06	7.231246e-06	4.947891e-09	5.005765e+01	3.300091e+02
1.980000e-06	7.283686e-06	4.968704e-09	5.042067e+01	3.313239e+02
1.990000e-06	7.334636e-06	4.989094e-09	5.077336e+01	3.325934e+02
2.000000e-06	7.383956e-06	5.008748e-09	5.111477e+01	3.338286e+02
2.010000e-06	7.431734e-06	5.029512e-09	5.144551e+01	3.350393e+02
2.020000e-06	7.478188e-06	5.050650e-09	5.176708e+01	3.362328e+02
2.030000e-06	7.523434e-06	5.072189e-09	5.208030e+01	3.374141e+02
2.040000e-06	7.567518e-06	5.092135e-09	5.238547e+01	3.385849e+02
2.050000e-06	7.610311e-06	5.107360e-09	5.268169e+01	3.397437e+02
2.060000e-06	7.651499e-06	5.118372e-09	5.296681e+01	3.408859e+02
2.070000e-06	7.691222e-06	5.129218e-09	5.324180e+01	3.420045e+02
2.080000e-06	7.729768e-06	5.143933e-09	5.350862e+01	3.430901e+02
2.090000e-06	7.767047e-06	5.158726e-09	5.376668e+01	3.441323e+02
2.100000e-06	7.803080e-06	5.170767e-09	5.401612e+01	3.451204e+02
2.110000e-06	7.837800e-06	5.183974e-09	5.425647e+01	3.460442e+02
2.120000e-06	7.870858e-06	5.198984e-09	5.448531e+01	3.468953e+02
2.130000e-06	7.902465e-06	5.215803e-09	5.470411e+01	3.476677e+02
2.140000e-06	7.932912e-06	5.230398e-09	5.491487e+01	3.483583e+02
2.150000e-06	7.962061e-06	5.238231e-09	5.511665e+01	3.489679e+02
2.160000e-06	7.989930e-06	5.243505e-09	5.530957e+01	3.495008e+02
2.170000e-06	8.016300e-06	5.249842e-09	5.549212e+01	3.499646e+02
2.180000e-06	8.040976e-06	5.256948e-09	5.566293e+01	3.503701e+02
2.190000e-06	8.064220e-06	5.263003e-09	5.582384e+01	3.507305e+02
2.200000e-06	8.086136e-06	5.267726e-09	5.597555e+01	3.510600e+02
2.210000e-06	8.106722e-06	5.274585e-09	5.611805e+01	3.513734e+02
2.220000e-06	8.126103e-06	5.286212e-09	5.625222e+01	3.516843e+02
2.230000e-06	8.144000e-06	5.298319e-09	5.637611e+01	3.520042e+02
2.240000e-06	8.160336e-06	5.305910e-09	5.648919e+01	3.523414e+02
2.250000e-06	8.175231e-06	5.308120e-09	5.659230e+01	3.527004e+02
2.260000e-06	8.188629e-06	5.309841e-09	5.668505e+01	3.530810e+02
2.270000e-06	8.200527e-06	5.313649e-09	5.676741e+01	3.534784e+02
2.280000e-06	8.210682e-06	5.316928e-09	5.683771e+01	3.538829e+02
2.290000e-06	8.219061e-06	5.318452e-09	5.689571e+01	3.542812e+02
2.300000e-06	8.226012e-06	5.319240e-09	5.694383e+01	3.546564e+02
2.310000e-06	8.231586e-06	5.323229e-09	5.698242e+01	3.549898e+02
2.320000e-06	8.235825e-06	5.328751e-09	5.701176e+01	3.552621e+02
2.330000e-06	8.238773e-06	5.332906e-09	5.703217e+01	3.554546e+02
2.340000e-06	8.240121e-06	5.333910e-09	5.704150e+01	3.555516e+02
2.350000e-06	8.239962e-06	5.331731e-09	5.704040e+01	3.555407e+02
2.360000e-06	8.238489e-06	5.329070e-09	5.703020e+01	3.554152e+02
2.370000e-06	8.235699e-06	5.326160e-09	5.701088e+01	3.551741e+02
2.380000e-06	8.231721e-06	5.319331e-09	5.698335e+01	3.548233e+02
2.390000e-06	8.226367e-06	5.314694e-09	5.694629e+01	3.543753e+02
2.400000e-06	8.219376e-06	5.312500e-09	5.689790e+01	3.538491e+02
2.410000e-06	8.211058e-06	5.316319e-09	5.684031e+01	3.532693e+02
2.420000e-06	8.201569e-06	5.321055e-09	5.677463e+01	3.526649e+02
2.430000e-06	8.190721e-06	5.297232e-09	5.669953e+01	3.520676e+02
2.440000e-06	8.178276e-06	5.302507e-09	5.661338e+01	3.515099e+02
2.450000e-06	8.163629e-06	5.300765e-09	5.651199e+01	3.510234e+02
2.460000e-06	8.146746e-06	5.283212e-09	5.639512e+01	3.506364e+02
2.470000e-06	8.128293e-06	5.299347e-09	5.626738e+01	3.503724e+02
2.480000e-06	8.108937e-06	5.315336e-09	5.613339e+01	3.502479e+02
2.490000e-06	8.089014e-06	5.319663e-09	5.599547e+01	3.502716e+02
2.500000e-06	8.067645e-06	5.252642e-09	5.584755e+01	3.504435e+02
2.510000e-06	8.044314e-06	5.079467e-09	5.568604e+01	3.507543e+02
2.520000e-06	8.019893e-06	5.044175e-09	5.551699e+01	3.511859e+02
2.530000e-06	7.994312e-06	5.192810e-09	5.533991e+01	3.517119e+02
2.540000e-06	7.967154e-06	5.364092e-09	5.515191e+01	3.522993e+02
2.550000e-06	7.938722e-06	5.423013e-09	5.495509e+01	3.529097e+02
2.560000e-06	7.908638e-06	5.355258e-09	5.474684e+01	3.535016e+02
2.570000e-06	7.876962e-06	5.502491e-09	5.452757e+01	3.540327e+02
2.580000e-06	7.844040e-06	5.842990e-09	5.429967e+01	3.544620e+02
2.590000e-06	7.809545e-06	5.818373e-09	5.406088e+01	3.547519e+02
2.600000e-06	7.773854e-06	5.554435e-09	5.381381e+01	3.548708e+02
2.610000e-06	7.736995e-06	5.387761e-09	5.355865e+01	3.547937e+02
2.620000e-06	7.698462e-06	5.371524e-09	5.329191e+01	3.545046e+02
2.630000e-06	7.658421e-06	5.629398e-09	5.301474e+01	3.539962e+02
2.640000e-06	7.617066e-06	5.697728e-09	5.272846e+01	3.532708e+02
2.650000e-06	7.574480e-06	5.435025e-09	5.243365e+01	3.523393e+02
2.660000e-06	7.530656e-06	5.164106e-09	5.213029e+01	3.512208e+02
2.670000e-06	7.485560e-06	5.236149e-09	5.181812e+01	3.499409e+02
2.680000e-06	7.439235e-06	5.632972e-09	5.149744e+01	3.485302e+02
2.690000e-06	7.391400e-06	5.584802e-09	5.116631e+01	3.470222e+02
2.700000e-06	7.342127e-06	5.186494e-09	5.082522e+01	3.454512e+02
2.710000e-06	7.291622e-06	5.090863e-09	5.047560e+01	3.438506e+02
2.720000e-06	7.239763e-06	5.337898e-09	5.011661e+01	3.422506e+02
2.730000e-06	7.186343e-06	5.548173e-09	4.974682e+01	3.406768e+02
2.740000e-06	7.131329e-06	5.343215e-09	4.936598e+01	3.391489e+02
2.750000e-06	7.075002e-06	5.129141e-09	4.897607e+01	3.376797e+02
2.760000e-06	7.017458e-06	5.130299e-09	4.857772e+01	3.362753e+02
2.770000e-06	6.958703e-06	5.246313e-09	4.817100e+01	3.349343e+02
2.780000e-06	6.898822e-06	5.348323e-09	4.775648e+01	3.336492e+02
2.790000e-06	6.837713e-06	5.218987e-09	4.733345e+01	3.324068e+02
2.800000e-06	6.775233e-06	5.059684e-09	4.690094e+01	3.311898e+02
2.810000e-06	6.711415e-06	5.000615e-09	4.645916e+01	3.299777e+02
2.820000e-06	6.646452e-06	5.119903e-09	4.600946e+01	3.287491e+02
2.830000e-06	6.580400e-06	5.214877e-09	4.555223e+01	3.274827e+02
2.840000e-06	6.513206e-06	5.092157e-09	4.508709e+01	3.261589e+02
2.850000e-06	6.444811e-06	4.929968e-09	4.461363e+01	3.247612e+02
2.860000e-06	6.375126e-06	4.908299e-09	4.413124e+01	3.232766e+02
2.870000e-06	6.304246e-06	5.042709e-09	4.364058e+01	3.216969e+02
2.880000e-06	6.232224e-06	5.057366e-09	4.314201e+01	3.200186e+02
2.890000e-06	6.159126e-06	4.938949e-09	4.263600e+01	3.182426e+02
2.900000e-06	6.084945e-06	4.830144e-09	4.212249e+01	3.163742e+02
2.910000e-06	6.009609e-06	4.820993e-09	4.160098e+01	3.144222e+02
2.920000e-06	5.932939e-06	4.873169e-09	4.107023e+01	3.123976e+02
2.930000e-06	5.854957e-06	4.875241e-09	4.053041e+01	3.103133e+02
2.940000e-06	5.775942e-06	4.802665e-09	3.998344e+01	3.081822e+02
