# Temperatura_=_20.0
# Concentracion g/m^3_=_9000.0
# C_Vs_to_Am_M_A/Vsm_=_65563218390.804596
# pendiente_HvsI_1/m_=_3716.3
# ordenada_HvsI_A/m_=_1297.0
# frecuencia_Hz_=_300772.48637002206

Tiempo_(s)	Campo_(V.s)	Magnetizacion_(V.s)	Campo_(kA/m)	Magnetizacion_(A/m)
0.000000e+00	-4.058066e-06	-3.286409e-09	-2.907543e+01	-2.122939e+02
1.000000e-08	-4.057540e-06	-3.289891e-09	-2.907166e+01	-2.123133e+02
2.000000e-08	-4.055408e-06	-3.291014e-09	-2.905639e+01	-2.123335e+02
3.000000e-08	-4.051792e-06	-3.292245e-09	-2.903048e+01	-2.123550e+02
4.000000e-08	-4.047040e-06	-3.293492e-09	-2.899643e+01	-2.123743e+02
5.000000e-08	-4.041045e-06	-3.294124e-09	-2.895348e+01	-2.123840e+02
6.000000e-08	-4.033819e-06	-3.295886e-09	-2.890170e+01	-2.123747e+02
7.000000e-08	-4.025398e-06	-3.294206e-09	-2.884137e+01	-2.123356e+02
8.000000e-08	-4.015419e-06	-3.290949e-09	-2.876988e+01	-2.122574e+02
9.000000e-08	-4.003659e-06	-3.303096e-09	-2.868562e+01	-2.121335e+02
1.000000e-07	-3.990005e-06	-3.323026e-09	-2.858778e+01	-2.119617e+02
1.100000e-07	-3.974220e-06	-3.331967e-09	-2.847469e+01	-2.117450e+02
1.200000e-07	-3.956804e-06	-3.303391e-09	-2.834991e+01	-2.114922e+02
1.300000e-07	-3.938368e-06	-3.266388e-09	-2.821782e+01	-2.112165e+02
1.400000e-07	-3.918996e-06	-3.285683e-09	-2.807902e+01	-2.109344e+02
1.500000e-07	-3.898611e-06	-3.330039e-09	-2.793296e+01	-2.106636e+02
1.600000e-07	-3.877220e-06	-3.304255e-09	-2.777970e+01	-2.104201e+02
1.700000e-07	-3.854668e-06	-3.206517e-09	-2.761812e+01	-2.102158e+02
1.800000e-07	-3.830373e-06	-3.187282e-09	-2.744405e+01	-2.100562e+02
1.900000e-07	-3.804352e-06	-3.329567e-09	-2.725761e+01	-2.099390e+02
2.000000e-07	-3.777312e-06	-3.398125e-09	-2.706388e+01	-2.098530e+02
2.100000e-07	-3.749106e-06	-3.210337e-09	-2.686178e+01	-2.097789e+02
2.200000e-07	-3.719386e-06	-3.115345e-09	-2.664884e+01	-2.096907e+02
2.300000e-07	-3.688497e-06	-3.266979e-09	-2.642753e+01	-2.095579e+02
2.400000e-07	-3.656568e-06	-3.318785e-09	-2.619876e+01	-2.093489e+02
2.500000e-07	-3.623177e-06	-3.118728e-09	-2.595952e+01	-2.090341e+02
2.600000e-07	-3.588220e-06	-2.928913e-09	-2.570906e+01	-2.085892e+02
2.700000e-07	-3.551947e-06	-3.001612e-09	-2.544917e+01	-2.079981e+02
2.800000e-07	-3.514526e-06	-3.197558e-09	-2.518105e+01	-2.072542e+02
2.900000e-07	-3.476003e-06	-3.176835e-09	-2.490504e+01	-2.063616e+02
3.000000e-07	-3.436351e-06	-2.955387e-09	-2.462094e+01	-2.053342e+02
3.100000e-07	-3.395403e-06	-2.887311e-09	-2.432755e+01	-2.041944e+02
3.200000e-07	-3.352924e-06	-3.035121e-09	-2.402320e+01	-2.029697e+02
3.300000e-07	-3.309157e-06	-3.158475e-09	-2.370961e+01	-2.016902e+02
3.400000e-07	-3.264357e-06	-3.049974e-09	-2.338863e+01	-2.003847e+02
3.500000e-07	-3.218371e-06	-2.827083e-09	-2.305915e+01	-1.990778e+02
3.600000e-07	-3.171152e-06	-2.844259e-09	-2.272083e+01	-1.977869e+02
3.700000e-07	-3.122929e-06	-3.075823e-09	-2.237532e+01	-1.965208e+02
3.800000e-07	-3.073410e-06	-3.070231e-09	-2.202052e+01	-1.952792e+02
3.900000e-07	-3.022173e-06	-2.807764e-09	-2.165341e+01	-1.940533e+02
4.000000e-07	-2.969495e-06	-2.754365e-09	-2.127599e+01	-1.928271e+02
4.100000e-07	-2.915887e-06	-2.936308e-09	-2.089189e+01	-1.915806e+02
4.200000e-07	-2.861381e-06	-2.970337e-09	-2.050136e+01	-1.902917e+02
4.300000e-07	-2.805926e-06	-2.822669e-09	-2.010404e+01	-1.889399e+02
4.400000e-07	-2.749611e-06	-2.730479e-09	-1.970055e+01	-1.875084e+02
4.500000e-07	-2.692025e-06	-2.747618e-09	-1.928795e+01	-1.859861e+02
4.600000e-07	-2.633099e-06	-2.813667e-09	-1.886576e+01	-1.843686e+02
4.700000e-07	-2.573381e-06	-2.813102e-09	-1.843789e+01	-1.826581e+02
4.800000e-07	-2.512952e-06	-2.678839e-09	-1.800493e+01	-1.808626e+02
4.900000e-07	-2.451634e-06	-2.580511e-09	-1.756559e+01	-1.789943e+02
5.000000e-07	-2.389464e-06	-2.676109e-09	-1.712015e+01	-1.770674e+02
5.100000e-07	-2.326512e-06	-2.743071e-09	-1.666911e+01	-1.750955e+02
5.200000e-07	-2.262913e-06	-2.586227e-09	-1.621343e+01	-1.730899e+02
5.300000e-07	-2.198520e-06	-2.469973e-09	-1.575207e+01	-1.710578e+02
5.400000e-07	-2.132848e-06	-2.552215e-09	-1.528154e+01	-1.690010e+02
5.500000e-07	-2.066101e-06	-2.589474e-09	-1.480331e+01	-1.669161e+02
5.600000e-07	-1.998822e-06	-2.471155e-09	-1.432126e+01	-1.647945e+02
5.700000e-07	-1.931071e-06	-2.385863e-09	-1.383584e+01	-1.626240e+02
5.800000e-07	-1.862724e-06	-2.398134e-09	-1.334614e+01	-1.603901e+02
5.900000e-07	-1.793721e-06	-2.404333e-09	-1.285174e+01	-1.580777e+02
6.000000e-07	-1.724139e-06	-2.361964e-09	-1.235320e+01	-1.556729e+02
6.100000e-07	-1.653971e-06	-2.286014e-09	-1.185045e+01	-1.531638e+02
6.200000e-07	-1.583165e-06	-2.225282e-09	-1.134314e+01	-1.505418e+02
6.300000e-07	-1.511853e-06	-2.225538e-09	-1.083220e+01	-1.478014e+02
6.400000e-07	-1.440225e-06	-2.226724e-09	-1.031899e+01	-1.449398e+02
6.500000e-07	-1.368209e-06	-2.144842e-09	-9.803016e+00	-1.419560e+02
6.600000e-07	-1.295593e-06	-2.048822e-09	-9.282727e+00	-1.388494e+02
6.700000e-07	-1.222246e-06	-2.031443e-09	-8.757210e+00	-1.356187e+02
6.800000e-07	-1.148254e-06	-2.035805e-09	-8.227067e+00	-1.322605e+02
6.900000e-07	-1.073684e-06	-1.967088e-09	-7.692788e+00	-1.287686e+02
7.000000e-07	-9.985569e-07	-1.859365e-09	-7.154510e+00	-1.251335e+02
7.100000e-07	-9.230319e-07	-1.806002e-09	-6.613385e+00	-1.213425e+02
7.200000e-07	-8.472850e-07	-1.795664e-09	-6.070670e+00	-1.173805e+02
7.300000e-07	-7.713701e-07	-1.742271e-09	-5.526751e+00	-1.132307e+02
7.400000e-07	-6.952081e-07	-1.633060e-09	-4.981061e+00	-1.088763e+02
7.500000e-07	-6.186778e-07	-1.546210e-09	-4.432733e+00	-1.043013e+02
7.600000e-07	-5.417612e-07	-1.506142e-09	-3.881638e+00	-9.949206e+01
7.700000e-07	-4.646563e-07	-1.450321e-09	-3.329192e+00	-9.443808e+01
7.800000e-07	-3.874659e-07	-1.348687e-09	-2.776135e+00	-8.913233e+01
7.900000e-07	-3.101486e-07	-1.244819e-09	-2.222168e+00	-8.357142e+01
8.000000e-07	-2.327065e-07	-1.168288e-09	-1.667307e+00	-7.775531e+01
8.100000e-07	-1.552513e-07	-1.095492e-09	-1.112352e+00	-7.168670e+01
8.200000e-07	-7.777947e-08	-9.991501e-10	-5.572782e-01	-6.537033e+01
8.300000e-07	-2.508207e-10	-8.790035e-10	-1.797093e-03	-5.881241e+01
8.400000e-07	7.728158e-08	-7.648719e-10	5.537110e-01	-5.202015e+01
8.500000e-07	1.547410e-07	-6.748977e-10	1.108696e+00	-4.500166e+01
8.600000e-07	2.321437e-07	-5.809784e-10	1.663275e+00	-3.776628e+01
8.700000e-07	3.094936e-07	-4.514847e-10	2.217475e+00	-3.032512e+01
8.800000e-07	3.867177e-07	-3.154352e-10	2.770774e+00	-2.269202e+01
8.900000e-07	4.638201e-07	-2.120147e-10	3.323201e+00	-1.488453e+01
9.000000e-07	5.407260e-07	-1.100719e-10	3.874221e+00	-6.924799e+00
9.100000e-07	6.173787e-07	2.770475e-11	4.423426e+00	1.159704e+00
9.200000e-07	6.937566e-07	1.722196e-10	4.970662e+00	9.335964e+00
9.300000e-07	7.698624e-07	2.869755e-10	5.515949e+00	1.756570e+01
9.400000e-07	8.457667e-07	3.937232e-10	6.059791e+00	2.580621e+01
9.500000e-07	9.214508e-07	5.206728e-10	6.602057e+00	3.401179e+01
9.600000e-07	9.968510e-07	6.579116e-10	7.142288e+00	4.213554e+01
9.700000e-07	1.071914e-06	7.824251e-10	7.680106e+00	5.013146e+01
9.800000e-07	1.146433e-06	8.920004e-10	8.214019e+00	5.795654e+01
9.900000e-07	1.220262e-06	1.001620e-09	8.742996e+00	6.557273e+01
1.000000e-06	1.293388e-06	1.121620e-09	9.266930e+00	7.294845e+01
1.010000e-06	1.365827e-06	1.242705e-09	9.785948e+00	8.005963e+01
1.020000e-06	1.437722e-06	1.343135e-09	1.030106e+01	8.689012e+01
1.030000e-06	1.509255e-06	1.428344e-09	1.081358e+01	9.343142e+01
1.040000e-06	1.580442e-06	1.523638e-09	1.132363e+01	9.968191e+01
1.050000e-06	1.651069e-06	1.629887e-09	1.182966e+01	1.056456e+02
1.060000e-06	1.721102e-06	1.718399e-09	1.233144e+01	1.113308e+02
1.070000e-06	1.790552e-06	1.785149e-09	1.282904e+01	1.167483e+02
1.080000e-06	1.859343e-06	1.857604e-09	1.332192e+01	1.219103e+02
1.090000e-06	1.927516e-06	1.942550e-09	1.381037e+01	1.268288e+02
1.100000e-06	1.995190e-06	2.020508e-09	1.429524e+01	1.315155e+02
1.110000e-06	2.062363e-06	2.080616e-09	1.477652e+01	1.359806e+02
1.120000e-06	2.128690e-06	2.136787e-09	1.525174e+01	1.402333e+02
1.130000e-06	2.193863e-06	2.199763e-09	1.571870e+01	1.442818e+02
1.140000e-06	2.258062e-06	2.263568e-09	1.617868e+01	1.481337e+02
1.150000e-06	2.321575e-06	2.319471e-09	1.663373e+01	1.517964e+02
1.160000e-06	2.384425e-06	2.365839e-09	1.708405e+01	1.552776e+02
1.170000e-06	2.446556e-06	2.410244e-09	1.752921e+01	1.585853e+02
1.180000e-06	2.507884e-06	2.459190e-09	1.796861e+01	1.617277e+02
1.190000e-06	2.568381e-06	2.509712e-09	1.840206e+01	1.647135e+02
1.200000e-06	2.628172e-06	2.549689e-09	1.883046e+01	1.675510e+02
1.210000e-06	2.687189e-06	2.581607e-09	1.925331e+01	1.702480e+02
1.220000e-06	2.744935e-06	2.618749e-09	1.966705e+01	1.728114e+02
1.230000e-06	2.801355e-06	2.662360e-09	2.007129e+01	1.752472e+02
1.240000e-06	2.856854e-06	2.700397e-09	2.046893e+01	1.775599e+02
1.250000e-06	2.911480e-06	2.729671e-09	2.086032e+01	1.797532e+02
1.260000e-06	2.965139e-06	2.756760e-09	2.124477e+01	1.818298e+02
1.270000e-06	3.017791e-06	2.784666e-09	2.162202e+01	1.837926e+02
1.280000e-06	3.069254e-06	2.812667e-09	2.199074e+01	1.856446e+02
1.290000e-06	3.119222e-06	2.837768e-09	2.234876e+01	1.873898e+02
1.300000e-06	3.167696e-06	2.860231e-09	2.269606e+01	1.890332e+02
1.310000e-06	3.214978e-06	2.881255e-09	2.303484e+01	1.905813e+02
1.320000e-06	3.261212e-06	2.903716e-09	2.336609e+01	1.920416e+02
1.330000e-06	3.306353e-06	2.925819e-09	2.368953e+01	1.934225e+02
1.340000e-06	3.350448e-06	2.946119e-09	2.400545e+01	1.947327e+02
1.350000e-06	3.393527e-06	2.964114e-09	2.431411e+01	1.959800e+02
1.360000e-06	3.435265e-06	2.980592e-09	2.461316e+01	1.971714e+02
1.370000e-06	3.475522e-06	2.997543e-09	2.490159e+01	1.983116e+02
1.380000e-06	3.514581e-06	3.014541e-09	2.518144e+01	1.994034e+02
1.390000e-06	3.552503e-06	3.029720e-09	2.545315e+01	2.004474e+02
1.400000e-06	3.589234e-06	3.043073e-09	2.571633e+01	2.014422e+02
1.410000e-06	3.624908e-06	3.056130e-09	2.597192e+01	2.023852e+02
1.420000e-06	3.659352e-06	3.067334e-09	2.621871e+01	2.032733e+02
1.430000e-06	3.692232e-06	3.078544e-09	2.645429e+01	2.041037e+02
1.440000e-06	3.723765e-06	3.091687e-09	2.668022e+01	2.048752e+02
1.450000e-06	3.754130e-06	3.103064e-09	2.689778e+01	2.055884e+02
1.460000e-06	3.783235e-06	3.111609e-09	2.710631e+01	2.062463e+02
1.470000e-06	3.811190e-06	3.119994e-09	2.730660e+01	2.068541e+02
1.480000e-06	3.837807e-06	3.130342e-09	2.749731e+01	2.074191e+02
1.490000e-06	3.862723e-06	3.139719e-09	2.767583e+01	2.079492e+02
1.500000e-06	3.886100e-06	3.145754e-09	2.784332e+01	2.084529e+02
1.510000e-06	3.908191e-06	3.151101e-09	2.800160e+01	2.089371e+02
1.520000e-06	3.929023e-06	3.157558e-09	2.815086e+01	2.094069e+02
1.530000e-06	3.948730e-06	3.164656e-09	2.829206e+01	2.098644e+02
1.540000e-06	3.967117e-06	3.170593e-09	2.842379e+01	2.103088e+02
1.550000e-06	3.983961e-06	3.174233e-09	2.854448e+01	2.107361e+02
1.560000e-06	3.999315e-06	3.177620e-09	2.865449e+01	2.111399e+02
1.570000e-06	4.013198e-06	3.182881e-09	2.875396e+01	2.115125e+02
1.580000e-06	4.025719e-06	3.188635e-09	2.884368e+01	2.118461e+02
1.590000e-06	4.036689e-06	3.193085e-09	2.892227e+01	2.121341e+02
1.600000e-06	4.045866e-06	3.195042e-09	2.898802e+01	2.123722e+02
1.610000e-06	4.053496e-06	3.197150e-09	2.904269e+01	2.125594e+02
1.620000e-06	4.059796e-06	3.200559e-09	2.908783e+01	2.126983e+02
1.630000e-06	4.064715e-06	3.202079e-09	2.912307e+01	2.127948e+02
1.640000e-06	4.068379e-06	3.201498e-09	2.914933e+01	2.128577e+02
1.650000e-06	4.070585e-06	3.202016e-09	2.916513e+01	2.128967e+02
1.660000e-06	4.071160e-06	3.204543e-09	2.916925e+01	2.129220e+02
1.670000e-06	4.070363e-06	3.206520e-09	2.916354e+01	2.129419e+02
1.680000e-06	4.068290e-06	3.205813e-09	2.914869e+01	2.129617e+02
1.690000e-06	4.065018e-06	3.203801e-09	2.912524e+01	2.129832e+02
1.700000e-06	4.060644e-06	3.203705e-09	2.909390e+01	2.130036e+02
1.710000e-06	4.054824e-06	3.202327e-09	2.905221e+01	2.130166e+02
1.720000e-06	4.047414e-06	3.198031e-09	2.899912e+01	2.130131e+02
1.730000e-06	4.038782e-06	3.195685e-09	2.893727e+01	2.129825e+02
1.740000e-06	4.029064e-06	3.191793e-09	2.886764e+01	2.129149e+02
1.750000e-06	4.018047e-06	3.173016e-09	2.878870e+01	2.128029e+02
1.760000e-06	4.005032e-06	3.149534e-09	2.869546e+01	2.126430e+02
1.770000e-06	3.989537e-06	3.135649e-09	2.858443e+01	2.124370e+02
1.780000e-06	3.972140e-06	3.176845e-09	2.845979e+01	2.121922e+02
1.790000e-06	3.953999e-06	3.222061e-09	2.832981e+01	2.119208e+02
1.800000e-06	3.935561e-06	3.178648e-09	2.819770e+01	2.116387e+02
1.810000e-06	3.915729e-06	3.128425e-09	2.805561e+01	2.113636e+02
1.820000e-06	3.893690e-06	3.170733e-09	2.789770e+01	2.111120e+02
1.830000e-06	3.870544e-06	3.286956e-09	2.773187e+01	2.108971e+02
1.840000e-06	3.846540e-06	3.239361e-09	2.755988e+01	2.107264e+02
1.850000e-06	3.820720e-06	3.011152e-09	2.737489e+01	2.105993e+02
1.860000e-06	3.793486e-06	3.028798e-09	2.717976e+01	2.105071e+02
1.870000e-06	3.765375e-06	3.228997e-09	2.697835e+01	2.104323e+02
1.880000e-06	3.735879e-06	3.162677e-09	2.676701e+01	2.103504e+02
1.890000e-06	3.704688e-06	3.053401e-09	2.654353e+01	2.102318e+02
1.900000e-06	3.672050e-06	3.233093e-09	2.630969e+01	2.100448e+02
1.910000e-06	3.638299e-06	3.432045e-09	2.606787e+01	2.097590e+02
1.920000e-06	3.603536e-06	3.397605e-09	2.581879e+01	2.093486e+02
1.930000e-06	3.567519e-06	3.226614e-09	2.556074e+01	2.087951e+02
1.940000e-06	3.530261e-06	3.126955e-09	2.529379e+01	2.080895e+02
1.950000e-06	3.491738e-06	3.207891e-09	2.501778e+01	2.072332e+02
1.960000e-06	3.451593e-06	3.321416e-09	2.473015e+01	2.062378e+02
1.970000e-06	3.410118e-06	3.290632e-09	2.443298e+01	2.051237e+02
1.980000e-06	3.367752e-06	3.125806e-09	2.412944e+01	2.039174e+02
1.990000e-06	3.324342e-06	3.009283e-09	2.381841e+01	2.026489e+02
2.000000e-06	3.279832e-06	3.185657e-09	2.349950e+01	2.013475e+02
2.010000e-06	3.234175e-06	3.307933e-09	2.317238e+01	2.000391e+02
2.020000e-06	3.187331e-06	3.047347e-09	2.283675e+01	1.987430e+02
2.030000e-06	3.139183e-06	2.897873e-09	2.249178e+01	1.974705e+02
2.040000e-06	3.089737e-06	3.071406e-09	2.213750e+01	1.962234e+02
2.050000e-06	3.039375e-06	3.162897e-09	2.177667e+01	1.949948e+02
2.060000e-06	2.987967e-06	3.023057e-09	2.140834e+01	1.937705e+02
2.070000e-06	2.935277e-06	2.910820e-09	2.103082e+01	1.925312e+02
2.080000e-06	2.881190e-06	2.935500e-09	2.064329e+01	1.912550e+02
2.090000e-06	2.825787e-06	2.968974e-09	2.024634e+01	1.899207e+02
2.100000e-06	2.769400e-06	2.987267e-09	1.984233e+01	1.885105e+02
2.110000e-06	2.712002e-06	2.920088e-09	1.943109e+01	1.870117e+02
2.120000e-06	2.653747e-06	2.786047e-09	1.901370e+01	1.854180e+02
2.130000e-06	2.594752e-06	2.815919e-09	1.859101e+01	1.837303e+02
2.140000e-06	2.534954e-06	2.911974e-09	1.816257e+01	1.819551e+02
2.150000e-06	2.474365e-06	2.837079e-09	1.772846e+01	1.801038e+02
2.160000e-06	2.412678e-06	2.677588e-09	1.728648e+01	1.781902e+02
2.170000e-06	2.349738e-06	2.681492e-09	1.683552e+01	1.762284e+02
2.180000e-06	2.285883e-06	2.783205e-09	1.637801e+01	1.742305e+02
2.190000e-06	2.221417e-06	2.707500e-09	1.591612e+01	1.722047e+02
2.200000e-06	2.156275e-06	2.574771e-09	1.544938e+01	1.701543e+02
2.210000e-06	2.090320e-06	2.569949e-09	1.497683e+01	1.680771e+02
2.220000e-06	2.023650e-06	2.603396e-09	1.449915e+01	1.659657e+02
2.230000e-06	1.956312e-06	2.567226e-09	1.401668e+01	1.638088e+02
2.240000e-06	1.888377e-06	2.482047e-09	1.352994e+01	1.615923e+02
2.250000e-06	1.819862e-06	2.437837e-09	1.303903e+01	1.593010e+02
2.260000e-06	1.750637e-06	2.421631e-09	1.254305e+01	1.569205e+02
2.270000e-06	1.680533e-06	2.402811e-09	1.204076e+01	1.544384e+02
2.280000e-06	1.609468e-06	2.361151e-09	1.153159e+01	1.518454e+02
2.290000e-06	1.537738e-06	2.290271e-09	1.101766e+01	1.491350e+02
2.300000e-06	1.465661e-06	2.241449e-09	1.050124e+01	1.463039e+02
2.310000e-06	1.393276e-06	2.224398e-09	9.982613e+00	1.433508e+02
2.320000e-06	1.320456e-06	2.194977e-09	9.460867e+00	1.402750e+02
2.330000e-06	1.247150e-06	2.110574e-09	8.935644e+00	1.370756e+02
2.340000e-06	1.173381e-06	2.027832e-09	8.407096e+00	1.337498e+02
2.350000e-06	1.099158e-06	2.009661e-09	7.875304e+00	1.302922e+02
2.360000e-06	1.024585e-06	1.989550e-09	7.340995e+00	1.266940e+02
2.370000e-06	9.496824e-07	1.901798e-09	6.804332e+00	1.229434e+02
2.380000e-06	8.743729e-07	1.806834e-09	6.264750e+00	1.190257e+02
2.390000e-06	7.987740e-07	1.771769e-09	5.723096e+00	1.149245e+02
2.400000e-06	7.229660e-07	1.732558e-09	5.179943e+00	1.106228e+02
2.410000e-06	6.468972e-07	1.635508e-09	4.634921e+00	1.061044e+02
2.420000e-06	5.706074e-07	1.538802e-09	4.088316e+00	1.013550e+02
2.430000e-06	4.941667e-07	1.476112e-09	3.540631e+00	9.636304e+01
2.440000e-06	4.175589e-07	1.411753e-09	2.991747e+00	9.112075e+01
2.450000e-06	3.407328e-07	1.326195e-09	2.441299e+00	8.562382e+01
2.460000e-06	2.637499e-07	1.230596e-09	1.889728e+00	7.987141e+01
2.470000e-06	1.866093e-07	1.132558e-09	1.337028e+00	7.386561e+01
2.480000e-06	1.092248e-07	1.043053e-09	7.825792e-01	6.761071e+01
2.490000e-06	3.172752e-08	9.623992e-10	2.273229e-01	6.111260e+01
2.500000e-06	-4.563806e-08	8.581076e-10	-3.269899e-01	5.437826e+01
2.510000e-06	-1.229391e-07	7.280289e-10	-8.808399e-01	4.741557e+01
2.520000e-06	-2.002808e-07	6.165962e-10	-1.434982e+00	4.023351e+01
2.530000e-06	-2.774376e-07	5.278950e-10	-1.987799e+00	3.284268e+01
2.540000e-06	-3.542692e-07	4.124155e-10	-2.538286e+00	2.525615e+01
2.550000e-06	-4.309129e-07	2.686525e-10	-3.087426e+00	1.749044e+01
2.560000e-06	-5.073844e-07	1.464167e-10	-3.635333e+00	9.566467e+00
2.570000e-06	-5.836315e-07	4.501984e-11	-4.181632e+00	1.510340e+00
2.580000e-06	-6.597083e-07	-7.579303e-11	-4.726711e+00	-6.646312e+00
2.590000e-06	-7.355544e-07	-2.165212e-10	-5.270137e+00	-1.486647e+01
2.600000e-06	-8.111079e-07	-3.456113e-10	-5.811467e+00	-2.310842e+01
2.610000e-06	-8.863851e-07	-4.601435e-10	-6.350816e+00	-3.132705e+01
2.620000e-06	-9.612603e-07	-5.789589e-10	-6.887286e+00	-3.947558e+01
2.630000e-06	-1.035713e-06	-7.054436e-10	-7.420730e+00	-4.750758e+01
2.640000e-06	-1.109828e-06	-8.333671e-10	-7.951749e+00	-5.537911e+01
2.650000e-06	-1.183602e-06	-9.533695e-10	-8.480333e+00	-6.305069e+01
2.660000e-06	-1.256950e-06	-1.061819e-09	-9.005857e+00	-7.048902e+01
2.670000e-06	-1.329856e-06	-1.167184e-09	-9.528219e+00	-7.766811e+01
2.680000e-06	-1.402364e-06	-1.278987e-09	-1.004773e+01	-8.456979e+01
2.690000e-06	-1.474504e-06	-1.388049e-09	-1.056460e+01	-9.118373e+01
2.700000e-06	-1.546279e-06	-1.477601e-09	-1.107886e+01	-9.750668e+01
2.710000e-06	-1.617512e-06	-1.559381e-09	-1.158923e+01	-1.035414e+02
2.720000e-06	-1.688010e-06	-1.653393e-09	-1.209434e+01	-1.092952e+02
2.730000e-06	-1.757609e-06	-1.749696e-09	-1.259301e+01	-1.147785e+02
2.740000e-06	-1.826349e-06	-1.826932e-09	-1.308552e+01	-1.200031e+02
2.750000e-06	-1.894484e-06	-1.894514e-09	-1.357369e+01	-1.249813e+02
2.760000e-06	-1.962096e-06	-1.969525e-09	-1.405812e+01	-1.297249e+02
2.770000e-06	-2.029063e-06	-2.046069e-09	-1.453793e+01	-1.342444e+02
2.780000e-06	-2.095321e-06	-2.113632e-09	-1.501266e+01	-1.385493e+02
2.790000e-06	-2.160897e-06	-2.174075e-09	-1.548250e+01	-1.426481e+02
2.800000e-06	-2.225812e-06	-2.233661e-09	-1.594761e+01	-1.465484e+02
2.810000e-06	-2.290078e-06	-2.293651e-09	-1.640806e+01	-1.502577e+02
2.820000e-06	-2.353576e-06	-2.353185e-09	-1.686302e+01	-1.537834e+02
2.830000e-06	-2.415941e-06	-2.407487e-09	-1.730986e+01	-1.571337e+02
2.840000e-06	-2.477152e-06	-2.455465e-09	-1.774842e+01	-1.603165e+02
2.850000e-06	-2.537521e-06	-2.501981e-09	-1.818096e+01	-1.633406e+02
2.860000e-06	-2.597128e-06	-2.550262e-09	-1.860804e+01	-1.662143e+02
2.870000e-06	-2.655875e-06	-2.596142e-09	-1.902894e+01	-1.689457e+02
2.880000e-06	-2.713668e-06	-2.634711e-09	-1.944302e+01	-1.715419e+02
2.890000e-06	-2.770545e-06	-2.670525e-09	-1.985054e+01	-1.740091e+02
2.900000e-06	-2.826668e-06	-2.708314e-09	-2.025265e+01	-1.763521e+02
2.910000e-06	-2.881745e-06	-2.744625e-09	-2.064727e+01	-1.785749e+02
2.920000e-06	-2.935385e-06	-2.776355e-09	-2.103159e+01	-1.806803e+02
2.930000e-06	-2.987687e-06	-2.804929e-09	-2.140633e+01	-1.826713e+02
2.940000e-06	-3.038871e-06	-2.834924e-09	-2.177306e+01	-1.845506e+02
