# Temperatura_=_20.0
# Concentracion g/m^3_=_9000.0
# C_Vs_to_Am_M_A/Vsm_=_65563218390.804596
# pendiente_HvsI_1/m_=_3716.3
# ordenada_HvsI_A/m_=_1297.0
# frecuencia_Hz_=_300769.12485921074

Tiempo_(s)	Campo_(V.s)	Magnetizacion_(V.s)	Campo_(kA/m)	Magnetizacion_(A/m)
0.000000e+00	-4.057634e-06	-3.257717e-09	-2.906795e+01	-2.131595e+02
1.000000e-08	-4.055594e-06	-3.258910e-09	-2.905334e+01	-2.131790e+02
2.000000e-08	-4.052111e-06	-3.259697e-09	-2.902838e+01	-2.131750e+02
3.000000e-08	-4.047468e-06	-3.259567e-09	-2.899513e+01	-2.131468e+02
4.000000e-08	-4.041603e-06	-3.258751e-09	-2.895311e+01	-2.130939e+02
5.000000e-08	-4.034507e-06	-3.257719e-09	-2.890228e+01	-2.130155e+02
6.000000e-08	-4.026222e-06	-3.257241e-09	-2.884292e+01	-2.129116e+02
7.000000e-08	-4.016415e-06	-3.259478e-09	-2.877267e+01	-2.127829e+02
8.000000e-08	-4.004790e-06	-3.257991e-09	-2.868939e+01	-2.126311e+02
9.000000e-08	-3.991273e-06	-3.254828e-09	-2.859256e+01	-2.124595e+02
1.000000e-07	-3.975631e-06	-3.266511e-09	-2.848050e+01	-2.122722e+02
1.100000e-07	-3.958298e-06	-3.270212e-09	-2.835633e+01	-2.120741e+02
1.200000e-07	-3.939924e-06	-3.264831e-09	-2.822470e+01	-2.118707e+02
1.300000e-07	-3.920631e-06	-3.210082e-09	-2.808649e+01	-2.116669e+02
1.400000e-07	-3.900323e-06	-3.191301e-09	-2.794101e+01	-2.114664e+02
1.500000e-07	-3.878951e-06	-3.275909e-09	-2.778791e+01	-2.112714e+02
1.600000e-07	-3.856441e-06	-3.248817e-09	-2.762665e+01	-2.110815e+02
1.700000e-07	-3.832234e-06	-3.177083e-09	-2.745324e+01	-2.108936e+02
1.800000e-07	-3.806293e-06	-3.202331e-09	-2.726740e+01	-2.107018e+02
1.900000e-07	-3.779225e-06	-3.202016e-09	-2.707350e+01	-2.104975e+02
2.000000e-07	-3.751007e-06	-3.192492e-09	-2.687135e+01	-2.102699e+02
2.100000e-07	-3.721371e-06	-3.238513e-09	-2.665904e+01	-2.100070e+02
2.200000e-07	-3.690548e-06	-3.193385e-09	-2.643823e+01	-2.096964e+02
2.300000e-07	-3.658667e-06	-3.155006e-09	-2.620984e+01	-2.093263e+02
2.400000e-07	-3.625438e-06	-3.226694e-09	-2.597180e+01	-2.088867e+02
2.500000e-07	-3.590730e-06	-3.218994e-09	-2.572316e+01	-2.083702e+02
2.600000e-07	-3.554655e-06	-3.171807e-09	-2.546473e+01	-2.077724e+02
2.700000e-07	-3.517394e-06	-3.150021e-09	-2.519780e+01	-2.070923e+02
2.800000e-07	-3.478925e-06	-3.131114e-09	-2.492221e+01	-2.063325e+02
2.900000e-07	-3.439360e-06	-3.163095e-09	-2.463878e+01	-2.054982e+02
3.000000e-07	-3.398637e-06	-3.159534e-09	-2.434705e+01	-2.045966e+02
3.100000e-07	-3.356391e-06	-3.073437e-09	-2.404441e+01	-2.036364e+02
3.200000e-07	-3.312755e-06	-3.067868e-09	-2.373181e+01	-2.026262e+02
3.300000e-07	-3.268034e-06	-3.095007e-09	-2.341144e+01	-2.015736e+02
3.400000e-07	-3.222236e-06	-3.060271e-09	-2.308335e+01	-2.004848e+02
3.500000e-07	-3.175207e-06	-3.031345e-09	-2.274645e+01	-1.993635e+02
3.600000e-07	-3.127010e-06	-3.020833e-09	-2.240118e+01	-1.982108e+02
3.700000e-07	-3.077496e-06	-2.991820e-09	-2.204647e+01	-1.970253e+02
3.800000e-07	-3.026360e-06	-2.978883e-09	-2.168014e+01	-1.958035e+02
3.900000e-07	-2.973795e-06	-2.992733e-09	-2.130358e+01	-1.945403e+02
4.000000e-07	-2.920220e-06	-2.948018e-09	-2.091978e+01	-1.932297e+02
4.100000e-07	-2.865788e-06	-2.894892e-09	-2.052984e+01	-1.918660e+02
4.200000e-07	-2.810479e-06	-2.901987e-09	-2.013362e+01	-1.904439e+02
4.300000e-07	-2.754209e-06	-2.907982e-09	-1.973052e+01	-1.889597e+02
4.400000e-07	-2.696727e-06	-2.860928e-09	-1.931873e+01	-1.874113e+02
4.500000e-07	-2.637979e-06	-2.811815e-09	-1.889787e+01	-1.857984e+02
4.600000e-07	-2.578290e-06	-2.802200e-09	-1.847027e+01	-1.841223e+02
4.700000e-07	-2.517857e-06	-2.799145e-09	-1.803734e+01	-1.823855e+02
4.800000e-07	-2.456612e-06	-2.763285e-09	-1.759860e+01	-1.805910e+02
4.900000e-07	-2.394497e-06	-2.721494e-09	-1.715362e+01	-1.787420e+02
5.000000e-07	-2.331570e-06	-2.696349e-09	-1.670283e+01	-1.768409e+02
5.100000e-07	-2.267998e-06	-2.663827e-09	-1.624741e+01	-1.748888e+02
5.200000e-07	-2.203711e-06	-2.636773e-09	-1.578687e+01	-1.728855e+02
5.300000e-07	-2.138246e-06	-2.611409e-09	-1.531790e+01	-1.708289e+02
5.400000e-07	-2.071663e-06	-2.573723e-09	-1.484091e+01	-1.687155e+02
5.500000e-07	-2.004428e-06	-2.528748e-09	-1.435926e+01	-1.665403e+02
5.600000e-07	-1.936697e-06	-2.505492e-09	-1.387405e+01	-1.642972e+02
5.700000e-07	-1.868395e-06	-2.487996e-09	-1.338475e+01	-1.619799e+02
5.800000e-07	-1.799475e-06	-2.441723e-09	-1.289102e+01	-1.595816e+02
5.900000e-07	-1.729996e-06	-2.393760e-09	-1.239329e+01	-1.570962e+02
6.000000e-07	-1.659916e-06	-2.360403e-09	-1.189125e+01	-1.545179e+02
6.100000e-07	-1.589189e-06	-2.327341e-09	-1.138458e+01	-1.518415e+02
6.200000e-07	-1.517909e-06	-2.280733e-09	-1.087395e+01	-1.490626e+02
6.300000e-07	-1.446301e-06	-2.234055e-09	-1.036097e+01	-1.461769e+02
6.400000e-07	-1.374369e-06	-2.189181e-09	-9.845661e+00	-1.431801e+02
6.500000e-07	-1.301819e-06	-2.140069e-09	-9.325931e+00	-1.400674e+02
6.600000e-07	-1.228480e-06	-2.092377e-09	-8.800548e+00	-1.368332e+02
6.700000e-07	-1.154439e-06	-2.046671e-09	-8.270133e+00	-1.334708e+02
6.800000e-07	-1.079822e-06	-1.993866e-09	-7.735593e+00	-1.299719e+02
6.900000e-07	-1.004733e-06	-1.931630e-09	-7.197676e+00	-1.263271e+02
7.000000e-07	-9.292586e-07	-1.873334e-09	-6.656994e+00	-1.225254e+02
7.100000e-07	-8.534545e-07	-1.817321e-09	-6.113951e+00	-1.185547e+02
7.200000e-07	-7.773982e-07	-1.753736e-09	-5.569101e+00	-1.144022e+02
7.300000e-07	-7.011217e-07	-1.682555e-09	-5.022674e+00	-1.100547e+02
7.400000e-07	-6.245915e-07	-1.612279e-09	-4.474429e+00	-1.054991e+02
7.500000e-07	-5.477868e-07	-1.539576e-09	-3.924218e+00	-1.007227e+02
7.600000e-07	-4.707945e-07	-1.462527e-09	-3.372663e+00	-9.571391e+01
7.700000e-07	-3.937173e-07	-1.385203e-09	-2.820500e+00	-9.046233e+01
7.800000e-07	-3.165432e-07	-1.303987e-09	-2.267642e+00	-8.495917e+01
7.900000e-07	-2.392432e-07	-1.212680e-09	-1.713883e+00	-7.919753e+01
8.000000e-07	-1.618475e-07	-1.114246e-09	-1.159438e+00	-7.317268e+01
8.100000e-07	-8.438074e-08	-1.019954e-09	-6.044841e-01	-6.688230e+01
8.200000e-07	-6.886399e-09	-9.232409e-10	-4.933257e-02	-6.032689e+01
8.300000e-07	7.057988e-08	-8.144071e-10	5.056180e-01	-5.351005e+01
8.400000e-07	1.480566e-07	-6.992382e-10	1.060643e+00	-4.643896e+01
8.500000e-07	2.255151e-07	-5.884826e-10	1.615538e+00	-3.912475e+01
8.600000e-07	3.028627e-07	-4.781743e-10	2.169638e+00	-3.158294e+01
8.700000e-07	3.800682e-07	-3.606610e-10	2.722721e+00	-2.383366e+01
8.800000e-07	4.571433e-07	-2.357713e-10	3.274869e+00	-1.590188e+01
8.900000e-07	5.340335e-07	-1.078671e-10	3.825692e+00	-7.817304e+00
9.000000e-07	6.106495e-07	1.653607e-11	4.374552e+00	3.858974e-01
9.100000e-07	6.870365e-07	1.400142e-10	4.921771e+00	8.669671e+00
9.200000e-07	7.631948e-07	2.676999e-10	5.467351e+00	1.699291e+01
9.300000e-07	8.390964e-07	3.985816e-10	6.011092e+00	2.531256e+01
9.400000e-07	9.148083e-07	5.252870e-10	6.553475e+00	3.358481e+01
9.500000e-07	9.903119e-07	6.465080e-10	7.094366e+00	4.176653e+01
9.600000e-07	1.065520e-06	7.696085e-10	7.633141e+00	4.981656e+01
9.700000e-07	1.140231e-06	8.954770e-10	8.168352e+00	5.769705e+01
9.800000e-07	1.214226e-06	1.016369e-09	8.698433e+00	6.537447e+01
9.900000e-07	1.287450e-06	1.127997e-09	9.222991e+00	7.282050e+01
1.000000e-06	1.359940e-06	1.235564e-09	9.742298e+00	8.001251e+01
1.010000e-06	1.431923e-06	1.342085e-09	1.025797e+01	8.693376e+01
1.020000e-06	1.503571e-06	1.444073e-09	1.077124e+01	9.357330e+01
1.030000e-06	1.574847e-06	1.540133e-09	1.128184e+01	9.992551e+01
1.040000e-06	1.645541e-06	1.633105e-09	1.178828e+01	1.059895e+02
1.050000e-06	1.715585e-06	1.721631e-09	1.229005e+01	1.117684e+02
1.060000e-06	1.785083e-06	1.804154e-09	1.278792e+01	1.172683e+02
1.070000e-06	1.853948e-06	1.884067e-09	1.328125e+01	1.224978e+02
1.080000e-06	1.922165e-06	1.960549e-09	1.376995e+01	1.274669e+02
1.090000e-06	1.989890e-06	2.031079e-09	1.425511e+01	1.321864e+02
1.100000e-06	2.057096e-06	2.097135e-09	1.473656e+01	1.366676e+02
1.110000e-06	2.123500e-06	2.162477e-09	1.521226e+01	1.409220e+02
1.120000e-06	2.188793e-06	2.227531e-09	1.568000e+01	1.449606e+02
1.130000e-06	2.253090e-06	2.286410e-09	1.614062e+01	1.487943e+02
1.140000e-06	2.316748e-06	2.339078e-09	1.659665e+01	1.524335e+02
1.150000e-06	2.379728e-06	2.388890e-09	1.704782e+01	1.558882e+02
1.160000e-06	2.441915e-06	2.437836e-09	1.749332e+01	1.591682e+02
1.170000e-06	2.503321e-06	2.483711e-09	1.793321e+01	1.622826e+02
1.180000e-06	2.563872e-06	2.527303e-09	1.836699e+01	1.652402e+02
1.190000e-06	2.623690e-06	2.568937e-09	1.879551e+01	1.680493e+02
1.200000e-06	2.682782e-06	2.608520e-09	1.921883e+01	1.707176e+02
1.210000e-06	2.740717e-06	2.648454e-09	1.963386e+01	1.732521e+02
1.220000e-06	2.797321e-06	2.687500e-09	2.003936e+01	1.756596e+02
1.230000e-06	2.852896e-06	2.722166e-09	2.043749e+01	1.779458e+02
1.240000e-06	2.907594e-06	2.752207e-09	2.082933e+01	1.801165e+02
1.250000e-06	2.961313e-06	2.782113e-09	2.121416e+01	1.821766e+02
1.260000e-06	3.013948e-06	2.811410e-09	2.159123e+01	1.841310e+02
1.270000e-06	3.065425e-06	2.839401e-09	2.196000e+01	1.859845e+02
1.280000e-06	3.115497e-06	2.865756e-09	2.231870e+01	1.877416e+02
1.290000e-06	3.164085e-06	2.890558e-09	2.266677e+01	1.894071e+02
1.300000e-06	3.211477e-06	2.913279e-09	2.300627e+01	1.909856e+02
1.310000e-06	3.257810e-06	2.935102e-09	2.333819e+01	1.924817e+02
1.320000e-06	3.303056e-06	2.956766e-09	2.366233e+01	1.939000e+02
1.330000e-06	3.347276e-06	2.978428e-09	2.397911e+01	1.952450e+02
1.340000e-06	3.390490e-06	2.998998e-09	2.428869e+01	1.965205e+02
1.350000e-06	3.432316e-06	3.017953e-09	2.458832e+01	1.977302e+02
1.360000e-06	3.472674e-06	3.035655e-09	2.487743e+01	1.988771e+02
1.370000e-06	3.511856e-06	3.052774e-09	2.515813e+01	1.999638e+02
1.380000e-06	3.549915e-06	3.069552e-09	2.543077e+01	2.009925e+02
1.390000e-06	3.586806e-06	3.085051e-09	2.569505e+01	2.019649e+02
1.400000e-06	3.622592e-06	3.099290e-09	2.595141e+01	2.028827e+02
1.410000e-06	3.657097e-06	3.112025e-09	2.619860e+01	2.037476e+02
1.420000e-06	3.690024e-06	3.125139e-09	2.643448e+01	2.045615e+02
1.430000e-06	3.721586e-06	3.138752e-09	2.666058e+01	2.053266e+02
1.440000e-06	3.751998e-06	3.150316e-09	2.687845e+01	2.060459e+02
1.450000e-06	3.781227e-06	3.159999e-09	2.708783e+01	2.067222e+02
1.460000e-06	3.809306e-06	3.169584e-09	2.728899e+01	2.073591e+02
1.470000e-06	3.835993e-06	3.180381e-09	2.748017e+01	2.079601e+02
1.480000e-06	3.861016e-06	3.190360e-09	2.765943e+01	2.085286e+02
1.490000e-06	3.884584e-06	3.199050e-09	2.782826e+01	2.090675e+02
1.500000e-06	3.906884e-06	3.207581e-09	2.798801e+01	2.095793e+02
1.510000e-06	3.927898e-06	3.215065e-09	2.813855e+01	2.100655e+02
1.520000e-06	3.947727e-06	3.222704e-09	2.828060e+01	2.105267e+02
1.530000e-06	3.966271e-06	3.229754e-09	2.841345e+01	2.109625e+02
1.540000e-06	3.983344e-06	3.235477e-09	2.853575e+01	2.113719e+02
1.550000e-06	3.998954e-06	3.240898e-09	2.864758e+01	2.117534e+02
1.560000e-06	4.013036e-06	3.246571e-09	2.874846e+01	2.121051e+02
1.570000e-06	4.025628e-06	3.252766e-09	2.883867e+01	2.124252e+02
1.580000e-06	4.036676e-06	3.258827e-09	2.891782e+01	2.127125e+02
1.590000e-06	4.045948e-06	3.264384e-09	2.898424e+01	2.129661e+02
1.600000e-06	4.053658e-06	3.268516e-09	2.903946e+01	2.131861e+02
1.610000e-06	4.060088e-06	3.271159e-09	2.908553e+01	2.133732e+02
1.620000e-06	4.065143e-06	3.272772e-09	2.912175e+01	2.135290e+02
1.630000e-06	4.068901e-06	3.274267e-09	2.914866e+01	2.136551e+02
1.640000e-06	4.071151e-06	3.276114e-09	2.916478e+01	2.137537e+02
1.650000e-06	4.071774e-06	3.278966e-09	2.916925e+01	2.138264e+02
1.660000e-06	4.071057e-06	3.280802e-09	2.916411e+01	2.138747e+02
1.670000e-06	4.069041e-06	3.281603e-09	2.914967e+01	2.138994e+02
1.680000e-06	4.065785e-06	3.281701e-09	2.912634e+01	2.139005e+02
1.690000e-06	4.061417e-06	3.282177e-09	2.909505e+01	2.138777e+02
1.700000e-06	4.055648e-06	3.280849e-09	2.905373e+01	2.138303e+02
1.710000e-06	4.048355e-06	3.278626e-09	2.900148e+01	2.137575e+02
1.720000e-06	4.039850e-06	3.275533e-09	2.894055e+01	2.136592e+02
1.730000e-06	4.030210e-06	3.266131e-09	2.887149e+01	2.135358e+02
1.740000e-06	4.019288e-06	3.265882e-09	2.879325e+01	2.133889e+02
1.750000e-06	4.006436e-06	3.255130e-09	2.870118e+01	2.132213e+02
1.760000e-06	3.991110e-06	3.236462e-09	2.859139e+01	2.130370e+02
1.770000e-06	3.973850e-06	3.237640e-09	2.846774e+01	2.128410e+02
1.780000e-06	3.955775e-06	3.265015e-09	2.833826e+01	2.126384e+02
1.790000e-06	3.937389e-06	3.320734e-09	2.820655e+01	2.124344e+02
1.800000e-06	3.917728e-06	3.283344e-09	2.806570e+01	2.122331e+02
1.810000e-06	3.895892e-06	3.194325e-09	2.790927e+01	2.120370e+02
1.820000e-06	3.872795e-06	3.283776e-09	2.774381e+01	2.118463e+02
1.830000e-06	3.848806e-06	3.311505e-09	2.757196e+01	2.116585e+02
1.840000e-06	3.823108e-06	3.235056e-09	2.738786e+01	2.114683e+02
1.850000e-06	3.796032e-06	3.296574e-09	2.719389e+01	2.112676e+02
1.860000e-06	3.768071e-06	3.277200e-09	2.699359e+01	2.110461e+02
1.870000e-06	3.738760e-06	3.185907e-09	2.678361e+01	2.107920e+02
1.880000e-06	3.707834e-06	3.243031e-09	2.656206e+01	2.104927e+02
1.890000e-06	3.675385e-06	3.225982e-09	2.632961e+01	2.101364e+02
1.900000e-06	3.641728e-06	3.125755e-09	2.608850e+01	2.097126e+02
1.910000e-06	3.607082e-06	3.185167e-09	2.584030e+01	2.092131e+02
1.920000e-06	3.571145e-06	3.206121e-09	2.558286e+01	2.086331e+02
1.930000e-06	3.533913e-06	3.175569e-09	2.531613e+01	2.079707e+02
1.940000e-06	3.495481e-06	3.154295e-09	2.504082e+01	2.072277e+02
1.950000e-06	3.455502e-06	3.081130e-09	2.475442e+01	2.064089e+02
1.960000e-06	3.414156e-06	3.120331e-09	2.445822e+01	2.055212e+02
1.970000e-06	3.371867e-06	3.151523e-09	2.415528e+01	2.045730e+02
1.980000e-06	3.328567e-06	3.079896e-09	2.384509e+01	2.035728e+02
1.990000e-06	3.284169e-06	3.094355e-09	2.352703e+01	2.025289e+02
2.000000e-06	3.238612e-06	3.078900e-09	2.320067e+01	2.014476e+02
2.010000e-06	3.191903e-06	3.041871e-09	2.286605e+01	2.003332e+02
2.020000e-06	3.143858e-06	3.061482e-09	2.252187e+01	1.991874e+02
2.030000e-06	3.094477e-06	3.032504e-09	2.216811e+01	1.980093e+02
2.040000e-06	3.044140e-06	2.991475e-09	2.180751e+01	1.967958e+02
2.050000e-06	2.992747e-06	2.953738e-09	2.143934e+01	1.955420e+02
2.060000e-06	2.940090e-06	2.973946e-09	2.106212e+01	1.942422e+02
2.070000e-06	2.886071e-06	2.974797e-09	2.067515e+01	1.928905e+02
2.080000e-06	2.830801e-06	2.896908e-09	2.027920e+01	1.914814e+02
2.090000e-06	2.774533e-06	2.872929e-09	1.987612e+01	1.900108e+02
2.100000e-06	2.717261e-06	2.871648e-09	1.946583e+01	1.884764e+02
2.110000e-06	2.659131e-06	2.862585e-09	1.904940e+01	1.868774e+02
2.120000e-06	2.600232e-06	2.825366e-09	1.862746e+01	1.852148e+02
2.130000e-06	2.540475e-06	2.770766e-09	1.819937e+01	1.834909e+02
2.140000e-06	2.479927e-06	2.765996e-09	1.776562e+01	1.817087e+02
2.150000e-06	2.418387e-06	2.738587e-09	1.732477e+01	1.798712e+02
2.160000e-06	2.355585e-06	2.708052e-09	1.687487e+01	1.779812e+02
2.170000e-06	2.291806e-06	2.692729e-09	1.641797e+01	1.760401e+02
2.180000e-06	2.227421e-06	2.645055e-09	1.595673e+01	1.740480e+02
2.190000e-06	2.162340e-06	2.608425e-09	1.549050e+01	1.720033e+02
2.200000e-06	2.096411e-06	2.581618e-09	1.501821e+01	1.699026e+02
2.210000e-06	2.029677e-06	2.561218e-09	1.454014e+01	1.677412e+02
2.220000e-06	1.962316e-06	2.516489e-09	1.405758e+01	1.655133e+02
2.230000e-06	1.894469e-06	2.460506e-09	1.357153e+01	1.632125e+02
2.240000e-06	1.826065e-06	2.439170e-09	1.308151e+01	1.608323e+02
2.250000e-06	1.756992e-06	2.404248e-09	1.258668e+01	1.583662e+02
2.260000e-06	1.687043e-06	2.361008e-09	1.208559e+01	1.558083e+02
2.270000e-06	1.616099e-06	2.319100e-09	1.157736e+01	1.531535e+02
2.280000e-06	1.544427e-06	2.280484e-09	1.106392e+01	1.503971e+02
2.290000e-06	1.472395e-06	2.238804e-09	1.054790e+01	1.475348e+02
2.300000e-06	1.400008e-06	2.189077e-09	1.002933e+01	1.445623e+02
2.310000e-06	1.327185e-06	2.149943e-09	9.507645e+00	1.414749e+02
2.320000e-06	1.253927e-06	2.096556e-09	8.982844e+00	1.382674e+02
2.330000e-06	1.180187e-06	2.036900e-09	8.454586e+00	1.349332e+02
2.340000e-06	1.105999e-06	1.985861e-09	7.923118e+00	1.314645e+02
2.350000e-06	1.031448e-06	1.939499e-09	7.389056e+00	1.278520e+02
2.360000e-06	9.565780e-07	1.883326e-09	6.852703e+00	1.240850e+02
2.370000e-06	8.813460e-07	1.814571e-09	6.313759e+00	1.201517e+02
2.380000e-06	8.057510e-07	1.753508e-09	5.772214e+00	1.160394e+02
2.390000e-06	7.299445e-07	1.691840e-09	5.229153e+00	1.117349e+02
2.400000e-06	6.539494e-07	1.622481e-09	4.684742e+00	1.072251e+02
2.410000e-06	5.775933e-07	1.546933e-09	4.137745e+00	1.024971e+02
2.420000e-06	5.010289e-07	1.468100e-09	3.589255e+00	9.753921e+01
2.430000e-06	4.243455e-07	1.388603e-09	3.039913e+00	9.234058e+01
2.440000e-06	3.474329e-07	1.308842e-09	2.488929e+00	8.689210e+01
2.450000e-06	2.703678e-07	1.227373e-09	1.936852e+00	8.118646e+01
2.460000e-06	1.931265e-07	1.137619e-09	1.383514e+00	7.521841e+01
2.470000e-06	1.156883e-07	1.039756e-09	8.287644e-01	6.898512e+01
2.480000e-06	3.812365e-08	9.429799e-10	2.731090e-01	6.248643e+01
2.490000e-06	-3.936726e-08	8.481092e-10	-2.820179e-01	5.572525e+01
2.500000e-06	-1.167593e-07	7.437880e-10	-8.364364e-01	4.870797e+01
2.510000e-06	-1.941646e-07	6.268884e-10	-1.390950e+00	4.144484e+01
2.520000e-06	-2.713300e-07	5.092874e-10	-1.943746e+00	3.395039e+01
2.530000e-06	-3.481955e-07	3.961809e-10	-2.494392e+00	2.624376e+01
2.540000e-06	-4.249770e-07	2.800507e-10	-3.044437e+00	1.834887e+01
2.550000e-06	-5.016172e-07	1.571174e-10	-3.593469e+00	1.029443e+01
2.560000e-06	-5.779475e-07	3.022644e-11	-4.140282e+00	2.113686e+00
2.570000e-06	-6.539968e-07	-9.504121e-11	-4.685082e+00	-6.156069e+00
2.580000e-06	-7.298357e-07	-2.175929e-10	-5.228374e+00	-1.447431e+01
2.590000e-06	-8.054306e-07	-3.407134e-10	-5.769918e+00	-2.279828e+01
2.600000e-06	-8.806982e-07	-4.674738e-10	-6.309118e+00	-3.108424e+01
2.610000e-06	-9.555843e-07	-5.945743e-10	-6.845585e+00	-3.928878e+01
2.620000e-06	-1.030118e-06	-7.167650e-10	-7.379525e+00	-4.737023e+01
2.630000e-06	-1.104331e-06	-8.354228e-10	-7.911171e+00	-5.528991e+01
2.640000e-06	-1.178222e-06	-9.528655e-10	-8.440508e+00	-6.301329e+01
2.650000e-06	-1.251728e-06	-1.069964e-09	-8.967093e+00	-7.051088e+01
2.660000e-06	-1.324727e-06	-1.182539e-09	-9.490038e+00	-7.775881e+01
2.670000e-06	-1.397183e-06	-1.287043e-09	-1.000910e+01	-8.473907e+01
2.680000e-06	-1.469253e-06	-1.385535e-09	-1.052539e+01	-9.143950e+01
2.690000e-06	-1.541078e-06	-1.482084e-09	-1.103992e+01	-9.785338e+01
2.700000e-06	-1.612468e-06	-1.578288e-09	-1.155135e+01	-1.039789e+02
2.710000e-06	-1.683109e-06	-1.671230e-09	-1.205740e+01	-1.098183e+02
2.720000e-06	-1.752760e-06	-1.756480e-09	-1.255636e+01	-1.153772e+02
2.730000e-06	-1.821509e-06	-1.833743e-09	-1.304887e+01	-1.206638e+02
2.740000e-06	-1.889704e-06	-1.910549e-09	-1.353740e+01	-1.256876e+02
2.750000e-06	-1.957421e-06	-1.987049e-09	-1.402251e+01	-1.304595e+02
2.760000e-06	-2.024482e-06	-2.056493e-09	-1.450292e+01	-1.349907e+02
2.770000e-06	-2.090838e-06	-2.119689e-09	-1.497828e+01	-1.392927e+02
2.780000e-06	-2.156560e-06	-2.182385e-09	-1.544910e+01	-1.433764e+02
2.790000e-06	-2.221514e-06	-2.244474e-09	-1.591441e+01	-1.472530e+02
2.800000e-06	-2.285767e-06	-2.303405e-09	-1.637471e+01	-1.509329e+02
2.810000e-06	-2.349400e-06	-2.359073e-09	-1.683056e+01	-1.544262e+02
2.820000e-06	-2.411976e-06	-2.410501e-09	-1.727884e+01	-1.577428e+02
2.830000e-06	-2.473288e-06	-2.460200e-09	-1.771806e+01	-1.608918e+02
2.840000e-06	-2.533698e-06	-2.507581e-09	-1.815083e+01	-1.638821e+02
2.850000e-06	-2.593388e-06	-2.550118e-09	-1.857843e+01	-1.667222e+02
2.860000e-06	-2.652201e-06	-2.589551e-09	-1.899975e+01	-1.694199e+02
2.870000e-06	-2.710067e-06	-2.629314e-09	-1.941429e+01	-1.719824e+02
2.880000e-06	-2.766999e-06	-2.669228e-09	-1.982214e+01	-1.744165e+02
2.890000e-06	-2.823158e-06	-2.706501e-09	-2.022445e+01	-1.767281e+02
2.900000e-06	-2.878371e-06	-2.740487e-09	-2.061998e+01	-1.789230e+02
2.910000e-06	-2.932119e-06	-2.772478e-09	-2.100502e+01	-1.810062e+02
2.920000e-06	-2.984476e-06	-2.803127e-09	-2.138010e+01	-1.829828e+02
2.930000e-06	-3.035756e-06	-2.832124e-09	-2.174745e+01	-1.848574e+02
2.940000e-06	-3.085963e-06	-2.860587e-09	-2.210713e+01	-1.866346e+02
