# Temperatura_=_20.0
# Concentracion g/m^3_=_9000.0
# C_Vs_to_Am_M_A/Vsm_=_65563218390.804596
# pendiente_HvsI_1/m_=_3716.3
# ordenada_HvsI_A/m_=_1297.0
# frecuencia_Hz_=_300770.4678973519

Tiempo_(s)	Campo_(V.s)	Magnetizacion_(V.s)	Campo_(kA/m)	Magnetizacion_(A/m)
0.000000e+00	-4.044136e-06	-3.268963e-09	-2.906552e+01	-2.110621e+02
1.000000e-08	-4.042314e-06	-3.270031e-09	-2.905242e+01	-2.110836e+02
2.000000e-08	-4.038984e-06	-3.271985e-09	-2.902849e+01	-2.111075e+02
3.000000e-08	-4.034477e-06	-3.272740e-09	-2.899610e+01	-2.111280e+02
4.000000e-08	-4.028756e-06	-3.273397e-09	-2.895498e+01	-2.111363e+02
5.000000e-08	-4.021783e-06	-3.274987e-09	-2.890487e+01	-2.111214e+02
6.000000e-08	-4.013645e-06	-3.277124e-09	-2.884638e+01	-2.110723e+02
7.000000e-08	-4.004055e-06	-3.280398e-09	-2.877746e+01	-2.109798e+02
8.000000e-08	-3.992656e-06	-3.270361e-09	-2.869553e+01	-2.108386e+02
9.000000e-08	-3.979319e-06	-3.269671e-09	-2.859968e+01	-2.106482e+02
1.000000e-07	-3.963879e-06	-3.286941e-09	-2.848871e+01	-2.104145e+02
1.100000e-07	-3.946709e-06	-3.288508e-09	-2.836531e+01	-2.101488e+02
1.200000e-07	-3.928436e-06	-3.298004e-09	-2.823398e+01	-2.098675e+02
1.300000e-07	-3.909278e-06	-3.244086e-09	-2.809628e+01	-2.095898e+02
1.400000e-07	-3.889131e-06	-3.232363e-09	-2.795149e+01	-2.093356e+02
1.500000e-07	-3.867916e-06	-3.317729e-09	-2.779901e+01	-2.091224e+02
1.600000e-07	-3.845626e-06	-3.209054e-09	-2.763882e+01	-2.089629e+02
1.700000e-07	-3.821774e-06	-3.140086e-09	-2.746739e+01	-2.088623e+02
1.800000e-07	-3.796195e-06	-3.302603e-09	-2.728355e+01	-2.088172e+02
1.900000e-07	-3.769481e-06	-3.316937e-09	-2.709156e+01	-2.088144e+02
2.000000e-07	-3.741567e-06	-3.175856e-09	-2.689093e+01	-2.088323e+02
2.100000e-07	-3.712149e-06	-3.184589e-09	-2.667951e+01	-2.088419e+02
2.200000e-07	-3.681560e-06	-3.242635e-09	-2.645966e+01	-2.088097e+02
2.300000e-07	-3.649948e-06	-3.252032e-09	-2.623246e+01	-2.087012e+02
2.400000e-07	-3.617004e-06	-3.165657e-09	-2.599569e+01	-2.084841e+02
2.500000e-07	-3.582530e-06	-2.976509e-09	-2.574792e+01	-2.081319e+02
2.600000e-07	-3.546680e-06	-3.002620e-09	-2.549026e+01	-2.076265e+02
2.700000e-07	-3.509635e-06	-3.146138e-09	-2.522402e+01	-2.069604e+02
2.800000e-07	-3.471441e-06	-3.148848e-09	-2.494951e+01	-2.061367e+02
2.900000e-07	-3.432090e-06	-3.040824e-09	-2.466670e+01	-2.051693e+02
3.000000e-07	-3.391539e-06	-2.919568e-09	-2.437526e+01	-2.040803e+02
3.100000e-07	-3.349602e-06	-2.960384e-09	-2.407385e+01	-2.028980e+02
3.200000e-07	-3.306265e-06	-3.147164e-09	-2.376238e+01	-2.016530e+02
3.300000e-07	-3.261797e-06	-3.098247e-09	-2.344279e+01	-2.003751e+02
3.400000e-07	-3.216207e-06	-2.844972e-09	-2.311513e+01	-1.990899e+02
3.500000e-07	-3.169378e-06	-2.844840e-09	-2.277857e+01	-1.978160e+02
3.600000e-07	-3.121431e-06	-3.052834e-09	-2.243397e+01	-1.965637e+02
3.700000e-07	-3.072293e-06	-3.053629e-09	-2.208081e+01	-1.953342e+02
3.800000e-07	-3.021598e-06	-2.860399e-09	-2.171646e+01	-1.941205e+02
3.900000e-07	-2.969311e-06	-2.806027e-09	-2.134067e+01	-1.929087e+02
4.000000e-07	-2.915925e-06	-2.886611e-09	-2.095698e+01	-1.916802e+02
4.100000e-07	-2.861717e-06	-2.931273e-09	-2.056738e+01	-1.904149e+02
4.200000e-07	-2.806628e-06	-2.880089e-09	-2.017145e+01	-1.890938e+02
4.300000e-07	-2.750663e-06	-2.781217e-09	-1.976923e+01	-1.877012e+02
4.400000e-07	-2.693599e-06	-2.731562e-09	-1.935910e+01	-1.862264e+02
4.500000e-07	-2.635186e-06	-2.784957e-09	-1.893929e+01	-1.846649e+02
4.600000e-07	-2.575768e-06	-2.843472e-09	-1.851224e+01	-1.830182e+02
4.700000e-07	-2.515620e-06	-2.738531e-09	-1.807996e+01	-1.812925e+02
4.800000e-07	-2.454643e-06	-2.599800e-09	-1.764171e+01	-1.794977e+02
4.900000e-07	-2.392836e-06	-2.659329e-09	-1.719750e+01	-1.776451e+02
5.000000e-07	-2.330212e-06	-2.752250e-09	-1.674742e+01	-1.757450e+02
5.100000e-07	-2.266875e-06	-2.634037e-09	-1.629221e+01	-1.738053e+02
5.200000e-07	-2.202816e-06	-2.507120e-09	-1.583181e+01	-1.718299e+02
5.300000e-07	-2.137744e-06	-2.555118e-09	-1.536413e+01	-1.698179e+02
5.400000e-07	-2.071584e-06	-2.589525e-09	-1.488864e+01	-1.677636e+02
5.500000e-07	-2.004677e-06	-2.502389e-09	-1.440777e+01	-1.656572e+02
5.600000e-07	-1.937185e-06	-2.433945e-09	-1.392270e+01	-1.634863e+02
5.700000e-07	-1.869131e-06	-2.424328e-09	-1.343359e+01	-1.612371e+02
5.800000e-07	-1.800503e-06	-2.401465e-09	-1.294035e+01	-1.588962e+02
5.900000e-07	-1.731259e-06	-2.376307e-09	-1.244269e+01	-1.564523e+02
6.000000e-07	-1.661438e-06	-2.330164e-09	-1.194088e+01	-1.538970e+02
6.100000e-07	-1.590943e-06	-2.256957e-09	-1.143423e+01	-1.512252e+02
6.200000e-07	-1.519841e-06	-2.224534e-09	-1.092321e+01	-1.484353e+02
6.300000e-07	-1.448341e-06	-2.231802e-09	-1.040934e+01	-1.455282e+02
6.400000e-07	-1.376548e-06	-2.178740e-09	-9.893361e+00	-1.425064e+02
6.500000e-07	-1.304342e-06	-2.076835e-09	-9.374406e+00	-1.393723e+02
6.600000e-07	-1.231512e-06	-2.037840e-09	-8.850969e+00	-1.361267e+02
6.700000e-07	-1.158025e-06	-2.040364e-09	-8.322819e+00	-1.327679e+02
6.800000e-07	-1.083902e-06	-1.986682e-09	-7.790090e+00	-1.292907e+02
6.900000e-07	-1.009181e-06	-1.884611e-09	-7.253059e+00	-1.256859e+02
7.000000e-07	-9.339469e-07	-1.824155e-09	-6.712349e+00	-1.219403e+02
7.100000e-07	-8.583708e-07	-1.804455e-09	-6.169178e+00	-1.180382e+02
7.200000e-07	-7.826088e-07	-1.753296e-09	-5.624670e+00	-1.139616e+02
7.300000e-07	-7.066993e-07	-1.657974e-09	-5.079103e+00	-1.096923e+02
7.400000e-07	-6.305383e-07	-1.572041e-09	-4.531728e+00	-1.052126e+02
7.500000e-07	-5.540218e-07	-1.519262e-09	-3.981798e+00	-1.005070e+02
7.600000e-07	-4.772173e-07	-1.461799e-09	-3.429798e+00	-9.556300e+01
7.700000e-07	-4.002876e-07	-1.375152e-09	-2.876898e+00	-9.037146e+01
7.800000e-07	-3.233020e-07	-1.275776e-09	-2.323597e+00	-8.492673e+01
7.900000e-07	-2.461725e-07	-1.187946e-09	-1.769261e+00	-7.922640e+01
8.000000e-07	-1.689198e-07	-1.110963e-09	-1.214040e+00	-7.327068e+01
8.100000e-07	-9.164591e-08	-1.027421e-09	-6.586663e-01	-6.706184e+01
8.200000e-07	-1.437044e-08	-9.175521e-10	-1.032814e-01	-6.060355e+01
8.300000e-07	6.291948e-08	-7.970729e-10	4.522072e-01	-5.390064e+01
8.400000e-07	1.401883e-07	-6.996790e-10	1.007544e+00	-4.695900e+01
8.500000e-07	2.174284e-07	-6.110647e-10	1.562675e+00	-3.978601e+01
8.600000e-07	2.945807e-07	-4.908327e-10	2.117175e+00	-3.239126e+01
8.700000e-07	3.715480e-07	-3.515880e-10	2.670345e+00	-2.478748e+01
8.800000e-07	4.483664e-07	-2.392240e-10	3.222444e+00	-1.699164e+01
8.900000e-07	5.250691e-07	-1.380299e-10	3.773713e+00	-9.025862e+00
9.000000e-07	6.015780e-07	-8.279467e-12	4.323588e+00	-9.181526e-01
9.100000e-07	6.778261e-07	1.353703e-10	4.871589e+00	7.297429e+00
9.200000e-07	7.538011e-07	2.598636e-10	5.417627e+00	1.558108e+01
9.300000e-07	8.295374e-07	3.729910e-10	5.961950e+00	2.388821e+01
9.400000e-07	9.050649e-07	4.952117e-10	6.504772e+00	3.217092e+01
9.500000e-07	9.803355e-07	6.246818e-10	7.045748e+00	4.037992e+01
9.600000e-07	1.055189e-06	7.532954e-10	7.583723e+00	4.846672e+01
9.700000e-07	1.129443e-06	8.736689e-10	8.117398e+00	5.638587e+01
9.800000e-07	1.203026e-06	9.849791e-10	8.646242e+00	6.409694e+01
9.900000e-07	1.275861e-06	1.097899e-09	9.169715e+00	7.156616e+01
1.000000e-06	1.348096e-06	1.217312e-09	9.688874e+00	7.876754e+01
1.010000e-06	1.419945e-06	1.326074e-09	1.020525e+01	8.568328e+01
1.020000e-06	1.491414e-06	1.415435e-09	1.071891e+01	9.230360e+01
1.030000e-06	1.562481e-06	1.504962e-09	1.122967e+01	9.862597e+01
1.040000e-06	1.633044e-06	1.606461e-09	1.173682e+01	1.046539e+02
1.050000e-06	1.703011e-06	1.699089e-09	1.223967e+01	1.103955e+02
1.060000e-06	1.772390e-06	1.771128e-09	1.273831e+01	1.158619e+02
1.070000e-06	1.841154e-06	1.841956e-09	1.323252e+01	1.210657e+02
1.080000e-06	1.909294e-06	1.923109e-09	1.372225e+01	1.260201e+02
1.090000e-06	1.976893e-06	2.002119e-09	1.420809e+01	1.307374e+02
1.100000e-06	2.043878e-06	2.067053e-09	1.468951e+01	1.352292e+02
1.110000e-06	2.109983e-06	2.123906e-09	1.516462e+01	1.395057e+02
1.120000e-06	2.175043e-06	2.182817e-09	1.563220e+01	1.435762e+02
1.130000e-06	2.239192e-06	2.243098e-09	1.609325e+01	1.474492e+02
1.140000e-06	2.302706e-06	2.299181e-09	1.654973e+01	1.511325e+02
1.150000e-06	2.365576e-06	2.346805e-09	1.700158e+01	1.546342e+02
1.160000e-06	2.427663e-06	2.390557e-09	1.744780e+01	1.579620e+02
1.170000e-06	2.488962e-06	2.437843e-09	1.788836e+01	1.611242e+02
1.180000e-06	2.549446e-06	2.488532e-09	1.832307e+01	1.641286e+02
1.190000e-06	2.609197e-06	2.532150e-09	1.875250e+01	1.669831e+02
1.200000e-06	2.668184e-06	2.565486e-09	1.917645e+01	1.696949e+02
1.210000e-06	2.725977e-06	2.600487e-09	1.959181e+01	1.722703e+02
1.220000e-06	2.782484e-06	2.640884e-09	1.999793e+01	1.747150e+02
1.230000e-06	2.838067e-06	2.677252e-09	2.039741e+01	1.770335e+02
1.240000e-06	2.892779e-06	2.704802e-09	2.079063e+01	1.792297e+02
1.250000e-06	2.946497e-06	2.730281e-09	2.117670e+01	1.813073e+02
1.260000e-06	2.999185e-06	2.758470e-09	2.155538e+01	1.832699e+02
1.270000e-06	3.050615e-06	2.787829e-09	2.192501e+01	1.851216e+02
1.280000e-06	3.100516e-06	2.814236e-09	2.228365e+01	1.868674e+02
1.290000e-06	3.148987e-06	2.836838e-09	2.263201e+01	1.885135e+02
1.300000e-06	3.196351e-06	2.857572e-09	2.297242e+01	1.900670e+02
1.310000e-06	3.242672e-06	2.879646e-09	2.330533e+01	1.915361e+02
1.320000e-06	3.287880e-06	2.902099e-09	2.363025e+01	1.929291e+02
1.330000e-06	3.332091e-06	2.922537e-09	2.394800e+01	1.942541e+02
1.340000e-06	3.375285e-06	2.940518e-09	2.425844e+01	1.955185e+02
1.350000e-06	3.417084e-06	2.957908e-09	2.455885e+01	1.967279e+02
1.360000e-06	3.457459e-06	2.976274e-09	2.484903e+01	1.978859e+02
1.370000e-06	3.496654e-06	2.993896e-09	2.513073e+01	1.989938e+02
1.380000e-06	3.534673e-06	3.008885e-09	2.540397e+01	2.000510e+02
1.390000e-06	3.571529e-06	3.022694e-09	2.566886e+01	2.010550e+02
1.400000e-06	3.607331e-06	3.036656e-09	2.592617e+01	2.020024e+02
1.410000e-06	3.641880e-06	3.048636e-09	2.617447e+01	2.028897e+02
1.420000e-06	3.674889e-06	3.059662e-09	2.641171e+01	2.037143e+02
1.430000e-06	3.706535e-06	3.071632e-09	2.663916e+01	2.044750e+02
1.440000e-06	3.736956e-06	3.083401e-09	2.685780e+01	2.051730e+02
1.450000e-06	3.766177e-06	3.093205e-09	2.706781e+01	2.058118e+02
1.460000e-06	3.794237e-06	3.100585e-09	2.726948e+01	2.063972e+02
1.470000e-06	3.820880e-06	3.108586e-09	2.746096e+01	2.069369e+02
1.480000e-06	3.845898e-06	3.118362e-09	2.764077e+01	2.074391e+02
1.490000e-06	3.869491e-06	3.126714e-09	2.781034e+01	2.079121e+02
1.500000e-06	3.891804e-06	3.132217e-09	2.797070e+01	2.083628e+02
1.510000e-06	3.912884e-06	3.137207e-09	2.812220e+01	2.087959e+02
1.520000e-06	3.932812e-06	3.143960e-09	2.826543e+01	2.092134e+02
1.530000e-06	3.951422e-06	3.149827e-09	2.839918e+01	2.096142e+02
1.540000e-06	3.968552e-06	3.153362e-09	2.852229e+01	2.099944e+02
1.550000e-06	3.984207e-06	3.155871e-09	2.863481e+01	2.103481e+02
1.560000e-06	3.998401e-06	3.159833e-09	2.873682e+01	2.106687e+02
1.570000e-06	4.011138e-06	3.164359e-09	2.882836e+01	2.109494e+02
1.580000e-06	4.022335e-06	3.168091e-09	2.890884e+01	2.111854e+02
1.590000e-06	4.031855e-06	3.170376e-09	2.897726e+01	2.113742e+02
1.600000e-06	4.039753e-06	3.170813e-09	2.903402e+01	2.115165e+02
1.610000e-06	4.046224e-06	3.171919e-09	2.908053e+01	2.116167e+02
1.620000e-06	4.051367e-06	3.173390e-09	2.911749e+01	2.116818e+02
1.630000e-06	4.055274e-06	3.174495e-09	2.914557e+01	2.117212e+02
1.640000e-06	4.057743e-06	3.174154e-09	2.916332e+01	2.117446e+02
1.650000e-06	4.058569e-06	3.174455e-09	2.916925e+01	2.117614e+02
1.660000e-06	4.057990e-06	3.176513e-09	2.916509e+01	2.117784e+02
1.670000e-06	4.056168e-06	3.176616e-09	2.915199e+01	2.117991e+02
1.680000e-06	4.053084e-06	3.173966e-09	2.912983e+01	2.118228e+02
1.690000e-06	4.048829e-06	3.172628e-09	2.909925e+01	2.118448e+02
1.700000e-06	4.043220e-06	3.171384e-09	2.905894e+01	2.118567e+02
1.710000e-06	4.036086e-06	3.167124e-09	2.900767e+01	2.118478e+02
1.720000e-06	4.027683e-06	3.159898e-09	2.894727e+01	2.118069e+02
1.730000e-06	4.018148e-06	3.148508e-09	2.887874e+01	2.117244e+02
1.740000e-06	4.007338e-06	3.162685e-09	2.880105e+01	2.115939e+02
1.750000e-06	3.994703e-06	3.147101e-09	2.871024e+01	2.114139e+02
1.760000e-06	3.979660e-06	3.127630e-09	2.860212e+01	2.111887e+02
1.770000e-06	3.962571e-06	3.110504e-09	2.847931e+01	2.109287e+02
1.780000e-06	3.944585e-06	3.137482e-09	2.835004e+01	2.106492e+02
1.790000e-06	3.926283e-06	3.199455e-09	2.821850e+01	2.103692e+02
1.800000e-06	3.906804e-06	3.112163e-09	2.807851e+01	2.101084e+02
1.810000e-06	3.885205e-06	3.089399e-09	2.792327e+01	2.098852e+02
1.820000e-06	3.862262e-06	3.276970e-09	2.775838e+01	2.097135e+02
1.830000e-06	3.838463e-06	3.212821e-09	2.758733e+01	2.096004e+02
1.840000e-06	3.813036e-06	2.981052e-09	2.740458e+01	2.095442e+02
1.850000e-06	3.786165e-06	3.067145e-09	2.721146e+01	2.095340e+02
1.860000e-06	3.758376e-06	3.174501e-09	2.701174e+01	2.095497e+02
1.870000e-06	3.729244e-06	3.118777e-09	2.680237e+01	2.095638e+02
1.880000e-06	3.698454e-06	3.144862e-09	2.658108e+01	2.095436e+02
1.890000e-06	3.666217e-06	3.217642e-09	2.634939e+01	2.094544e+02
1.900000e-06	3.632775e-06	3.343841e-09	2.610904e+01	2.092631e+02
1.910000e-06	3.598294e-06	3.428954e-09	2.586122e+01	2.089417e+02
1.920000e-06	3.562662e-06	3.274137e-09	2.560513e+01	2.084702e+02
1.930000e-06	3.525709e-06	3.187256e-09	2.533955e+01	2.078387e+02
1.940000e-06	3.487461e-06	3.200808e-09	2.506465e+01	2.070480e+02
1.950000e-06	3.447766e-06	3.256334e-09	2.477937e+01	2.061099e+02
1.960000e-06	3.406715e-06	3.371614e-09	2.448432e+01	2.050448e+02
1.970000e-06	3.364665e-06	3.193014e-09	2.418211e+01	2.038800e+02
1.980000e-06	3.321587e-06	3.001450e-09	2.387251e+01	2.026459e+02
1.990000e-06	3.277381e-06	3.200484e-09	2.355479e+01	2.013728e+02
2.000000e-06	3.232107e-06	3.304184e-09	2.322940e+01	2.000873e+02
2.010000e-06	3.185718e-06	3.094921e-09	2.289601e+01	1.988099e+02
2.020000e-06	3.138001e-06	2.962661e-09	2.255305e+01	1.975526e+02
2.030000e-06	3.088920e-06	3.069248e-09	2.220031e+01	1.963187e+02
2.040000e-06	3.038792e-06	3.146891e-09	2.184003e+01	1.951026e+02
2.050000e-06	2.987679e-06	3.039616e-09	2.147268e+01	1.938919e+02
2.060000e-06	2.935378e-06	2.993292e-09	2.109679e+01	1.926687e+02
2.070000e-06	2.881676e-06	2.969774e-09	2.071083e+01	1.914130e+02
2.080000e-06	2.826602e-06	2.935270e-09	2.031501e+01	1.901054e+02
2.090000e-06	2.770463e-06	3.001767e-09	1.991153e+01	1.887293e+02
2.100000e-06	2.713364e-06	2.976113e-09	1.950116e+01	1.872727e+02
2.110000e-06	2.655435e-06	2.839623e-09	1.908482e+01	1.857300e+02
2.120000e-06	2.596766e-06	2.795624e-09	1.866316e+01	1.841012e+02
2.130000e-06	2.537255e-06	2.902754e-09	1.823545e+01	1.823918e+02
2.140000e-06	2.476926e-06	2.897193e-09	1.780186e+01	1.806110e+02
2.150000e-06	2.415659e-06	2.711079e-09	1.736153e+01	1.787698e+02
2.160000e-06	2.353227e-06	2.694038e-09	1.691282e+01	1.768792e+02
2.170000e-06	2.289768e-06	2.790825e-09	1.645674e+01	1.749476e+02
2.180000e-06	2.225600e-06	2.736354e-09	1.599556e+01	1.729798e+02
2.190000e-06	2.160780e-06	2.620570e-09	1.552969e+01	1.709760e+02
2.200000e-06	2.095190e-06	2.600115e-09	1.505829e+01	1.689315e+02
2.210000e-06	2.028863e-06	2.620739e-09	1.458160e+01	1.668374e+02
2.220000e-06	1.961876e-06	2.573753e-09	1.410016e+01	1.646815e+02
2.230000e-06	1.894257e-06	2.519225e-09	1.361417e+01	1.624503e+02
2.240000e-06	1.826038e-06	2.486861e-09	1.312388e+01	1.601301e+02
2.250000e-06	1.757212e-06	2.434815e-09	1.262922e+01	1.577092e+02
2.260000e-06	1.687619e-06	2.408246e-09	1.212905e+01	1.551783e+02
2.270000e-06	1.617050e-06	2.388318e-09	1.162186e+01	1.525318e+02
2.280000e-06	1.545663e-06	2.328629e-09	1.110880e+01	1.497673e+02
2.290000e-06	1.473840e-06	2.256923e-09	1.059260e+01	1.468852e+02
2.300000e-06	1.401666e-06	2.228744e-09	1.007388e+01	1.438879e+02
2.310000e-06	1.329116e-06	2.215286e-09	9.552462e+00	1.407777e+02
2.320000e-06	1.256152e-06	2.136266e-09	9.028065e+00	1.375561e+02
2.330000e-06	1.182735e-06	2.050164e-09	8.500408e+00	1.342220e+02
2.340000e-06	1.108849e-06	2.023309e-09	7.969381e+00	1.307709e+02
2.350000e-06	1.034575e-06	2.003458e-09	7.435573e+00	1.271944e+02
2.360000e-06	9.599562e-07	1.922014e-09	6.899280e+00	1.234803e+02
2.370000e-06	8.849305e-07	1.828132e-09	6.360065e+00	1.196132e+02
2.380000e-06	8.096442e-07	1.788703e-09	5.818976e+00	1.155757e+02
2.390000e-06	7.341159e-07	1.745486e-09	5.276148e+00	1.113492e+02
2.400000e-06	6.583166e-07	1.659715e-09	4.731373e+00	1.069160e+02
2.410000e-06	5.822619e-07	1.569874e-09	4.184762e+00	1.022601e+02
2.420000e-06	5.059908e-07	1.501848e-09	3.636595e+00	9.736814e+01
2.430000e-06	4.295723e-07	1.433572e-09	3.087370e+00	9.223030e+01
2.440000e-06	3.529609e-07	1.355300e-09	2.536757e+00	8.684020e+01
2.450000e-06	2.762556e-07	1.270569e-09	1.985470e+00	8.119476e+01
2.460000e-06	1.994215e-07	1.168303e-09	1.433258e+00	7.529370e+01
2.470000e-06	1.223465e-07	1.069232e-09	8.793138e-01	6.913889e+01
2.480000e-06	4.511934e-08	9.913662e-10	3.242762e-01	6.273375e+01
2.490000e-06	-3.207759e-08	8.979864e-10	-2.305441e-01	5.608287e+01
2.500000e-06	-1.091836e-07	7.676280e-10	-7.847114e-01	4.919188e+01
2.510000e-06	-1.862549e-07	6.477972e-10	-1.338628e+00	4.206781e+01
2.520000e-06	-2.632060e-07	5.591697e-10	-1.891682e+00	3.471970e+01
2.530000e-06	-3.398862e-07	4.542546e-10	-2.442788e+00	2.715951e+01
2.540000e-06	-4.163313e-07	3.166150e-10	-2.992206e+00	1.940321e+01
2.550000e-06	-4.926203e-07	1.886670e-10	-3.540501e+00	1.147176e+01
2.560000e-06	-5.686427e-07	8.197200e-11	-4.086880e+00	3.391866e+00
2.570000e-06	-6.444230e-07	-3.755302e-11	-4.631518e+00	-4.803703e+00
2.580000e-06	-7.200345e-07	-1.743002e-10	-5.174944e+00	-1.307632e+01
2.590000e-06	-7.954103e-07	-3.057936e-10	-5.716676e+00	-2.138230e+01
2.600000e-06	-8.704728e-07	-4.279770e-10	-6.256156e+00	-2.967431e+01
2.610000e-06	-9.451769e-07	-5.482323e-10	-6.793060e+00	-3.790318e+01
2.620000e-06	-1.019532e-06	-6.685523e-10	-7.327455e+00	-4.602007e+01
2.630000e-06	-1.093554e-06	-7.934345e-10	-7.859459e+00	-5.397869e+01
2.640000e-06	-1.167243e-06	-9.189689e-10	-8.389065e+00	-6.173737e+01
2.650000e-06	-1.240469e-06	-1.031837e-09	-8.915347e+00	-6.926082e+01
2.660000e-06	-1.313210e-06	-1.135835e-09	-9.438144e+00	-7.652131e+01
2.670000e-06	-1.385559e-06	-1.247185e-09	-9.958121e+00	-8.349928e+01
2.680000e-06	-1.457607e-06	-1.360319e-09	-1.047593e+01	-9.018329e+01
2.690000e-06	-1.529308e-06	-1.456069e-09	-1.099125e+01	-9.656933e+01
2.700000e-06	-1.600441e-06	-1.538653e-09	-1.150249e+01	-1.026597e+02
2.710000e-06	-1.670775e-06	-1.627971e-09	-1.200799e+01	-1.084618e+02
2.720000e-06	-1.740162e-06	-1.720812e-09	-1.250668e+01	-1.139860e+02
2.730000e-06	-1.808748e-06	-1.800484e-09	-1.299961e+01	-1.192450e+02
2.740000e-06	-1.876782e-06	-1.872482e-09	-1.348858e+01	-1.242516e+02
2.750000e-06	-1.944319e-06	-1.948229e-09	-1.397397e+01	-1.290187e+02
2.760000e-06	-2.011238e-06	-2.023435e-09	-1.445492e+01	-1.335578e+02
2.770000e-06	-2.077465e-06	-2.092195e-09	-1.493090e+01	-1.378796e+02
2.780000e-06	-2.142999e-06	-2.157248e-09	-1.540190e+01	-1.419935e+02
2.790000e-06	-2.207812e-06	-2.218278e-09	-1.586772e+01	-1.459080e+02
2.800000e-06	-2.271985e-06	-2.275336e-09	-1.632894e+01	-1.496313e+02
2.810000e-06	-2.335437e-06	-2.333195e-09	-1.678497e+01	-1.531711e+02
2.820000e-06	-2.397793e-06	-2.389235e-09	-1.723312e+01	-1.565355e+02
2.830000e-06	-2.458980e-06	-2.438510e-09	-1.767288e+01	-1.597324e+02
2.840000e-06	-2.519272e-06	-2.483823e-09	-1.810620e+01	-1.627699e+02
2.850000e-06	-2.578813e-06	-2.531063e-09	-1.853413e+01	-1.656559e+02
2.860000e-06	-2.637509e-06	-2.579383e-09	-1.895598e+01	-1.683976e+02
2.870000e-06	-2.695283e-06	-2.622305e-09	-1.937121e+01	-1.710016e+02
2.880000e-06	-2.752116e-06	-2.661116e-09	-1.977967e+01	-1.734738e+02
2.890000e-06	-2.808077e-06	-2.698242e-09	-2.018187e+01	-1.758190e+02
2.900000e-06	-2.863044e-06	-2.733671e-09	-2.057692e+01	-1.780411e+02
2.910000e-06	-2.916709e-06	-2.767075e-09	-2.096261e+01	-1.801437e+02
2.920000e-06	-2.969047e-06	-2.797599e-09	-2.133877e+01	-1.821306e+02
2.930000e-06	-3.020175e-06	-2.826311e-09	-2.170624e+01	-1.840056e+02
2.940000e-06	-3.070139e-06	-2.853084e-09	-2.206533e+01	-1.857735e+02
