# Temperatura_=_20.0
# Concentracion g/m^3_=_9000.0
# C_Vs_to_Am_M_A/Vsm_=_65563218390.804596
# pendiente_HvsI_1/m_=_3716.3
# ordenada_HvsI_A/m_=_1297.0
# frecuencia_Hz_=_212905.51177525203

Tiempo_(s)	Campo_(V.s)	Magnetizacion_(V.s)	Campo_(kA/m)	Magnetizacion_(A/m)
0.000000e+00	-6.716702e-06	-4.346790e-09	-4.768605e+01	-2.856243e+02
1.000000e-08	-6.715440e-06	-4.344942e-09	-4.767709e+01	-2.856004e+02
2.000000e-08	-6.712750e-06	-4.345856e-09	-4.765800e+01	-2.855631e+02
3.000000e-08	-6.709006e-06	-4.344647e-09	-4.763141e+01	-2.855130e+02
4.000000e-08	-6.704290e-06	-4.344341e-09	-4.759793e+01	-2.854512e+02
5.000000e-08	-6.698441e-06	-4.341571e-09	-4.755641e+01	-2.853794e+02
6.000000e-08	-6.691538e-06	-4.338163e-09	-4.750740e+01	-2.852995e+02
7.000000e-08	-6.683720e-06	-4.326502e-09	-4.745190e+01	-2.852143e+02
8.000000e-08	-6.674638e-06	-4.314406e-09	-4.738741e+01	-2.851268e+02
9.000000e-08	-6.663937e-06	-4.366366e-09	-4.731144e+01	-2.850399e+02
1.000000e-07	-6.651673e-06	-4.422202e-09	-4.722437e+01	-2.849567e+02
1.100000e-07	-6.637876e-06	-4.412270e-09	-4.712642e+01	-2.848800e+02
1.200000e-07	-6.622483e-06	-4.320024e-09	-4.701713e+01	-2.848119e+02
1.300000e-07	-6.605850e-06	-4.165119e-09	-4.689904e+01	-2.847537e+02
1.400000e-07	-6.588434e-06	-4.270194e-09	-4.677540e+01	-2.847059e+02
1.500000e-07	-6.570093e-06	-4.465798e-09	-4.664518e+01	-2.846676e+02
1.600000e-07	-6.550860e-06	-4.333016e-09	-4.650863e+01	-2.846367e+02
1.700000e-07	-6.530827e-06	-4.253015e-09	-4.636641e+01	-2.846100e+02
1.800000e-07	-6.509552e-06	-4.253475e-09	-4.621537e+01	-2.845828e+02
1.900000e-07	-6.487211e-06	-4.223080e-09	-4.605676e+01	-2.845496e+02
2.000000e-07	-6.464101e-06	-4.429244e-09	-4.589268e+01	-2.845038e+02
2.100000e-07	-6.439686e-06	-4.420835e-09	-4.571935e+01	-2.844383e+02
2.200000e-07	-6.413715e-06	-4.152761e-09	-4.553496e+01	-2.843461e+02
2.300000e-07	-6.386582e-06	-4.283484e-09	-4.534233e+01	-2.842200e+02
2.400000e-07	-6.358492e-06	-4.483185e-09	-4.514290e+01	-2.840535e+02
2.500000e-07	-6.329408e-06	-4.365449e-09	-4.493642e+01	-2.838410e+02
2.600000e-07	-6.299250e-06	-4.235272e-09	-4.472230e+01	-2.835782e+02
2.700000e-07	-6.268040e-06	-4.203847e-09	-4.450072e+01	-2.832622e+02
2.800000e-07	-6.235925e-06	-4.317190e-09	-4.427272e+01	-2.828917e+02
2.900000e-07	-6.202559e-06	-4.394161e-09	-4.403583e+01	-2.824672e+02
3.000000e-07	-6.167735e-06	-4.267871e-09	-4.378859e+01	-2.819909e+02
3.100000e-07	-6.131741e-06	-4.192473e-09	-4.353305e+01	-2.814664e+02
3.200000e-07	-6.094633e-06	-4.242564e-09	-4.326960e+01	-2.808987e+02
3.300000e-07	-6.056373e-06	-4.292410e-09	-4.299797e+01	-2.802937e+02
3.400000e-07	-6.017192e-06	-4.289183e-09	-4.271980e+01	-2.796580e+02
3.500000e-07	-5.977066e-06	-4.222369e-09	-4.243492e+01	-2.789981e+02
3.600000e-07	-5.935532e-06	-4.151556e-09	-4.214004e+01	-2.783205e+02
3.700000e-07	-5.892674e-06	-4.201314e-09	-4.183576e+01	-2.776309e+02
3.800000e-07	-5.848884e-06	-4.303841e-09	-4.152488e+01	-2.769342e+02
3.900000e-07	-5.804023e-06	-4.209943e-09	-4.120637e+01	-2.762338e+02
4.000000e-07	-5.758011e-06	-4.086734e-09	-4.087971e+01	-2.755316e+02
4.100000e-07	-5.711126e-06	-4.175926e-09	-4.054684e+01	-2.748282e+02
4.200000e-07	-5.663433e-06	-4.245228e-09	-4.020824e+01	-2.741224e+02
4.300000e-07	-5.614463e-06	-4.161132e-09	-3.986057e+01	-2.734117e+02
4.400000e-07	-5.563894e-06	-4.091820e-09	-3.950155e+01	-2.726926e+02
4.500000e-07	-5.512131e-06	-4.124124e-09	-3.913405e+01	-2.719604e+02
4.600000e-07	-5.459474e-06	-4.156635e-09	-3.876021e+01	-2.712103e+02
4.700000e-07	-5.405892e-06	-4.128189e-09	-3.837979e+01	-2.704370e+02
4.800000e-07	-5.351391e-06	-4.088280e-09	-3.799286e+01	-2.696355e+02
4.900000e-07	-5.296038e-06	-4.062700e-09	-3.759987e+01	-2.688016e+02
5.000000e-07	-5.239843e-06	-4.077464e-09	-3.720091e+01	-2.679318e+02
5.100000e-07	-5.182619e-06	-4.092946e-09	-3.679464e+01	-2.670237e+02
5.200000e-07	-5.124319e-06	-4.054558e-09	-3.638073e+01	-2.660761e+02
5.300000e-07	-5.065090e-06	-4.009292e-09	-3.596023e+01	-2.650891e+02
5.400000e-07	-5.005013e-06	-4.007574e-09	-3.553370e+01	-2.640638e+02
5.500000e-07	-4.944165e-06	-4.030963e-09	-3.510171e+01	-2.630024e+02
5.600000e-07	-4.882589e-06	-4.011970e-09	-3.466454e+01	-2.619076e+02
5.700000e-07	-4.820193e-06	-3.952162e-09	-3.422156e+01	-2.607827e+02
5.800000e-07	-4.756964e-06	-3.927952e-09	-3.377265e+01	-2.596310e+02
5.900000e-07	-4.692963e-06	-3.954542e-09	-3.331827e+01	-2.584554e+02
6.000000e-07	-4.628065e-06	-3.949918e-09	-3.285752e+01	-2.572584e+02
6.100000e-07	-4.562046e-06	-3.888844e-09	-3.238881e+01	-2.560416e+02
6.200000e-07	-4.495053e-06	-3.856630e-09	-3.191318e+01	-2.548054e+02
6.300000e-07	-4.427388e-06	-3.869464e-09	-3.143279e+01	-2.535492e+02
6.400000e-07	-4.359144e-06	-3.860418e-09	-3.094828e+01	-2.522713e+02
6.500000e-07	-4.290142e-06	-3.819380e-09	-3.045839e+01	-2.509688e+02
6.600000e-07	-4.220239e-06	-3.789385e-09	-2.996211e+01	-2.496380e+02
6.700000e-07	-4.149593e-06	-3.780951e-09	-2.946055e+01	-2.482745e+02
6.800000e-07	-4.078349e-06	-3.772223e-09	-2.895474e+01	-2.468736e+02
6.900000e-07	-4.006440e-06	-3.749914e-09	-2.844421e+01	-2.454306e+02
7.000000e-07	-3.933644e-06	-3.712542e-09	-2.792739e+01	-2.439410e+02
7.100000e-07	-3.859852e-06	-3.677600e-09	-2.740349e+01	-2.424012e+02
7.200000e-07	-3.785187e-06	-3.663502e-09	-2.687340e+01	-2.408080e+02
7.300000e-07	-3.709737e-06	-3.649781e-09	-2.633774e+01	-2.391594e+02
7.400000e-07	-3.633537e-06	-3.609942e-09	-2.579674e+01	-2.374546e+02
7.500000e-07	-3.556601e-06	-3.566293e-09	-2.525053e+01	-2.356934e+02
7.600000e-07	-3.478934e-06	-3.547824e-09	-2.469912e+01	-2.338769e+02
7.700000e-07	-3.400634e-06	-3.534592e-09	-2.414322e+01	-2.320067e+02
7.800000e-07	-3.321669e-06	-3.497776e-09	-2.358260e+01	-2.300847e+02
7.900000e-07	-3.241911e-06	-3.452081e-09	-2.301635e+01	-2.281129e+02
8.000000e-07	-3.161401e-06	-3.426106e-09	-2.244476e+01	-2.260931e+02
8.100000e-07	-3.080441e-06	-3.409532e-09	-2.186997e+01	-2.240263e+02
8.200000e-07	-2.999181e-06	-3.375662e-09	-2.129305e+01	-2.219126e+02
8.300000e-07	-2.917392e-06	-3.329090e-09	-2.071239e+01	-2.197509e+02
8.400000e-07	-2.834977e-06	-3.292623e-09	-2.012727e+01	-2.175389e+02
8.500000e-07	-2.752144e-06	-3.268044e-09	-1.953919e+01	-2.152728e+02
8.600000e-07	-2.669087e-06	-3.239642e-09	-1.894951e+01	-2.129475e+02
8.700000e-07	-2.585755e-06	-3.199459e-09	-1.835789e+01	-2.105569e+02
8.800000e-07	-2.502036e-06	-3.154856e-09	-1.776352e+01	-2.080939e+02
8.900000e-07	-2.417972e-06	-3.114220e-09	-1.716669e+01	-2.055509e+02
9.000000e-07	-2.333651e-06	-3.076230e-09	-1.656804e+01	-2.029202e+02
9.100000e-07	-2.249021e-06	-3.031966e-09	-1.596720e+01	-2.001941e+02
9.200000e-07	-2.163960e-06	-2.979262e-09	-1.536330e+01	-1.973657e+02
9.300000e-07	-2.078514e-06	-2.930232e-09	-1.475667e+01	-1.944284e+02
9.400000e-07	-1.992712e-06	-2.890102e-09	-1.414750e+01	-1.913770e+02
9.500000e-07	-1.906584e-06	-2.847275e-09	-1.353602e+01	-1.882070e+02
9.600000e-07	-1.820206e-06	-2.793179e-09	-1.292278e+01	-1.849146e+02
9.700000e-07	-1.733530e-06	-2.737299e-09	-1.230741e+01	-1.814967e+02
9.800000e-07	-1.646544e-06	-2.688672e-09	-1.168984e+01	-1.779502e+02
9.900000e-07	-1.559292e-06	-2.638367e-09	-1.107039e+01	-1.742718e+02
1.000000e-06	-1.471785e-06	-2.576143e-09	-1.044912e+01	-1.704569e+02
1.010000e-06	-1.384027e-06	-2.509139e-09	-9.826073e+00	-1.664993e+02
1.020000e-06	-1.295990e-06	-2.447569e-09	-9.201041e+00	-1.623907e+02
1.030000e-06	-1.207687e-06	-2.387046e-09	-8.574125e+00	-1.581196e+02
1.040000e-06	-1.119200e-06	-2.319022e-09	-7.945897e+00	-1.536713e+02
1.050000e-06	-1.030476e-06	-2.244799e-09	-7.315990e+00	-1.490276e+02
1.060000e-06	-9.414614e-07	-2.169203e-09	-6.684021e+00	-1.441665e+02
1.070000e-06	-8.522146e-07	-2.093286e-09	-6.050403e+00	-1.390627e+02
1.080000e-06	-7.627885e-07	-2.012964e-09	-5.415511e+00	-1.336879e+02
1.090000e-06	-6.731772e-07	-1.925552e-09	-4.779305e+00	-1.280119e+02
1.100000e-06	-5.834103e-07	-1.833096e-09	-4.141993e+00	-1.220029e+02
1.110000e-06	-4.935761e-07	-1.737882e-09	-3.504204e+00	-1.156297e+02
1.120000e-06	-4.037167e-07	-1.638893e-09	-2.866237e+00	-1.088627e+02
1.130000e-06	-3.136873e-07	-1.529863e-09	-2.227061e+00	-1.016752e+02
1.140000e-06	-2.234839e-07	-1.411072e-09	-1.586652e+00	-9.404548e+01
1.150000e-06	-1.333299e-07	-1.290329e-09	-9.465920e-01	-8.595818e+01
1.160000e-06	-4.316639e-08	-1.167429e-09	-3.064651e-01	-7.740562e+01
1.170000e-06	4.712234e-08	-1.032502e-09	3.345508e-01	-6.838913e+01
1.180000e-06	1.374272e-07	-8.855980e-10	9.756813e-01	-5.891990e+01
1.190000e-06	2.275959e-07	-7.336865e-10	1.615845e+00	-4.901957e+01
1.200000e-06	3.175971e-07	-5.777662e-10	2.254820e+00	-3.872036e+01
1.210000e-06	4.075486e-07	-4.159059e-10	2.893442e+00	-2.806483e+01
1.220000e-06	4.974014e-07	-2.467661e-10	3.531362e+00	-1.710518e+01
1.230000e-06	5.870897e-07	-7.470649e-11	4.168116e+00	-5.902119e+00
1.240000e-06	6.766047e-07	9.704336e-11	4.803639e+00	5.476596e+00
1.250000e-06	7.658910e-07	2.692556e-10	5.437538e+00	1.695794e+01
1.260000e-06	8.549579e-07	4.443665e-10	6.069879e+00	2.846564e+01
1.270000e-06	9.438732e-07	6.212926e-10	6.701144e+00	3.992235e+01
1.280000e-06	1.032606e-06	7.946189e-10	7.331111e+00	5.125183e+01
1.290000e-06	1.121064e-06	9.637613e-10	7.959129e+00	6.238111e+01
1.300000e-06	1.209293e-06	1.131004e-09	8.585524e+00	7.324248e+01
1.310000e-06	1.297309e-06	1.296493e-09	9.210407e+00	8.377523e+01
1.320000e-06	1.385131e-06	1.453473e-09	9.833907e+00	9.392715e+01
1.330000e-06	1.472738e-06	1.600592e-09	1.045589e+01	1.036555e+02
1.340000e-06	1.560063e-06	1.741640e-09	1.107586e+01	1.129280e+02
1.350000e-06	1.647120e-06	1.876234e-09	1.169393e+01	1.217224e+02
1.360000e-06	1.733947e-06	2.000258e-09	1.231037e+01	1.300271e+02
1.370000e-06	1.820546e-06	2.113199e-09	1.292519e+01	1.378403e+02
1.380000e-06	1.906893e-06	2.220698e-09	1.353822e+01	1.451689e+02
1.390000e-06	1.992992e-06	2.321656e-09	1.414949e+01	1.520276e+02
1.400000e-06	2.078826e-06	2.415498e-09	1.475888e+01	1.584376e+02
1.410000e-06	2.164304e-06	2.505778e-09	1.536574e+01	1.644250e+02
1.420000e-06	2.249377e-06	2.592796e-09	1.596973e+01	1.700191e+02
1.430000e-06	2.334027e-06	2.673259e-09	1.657071e+01	1.752514e+02
1.440000e-06	2.418375e-06	2.747406e-09	1.716955e+01	1.801537e+02
1.450000e-06	2.502444e-06	2.817972e-09	1.776641e+01	1.847572e+02
1.460000e-06	2.586140e-06	2.885245e-09	1.836062e+01	1.890914e+02
1.470000e-06	2.669441e-06	2.947843e-09	1.895202e+01	1.931833e+02
1.480000e-06	2.752271e-06	3.005572e-09	1.954009e+01	1.970570e+02
1.490000e-06	2.834641e-06	3.060398e-09	2.012488e+01	2.007334e+02
1.500000e-06	2.916573e-06	3.113033e-09	2.070657e+01	2.042298e+02
1.510000e-06	2.997999e-06	3.165035e-09	2.128466e+01	2.075608e+02
1.520000e-06	3.078887e-06	3.213686e-09	2.185894e+01	2.107380e+02
1.530000e-06	3.159204e-06	3.256446e-09	2.242916e+01	2.137707e+02
1.540000e-06	3.238870e-06	3.296281e-09	2.299476e+01	2.166665e+02
1.550000e-06	3.317871e-06	3.336193e-09	2.355563e+01	2.194315e+02
1.560000e-06	3.396212e-06	3.374283e-09	2.411182e+01	2.220713e+02
1.570000e-06	3.473898e-06	3.408597e-09	2.466337e+01	2.245909e+02
1.580000e-06	3.550918e-06	3.441643e-09	2.521018e+01	2.269956e+02
1.590000e-06	3.627313e-06	3.475397e-09	2.575255e+01	2.292909e+02
1.600000e-06	3.703059e-06	3.508990e-09	2.629032e+01	2.314829e+02
1.610000e-06	3.778035e-06	3.539330e-09	2.682262e+01	2.335780e+02
1.620000e-06	3.852167e-06	3.567688e-09	2.734893e+01	2.355831e+02
1.630000e-06	3.925429e-06	3.595001e-09	2.786906e+01	2.375056e+02
1.640000e-06	3.997816e-06	3.621191e-09	2.838299e+01	2.393526e+02
1.650000e-06	4.069402e-06	3.647643e-09	2.889122e+01	2.411312e+02
1.660000e-06	4.140309e-06	3.673168e-09	2.939463e+01	2.428482e+02
1.670000e-06	4.210542e-06	3.698169e-09	2.989326e+01	2.445095e+02
1.680000e-06	4.280015e-06	3.723402e-09	3.038650e+01	2.461203e+02
1.690000e-06	4.348717e-06	3.747979e-09	3.087425e+01	2.476847e+02
1.700000e-06	4.416772e-06	3.770801e-09	3.135742e+01	2.492058e+02
1.710000e-06	4.484222e-06	3.791781e-09	3.183629e+01	2.506856e+02
1.720000e-06	4.550938e-06	3.812530e-09	3.230994e+01	2.521253e+02
1.730000e-06	4.616708e-06	3.831898e-09	3.277689e+01	2.535251e+02
1.740000e-06	4.681465e-06	3.849188e-09	3.323664e+01	2.548846e+02
1.750000e-06	4.745371e-06	3.865858e-09	3.369035e+01	2.562028e+02
1.760000e-06	4.808535e-06	3.883378e-09	3.413879e+01	2.574789e+02
1.770000e-06	4.870979e-06	3.901680e-09	3.458211e+01	2.587116e+02
1.780000e-06	4.932676e-06	3.918018e-09	3.502014e+01	2.599004e+02
1.790000e-06	4.993575e-06	3.934018e-09	3.545250e+01	2.610446e+02
1.800000e-06	5.053700e-06	3.951959e-09	3.587936e+01	2.621445e+02
1.810000e-06	5.113124e-06	3.968400e-09	3.630125e+01	2.632008e+02
1.820000e-06	5.171631e-06	3.983415e-09	3.671663e+01	2.642145e+02
1.830000e-06	5.229010e-06	3.999009e-09	3.712400e+01	2.651876e+02
1.840000e-06	5.285339e-06	4.014831e-09	3.752392e+01	2.661223e+02
1.850000e-06	5.340695e-06	4.030647e-09	3.791692e+01	2.670210e+02
1.860000e-06	5.395137e-06	4.044675e-09	3.830344e+01	2.678865e+02
1.870000e-06	5.448716e-06	4.057974e-09	3.868383e+01	2.687215e+02
1.880000e-06	5.501339e-06	4.071568e-09	3.905743e+01	2.695287e+02
1.890000e-06	5.552908e-06	4.085524e-09	3.942355e+01	2.703104e+02
1.900000e-06	5.603236e-06	4.099124e-09	3.978086e+01	2.710687e+02
1.910000e-06	5.652137e-06	4.110623e-09	4.012804e+01	2.718052e+02
1.920000e-06	5.699809e-06	4.121973e-09	4.046650e+01	2.725211e+02
1.930000e-06	5.746475e-06	4.132796e-09	4.079781e+01	2.732172e+02
1.940000e-06	5.792185e-06	4.142269e-09	4.112233e+01	2.738939e+02
1.950000e-06	5.836973e-06	4.150604e-09	4.144031e+01	2.745514e+02
1.960000e-06	5.880883e-06	4.159265e-09	4.175205e+01	2.751896e+02
1.970000e-06	5.923850e-06	4.169319e-09	4.205711e+01	2.758082e+02
1.980000e-06	5.965610e-06	4.180069e-09	4.235359e+01	2.764070e+02
1.990000e-06	6.006024e-06	4.189908e-09	4.264051e+01	2.769859e+02
2.000000e-06	6.045347e-06	4.197817e-09	4.291968e+01	2.775447e+02
2.010000e-06	6.083753e-06	4.208120e-09	4.319235e+01	2.780836e+02
2.020000e-06	6.121111e-06	4.219268e-09	4.345758e+01	2.786027e+02
2.030000e-06	6.157440e-06	4.229570e-09	4.371551e+01	2.791024e+02
2.040000e-06	6.192891e-06	4.238591e-09	4.396719e+01	2.795834e+02
2.050000e-06	6.227278e-06	4.246704e-09	4.421133e+01	2.800460e+02
2.060000e-06	6.260328e-06	4.255234e-09	4.444597e+01	2.804909e+02
2.070000e-06	6.292128e-06	4.261690e-09	4.467174e+01	2.809186e+02
2.080000e-06	6.322901e-06	4.268195e-09	4.489022e+01	2.813294e+02
2.090000e-06	6.352738e-06	4.273991e-09	4.510204e+01	2.817236e+02
2.100000e-06	6.381610e-06	4.280795e-09	4.530702e+01	2.821011e+02
2.110000e-06	6.409478e-06	4.288814e-09	4.550488e+01	2.824618e+02
2.120000e-06	6.436309e-06	4.295410e-09	4.569537e+01	2.828052e+02
2.130000e-06	6.461891e-06	4.300919e-09	4.587699e+01	2.831309e+02
2.140000e-06	6.486121e-06	4.306135e-09	4.604901e+01	2.834383e+02
2.150000e-06	6.509204e-06	4.312799e-09	4.621290e+01	2.837269e+02
2.160000e-06	6.531215e-06	4.318943e-09	4.636916e+01	2.839961e+02
2.170000e-06	6.552146e-06	4.323431e-09	4.651777e+01	2.842456e+02
2.180000e-06	6.572083e-06	4.327052e-09	4.665931e+01	2.844753e+02
2.190000e-06	6.591015e-06	4.331618e-09	4.679372e+01	2.846852e+02
2.200000e-06	6.608799e-06	4.336777e-09	4.691998e+01	2.848758e+02
2.210000e-06	6.625404e-06	4.340846e-09	4.703787e+01	2.850477e+02
2.220000e-06	6.640763e-06	4.343514e-09	4.714691e+01	2.852019e+02
2.230000e-06	6.654809e-06	4.346303e-09	4.724663e+01	2.853394e+02
2.240000e-06	6.667595e-06	4.349000e-09	4.733741e+01	2.854615e+02
2.250000e-06	6.679171e-06	4.351231e-09	4.741960e+01	2.855692e+02
2.260000e-06	6.689346e-06	4.353690e-09	4.749184e+01	2.856637e+02
2.270000e-06	6.698004e-06	4.355167e-09	4.755331e+01	2.857459e+02
2.280000e-06	6.705428e-06	4.355502e-09	4.760601e+01	2.858165e+02
2.290000e-06	6.711766e-06	4.356380e-09	4.765101e+01	2.858760e+02
2.300000e-06	6.716921e-06	4.359697e-09	4.768761e+01	2.859244e+02
2.310000e-06	6.720970e-06	4.362851e-09	4.771635e+01	2.859615e+02
2.320000e-06	6.723936e-06	4.364641e-09	4.773741e+01	2.859870e+02
2.330000e-06	6.725533e-06	4.367144e-09	4.774875e+01	2.860003e+02
2.340000e-06	6.725815e-06	4.371042e-09	4.775075e+01	2.860009e+02
2.350000e-06	6.725036e-06	4.373563e-09	4.774522e+01	2.859883e+02
2.360000e-06	6.723176e-06	4.371001e-09	4.773202e+01	2.859623e+02
2.370000e-06	6.720232e-06	4.367444e-09	4.771112e+01	2.859231e+02
2.380000e-06	6.716355e-06	4.366211e-09	4.768359e+01	2.858712e+02
2.390000e-06	6.711448e-06	4.366901e-09	4.764875e+01	2.858077e+02
2.400000e-06	6.705195e-06	4.368451e-09	4.760435e+01	2.857345e+02
2.410000e-06	6.697625e-06	4.375150e-09	4.755061e+01	2.856537e+02
2.420000e-06	6.689059e-06	4.398661e-09	4.748980e+01	2.855679e+02
2.430000e-06	6.679577e-06	4.351995e-09	4.742248e+01	2.854802e+02
2.440000e-06	6.668849e-06	4.262321e-09	4.734632e+01	2.853937e+02
2.450000e-06	6.656256e-06	4.246120e-09	4.725691e+01	2.853113e+02
2.460000e-06	6.641557e-06	4.322606e-09	4.715255e+01	2.852357e+02
2.470000e-06	6.625574e-06	4.519656e-09	4.703908e+01	2.851690e+02
2.480000e-06	6.609238e-06	4.445782e-09	4.692310e+01	2.851124e+02
2.490000e-06	6.592240e-06	4.208273e-09	4.680242e+01	2.850661e+02
2.500000e-06	6.573804e-06	4.343824e-09	4.667153e+01	2.850291e+02
2.510000e-06	6.554301e-06	4.391293e-09	4.653307e+01	2.849991e+02
2.520000e-06	6.534230e-06	4.389757e-09	4.639057e+01	2.849726e+02
2.530000e-06	6.512725e-06	4.524430e-09	4.623789e+01	2.849448e+02
2.540000e-06	6.489443e-06	4.281808e-09	4.607260e+01	2.849101e+02
2.550000e-06	6.465223e-06	4.191595e-09	4.590065e+01	2.848618e+02
2.560000e-06	6.440208e-06	4.484927e-09	4.572305e+01	2.847928e+02
2.570000e-06	6.414144e-06	4.337470e-09	4.553800e+01	2.846959e+02
2.580000e-06	6.386996e-06	4.144925e-09	4.534526e+01	2.845641e+02
2.590000e-06	6.358837e-06	4.360568e-09	4.514535e+01	2.843910e+02
2.600000e-06	6.329806e-06	4.427715e-09	4.493924e+01	2.841712e+02
2.610000e-06	6.299340e-06	4.412953e-09	4.472294e+01	2.839006e+02
2.620000e-06	6.267345e-06	4.312643e-09	4.449579e+01	2.835764e+02
2.630000e-06	6.234423e-06	4.221758e-09	4.426206e+01	2.831977e+02
2.640000e-06	6.200361e-06	4.376262e-09	4.402023e+01	2.827653e+02
2.650000e-06	6.165011e-06	4.341221e-09	4.376926e+01	2.822814e+02
2.660000e-06	6.128806e-06	4.303262e-09	4.351222e+01	2.817501e+02
2.670000e-06	6.091590e-06	4.317323e-09	4.324799e+01	2.811764e+02
2.680000e-06	6.052847e-06	4.198223e-09	4.297293e+01	2.805664e+02
2.690000e-06	6.012859e-06	4.280483e-09	4.268904e+01	2.799265e+02
2.700000e-06	5.972103e-06	4.358533e-09	4.239968e+01	2.792636e+02
2.710000e-06	5.930280e-06	4.266400e-09	4.210275e+01	2.785838e+02
2.720000e-06	5.887177e-06	4.155670e-09	4.179674e+01	2.778929e+02
2.730000e-06	5.843202e-06	4.210459e-09	4.148453e+01	2.771955e+02
2.740000e-06	5.798477e-06	4.353240e-09	4.116700e+01	2.764947e+02
2.750000e-06	5.752659e-06	4.207549e-09	4.084171e+01	2.757923e+02
2.760000e-06	5.705679e-06	4.113631e-09	4.050817e+01	2.750886e+02
2.770000e-06	5.657796e-06	4.204600e-09	4.016822e+01	2.743822e+02
2.780000e-06	5.608958e-06	4.221698e-09	3.982149e+01	2.736705e+02
2.790000e-06	5.558899e-06	4.185214e-09	3.946609e+01	2.729497e+02
2.800000e-06	5.507761e-06	4.117554e-09	3.910303e+01	2.722152e+02
2.810000e-06	5.455779e-06	4.147324e-09	3.873397e+01	2.714619e+02
2.820000e-06	5.402778e-06	4.151820e-09	3.835769e+01	2.706846e+02
2.830000e-06	5.348462e-06	4.112680e-09	3.797207e+01	2.698786e+02
2.840000e-06	5.292966e-06	4.116893e-09	3.757806e+01	2.690394e+02
2.850000e-06	5.236615e-06	4.079212e-09	3.717799e+01	2.681640e+02
2.860000e-06	5.179359e-06	4.071360e-09	3.677150e+01	2.672500e+02
2.870000e-06	5.121208e-06	4.069019e-09	3.635865e+01	2.662965e+02
2.880000e-06	5.062288e-06	4.063340e-09	3.594034e+01	2.653036e+02
2.890000e-06	5.002579e-06	4.021841e-09	3.551643e+01	2.642727e+02
2.900000e-06	4.942123e-06	3.984956e-09	3.508721e+01	2.632060e+02
2.910000e-06	4.880855e-06	4.021951e-09	3.465223e+01	2.621065e+02
2.920000e-06	4.818550e-06	4.005217e-09	3.420989e+01	2.609774e+02
2.930000e-06	4.755114e-06	3.943833e-09	3.375952e+01	2.598219e+02
2.940000e-06	4.690800e-06	3.922725e-09	3.330292e+01	2.586430e+02
2.950000e-06	4.625780e-06	3.953152e-09	3.284130e+01	2.574429e+02
