# Temperatura_=_20.0
# Concentracion g/m^3_=_9000.0
# C_Vs_to_Am_M_A/Vsm_=_65563218390.804596
# pendiente_HvsI_1/m_=_3716.3
# ordenada_HvsI_A/m_=_1297.0
# frecuencia_Hz_=_212908.3816993464

Tiempo_(s)	Campo_(V.s)	Magnetizacion_(V.s)	Campo_(kA/m)	Magnetizacion_(A/m)
0.000000e+00	-6.708704e-06	-4.347818e-09	-4.768488e+01	-2.847916e+02
1.000000e-08	-6.707360e-06	-4.349134e-09	-4.767532e+01	-2.847484e+02
2.000000e-08	-6.704592e-06	-4.350811e-09	-4.765565e+01	-2.846912e+02
3.000000e-08	-6.700798e-06	-4.350213e-09	-4.762868e+01	-2.846223e+02
4.000000e-08	-6.696010e-06	-4.348852e-09	-4.759465e+01	-2.845447e+02
5.000000e-08	-6.690114e-06	-4.346222e-09	-4.755274e+01	-2.844618e+02
6.000000e-08	-6.683197e-06	-4.342818e-09	-4.750357e+01	-2.843776e+02
7.000000e-08	-6.675378e-06	-4.332343e-09	-4.744800e+01	-2.842965e+02
8.000000e-08	-6.666300e-06	-4.325981e-09	-4.738347e+01	-2.842229e+02
9.000000e-08	-6.655539e-06	-4.370132e-09	-4.730698e+01	-2.841611e+02
1.000000e-07	-6.643176e-06	-4.415190e-09	-4.721911e+01	-2.841148e+02
1.100000e-07	-6.629316e-06	-4.406545e-09	-4.712060e+01	-2.840872e+02
1.200000e-07	-6.613813e-06	-4.325045e-09	-4.701040e+01	-2.840804e+02
1.300000e-07	-6.597077e-06	-4.198888e-09	-4.689144e+01	-2.840952e+02
1.400000e-07	-6.579542e-06	-4.292679e-09	-4.676681e+01	-2.841311e+02
1.500000e-07	-6.561077e-06	-4.443743e-09	-4.663556e+01	-2.841857e+02
1.600000e-07	-6.541823e-06	-4.339957e-09	-4.649870e+01	-2.842553e+02
1.700000e-07	-6.521738e-06	-4.277497e-09	-4.635594e+01	-2.843346e+02
1.800000e-07	-6.500396e-06	-4.265421e-09	-4.620424e+01	-2.844167e+02
1.900000e-07	-6.478006e-06	-4.254950e-09	-4.604509e+01	-2.844938e+02
2.000000e-07	-6.454817e-06	-4.427782e-09	-4.588027e+01	-2.845570e+02
2.100000e-07	-6.430376e-06	-4.410200e-09	-4.570655e+01	-2.845971e+02
2.200000e-07	-6.404473e-06	-4.208783e-09	-4.552243e+01	-2.846048e+02
2.300000e-07	-6.377381e-06	-4.312242e-09	-4.532986e+01	-2.845715e+02
2.400000e-07	-6.349315e-06	-4.445391e-09	-4.513037e+01	-2.844890e+02
2.500000e-07	-6.320272e-06	-4.353680e-09	-4.492393e+01	-2.843510e+02
2.600000e-07	-6.290083e-06	-4.254339e-09	-4.470936e+01	-2.841522e+02
2.700000e-07	-6.258811e-06	-4.227776e-09	-4.448708e+01	-2.838898e+02
2.800000e-07	-6.226574e-06	-4.320576e-09	-4.425794e+01	-2.835625e+02
2.900000e-07	-6.193111e-06	-4.380402e-09	-4.402008e+01	-2.831714e+02
3.000000e-07	-6.158296e-06	-4.272209e-09	-4.377262e+01	-2.827195e+02
3.100000e-07	-6.122308e-06	-4.211657e-09	-4.351682e+01	-2.822115e+02
3.200000e-07	-6.085196e-06	-4.263462e-09	-4.325303e+01	-2.816535e+02
3.300000e-07	-6.046978e-06	-4.293010e-09	-4.298138e+01	-2.810528e+02
3.400000e-07	-6.007832e-06	-4.279350e-09	-4.270314e+01	-2.804173e+02
3.500000e-07	-5.967682e-06	-4.235917e-09	-4.241775e+01	-2.797548e+02
3.600000e-07	-5.926148e-06	-4.177254e-09	-4.212254e+01	-2.790731e+02
3.700000e-07	-5.883296e-06	-4.209465e-09	-4.181795e+01	-2.783789e+02
3.800000e-07	-5.839429e-06	-4.288125e-09	-4.150615e+01	-2.776778e+02
3.900000e-07	-5.794445e-06	-4.207889e-09	-4.118641e+01	-2.769739e+02
4.000000e-07	-5.748430e-06	-4.113349e-09	-4.085933e+01	-2.762699e+02
4.100000e-07	-5.701627e-06	-4.187087e-09	-4.052666e+01	-2.755663e+02
4.200000e-07	-5.653866e-06	-4.236214e-09	-4.018718e+01	-2.748624e+02
4.300000e-07	-5.604764e-06	-4.161253e-09	-3.983817e+01	-2.741556e+02
4.400000e-07	-5.554234e-06	-4.108194e-09	-3.947900e+01	-2.734424e+02
4.500000e-07	-5.502529e-06	-4.139326e-09	-3.911149e+01	-2.727180e+02
4.600000e-07	-5.449834e-06	-4.159229e-09	-3.873694e+01	-2.719775e+02
4.700000e-07	-5.396211e-06	-4.128026e-09	-3.835579e+01	-2.712155e+02
4.800000e-07	-5.341744e-06	-4.090384e-09	-3.796864e+01	-2.704270e+02
4.900000e-07	-5.286438e-06	-4.071613e-09	-3.757553e+01	-2.696078e+02
5.000000e-07	-5.230260e-06	-4.083310e-09	-3.717622e+01	-2.687544e+02
5.100000e-07	-5.173129e-06	-4.089680e-09	-3.677014e+01	-2.678645e+02
5.200000e-07	-5.114894e-06	-4.057182e-09	-3.635622e+01	-2.669369e+02
5.300000e-07	-5.055611e-06	-4.018795e-09	-3.593484e+01	-2.659718e+02
5.400000e-07	-4.995480e-06	-4.015406e-09	-3.550743e+01	-2.649703e+02
5.500000e-07	-4.934628e-06	-4.033752e-09	-3.507490e+01	-2.639344e+02
5.600000e-07	-4.873000e-06	-4.013328e-09	-3.463685e+01	-2.628668e+02
5.700000e-07	-4.810550e-06	-3.957904e-09	-3.419296e+01	-2.617703e+02
5.800000e-07	-4.747356e-06	-3.937796e-09	-3.374379e+01	-2.606478e+02
5.900000e-07	-4.683384e-06	-3.961044e-09	-3.328908e+01	-2.595017e+02
6.000000e-07	-4.618506e-06	-3.955221e-09	-3.282793e+01	-2.583336e+02
6.100000e-07	-4.552618e-06	-3.902810e-09	-3.235961e+01	-2.571441e+02
6.200000e-07	-4.485756e-06	-3.873387e-09	-3.188436e+01	-2.559330e+02
6.300000e-07	-4.418147e-06	-3.879127e-09	-3.140380e+01	-2.546986e+02
6.400000e-07	-4.349897e-06	-3.867592e-09	-3.091868e+01	-2.534381e+02
6.500000e-07	-4.280871e-06	-3.829972e-09	-3.042805e+01	-2.521479e+02
6.600000e-07	-4.211049e-06	-3.800442e-09	-2.993176e+01	-2.508236e+02
6.700000e-07	-4.140554e-06	-3.789211e-09	-2.943069e+01	-2.494602e+02
6.800000e-07	-4.069388e-06	-3.779126e-09	-2.892485e+01	-2.480528e+02
6.900000e-07	-3.997434e-06	-3.760266e-09	-2.841341e+01	-2.465967e+02
7.000000e-07	-3.924577e-06	-3.727384e-09	-2.789555e+01	-2.450877e+02
7.100000e-07	-3.850805e-06	-3.691387e-09	-2.737118e+01	-2.435226e+02
7.200000e-07	-3.776210e-06	-3.673512e-09	-2.684096e+01	-2.418993e+02
7.300000e-07	-3.700855e-06	-3.658669e-09	-2.630535e+01	-2.402168e+02
7.400000e-07	-3.624772e-06	-3.622865e-09	-2.576456e+01	-2.384754e+02
7.500000e-07	-3.547953e-06	-3.581480e-09	-2.521854e+01	-2.366766e+02
7.600000e-07	-3.470390e-06	-3.560474e-09	-2.466722e+01	-2.348228e+02
7.700000e-07	-3.392155e-06	-3.546076e-09	-2.411114e+01	-2.329170e+02
7.800000e-07	-3.313220e-06	-3.512455e-09	-2.355008e+01	-2.309623e+02
7.900000e-07	-3.233552e-06	-3.470963e-09	-2.298380e+01	-2.289621e+02
8.000000e-07	-3.153273e-06	-3.442997e-09	-2.241318e+01	-2.269187e+02
8.100000e-07	-3.072411e-06	-3.420891e-09	-2.183842e+01	-2.248339e+02
8.200000e-07	-2.991028e-06	-3.384402e-09	-2.125996e+01	-2.227079e+02
8.300000e-07	-2.909225e-06	-3.339644e-09	-2.067851e+01	-2.205395e+02
8.400000e-07	-2.826992e-06	-3.306007e-09	-2.009401e+01	-2.183257e+02
8.500000e-07	-2.744386e-06	-3.279786e-09	-1.950685e+01	-2.160622e+02
8.600000e-07	-2.661428e-06	-3.246817e-09	-1.891719e+01	-2.137426e+02
8.700000e-07	-2.578122e-06	-3.205638e-09	-1.832506e+01	-2.113596e+02
8.800000e-07	-2.494373e-06	-3.164389e-09	-1.772978e+01	-2.089047e+02
8.900000e-07	-2.410213e-06	-3.125818e-09	-1.713158e+01	-2.063691e+02
9.000000e-07	-2.325820e-06	-3.085928e-09	-1.653172e+01	-2.037435e+02
9.100000e-07	-2.241187e-06	-3.040210e-09	-1.593016e+01	-2.010192e+02
9.200000e-07	-2.156251e-06	-2.987992e-09	-1.532644e+01	-1.981883e+02
9.300000e-07	-2.070900e-06	-2.940743e-09	-1.471978e+01	-1.952436e+02
9.400000e-07	-1.985189e-06	-2.901066e-09	-1.411055e+01	-1.921797e+02
9.500000e-07	-1.899209e-06	-2.855223e-09	-1.349941e+01	-1.889919e+02
9.600000e-07	-1.812898e-06	-2.798831e-09	-1.288592e+01	-1.856772e+02
9.700000e-07	-1.726300e-06	-2.742518e-09	-1.227038e+01	-1.822330e+02
9.800000e-07	-1.639439e-06	-2.692297e-09	-1.165299e+01	-1.786575e+02
9.900000e-07	-1.552330e-06	-2.639488e-09	-1.103383e+01	-1.749485e+02
1.000000e-06	-1.465034e-06	-2.578158e-09	-1.041333e+01	-1.711030e+02
1.010000e-06	-1.377444e-06	-2.514129e-09	-9.790749e+00	-1.671163e+02
1.020000e-06	-1.289472e-06	-2.453923e-09	-9.165451e+00	-1.629814e+02
1.030000e-06	-1.201195e-06	-2.394550e-09	-8.537986e+00	-1.586885e+02
1.040000e-06	-1.112648e-06	-2.327006e-09	-7.908604e+00	-1.542238e+02
1.050000e-06	-1.023887e-06	-2.252091e-09	-7.277696e+00	-1.495700e+02
1.060000e-06	-9.349520e-07	-2.175423e-09	-6.645556e+00	-1.447057e+02
1.070000e-06	-8.458539e-07	-2.097877e-09	-6.012255e+00	-1.396057e+02
1.080000e-06	-7.565770e-07	-2.016983e-09	-5.377683e+00	-1.342415e+02
1.090000e-06	-6.671113e-07	-1.930380e-09	-4.741768e+00	-1.285821e+02
1.100000e-06	-5.775131e-07	-1.839676e-09	-4.104912e+00	-1.225950e+02
1.110000e-06	-4.878013e-07	-1.744834e-09	-3.467249e+00	-1.162476e+02
1.120000e-06	-3.979989e-07	-1.644460e-09	-2.828941e+00	-1.095088e+02
1.130000e-06	-3.081053e-07	-1.535168e-09	-2.189985e+00	-1.023504e+02
1.140000e-06	-2.181692e-07	-1.417354e-09	-1.550727e+00	-9.474902e+01
1.150000e-06	-1.281974e-07	-1.295279e-09	-9.112160e-01	-8.668776e+01
1.160000e-06	-3.821608e-08	-1.170304e-09	-2.716365e-01	-7.815751e+01
1.170000e-06	5.174361e-08	-1.036781e-09	3.677890e-01	-6.915840e+01
1.180000e-06	1.417192e-07	-8.918936e-10	1.007328e+00	-5.970075e+01
1.190000e-06	2.316560e-07	-7.410141e-10	1.646590e+00	-4.980563e+01
1.200000e-06	3.215479e-07	-5.857006e-10	2.285534e+00	-3.950512e+01
1.210000e-06	4.113521e-07	-4.248261e-10	2.923855e+00	-2.884197e+01
1.220000e-06	5.009918e-07	-2.579221e-10	3.561005e+00	-1.786895e+01
1.230000e-06	5.904756e-07	-8.675926e-11	4.197048e+00	-6.647701e+00
1.240000e-06	6.798506e-07	8.606600e-11	4.832318e+00	4.752844e+00
1.250000e-06	7.690772e-07	2.590629e-10	5.466533e+00	1.625826e+01
1.260000e-06	8.580850e-07	4.343932e-10	6.099192e+00	2.779076e+01
1.270000e-06	9.469168e-07	6.113629e-10	6.730601e+00	3.927141e+01
1.280000e-06	1.035584e-06	7.848369e-10	7.360838e+00	5.062244e+01
1.290000e-06	1.124048e-06	9.559134e-10	7.989634e+00	6.176946e+01
1.300000e-06	1.212329e-06	1.124090e-09	8.617129e+00	7.264354e+01
1.310000e-06	1.300423e-06	1.289062e-09	9.243295e+00	8.318299e+01
1.320000e-06	1.388223e-06	1.446030e-09	9.867366e+00	9.333491e+01
1.330000e-06	1.475689e-06	1.591762e-09	1.048906e+01	1.030562e+02
1.340000e-06	1.562846e-06	1.731150e-09	1.110857e+01	1.123145e+02
1.350000e-06	1.649740e-06	1.864071e-09	1.172620e+01	1.210879e+02
1.360000e-06	1.736402e-06	1.986586e-09	1.234220e+01	1.293655e+02
1.370000e-06	1.822879e-06	2.098940e-09	1.295686e+01	1.371461e+02
1.380000e-06	1.909147e-06	2.206476e-09	1.357005e+01	1.444377e+02
1.390000e-06	1.995156e-06	2.307631e-09	1.418139e+01	1.512564e+02
1.400000e-06	2.080848e-06	2.400835e-09	1.479049e+01	1.576245e+02
1.410000e-06	2.166087e-06	2.489270e-09	1.539635e+01	1.635693e+02
1.420000e-06	2.250919e-06	2.573896e-09	1.599933e+01	1.691216e+02
1.430000e-06	2.335409e-06	2.652243e-09	1.659988e+01	1.743139e+02
1.440000e-06	2.419622e-06	2.726023e-09	1.719846e+01	1.791790e+02
1.450000e-06	2.503594e-06	2.797730e-09	1.779532e+01	1.837490e+02
1.460000e-06	2.587233e-06	2.865134e-09	1.838982e+01	1.880540e+02
1.470000e-06	2.670459e-06	2.926894e-09	1.898138e+01	1.921215e+02
1.480000e-06	2.753209e-06	2.987535e-09	1.956956e+01	1.959756e+02
1.490000e-06	2.835460e-06	3.044783e-09	2.015420e+01	1.996372e+02
1.500000e-06	2.917192e-06	3.095150e-09	2.073514e+01	2.031235e+02
1.510000e-06	2.998448e-06	3.142588e-09	2.131270e+01	2.064487e+02
1.520000e-06	3.079190e-06	3.188281e-09	2.188661e+01	2.096238e+02
1.530000e-06	3.159360e-06	3.232442e-09	2.245645e+01	2.126575e+02
1.540000e-06	3.238947e-06	3.274210e-09	2.302215e+01	2.155566e+02
1.550000e-06	3.317903e-06	3.313884e-09	2.358336e+01	2.183267e+02
1.560000e-06	3.396207e-06	3.351127e-09	2.413994e+01	2.209725e+02
1.570000e-06	3.473832e-06	3.387338e-09	2.469169e+01	2.234984e+02
1.580000e-06	3.550747e-06	3.421917e-09	2.523840e+01	2.259091e+02
1.590000e-06	3.626970e-06	3.454223e-09	2.578019e+01	2.282095e+02
1.600000e-06	3.702495e-06	3.484282e-09	2.631701e+01	2.304053e+02
1.610000e-06	3.777248e-06	3.512937e-09	2.684834e+01	2.325026e+02
1.620000e-06	3.851114e-06	3.542809e-09	2.737338e+01	2.345080e+02
1.630000e-06	3.924121e-06	3.570430e-09	2.789231e+01	2.364287e+02
1.640000e-06	3.996384e-06	3.595795e-09	2.840594e+01	2.382718e+02
1.650000e-06	4.067862e-06	3.621823e-09	2.891401e+01	2.400446e+02
1.660000e-06	4.138649e-06	3.648505e-09	2.941715e+01	2.417537e+02
1.670000e-06	4.208781e-06	3.674270e-09	2.991564e+01	2.434054e+02
1.680000e-06	4.278143e-06	3.697688e-09	3.040866e+01	2.450050e+02
1.690000e-06	4.346744e-06	3.720503e-09	3.089628e+01	2.465569e+02
1.700000e-06	4.414705e-06	3.744145e-09	3.137933e+01	2.480644e+02
1.710000e-06	4.482083e-06	3.767549e-09	3.185825e+01	2.495299e+02
1.720000e-06	4.548695e-06	3.787455e-09	3.233172e+01	2.509547e+02
1.730000e-06	4.614285e-06	3.803611e-09	3.279793e+01	2.523392e+02
1.740000e-06	4.678900e-06	3.819789e-09	3.325721e+01	2.536834e+02
1.750000e-06	4.742747e-06	3.838808e-09	3.371103e+01	2.549866e+02
1.760000e-06	4.805872e-06	3.858566e-09	3.415971e+01	2.562480e+02
1.770000e-06	4.868243e-06	3.876934e-09	3.460304e+01	2.574667e+02
1.780000e-06	4.929851e-06	3.894794e-09	3.504094e+01	2.586422e+02
1.790000e-06	4.990680e-06	3.912830e-09	3.547331e+01	2.597741e+02
1.800000e-06	5.050743e-06	3.930687e-09	3.590024e+01	2.608628e+02
1.810000e-06	5.110055e-06	3.945747e-09	3.632182e+01	2.619090e+02
1.820000e-06	5.168444e-06	3.958375e-09	3.673684e+01	2.629142e+02
1.830000e-06	5.225702e-06	3.969929e-09	3.714383e+01	2.638801e+02
1.840000e-06	5.281828e-06	3.983490e-09	3.754277e+01	2.648092e+02
1.850000e-06	5.337014e-06	3.999682e-09	3.793502e+01	2.657041e+02
1.860000e-06	5.391399e-06	4.014273e-09	3.832159e+01	2.665676e+02
1.870000e-06	5.444886e-06	4.028191e-09	3.870177e+01	2.674024e+02
1.880000e-06	5.497377e-06	4.042585e-09	3.907487e+01	2.682113e+02
1.890000e-06	5.548762e-06	4.056808e-09	3.944011e+01	2.689968e+02
1.900000e-06	5.598821e-06	4.070873e-09	3.979593e+01	2.697608e+02
1.910000e-06	5.647528e-06	4.082180e-09	4.014213e+01	2.705050e+02
1.920000e-06	5.695129e-06	4.091641e-09	4.048047e+01	2.712305e+02
1.930000e-06	5.741735e-06	4.101342e-09	4.081175e+01	2.719380e+02
1.940000e-06	5.787320e-06	4.111264e-09	4.113576e+01	2.726279e+02
1.950000e-06	5.831946e-06	4.121303e-09	4.145296e+01	2.733000e+02
1.960000e-06	5.875698e-06	4.131608e-09	4.176394e+01	2.739541e+02
1.970000e-06	5.918527e-06	4.143130e-09	4.206837e+01	2.745896e+02
1.980000e-06	5.960214e-06	4.154587e-09	4.236467e+01	2.752060e+02
1.990000e-06	6.000548e-06	4.163625e-09	4.265137e+01	2.758029e+02
2.000000e-06	6.039736e-06	4.171229e-09	4.292991e+01	2.763798e+02
2.010000e-06	6.078001e-06	4.179727e-09	4.320190e+01	2.769365e+02
2.020000e-06	6.115242e-06	4.188911e-09	4.346660e+01	2.774729e+02
2.030000e-06	6.151533e-06	4.198783e-09	4.372455e+01	2.779891e+02
2.040000e-06	6.186958e-06	4.208749e-09	4.397635e+01	2.784855e+02
2.050000e-06	6.221312e-06	4.217275e-09	4.422054e+01	2.789624e+02
2.060000e-06	6.254308e-06	4.225732e-09	4.445507e+01	2.794204e+02
2.070000e-06	6.286059e-06	4.234178e-09	4.468075e+01	2.798601e+02
2.080000e-06	6.316801e-06	4.240591e-09	4.489927e+01	2.802818e+02
2.090000e-06	6.346531e-06	4.245888e-09	4.511058e+01	2.806861e+02
2.100000e-06	6.375291e-06	4.251257e-09	4.531500e+01	2.810732e+02
2.110000e-06	6.403114e-06	4.257543e-09	4.551277e+01	2.814434e+02
2.120000e-06	6.429926e-06	4.263898e-09	4.570334e+01	2.817968e+02
2.130000e-06	6.455473e-06	4.269287e-09	4.588494e+01	2.821332e+02
2.140000e-06	6.479666e-06	4.275474e-09	4.605689e+01	2.824526e+02
2.150000e-06	6.502675e-06	4.281869e-09	4.622044e+01	2.827549e+02
2.160000e-06	6.524599e-06	4.288137e-09	4.637627e+01	2.830397e+02
2.170000e-06	6.545440e-06	4.292611e-09	4.652441e+01	2.833072e+02
2.180000e-06	6.565272e-06	4.294621e-09	4.666537e+01	2.835571e+02
2.190000e-06	6.584070e-06	4.297345e-09	4.679899e+01	2.837895e+02
2.200000e-06	6.601697e-06	4.300887e-09	4.692428e+01	2.840047e+02
2.210000e-06	6.618149e-06	4.305341e-09	4.704122e+01	2.842029e+02
2.220000e-06	6.633429e-06	4.309259e-09	4.714983e+01	2.843843e+02
2.230000e-06	6.647443e-06	4.311648e-09	4.724944e+01	2.845494e+02
2.240000e-06	6.660190e-06	4.313555e-09	4.734005e+01	2.846984e+02
2.250000e-06	6.671768e-06	4.316620e-09	4.742234e+01	2.848317e+02
2.260000e-06	6.681861e-06	4.321219e-09	4.749408e+01	2.849493e+02
2.270000e-06	6.690369e-06	4.323716e-09	4.755455e+01	2.850513e+02
2.280000e-06	6.697705e-06	4.323649e-09	4.760670e+01	2.851376e+02
2.290000e-06	6.703981e-06	4.324476e-09	4.765130e+01	2.852077e+02
2.300000e-06	6.709094e-06	4.327006e-09	4.768765e+01	2.852615e+02
2.310000e-06	6.713132e-06	4.328773e-09	4.771635e+01	2.852984e+02
2.320000e-06	6.716128e-06	4.329848e-09	4.773764e+01	2.853183e+02
2.330000e-06	6.717766e-06	4.331106e-09	4.774929e+01	2.853209e+02
2.340000e-06	6.717972e-06	4.334140e-09	4.775075e+01	2.853064e+02
2.350000e-06	6.717081e-06	4.336680e-09	4.774442e+01	2.852755e+02
2.360000e-06	6.715166e-06	4.334133e-09	4.773080e+01	2.852293e+02
2.370000e-06	6.712133e-06	4.331176e-09	4.770925e+01	2.851695e+02
2.380000e-06	6.708119e-06	4.329391e-09	4.768071e+01	2.850986e+02
2.390000e-06	6.703208e-06	4.329009e-09	4.764581e+01	2.850195e+02
2.400000e-06	6.697077e-06	4.330783e-09	4.760223e+01	2.849360e+02
2.410000e-06	6.689558e-06	4.336961e-09	4.754879e+01	2.848520e+02
2.420000e-06	6.680975e-06	4.355489e-09	4.748778e+01	2.847720e+02
2.430000e-06	6.671478e-06	4.312652e-09	4.742028e+01	2.847004e+02
2.440000e-06	6.660683e-06	4.240393e-09	4.734354e+01	2.846413e+02
2.450000e-06	6.647983e-06	4.225218e-09	4.725328e+01	2.845985e+02
2.460000e-06	6.633293e-06	4.294881e-09	4.714886e+01	2.845749e+02
2.470000e-06	6.617352e-06	4.457742e-09	4.703556e+01	2.845724e+02
2.480000e-06	6.600945e-06	4.389858e-09	4.691894e+01	2.845915e+02
2.490000e-06	6.583860e-06	4.210997e-09	4.679750e+01	2.846312e+02
2.500000e-06	6.565388e-06	4.309799e-09	4.666620e+01	2.846892e+02
2.510000e-06	6.545880e-06	4.347819e-09	4.652753e+01	2.847611e+02
2.520000e-06	6.525849e-06	4.372821e-09	4.638516e+01	2.848415e+02
2.530000e-06	6.504410e-06	4.467269e-09	4.623277e+01	2.849232e+02
2.540000e-06	6.481224e-06	4.271251e-09	4.606797e+01	2.849982e+02
2.550000e-06	6.457096e-06	4.225175e-09	4.589647e+01	2.850575e+02
2.560000e-06	6.432084e-06	4.451085e-09	4.571869e+01	2.850918e+02
2.570000e-06	6.405945e-06	4.346207e-09	4.553289e+01	2.850919e+02
2.580000e-06	6.378663e-06	4.233764e-09	4.533898e+01	2.850493e+02
2.590000e-06	6.350424e-06	4.394963e-09	4.513825e+01	2.849562e+02
2.600000e-06	6.321368e-06	4.442018e-09	4.493173e+01	2.848063e+02
2.610000e-06	6.290914e-06	4.428421e-09	4.471526e+01	2.845949e+02
2.620000e-06	6.258925e-06	4.334553e-09	4.448789e+01	2.843195e+02
2.630000e-06	6.225948e-06	4.276009e-09	4.425349e+01	2.839792e+02
2.640000e-06	6.191887e-06	4.395966e-09	4.401139e+01	2.835756e+02
2.650000e-06	6.156625e-06	4.361259e-09	4.376075e+01	2.831120e+02
2.660000e-06	6.120418e-06	4.325553e-09	4.350339e+01	2.825934e+02
2.670000e-06	6.083136e-06	4.336142e-09	4.323839e+01	2.820262e+02
2.680000e-06	6.044396e-06	4.258037e-09	4.296304e+01	2.814179e+02
2.690000e-06	6.004382e-06	4.308233e-09	4.267862e+01	2.807763e+02
2.700000e-06	5.963547e-06	4.363429e-09	4.238837e+01	2.801093e+02
2.710000e-06	5.921660e-06	4.292547e-09	4.209063e+01	2.794245e+02
2.720000e-06	5.878517e-06	4.201759e-09	4.178398e+01	2.787285e+02
2.730000e-06	5.834512e-06	4.258906e-09	4.147120e+01	2.780265e+02
2.740000e-06	5.789729e-06	4.354299e-09	4.115289e+01	2.773224e+02
2.750000e-06	5.743883e-06	4.229342e-09	4.082701e+01	2.766184e+02
2.760000e-06	5.696933e-06	4.161549e-09	4.049329e+01	2.759148e+02
2.770000e-06	5.649053e-06	4.235179e-09	4.015297e+01	2.752105e+02
2.780000e-06	5.600214e-06	4.252858e-09	3.980583e+01	2.745027e+02
2.790000e-06	5.550210e-06	4.205594e-09	3.945040e+01	2.737876e+02
2.800000e-06	5.499184e-06	4.151458e-09	3.908771e+01	2.730604e+02
2.810000e-06	5.447276e-06	4.179264e-09	3.871876e+01	2.723159e+02
2.820000e-06	5.394237e-06	4.182019e-09	3.834176e+01	2.715489e+02
2.830000e-06	5.339835e-06	4.150817e-09	3.795508e+01	2.707546e+02
2.840000e-06	5.284260e-06	4.141210e-09	3.756005e+01	2.699288e+02
2.850000e-06	5.227831e-06	4.110840e-09	3.715896e+01	2.690681e+02
2.860000e-06	5.170523e-06	4.100514e-09	3.675162e+01	2.681707e+02
2.870000e-06	5.112353e-06	4.102798e-09	3.633815e+01	2.672355e+02
2.880000e-06	5.053445e-06	4.096681e-09	3.591944e+01	2.662629e+02
2.890000e-06	4.993761e-06	4.050110e-09	3.549521e+01	2.652543e+02
2.900000e-06	4.933267e-06	4.021883e-09	3.506523e+01	2.642118e+02
2.910000e-06	4.871923e-06	4.050589e-09	3.462920e+01	2.631381e+02
2.920000e-06	4.809629e-06	4.036206e-09	3.418642e+01	2.620362e+02
2.930000e-06	4.746290e-06	3.979535e-09	3.373621e+01	2.609087e+02
2.940000e-06	4.681994e-06	3.959231e-09	3.327920e+01	2.597580e+02
2.950000e-06	4.616948e-06	3.982119e-09	3.281686e+01	2.585856e+02
