# Temperatura_=_20.0
# Concentracion g/m^3_=_9000.0
# C_Vs_to_Am_M_A/Vsm_=_65563218390.804596
# pendiente_HvsI_1/m_=_3716.3
# ordenada_HvsI_A/m_=_1297.0
# frecuencia_Hz_=_212907.4723055684

Tiempo_(s)	Campo_(V.s)	Magnetizacion_(V.s)	Campo_(kA/m)	Magnetizacion_(A/m)
0.000000e+00	-6.734276e-06	-4.316273e-09	-4.768921e+01	-2.831557e+02
1.000000e-08	-6.734090e-06	-4.310556e-09	-4.768788e+01	-2.831171e+02
2.000000e-08	-6.732619e-06	-4.310348e-09	-4.767747e+01	-2.830684e+02
3.000000e-08	-6.729691e-06	-4.309699e-09	-4.765674e+01	-2.830108e+02
4.000000e-08	-6.725758e-06	-4.307142e-09	-4.762889e+01	-2.829458e+02
5.000000e-08	-6.720896e-06	-4.303225e-09	-4.759446e+01	-2.828751e+02
6.000000e-08	-6.714874e-06	-4.300153e-09	-4.755181e+01	-2.828006e+02
7.000000e-08	-6.707762e-06	-4.299202e-09	-4.750144e+01	-2.827244e+02
8.000000e-08	-6.699827e-06	-4.287994e-09	-4.744525e+01	-2.826489e+02
9.000000e-08	-6.690665e-06	-4.283294e-09	-4.738037e+01	-2.825761e+02
1.000000e-07	-6.679710e-06	-4.342862e-09	-4.730279e+01	-2.825084e+02
1.100000e-07	-6.667110e-06	-4.377082e-09	-4.721356e+01	-2.824474e+02
1.200000e-07	-6.652966e-06	-4.357499e-09	-4.711340e+01	-2.823946e+02
1.300000e-07	-6.637211e-06	-4.259094e-09	-4.700183e+01	-2.823508e+02
1.400000e-07	-6.620290e-06	-4.124540e-09	-4.688201e+01	-2.823158e+02
1.500000e-07	-6.602587e-06	-4.294580e-09	-4.675664e+01	-2.822890e+02
1.600000e-07	-6.583949e-06	-4.416549e-09	-4.662465e+01	-2.822682e+02
1.700000e-07	-6.564513e-06	-4.252275e-09	-4.648702e+01	-2.822507e+02
1.800000e-07	-6.544241e-06	-4.251446e-09	-4.634346e+01	-2.822326e+02
1.900000e-07	-6.522671e-06	-4.211676e-09	-4.619071e+01	-2.822089e+02
2.000000e-07	-6.500106e-06	-4.195356e-09	-4.603091e+01	-2.821742e+02
2.100000e-07	-6.476832e-06	-4.428430e-09	-4.586610e+01	-2.821225e+02
2.200000e-07	-6.452170e-06	-4.313411e-09	-4.569145e+01	-2.820473e+02
2.300000e-07	-6.425910e-06	-4.107962e-09	-4.550549e+01	-2.819425e+02
2.400000e-07	-6.398535e-06	-4.320078e-09	-4.531163e+01	-2.818019e+02
2.500000e-07	-6.370191e-06	-4.421387e-09	-4.511091e+01	-2.816203e+02
2.600000e-07	-6.340832e-06	-4.305072e-09	-4.490301e+01	-2.813934e+02
2.700000e-07	-6.310379e-06	-4.218213e-09	-4.468735e+01	-2.811179e+02
2.800000e-07	-6.278910e-06	-4.198237e-09	-4.446450e+01	-2.807918e+02
2.900000e-07	-6.246505e-06	-4.316300e-09	-4.423503e+01	-2.804149e+02
3.000000e-07	-6.212731e-06	-4.342858e-09	-4.399585e+01	-2.799881e+02
3.100000e-07	-6.177514e-06	-4.220513e-09	-4.374646e+01	-2.795137e+02
3.200000e-07	-6.141162e-06	-4.199411e-09	-4.348903e+01	-2.789956e+02
3.300000e-07	-6.103695e-06	-4.228337e-09	-4.322370e+01	-2.784382e+02
3.400000e-07	-6.065107e-06	-4.249945e-09	-4.295044e+01	-2.778469e+02
3.500000e-07	-6.025618e-06	-4.263675e-09	-4.267080e+01	-2.772274e+02
3.600000e-07	-5.985161e-06	-4.204672e-09	-4.238430e+01	-2.765855e+02
3.700000e-07	-5.943268e-06	-4.127293e-09	-4.208763e+01	-2.759263e+02
3.800000e-07	-5.900140e-06	-4.192715e-09	-4.178222e+01	-2.752547e+02
3.900000e-07	-5.856105e-06	-4.283958e-09	-4.147038e+01	-2.745743e+02
4.000000e-07	-5.810951e-06	-4.159096e-09	-4.115062e+01	-2.738877e+02
4.100000e-07	-5.764688e-06	-4.080146e-09	-4.082300e+01	-2.731962e+02
4.200000e-07	-5.717545e-06	-4.181829e-09	-4.048916e+01	-2.724996e+02
4.300000e-07	-5.669465e-06	-4.205213e-09	-4.014868e+01	-2.717968e+02
4.400000e-07	-5.619952e-06	-4.122000e-09	-3.979805e+01	-2.710853e+02
4.500000e-07	-5.568963e-06	-4.090358e-09	-3.943697e+01	-2.703619e+02
4.600000e-07	-5.516883e-06	-4.124858e-09	-3.906816e+01	-2.696227e+02
4.700000e-07	-5.463876e-06	-4.121515e-09	-3.869279e+01	-2.688635e+02
4.800000e-07	-5.409976e-06	-4.093554e-09	-3.831109e+01	-2.680803e+02
4.900000e-07	-5.355134e-06	-4.076085e-09	-3.792272e+01	-2.672692e+02
5.000000e-07	-5.299493e-06	-4.050137e-09	-3.752870e+01	-2.664273e+02
5.100000e-07	-5.243044e-06	-4.049592e-09	-3.712895e+01	-2.655523e+02
5.200000e-07	-5.185540e-06	-4.056002e-09	-3.672173e+01	-2.646428e+02
5.300000e-07	-5.126947e-06	-4.027811e-09	-3.630680e+01	-2.636988e+02
5.400000e-07	-5.067386e-06	-3.988214e-09	-3.588501e+01	-2.627209e+02
5.500000e-07	-5.007016e-06	-3.984313e-09	-3.545750e+01	-2.617109e+02
5.600000e-07	-4.945963e-06	-4.003147e-09	-3.502515e+01	-2.606712e+02
5.700000e-07	-4.884154e-06	-3.977977e-09	-3.458745e+01	-2.596045e+02
5.800000e-07	-4.821462e-06	-3.925826e-09	-3.414349e+01	-2.585137e+02
5.900000e-07	-4.757947e-06	-3.913904e-09	-3.369371e+01	-2.574017e+02
6.000000e-07	-4.693645e-06	-3.935981e-09	-3.323834e+01	-2.562706e+02
6.100000e-07	-4.628311e-06	-3.916729e-09	-3.277568e+01	-2.551220e+02
6.200000e-07	-4.561904e-06	-3.861934e-09	-3.230541e+01	-2.539564e+02
6.300000e-07	-4.494711e-06	-3.842927e-09	-3.182958e+01	-2.527735e+02
6.400000e-07	-4.426901e-06	-3.847459e-09	-3.134938e+01	-2.515715e+02
6.500000e-07	-4.358347e-06	-3.828264e-09	-3.086391e+01	-2.503478e+02
6.600000e-07	-4.288900e-06	-3.790973e-09	-3.037212e+01	-2.490988e+02
6.700000e-07	-4.218584e-06	-3.769090e-09	-2.987417e+01	-2.478202e+02
6.800000e-07	-4.147557e-06	-3.760968e-09	-2.937119e+01	-2.465072e+02
6.900000e-07	-4.076013e-06	-3.749256e-09	-2.886455e+01	-2.451550e+02
7.000000e-07	-4.003788e-06	-3.728916e-09	-2.835308e+01	-2.437589e+02
7.100000e-07	-3.930530e-06	-3.694725e-09	-2.783430e+01	-2.423145e+02
7.200000e-07	-3.856262e-06	-3.660859e-09	-2.730836e+01	-2.408186e+02
7.300000e-07	-3.781254e-06	-3.645552e-09	-2.677719e+01	-2.392684e+02
7.400000e-07	-3.705521e-06	-3.630416e-09	-2.624088e+01	-2.376624e+02
7.500000e-07	-3.629064e-06	-3.590249e-09	-2.569945e+01	-2.360002e+02
7.600000e-07	-3.551930e-06	-3.548243e-09	-2.515322e+01	-2.342823e+02
7.700000e-07	-3.474065e-06	-3.534064e-09	-2.460181e+01	-2.325099e+02
7.800000e-07	-3.395442e-06	-3.520313e-09	-2.404504e+01	-2.306849e+02
7.900000e-07	-3.316012e-06	-3.480523e-09	-2.348255e+01	-2.288092e+02
8.000000e-07	-3.235808e-06	-3.434933e-09	-2.291458e+01	-2.268848e+02
8.100000e-07	-3.155062e-06	-3.409189e-09	-2.234277e+01	-2.249129e+02
8.200000e-07	-3.073886e-06	-3.391861e-09	-2.176792e+01	-2.228942e+02
8.300000e-07	-2.992212e-06	-3.357073e-09	-2.118954e+01	-2.208282e+02
8.400000e-07	-2.909996e-06	-3.313293e-09	-2.060732e+01	-2.187129e+02
8.500000e-07	-2.827272e-06	-3.280787e-09	-2.002150e+01	-2.165453e+02
8.600000e-07	-2.744211e-06	-3.255994e-09	-1.943330e+01	-2.143205e+02
8.700000e-07	-2.660970e-06	-3.226273e-09	-1.884383e+01	-2.120329e+02
8.800000e-07	-2.577507e-06	-3.186818e-09	-1.825278e+01	-2.096754e+02
8.900000e-07	-2.493579e-06	-3.141521e-09	-1.765844e+01	-2.072404e+02
9.000000e-07	-2.409158e-06	-3.099801e-09	-1.706061e+01	-2.047200e+02
9.100000e-07	-2.324461e-06	-3.065375e-09	-1.646082e+01	-2.021060e+02
9.200000e-07	-2.239531e-06	-3.025810e-09	-1.585938e+01	-1.993909e+02
9.300000e-07	-2.154292e-06	-2.973301e-09	-1.525576e+01	-1.965679e+02
9.400000e-07	-2.068680e-06	-2.924022e-09	-1.464949e+01	-1.936309e+02
9.500000e-07	-1.982665e-06	-2.885654e-09	-1.404037e+01	-1.905753e+02
9.600000e-07	-1.896300e-06	-2.843954e-09	-1.342877e+01	-1.873971e+02
9.700000e-07	-1.809658e-06	-2.788483e-09	-1.281521e+01	-1.840938e+02
9.800000e-07	-1.722711e-06	-2.730081e-09	-1.219948e+01	-1.806628e+02
9.900000e-07	-1.635498e-06	-2.680533e-09	-1.158188e+01	-1.771021e+02
1.000000e-06	-1.548134e-06	-2.629190e-09	-1.096321e+01	-1.734091e+02
1.010000e-06	-1.460577e-06	-2.566710e-09	-1.034317e+01	-1.695800e+02
1.020000e-06	-1.372737e-06	-2.501461e-09	-9.721125e+00	-1.656090e+02
1.030000e-06	-1.284492e-06	-2.439352e-09	-9.096209e+00	-1.614882e+02
1.040000e-06	-1.195888e-06	-2.376386e-09	-8.468757e+00	-1.572062e+02
1.050000e-06	-1.107014e-06	-2.308827e-09	-7.839392e+00	-1.527483e+02
1.060000e-06	-1.017813e-06	-2.237167e-09	-7.207706e+00	-1.480959e+02
1.070000e-06	-9.283292e-07	-2.161275e-09	-6.574022e+00	-1.432265e+02
1.080000e-06	-8.386162e-07	-2.081429e-09	-5.938714e+00	-1.381143e+02
1.090000e-06	-7.487492e-07	-1.999622e-09	-5.302315e+00	-1.327301e+02
1.100000e-06	-6.587564e-07	-1.914244e-09	-4.665026e+00	-1.270429e+02
1.110000e-06	-5.686096e-07	-1.821299e-09	-4.026645e+00	-1.210204e+02
1.120000e-06	-4.782954e-07	-1.723034e-09	-3.387079e+00	-1.146307e+02
1.130000e-06	-3.878444e-07	-1.622614e-09	-2.746545e+00	-1.078435e+02
1.140000e-06	-2.973500e-07	-1.515344e-09	-2.105703e+00	-1.006323e+02
1.150000e-06	-2.068628e-07	-1.399631e-09	-1.464912e+00	-9.297518e+01
1.160000e-06	-1.163970e-07	-1.278756e-09	-8.242728e-01	-8.485720e+01
1.170000e-06	-2.591704e-08	-1.153288e-09	-1.835332e-01	-7.627136e+01
1.180000e-06	6.461740e-08	-1.016283e-09	4.575923e-01	-6.722001e+01
1.190000e-06	1.552065e-07	-8.692399e-10	1.099105e+00	-5.771564e+01
1.200000e-06	2.457362e-07	-7.169586e-10	1.740196e+00	-4.778145e+01
1.210000e-06	3.361435e-07	-5.581341e-10	2.380422e+00	-3.745143e+01
1.220000e-06	4.264626e-07	-3.932868e-10	3.020022e+00	-2.677004e+01
1.230000e-06	5.166521e-07	-2.237870e-10	3.658705e+00	-1.579141e+01
1.240000e-06	6.066774e-07	-5.332818e-11	4.296225e+00	-4.578142e+00
1.250000e-06	6.965555e-07	1.185597e-10	4.932702e+00	6.800254e+00
1.260000e-06	7.863046e-07	2.911717e-10	5.568266e+00	1.826923e+01
1.270000e-06	8.758911e-07	4.661613e-10	6.202679e+00	2.975131e+01
1.280000e-06	9.652104e-07	6.415373e-10	6.835199e+00	4.116832e+01
1.290000e-06	1.054258e-06	8.141067e-10	7.465796e+00	5.244364e+01
1.300000e-06	1.142984e-06	9.855113e-10	8.094111e+00	6.350438e+01
1.310000e-06	1.231406e-06	1.152255e-09	8.720277e+00	7.428340e+01
1.320000e-06	1.319584e-06	1.314939e-09	9.344715e+00	8.472108e+01
1.330000e-06	1.407456e-06	1.469985e-09	9.966991e+00	9.476667e+01
1.340000e-06	1.495067e-06	1.615367e-09	1.058741e+01	1.043794e+02
1.350000e-06	1.582495e-06	1.752765e-09	1.120654e+01	1.135290e+02
1.360000e-06	1.669780e-06	1.883179e-09	1.182465e+01	1.221959e+02
1.370000e-06	1.756838e-06	2.005990e-09	1.244116e+01	1.303710e+02
1.380000e-06	1.843657e-06	2.119793e-09	1.305597e+01	1.380550e+02
1.390000e-06	1.930261e-06	2.226647e-09	1.366927e+01	1.452575e+02
1.400000e-06	2.016561e-06	2.326638e-09	1.428040e+01	1.519954e+02
1.410000e-06	2.102459e-06	2.421231e-09	1.488870e+01	1.582919e+02
1.420000e-06	2.188014e-06	2.512234e-09	1.549456e+01	1.641748e+02
1.430000e-06	2.273233e-06	2.597405e-09	1.609804e+01	1.696748e+02
1.440000e-06	2.358082e-06	2.673880e-09	1.669891e+01	1.748239e+02
1.450000e-06	2.442605e-06	2.746238e-09	1.729746e+01	1.796544e+02
1.460000e-06	2.526765e-06	2.816446e-09	1.789345e+01	1.841972e+02
1.470000e-06	2.610501e-06	2.883159e-09	1.848643e+01	1.884811e+02
1.480000e-06	2.693846e-06	2.944129e-09	1.907665e+01	1.925323e+02
1.490000e-06	2.776866e-06	3.002234e-09	1.966455e+01	1.963733e+02
1.500000e-06	2.859470e-06	3.059593e-09	2.024952e+01	2.000233e+02
1.510000e-06	2.941552e-06	3.110818e-09	2.083079e+01	2.034980e+02
1.520000e-06	3.023001e-06	3.157879e-09	2.140758e+01	2.068100e+02
1.530000e-06	3.103884e-06	3.204645e-09	2.198035e+01	2.099691e+02
1.540000e-06	3.184200e-06	3.249388e-09	2.254911e+01	2.129829e+02
1.550000e-06	3.263850e-06	3.289723e-09	2.311316e+01	2.158575e+02
1.560000e-06	3.342891e-06	3.326659e-09	2.367289e+01	2.185977e+02
1.570000e-06	3.421313e-06	3.362535e-09	2.422825e+01	2.212083e+02
1.580000e-06	3.499075e-06	3.398023e-09	2.477893e+01	2.236938e+02
1.590000e-06	3.576153e-06	3.432830e-09	2.532476e+01	2.260592e+02
1.600000e-06	3.652563e-06	3.465705e-09	2.586586e+01	2.283104e+02
1.610000e-06	3.728284e-06	3.495338e-09	2.640208e+01	2.304537e+02
1.620000e-06	3.803216e-06	3.523626e-09	2.693271e+01	2.324965e+02
1.630000e-06	3.877288e-06	3.551926e-09	2.745726e+01	2.344468e+02
1.640000e-06	3.950460e-06	3.577983e-09	2.797543e+01	2.363129e+02
1.650000e-06	4.022768e-06	3.602493e-09	2.848749e+01	2.381033e+02
1.660000e-06	4.094316e-06	3.628035e-09	2.899416e+01	2.398264e+02
1.670000e-06	4.165222e-06	3.654504e-09	2.949628e+01	2.414900e+02
1.680000e-06	4.235482e-06	3.679494e-09	2.999383e+01	2.431012e+02
1.690000e-06	4.304962e-06	3.702776e-09	3.048586e+01	2.446660e+02
1.700000e-06	4.373691e-06	3.725532e-09	3.097257e+01	2.461891e+02
1.710000e-06	4.441788e-06	3.747668e-09	3.145480e+01	2.476740e+02
1.720000e-06	4.509266e-06	3.768735e-09	3.193266e+01	2.491229e+02
1.730000e-06	4.575940e-06	3.788152e-09	3.240481e+01	2.505367e+02
1.740000e-06	4.641649e-06	3.806213e-09	3.287014e+01	2.519155e+02
1.750000e-06	4.706377e-06	3.824120e-09	3.332851e+01	2.532581e+02
1.760000e-06	4.770255e-06	3.842021e-09	3.378086e+01	2.545632e+02
1.770000e-06	4.833444e-06	3.860275e-09	3.422834e+01	2.558289e+02
1.780000e-06	4.895894e-06	3.879233e-09	3.467059e+01	2.570535e+02
1.790000e-06	4.957534e-06	3.896835e-09	3.510709e+01	2.582354e+02
1.800000e-06	5.018406e-06	3.913947e-09	3.553816e+01	2.593734e+02
1.810000e-06	5.078556e-06	3.931684e-09	3.596412e+01	2.604671e+02
1.820000e-06	5.137979e-06	3.947038e-09	3.638492e+01	2.615167e+02
1.830000e-06	5.196548e-06	3.960723e-09	3.679968e+01	2.625230e+02
1.840000e-06	5.253922e-06	3.975431e-09	3.720598e+01	2.634876e+02
1.850000e-06	5.310084e-06	3.990052e-09	3.760370e+01	2.644127e+02
1.860000e-06	5.365374e-06	4.004729e-09	3.799524e+01	2.653009e+02
1.870000e-06	5.419855e-06	4.019008e-09	3.838105e+01	2.661549e+02
1.880000e-06	5.473357e-06	4.032958e-09	3.875993e+01	2.669778e+02
1.890000e-06	5.525833e-06	4.046091e-09	3.913154e+01	2.677722e+02
1.900000e-06	5.577236e-06	4.058463e-09	3.949555e+01	2.685409e+02
1.910000e-06	5.627276e-06	4.072123e-09	3.984991e+01	2.692858e+02
1.920000e-06	5.675924e-06	4.084936e-09	4.019442e+01	2.700088e+02
1.930000e-06	5.723503e-06	4.096381e-09	4.053135e+01	2.707110e+02
1.940000e-06	5.770100e-06	4.105476e-09	4.086133e+01	2.713931e+02
1.950000e-06	5.815713e-06	4.113707e-09	4.118434e+01	2.720552e+02
1.960000e-06	5.860417e-06	4.124181e-09	4.150092e+01	2.726971e+02
1.970000e-06	5.904249e-06	4.133455e-09	4.181132e+01	2.733185e+02
1.980000e-06	5.947123e-06	4.142009e-09	4.211493e+01	2.739186e+02
1.990000e-06	5.988727e-06	4.151320e-09	4.240955e+01	2.744969e+02
2.000000e-06	6.029039e-06	4.161056e-09	4.269503e+01	2.750530e+02
2.010000e-06	6.068303e-06	4.170969e-09	4.297308e+01	2.755864e+02
2.020000e-06	6.106561e-06	4.181302e-09	4.324400e+01	2.760972e+02
2.030000e-06	6.143789e-06	4.191464e-09	4.350763e+01	2.765857e+02
2.040000e-06	6.180048e-06	4.200043e-09	4.376440e+01	2.770526e+02
2.050000e-06	6.215462e-06	4.209483e-09	4.401519e+01	2.774988e+02
2.060000e-06	6.249794e-06	4.218079e-09	4.425831e+01	2.779255e+02
2.070000e-06	6.282688e-06	4.225161e-09	4.449125e+01	2.783339e+02
2.080000e-06	6.314381e-06	4.231781e-09	4.471569e+01	2.787256e+02
2.090000e-06	6.345120e-06	4.237396e-09	4.493337e+01	2.791017e+02
2.100000e-06	6.374841e-06	4.242842e-09	4.514384e+01	2.794634e+02
2.110000e-06	6.403559e-06	4.248862e-09	4.534721e+01	2.798118e+02
2.120000e-06	6.431353e-06	4.255269e-09	4.554403e+01	2.801473e+02
2.130000e-06	6.458056e-06	4.261336e-09	4.573314e+01	2.804703e+02
2.140000e-06	6.483340e-06	4.267056e-09	4.591218e+01	2.807808e+02
2.150000e-06	6.507316e-06	4.272693e-09	4.608197e+01	2.810784e+02
2.160000e-06	6.530199e-06	4.277283e-09	4.624402e+01	2.813625e+02
2.170000e-06	6.551993e-06	4.281596e-09	4.639836e+01	2.816321e+02
2.180000e-06	6.572754e-06	4.285385e-09	4.654538e+01	2.818865e+02
2.190000e-06	6.592553e-06	4.287817e-09	4.668558e+01	2.821245e+02
2.200000e-06	6.611357e-06	4.292000e-09	4.681875e+01	2.823453e+02
2.210000e-06	6.629035e-06	4.295515e-09	4.694393e+01	2.825480e+02
2.220000e-06	6.645481e-06	4.298626e-09	4.706040e+01	2.827320e+02
2.230000e-06	6.660589e-06	4.300883e-09	4.716739e+01	2.828970e+02
2.240000e-06	6.674376e-06	4.303292e-09	4.726502e+01	2.830428e+02
2.250000e-06	6.686965e-06	4.305055e-09	4.735417e+01	2.831695e+02
2.260000e-06	6.698288e-06	4.306827e-09	4.743435e+01	2.832775e+02
2.270000e-06	6.708102e-06	4.311552e-09	4.750385e+01	2.833672e+02
2.280000e-06	6.716470e-06	4.314562e-09	4.756311e+01	2.834393e+02
2.290000e-06	6.723702e-06	4.314367e-09	4.761433e+01	2.834946e+02
2.300000e-06	6.729824e-06	4.313052e-09	4.765768e+01	2.835338e+02
2.310000e-06	6.734765e-06	4.315758e-09	4.769267e+01	2.835577e+02
2.320000e-06	6.738686e-06	4.318632e-09	4.772043e+01	2.835671e+02
2.330000e-06	6.741513e-06	4.319090e-09	4.774045e+01	2.835629e+02
2.340000e-06	6.742878e-06	4.320123e-09	4.775012e+01	2.835458e+02
2.350000e-06	6.742967e-06	4.322151e-09	4.775075e+01	2.835167e+02
2.360000e-06	6.742004e-06	4.324575e-09	4.774393e+01	2.834765e+02
2.370000e-06	6.739907e-06	4.323599e-09	4.772908e+01	2.834263e+02
2.380000e-06	6.736754e-06	4.322297e-09	4.770676e+01	2.833675e+02
2.390000e-06	6.732692e-06	4.320099e-09	4.767799e+01	2.833015e+02
2.400000e-06	6.727544e-06	4.319047e-09	4.764153e+01	2.832300e+02
2.410000e-06	6.720929e-06	4.319862e-09	4.759469e+01	2.831551e+02
2.420000e-06	6.713077e-06	4.327081e-09	4.753908e+01	2.830788e+02
2.430000e-06	6.704348e-06	4.348398e-09	4.747727e+01	2.830035e+02
2.440000e-06	6.694661e-06	4.279157e-09	4.740867e+01	2.829314e+02
2.450000e-06	6.683581e-06	4.217114e-09	4.733020e+01	2.828645e+02
2.460000e-06	6.670464e-06	4.221062e-09	4.723731e+01	2.828046e+02
2.470000e-06	6.655343e-06	4.310976e-09	4.713024e+01	2.827531e+02
2.480000e-06	6.639223e-06	4.492253e-09	4.701608e+01	2.827106e+02
2.490000e-06	6.622839e-06	4.334587e-09	4.690006e+01	2.826769e+02
2.500000e-06	6.605609e-06	4.175045e-09	4.677804e+01	2.826511e+02
2.510000e-06	6.586755e-06	4.347994e-09	4.664453e+01	2.826310e+02
2.520000e-06	6.566992e-06	4.295366e-09	4.650457e+01	2.826136e+02
2.530000e-06	6.546764e-06	4.368302e-09	4.636133e+01	2.825949e+02
2.540000e-06	6.524963e-06	4.481859e-09	4.620694e+01	2.825699e+02
2.550000e-06	6.501482e-06	4.170026e-09	4.604066e+01	2.825331e+02
2.560000e-06	6.477182e-06	4.234792e-09	4.586858e+01	2.824782e+02
2.570000e-06	6.451989e-06	4.489338e-09	4.569017e+01	2.823989e+02
2.580000e-06	6.425660e-06	4.238631e-09	4.550372e+01	2.822890e+02
2.590000e-06	6.398208e-06	4.172566e-09	4.530932e+01	2.821426e+02
2.600000e-06	6.369805e-06	4.363210e-09	4.510818e+01	2.819545e+02
2.610000e-06	6.340456e-06	4.344550e-09	4.490035e+01	2.817204e+02
2.620000e-06	6.309542e-06	4.371123e-09	4.468142e+01	2.814373e+02
2.630000e-06	6.277208e-06	4.253009e-09	4.445245e+01	2.811036e+02
2.640000e-06	6.243941e-06	4.222881e-09	4.421687e+01	2.807190e+02
2.650000e-06	6.209470e-06	4.354277e-09	4.397276e+01	2.802848e+02
2.660000e-06	6.173864e-06	4.245549e-09	4.372061e+01	2.798036e+02
2.670000e-06	6.137448e-06	4.302768e-09	4.346273e+01	2.792792e+02
2.680000e-06	6.099804e-06	4.293298e-09	4.319615e+01	2.787164e+02
2.690000e-06	6.060610e-06	4.157228e-09	4.291860e+01	2.781205e+02
2.700000e-06	6.020374e-06	4.272982e-09	4.263366e+01	2.774972e+02
2.710000e-06	5.979403e-06	4.315703e-09	4.234353e+01	2.768523e+02
2.720000e-06	5.937243e-06	4.231045e-09	4.204496e+01	2.761910e+02
2.730000e-06	5.893841e-06	4.118810e-09	4.173761e+01	2.755178e+02
2.740000e-06	5.849698e-06	4.207478e-09	4.142501e+01	2.748363e+02
2.750000e-06	5.804698e-06	4.312248e-09	4.110634e+01	2.741489e+02
2.760000e-06	5.758504e-06	4.131484e-09	4.077921e+01	2.734566e+02
2.770000e-06	5.711225e-06	4.122544e-09	4.044441e+01	2.727592e+02
2.780000e-06	5.663126e-06	4.194156e-09	4.010379e+01	2.720552e+02
2.790000e-06	5.614005e-06	4.180142e-09	3.975593e+01	2.713421e+02
2.800000e-06	5.563592e-06	4.142087e-09	3.939893e+01	2.706165e+02
2.810000e-06	5.512175e-06	4.095696e-09	3.903482e+01	2.698746e+02
2.820000e-06	5.459865e-06	4.141922e-09	3.866438e+01	2.691120e+02
2.830000e-06	5.406287e-06	4.097202e-09	3.828497e+01	2.683248e+02
2.840000e-06	5.351354e-06	4.079519e-09	3.789595e+01	2.675093e+02
2.850000e-06	5.295454e-06	4.098456e-09	3.750010e+01	2.666625e+02
2.860000e-06	5.238789e-06	4.052584e-09	3.709882e+01	2.657823e+02
2.870000e-06	5.181255e-06	4.042091e-09	3.669138e+01	2.648676e+02
2.880000e-06	5.122895e-06	4.036909e-09	3.627811e+01	2.639183e+02
2.890000e-06	5.063750e-06	4.047624e-09	3.585927e+01	2.629355e+02
2.900000e-06	5.003811e-06	3.993358e-09	3.543480e+01	2.619208e+02
2.910000e-06	4.943101e-06	3.966909e-09	3.500489e+01	2.608768e+02
2.920000e-06	4.881388e-06	4.002857e-09	3.456786e+01	2.598063e+02
2.930000e-06	4.818526e-06	3.972341e-09	3.412270e+01	2.587121e+02
2.940000e-06	4.754748e-06	3.919596e-09	3.367105e+01	2.575971e+02
2.950000e-06	4.690216e-06	3.907749e-09	3.321406e+01	2.564632e+02
