# Temperatura_=_20.0
# Concentracion g/m^3_=_9000.0
# C_Vs_to_Am_M_A/Vsm_=_65563218390.804596
# pendiente_HvsI_1/m_=_3716.3
# ordenada_HvsI_A/m_=_1297.0
# frecuencia_Hz_=_212906.18669555167

Tiempo_(s)	Campo_(V.s)	Magnetizacion_(V.s)	Campo_(kA/m)	Magnetizacion_(A/m)
0.000000e+00	-6.715884e-06	-4.314314e-09	-4.769301e+01	-2.831409e+02
1.000000e-08	-6.714696e-06	-4.314172e-09	-4.768457e+01	-2.831227e+02
2.000000e-08	-6.712060e-06	-4.315350e-09	-4.766585e+01	-2.830903e+02
3.000000e-08	-6.708324e-06	-4.314146e-09	-4.763932e+01	-2.830445e+02
4.000000e-08	-6.703660e-06	-4.311986e-09	-4.760620e+01	-2.829869e+02
5.000000e-08	-6.697894e-06	-4.309282e-09	-4.756525e+01	-2.829193e+02
6.000000e-08	-6.691012e-06	-4.306615e-09	-4.751637e+01	-2.828444e+02
7.000000e-08	-6.683191e-06	-4.300767e-09	-4.746084e+01	-2.827650e+02
8.000000e-08	-6.674232e-06	-4.295367e-09	-4.739721e+01	-2.826840e+02
9.000000e-08	-6.663633e-06	-4.324763e-09	-4.732194e+01	-2.826046e+02
1.000000e-07	-6.651334e-06	-4.371096e-09	-4.723460e+01	-2.825296e+02
1.100000e-07	-6.637543e-06	-4.373738e-09	-4.713667e+01	-2.824613e+02
1.200000e-07	-6.622287e-06	-4.313140e-09	-4.702832e+01	-2.824016e+02
1.300000e-07	-6.605724e-06	-4.197763e-09	-4.691070e+01	-2.823513e+02
1.400000e-07	-6.588224e-06	-4.230895e-09	-4.678642e+01	-2.823102e+02
1.500000e-07	-6.569825e-06	-4.391479e-09	-4.665576e+01	-2.822768e+02
1.600000e-07	-6.550552e-06	-4.339642e-09	-4.651890e+01	-2.822485e+02
1.700000e-07	-6.530444e-06	-4.246811e-09	-4.637610e+01	-2.822216e+02
1.800000e-07	-6.509184e-06	-4.237806e-09	-4.622512e+01	-2.821912e+02
1.900000e-07	-6.486850e-06	-4.222601e-09	-4.606652e+01	-2.821514e+02
2.000000e-07	-6.463652e-06	-4.349022e-09	-4.590177e+01	-2.820957e+02
2.100000e-07	-6.439239e-06	-4.396042e-09	-4.572840e+01	-2.820175e+02
2.200000e-07	-6.413390e-06	-4.212641e-09	-4.554484e+01	-2.819098e+02
2.300000e-07	-6.386313e-06	-4.228379e-09	-4.535255e+01	-2.817663e+02
2.400000e-07	-6.358243e-06	-4.388141e-09	-4.515321e+01	-2.815812e+02
2.500000e-07	-6.329177e-06	-4.352152e-09	-4.494679e+01	-2.813500e+02
2.600000e-07	-6.299007e-06	-4.248809e-09	-4.473254e+01	-2.810693e+02
2.700000e-07	-6.267781e-06	-4.195180e-09	-4.451079e+01	-2.807373e+02
2.800000e-07	-6.235542e-06	-4.265210e-09	-4.428185e+01	-2.803537e+02
2.900000e-07	-6.202120e-06	-4.340639e-09	-4.404450e+01	-2.799200e+02
3.000000e-07	-6.167358e-06	-4.251583e-09	-4.379763e+01	-2.794390e+02
3.100000e-07	-6.131358e-06	-4.185262e-09	-4.354198e+01	-2.789149e+02
3.200000e-07	-6.094270e-06	-4.222711e-09	-4.327860e+01	-2.783530e+02
3.300000e-07	-6.056079e-06	-4.241685e-09	-4.300739e+01	-2.777592e+02
3.400000e-07	-6.016863e-06	-4.245822e-09	-4.272889e+01	-2.771397e+02
3.500000e-07	-5.976643e-06	-4.223784e-09	-4.244327e+01	-2.765006e+02
3.600000e-07	-5.935202e-06	-4.152529e-09	-4.214897e+01	-2.758474e+02
3.700000e-07	-5.892498e-06	-4.162352e-09	-4.184571e+01	-2.751850e+02
3.800000e-07	-5.848686e-06	-4.253120e-09	-4.153458e+01	-2.745168e+02
3.900000e-07	-5.803836e-06	-4.209704e-09	-4.121607e+01	-2.738451e+02
4.000000e-07	-5.757956e-06	-4.096863e-09	-4.089026e+01	-2.731706e+02
4.100000e-07	-5.711162e-06	-4.142124e-09	-4.055795e+01	-2.724926e+02
4.200000e-07	-5.663402e-06	-4.208418e-09	-4.021878e+01	-2.718089e+02
4.300000e-07	-5.614380e-06	-4.149880e-09	-3.987065e+01	-2.711163e+02
4.400000e-07	-5.563955e-06	-4.089790e-09	-3.951256e+01	-2.704107e+02
4.500000e-07	-5.512289e-06	-4.104910e-09	-3.914565e+01	-2.696872e+02
4.600000e-07	-5.459636e-06	-4.123967e-09	-3.877173e+01	-2.689412e+02
4.700000e-07	-5.406061e-06	-4.100099e-09	-3.839127e+01	-2.681678e+02
4.800000e-07	-5.351602e-06	-4.070963e-09	-3.800452e+01	-2.673632e+02
4.900000e-07	-5.296305e-06	-4.050259e-09	-3.761183e+01	-2.665239e+02
5.000000e-07	-5.240127e-06	-4.046529e-09	-3.721289e+01	-2.656480e+02
5.100000e-07	-5.182997e-06	-4.055164e-09	-3.680717e+01	-2.647347e+02
5.200000e-07	-5.124885e-06	-4.033657e-09	-3.639449e+01	-2.637842e+02
5.300000e-07	-5.065764e-06	-3.992245e-09	-3.597464e+01	-2.627983e+02
5.400000e-07	-5.005701e-06	-3.977549e-09	-3.554810e+01	-2.617796e+02
5.500000e-07	-4.944911e-06	-3.993997e-09	-3.511640e+01	-2.607314e+02
5.600000e-07	-4.883409e-06	-3.984235e-09	-3.467964e+01	-2.596575e+02
5.700000e-07	-4.821061e-06	-3.932349e-09	-3.423688e+01	-2.585620e+02
5.800000e-07	-4.757859e-06	-3.903179e-09	-3.378805e+01	-2.574482e+02
5.900000e-07	-4.693812e-06	-3.916853e-09	-3.333321e+01	-2.563193e+02
6.000000e-07	-4.628881e-06	-3.915599e-09	-3.287210e+01	-2.551770e+02
6.100000e-07	-4.562968e-06	-3.869234e-09	-3.240402e+01	-2.540221e+02
6.200000e-07	-4.496075e-06	-3.833000e-09	-3.192898e+01	-2.528541e+02
6.300000e-07	-4.428426e-06	-3.835403e-09	-3.144857e+01	-2.516708e+02
6.400000e-07	-4.360172e-06	-3.830789e-09	-3.096386e+01	-2.504689e+02
6.500000e-07	-4.291217e-06	-3.801143e-09	-3.047418e+01	-2.492440e+02
6.600000e-07	-4.221395e-06	-3.772323e-09	-2.997833e+01	-2.479907e+02
6.700000e-07	-4.150781e-06	-3.758126e-09	-2.947687e+01	-2.467032e+02
6.800000e-07	-4.079565e-06	-3.748291e-09	-2.897112e+01	-2.453753e+02
6.900000e-07	-4.007620e-06	-3.734195e-09	-2.846021e+01	-2.440014e+02
7.000000e-07	-3.934729e-06	-3.706858e-09	-2.794257e+01	-2.425761e+02
7.100000e-07	-3.860918e-06	-3.669705e-09	-2.741840e+01	-2.410953e+02
7.200000e-07	-3.786235e-06	-3.647236e-09	-2.688803e+01	-2.395559e+02
7.300000e-07	-3.710816e-06	-3.635237e-09	-2.635244e+01	-2.379560e+02
7.400000e-07	-3.634769e-06	-3.605523e-09	-2.581240e+01	-2.362953e+02
7.500000e-07	-3.557921e-06	-3.563933e-09	-2.526666e+01	-2.345746e+02
7.600000e-07	-3.480243e-06	-3.539065e-09	-2.471503e+01	-2.327958e+02
7.700000e-07	-3.401909e-06	-3.524154e-09	-2.415874e+01	-2.309616e+02
7.800000e-07	-3.322934e-06	-3.493517e-09	-2.359789e+01	-2.290752e+02
7.900000e-07	-3.243235e-06	-3.451742e-09	-2.303191e+01	-2.271396e+02
8.000000e-07	-3.162869e-06	-3.421225e-09	-2.246118e+01	-2.251575e+02
8.100000e-07	-3.081938e-06	-3.399726e-09	-2.188646e+01	-2.231307e+02
8.200000e-07	-3.000555e-06	-3.368989e-09	-2.130851e+01	-2.210598e+02
8.300000e-07	-2.918730e-06	-3.328973e-09	-2.072743e+01	-2.189441e+02
8.400000e-07	-2.836415e-06	-3.294399e-09	-2.014287e+01	-2.167809e+02
8.500000e-07	-2.753739e-06	-3.267819e-09	-1.955574e+01	-2.145664e+02
8.600000e-07	-2.670749e-06	-3.238030e-09	-1.896639e+01	-2.122946e+02
8.700000e-07	-2.587344e-06	-3.199340e-09	-1.837408e+01	-2.099587e+02
8.800000e-07	-2.503550e-06	-3.156743e-09	-1.777902e+01	-2.075507e+02
8.900000e-07	-2.419449e-06	-3.117757e-09	-1.718177e+01	-2.050617e+02
9.000000e-07	-2.335087e-06	-3.080936e-09	-1.658268e+01	-2.024829e+02
9.100000e-07	-2.250428e-06	-3.039253e-09	-1.598147e+01	-1.998057e+02
9.200000e-07	-2.165422e-06	-2.990538e-09	-1.537780e+01	-1.970221e+02
9.300000e-07	-2.080093e-06	-2.943540e-09	-1.477183e+01	-1.941249e+02
9.400000e-07	-1.994383e-06	-2.904092e-09	-1.416315e+01	-1.911084e+02
9.500000e-07	-1.908330e-06	-2.862223e-09	-1.355205e+01	-1.879677e+02
9.600000e-07	-1.821998e-06	-2.808668e-09	-1.293896e+01	-1.846994e+02
9.700000e-07	-1.735317e-06	-2.751828e-09	-1.232339e+01	-1.813006e+02
9.800000e-07	-1.648320e-06	-2.701517e-09	-1.170558e+01	-1.777690e+02
9.900000e-07	-1.561055e-06	-2.652694e-09	-1.108587e+01	-1.741022e+02
1.000000e-06	-1.473534e-06	-2.593955e-09	-1.046433e+01	-1.702967e+02
1.010000e-06	-1.385784e-06	-2.528415e-09	-9.841180e+00	-1.663476e+02
1.020000e-06	-1.297771e-06	-2.467364e-09	-9.216147e+00	-1.622479e+02
1.030000e-06	-1.209493e-06	-2.407574e-09	-8.589243e+00	-1.579874e+02
1.040000e-06	-1.120976e-06	-2.341742e-09	-7.960640e+00	-1.535528e+02
1.050000e-06	-1.032258e-06	-2.269028e-09	-7.330602e+00	-1.489267e+02
1.060000e-06	-9.433076e-07	-2.192228e-09	-6.698921e+00	-1.440882e+02
1.070000e-06	-8.541027e-07	-2.113939e-09	-6.065430e+00	-1.390126e+02
1.080000e-06	-7.647023e-07	-2.033877e-09	-5.430551e+00	-1.336718e+02
1.090000e-06	-6.751453e-07	-1.948721e-09	-4.794560e+00	-1.280356e+02
1.100000e-06	-5.854784e-07	-1.857084e-09	-4.157788e+00	-1.220721e+02
1.110000e-06	-4.957140e-07	-1.761889e-09	-3.520325e+00	-1.157495e+02
1.120000e-06	-4.058260e-07	-1.663289e-09	-2.881983e+00	-1.090373e+02
1.130000e-06	-3.158131e-07	-1.556595e-09	-2.242754e+00	-1.019080e+02
1.140000e-06	-2.257467e-07	-1.441827e-09	-1.603145e+00	-9.433882e+01
1.150000e-06	-1.356624e-07	-1.321867e-09	-9.634094e-01	-8.631316e+01
1.160000e-06	-4.549929e-08	-1.194506e-09	-3.231142e-01	-7.782228e+01
1.170000e-06	4.468432e-08	-1.058334e-09	3.173268e-01	-6.886644e+01
1.180000e-06	1.347962e-07	-9.140817e-10	9.572580e-01	-5.945591e+01
1.190000e-06	2.248621e-07	-7.627585e-10	1.596863e+00	-4.961160e+01
1.200000e-06	3.148962e-07	-6.060123e-10	2.236243e+00	-3.936520e+01
1.210000e-06	4.048196e-07	-4.447245e-10	2.874836e+00	-2.875897e+01
1.220000e-06	4.945591e-07	-2.793649e-10	3.512123e+00	-1.784504e+01
1.230000e-06	5.841340e-07	-1.098485e-10	4.148241e+00	-6.684301e+00
1.240000e-06	6.735108e-07	6.027956e-11	4.782953e+00	4.655102e+00
1.250000e-06	7.626972e-07	2.310418e-10	5.416311e+00	1.609960e+01
1.260000e-06	8.517668e-07	4.050770e-10	6.048841e+00	2.757224e+01
1.270000e-06	9.406963e-07	5.800700e-10	6.680376e+00	3.899491e+01
1.280000e-06	1.029450e-06	7.540709e-10	7.310663e+00	5.029062e+01
1.290000e-06	1.118002e-06	9.256995e-10	7.939514e+00	6.138565e+01
1.300000e-06	1.206295e-06	1.092372e-09	8.566531e+00	7.221164e+01
1.310000e-06	1.294294e-06	1.253922e-09	9.191456e+00	8.270739e+01
1.320000e-06	1.382030e-06	1.410376e-09	9.814518e+00	9.282033e+01
1.330000e-06	1.469580e-06	1.557465e-09	1.043625e+01	1.025076e+02
1.340000e-06	1.556945e-06	1.696321e-09	1.105668e+01	1.117369e+02
1.350000e-06	1.644051e-06	1.828636e-09	1.167527e+01	1.204863e+02
1.360000e-06	1.730872e-06	1.953034e-09	1.229183e+01	1.287448e+02
1.370000e-06	1.817419e-06	2.067632e-09	1.290645e+01	1.365109e+02
1.380000e-06	1.903748e-06	2.174935e-09	1.351951e+01	1.437925e+02
1.390000e-06	1.989833e-06	2.275572e-09	1.413085e+01	1.506051e+02
1.400000e-06	2.075671e-06	2.368628e-09	1.474043e+01	1.569708e+02
1.410000e-06	2.161222e-06	2.458671e-09	1.534797e+01	1.629163e+02
1.420000e-06	2.246298e-06	2.544937e-09	1.595214e+01	1.684720e+02
1.430000e-06	2.330917e-06	2.622601e-09	1.655306e+01	1.736699e+02
1.440000e-06	2.415241e-06	2.694045e-09	1.715189e+01	1.785423e+02
1.450000e-06	2.499320e-06	2.765227e-09	1.774898e+01	1.831206e+02
1.460000e-06	2.583081e-06	2.832624e-09	1.834381e+01	1.874346e+02
1.470000e-06	2.666408e-06	2.893543e-09	1.893556e+01	1.915111e+02
1.480000e-06	2.749278e-06	2.951759e-09	1.952406e+01	1.953738e+02
1.490000e-06	2.831708e-06	3.007065e-09	2.010944e+01	1.990429e+02
1.500000e-06	2.913631e-06	3.058769e-09	2.069122e+01	2.025353e+02
1.510000e-06	2.995016e-06	3.109100e-09	2.126917e+01	2.058645e+02
1.520000e-06	3.075819e-06	3.156095e-09	2.184300e+01	2.090410e+02
1.530000e-06	3.156013e-06	3.198423e-09	2.241250e+01	2.120733e+02
1.540000e-06	3.235642e-06	3.238794e-09	2.297799e+01	2.149678e+02
1.550000e-06	3.314654e-06	3.277839e-09	2.353909e+01	2.177296e+02
1.560000e-06	3.392970e-06	3.314015e-09	2.409525e+01	2.203634e+02
1.570000e-06	3.470612e-06	3.346921e-09	2.464663e+01	2.228737e+02
1.580000e-06	3.547640e-06	3.379804e-09	2.519365e+01	2.252650e+02
1.590000e-06	3.624066e-06	3.413637e-09	2.573639e+01	2.275426e+02
1.600000e-06	3.699845e-06	3.445645e-09	2.627453e+01	2.297124e+02
1.610000e-06	3.774922e-06	3.474803e-09	2.680770e+01	2.317809e+02
1.620000e-06	3.849112e-06	3.503655e-09	2.733456e+01	2.337555e+02
1.630000e-06	3.922257e-06	3.530651e-09	2.785400e+01	2.356440e+02
1.640000e-06	3.994497e-06	3.555830e-09	2.836702e+01	2.374543e+02
1.650000e-06	4.066075e-06	3.581429e-09	2.887532e+01	2.391944e+02
1.660000e-06	4.136996e-06	3.605284e-09	2.937897e+01	2.408718e+02
1.670000e-06	4.207182e-06	3.630175e-09	2.987740e+01	2.424937e+02
1.680000e-06	4.276628e-06	3.655997e-09	3.037057e+01	2.440662e+02
1.690000e-06	4.345321e-06	3.679471e-09	3.085839e+01	2.455942e+02
1.700000e-06	4.413374e-06	3.700879e-09	3.134168e+01	2.470818e+02
1.710000e-06	4.480864e-06	3.722024e-09	3.182096e+01	2.485316e+02
1.720000e-06	4.547685e-06	3.742948e-09	3.229549e+01	2.499451e+02
1.730000e-06	4.613526e-06	3.760890e-09	3.276306e+01	2.513230e+02
1.740000e-06	4.678232e-06	3.776536e-09	3.322257e+01	2.526647e+02
1.750000e-06	4.742089e-06	3.793523e-09	3.367606e+01	2.539694e+02
1.760000e-06	4.805290e-06	3.811882e-09	3.412488e+01	2.552356e+02
1.770000e-06	4.867737e-06	3.829146e-09	3.456834e+01	2.564617e+02
1.780000e-06	4.929371e-06	3.846664e-09	3.500605e+01	2.576462e+02
1.790000e-06	4.990218e-06	3.864145e-09	3.543815e+01	2.587880e+02
1.800000e-06	5.050347e-06	3.880046e-09	3.586515e+01	2.598861e+02
1.810000e-06	5.109808e-06	3.896016e-09	3.628742e+01	2.609403e+02
1.820000e-06	5.168368e-06	3.911763e-09	3.670329e+01	2.619510e+02
1.830000e-06	5.225720e-06	3.926017e-09	3.711057e+01	2.629192e+02
1.840000e-06	5.281956e-06	3.939708e-09	3.750994e+01	2.638463e+02
1.850000e-06	5.337336e-06	3.954410e-09	3.790322e+01	2.647343e+02
1.860000e-06	5.391875e-06	3.968056e-09	3.829052e+01	2.655856e+02
1.870000e-06	5.445490e-06	3.980510e-09	3.867127e+01	2.664026e+02
1.880000e-06	5.498155e-06	3.993304e-09	3.904528e+01	2.671879e+02
1.890000e-06	5.549745e-06	4.005629e-09	3.941164e+01	2.679441e+02
1.900000e-06	5.600030e-06	4.017715e-09	3.976874e+01	2.686737e+02
1.910000e-06	5.648917e-06	4.030003e-09	4.011591e+01	2.693786e+02
1.920000e-06	5.696607e-06	4.041463e-09	4.045459e+01	2.700608e+02
1.930000e-06	5.743314e-06	4.050141e-09	4.078628e+01	2.707217e+02
1.940000e-06	5.789044e-06	4.058017e-09	4.111103e+01	2.713624e+02
1.950000e-06	5.833823e-06	4.066520e-09	4.142903e+01	2.719840e+02
1.960000e-06	5.877705e-06	4.074613e-09	4.174066e+01	2.725870e+02
1.970000e-06	5.920651e-06	4.082400e-09	4.204564e+01	2.731718e+02
1.980000e-06	5.962380e-06	4.090441e-09	4.234198e+01	2.737388e+02
1.990000e-06	6.002791e-06	4.098859e-09	4.262896e+01	2.742883e+02
2.000000e-06	6.042136e-06	4.107671e-09	4.290837e+01	2.748206e+02
2.010000e-06	6.080504e-06	4.117827e-09	4.318084e+01	2.753358e+02
2.020000e-06	6.117877e-06	4.127721e-09	4.344625e+01	2.758345e+02
2.030000e-06	6.154304e-06	4.136331e-09	4.370493e+01	2.763169e+02
2.040000e-06	6.189836e-06	4.145368e-09	4.395727e+01	2.767835e+02
2.050000e-06	6.224298e-06	4.153998e-09	4.420199e+01	2.772346e+02
2.060000e-06	6.257355e-06	4.161423e-09	4.443675e+01	2.776707e+02
2.070000e-06	6.289163e-06	4.167967e-09	4.466264e+01	2.780919e+02
2.080000e-06	6.320010e-06	4.173697e-09	4.488170e+01	2.784985e+02
2.090000e-06	6.349867e-06	4.179741e-09	4.509372e+01	2.788903e+02
2.100000e-06	6.378731e-06	4.185540e-09	4.529871e+01	2.792674e+02
2.110000e-06	6.406649e-06	4.191522e-09	4.549696e+01	2.796293e+02
2.120000e-06	6.433550e-06	4.197114e-09	4.568801e+01	2.799757e+02
2.130000e-06	6.459096e-06	4.200624e-09	4.586942e+01	2.803060e+02
2.140000e-06	6.483276e-06	4.203931e-09	4.604113e+01	2.806196e+02
2.150000e-06	6.506359e-06	4.208950e-09	4.620506e+01	2.809162e+02
2.160000e-06	6.528339e-06	4.214901e-09	4.636115e+01	2.811952e+02
2.170000e-06	6.549281e-06	4.218879e-09	4.650987e+01	2.814564e+02
2.180000e-06	6.569265e-06	4.221375e-09	4.665179e+01	2.816996e+02
2.190000e-06	6.588235e-06	4.225406e-09	4.678650e+01	2.819250e+02
2.200000e-06	6.606056e-06	4.229829e-09	4.691306e+01	2.821328e+02
2.210000e-06	6.622746e-06	4.232804e-09	4.703158e+01	2.823235e+02
2.220000e-06	6.638251e-06	4.234083e-09	4.714169e+01	2.824978e+02
2.230000e-06	6.652430e-06	4.236252e-09	4.724238e+01	2.826566e+02
2.240000e-06	6.665319e-06	4.239653e-09	4.733392e+01	2.828004e+02
2.250000e-06	6.676934e-06	4.242053e-09	4.741640e+01	2.829302e+02
2.260000e-06	6.687027e-06	4.244764e-09	4.748808e+01	2.830466e+02
2.270000e-06	6.695597e-06	4.247587e-09	4.754894e+01	2.831500e+02
2.280000e-06	6.703055e-06	4.249438e-09	4.760190e+01	2.832407e+02
2.290000e-06	6.709467e-06	4.251453e-09	4.764744e+01	2.833187e+02
2.300000e-06	6.714703e-06	4.255058e-09	4.768462e+01	2.833839e+02
2.310000e-06	6.718819e-06	4.257685e-09	4.771385e+01	2.834358e+02
2.320000e-06	6.721874e-06	4.258112e-09	4.773555e+01	2.834740e+02
2.330000e-06	6.723646e-06	4.257985e-09	4.774813e+01	2.834979e+02
2.340000e-06	6.724015e-06	4.260280e-09	4.775075e+01	2.835072e+02
2.350000e-06	6.723195e-06	4.262481e-09	4.774493e+01	2.835016e+02
2.360000e-06	6.721345e-06	4.261034e-09	4.773179e+01	2.834813e+02
2.370000e-06	6.718490e-06	4.258782e-09	4.771151e+01	2.834468e+02
2.380000e-06	6.714674e-06	4.258282e-09	4.768441e+01	2.833991e+02
2.390000e-06	6.709868e-06	4.259285e-09	4.765028e+01	2.833398e+02
2.400000e-06	6.703815e-06	4.259752e-09	4.760730e+01	2.832710e+02
2.410000e-06	6.696445e-06	4.261916e-09	4.755496e+01	2.831952e+02
2.420000e-06	6.687997e-06	4.271784e-09	4.749497e+01	2.831153e+02
2.430000e-06	6.678561e-06	4.253194e-09	4.742796e+01	2.830344e+02
2.440000e-06	6.667922e-06	4.187463e-09	4.735240e+01	2.829555e+02
2.450000e-06	6.655503e-06	4.166168e-09	4.726421e+01	2.828813e+02
2.460000e-06	6.640973e-06	4.212931e-09	4.716102e+01	2.828143e+02
2.470000e-06	6.625084e-06	4.356233e-09	4.704818e+01	2.827559e+02
2.480000e-06	6.608735e-06	4.362540e-09	4.693208e+01	2.827070e+02
2.490000e-06	6.591737e-06	4.182334e-09	4.681137e+01	2.826671e+02
2.500000e-06	6.573413e-06	4.220234e-09	4.668124e+01	2.826347e+02
2.510000e-06	6.554020e-06	4.297893e-09	4.654352e+01	2.826069e+02
2.520000e-06	6.533956e-06	4.301745e-09	4.640104e+01	2.825798e+02
2.530000e-06	6.512552e-06	4.386831e-09	4.624904e+01	2.825484e+02
2.540000e-06	6.489479e-06	4.264689e-09	4.608518e+01	2.825066e+02
2.550000e-06	6.465369e-06	4.149122e-09	4.591397e+01	2.824480e+02
2.560000e-06	6.440406e-06	4.349209e-09	4.573669e+01	2.823657e+02
2.570000e-06	6.414331e-06	4.361867e-09	4.555152e+01	2.822531e+02
2.580000e-06	6.387117e-06	4.223441e-09	4.535826e+01	2.821036e+02
2.590000e-06	6.358922e-06	4.334573e-09	4.515803e+01	2.819119e+02
2.600000e-06	6.329826e-06	4.421112e-09	4.495141e+01	2.816735e+02
2.610000e-06	6.299420e-06	4.412622e-09	4.473548e+01	2.813851e+02
2.620000e-06	6.267533e-06	4.365585e-09	4.450903e+01	2.810453e+02
2.630000e-06	6.234578e-06	4.278594e-09	4.427500e+01	2.806541e+02
2.640000e-06	6.200578e-06	4.357095e-09	4.403355e+01	2.802131e+02
2.650000e-06	6.165373e-06	4.375575e-09	4.378354e+01	2.797253e+02
2.660000e-06	6.129161e-06	4.311014e-09	4.352638e+01	2.791952e+02
2.670000e-06	6.091896e-06	4.337407e-09	4.326174e+01	2.786281e+02
2.680000e-06	6.053281e-06	4.274260e-09	4.298752e+01	2.780300e+02
2.690000e-06	6.013387e-06	4.267691e-09	4.270421e+01	2.774072e+02
2.700000e-06	5.972581e-06	4.347665e-09	4.241442e+01	2.767656e+02
2.710000e-06	5.930727e-06	4.303618e-09	4.211719e+01	2.761108e+02
2.720000e-06	5.887686e-06	4.211215e-09	4.181154e+01	2.754473e+02
2.730000e-06	5.843800e-06	4.224622e-09	4.149988e+01	2.747785e+02
2.740000e-06	5.799066e-06	4.324541e-09	4.118220e+01	2.741064e+02
2.750000e-06	5.753281e-06	4.258875e-09	4.085706e+01	2.734314e+02
2.760000e-06	5.706445e-06	4.152866e-09	4.052445e+01	2.727527e+02
2.770000e-06	5.658578e-06	4.214409e-09	4.018453e+01	2.720679e+02
2.780000e-06	5.609715e-06	4.245994e-09	3.983752e+01	2.713736e+02
2.790000e-06	5.559784e-06	4.203785e-09	3.948293e+01	2.706656e+02
2.800000e-06	5.508798e-06	4.154494e-09	3.912086e+01	2.699391e+02
2.810000e-06	5.456886e-06	4.162263e-09	3.875220e+01	2.691892e+02
2.820000e-06	5.403858e-06	4.182979e-09	3.837562e+01	2.684114e+02
2.830000e-06	5.349560e-06	4.147580e-09	3.799002e+01	2.676017e+02
2.840000e-06	5.294119e-06	4.136194e-09	3.759631e+01	2.667571e+02
2.850000e-06	5.237757e-06	4.115425e-09	3.719606e+01	2.658756e+02
2.860000e-06	5.180497e-06	4.094004e-09	3.678942e+01	2.649566e+02
2.870000e-06	5.122348e-06	4.097114e-09	3.637647e+01	2.640007e+02
2.880000e-06	5.063438e-06	4.092608e-09	3.595812e+01	2.630097e+02
2.890000e-06	5.003769e-06	4.060368e-09	3.553438e+01	2.619863e+02
2.900000e-06	4.943302e-06	4.018139e-09	3.510497e+01	2.609340e+02
2.910000e-06	4.881982e-06	4.035139e-09	3.466951e+01	2.598566e+02
2.920000e-06	4.819705e-06	4.039095e-09	3.422725e+01	2.587581e+02
2.930000e-06	4.756375e-06	3.988534e-09	3.377751e+01	2.576419e+02
2.940000e-06	4.692073e-06	3.958492e-09	3.332086e+01	2.565109e+02
2.950000e-06	4.627007e-06	3.971281e-09	3.285880e+01	2.553667e+02
