# Temperatura_=_20.0
# Concentracion g/m^3_=_12600.0
# C_Vs_to_Am_M_A/Vsm_=_65563218390.804596
# pendiente_HvsI_1/m_=_3716.3
# ordenada_HvsI_A/m_=_1297.0
# frecuencia_Hz_=_213095.30483120005
# Promedio de 29 ciclos

Tiempo_(s)	Campo_(V.s)	Magnetizacion_(V.s)	Campo_(kA/m)	Magnetizacion_(A/m)
0.000000e+00	-5.336425e-09	-4.043812e-09	-3.834831e+01	-2.625893e+02
1.000000e-08	-5.335884e-09	-4.042439e-09	-3.834443e+01	-2.625584e+02
2.000000e-08	-5.334231e-09	-4.041939e-09	-3.833255e+01	-2.624919e+02
3.000000e-08	-5.331392e-09	-4.041760e-09	-3.831215e+01	-2.623918e+02
4.000000e-08	-5.327674e-09	-4.039881e-09	-3.828543e+01	-2.622605e+02
5.000000e-08	-5.323223e-09	-4.037218e-09	-3.825344e+01	-2.621011e+02
6.000000e-08	-5.317936e-09	-4.035477e-09	-3.821545e+01	-2.619167e+02
7.000000e-08	-5.311733e-09	-4.035591e-09	-3.817087e+01	-2.617109e+02
8.000000e-08	-5.304632e-09	-4.033855e-09	-3.811985e+01	-2.614870e+02
9.000000e-08	-5.296626e-09	-4.028616e-09	-3.806231e+01	-2.612483e+02
1.000000e-07	-5.287387e-09	-4.025229e-09	-3.799592e+01	-2.609976e+02
1.100000e-07	-5.276723e-09	-4.020443e-09	-3.791929e+01	-2.607373e+02
1.200000e-07	-5.265009e-09	-4.020864e-09	-3.783511e+01	-2.604692e+02
1.300000e-07	-5.252510e-09	-3.994818e-09	-3.774529e+01	-2.601942e+02
1.400000e-07	-5.239107e-09	-3.975306e-09	-3.764897e+01	-2.599125e+02
1.500000e-07	-5.224783e-09	-4.012797e-09	-3.754604e+01	-2.596237e+02
1.600000e-07	-5.209561e-09	-3.988186e-09	-3.743665e+01	-2.593262e+02
1.700000e-07	-5.193109e-09	-3.967735e-09	-3.731843e+01	-2.590181e+02
1.800000e-07	-5.175418e-09	-3.987524e-09	-3.719129e+01	-2.586966e+02
1.900000e-07	-5.157037e-09	-3.964708e-09	-3.705920e+01	-2.583586e+02
2.000000e-07	-5.138064e-09	-3.954428e-09	-3.692286e+01	-2.580006e+02
2.100000e-07	-5.118174e-09	-3.976515e-09	-3.677993e+01	-2.576191e+02
2.200000e-07	-5.097338e-09	-3.954868e-09	-3.663020e+01	-2.572104e+02
2.300000e-07	-5.075728e-09	-3.894084e-09	-3.647490e+01	-2.567714e+02
2.400000e-07	-5.053328e-09	-3.907343e-09	-3.631394e+01	-2.562990e+02
2.500000e-07	-5.030079e-09	-3.925331e-09	-3.614686e+01	-2.557908e+02
2.600000e-07	-5.005945e-09	-3.902218e-09	-3.597343e+01	-2.552449e+02
2.700000e-07	-4.980840e-09	-3.879027e-09	-3.579303e+01	-2.546600e+02
2.800000e-07	-4.954724e-09	-3.851843e-09	-3.560535e+01	-2.540355e+02
2.900000e-07	-4.927603e-09	-3.853323e-09	-3.541046e+01	-2.533715e+02
3.000000e-07	-4.899593e-09	-3.859230e-09	-3.520917e+01	-2.526683e+02
3.100000e-07	-4.870781e-09	-3.839676e-09	-3.500212e+01	-2.519269e+02
3.200000e-07	-4.841123e-09	-3.822198e-09	-3.478900e+01	-2.511486e+02
3.300000e-07	-4.810627e-09	-3.793760e-09	-3.456985e+01	-2.503349e+02
3.400000e-07	-4.779413e-09	-3.783347e-09	-3.434554e+01	-2.494872e+02
3.500000e-07	-4.747569e-09	-3.799206e-09	-3.411670e+01	-2.486072e+02
3.600000e-07	-4.714909e-09	-3.784190e-09	-3.388201e+01	-2.476960e+02
3.700000e-07	-4.681131e-09	-3.742286e-09	-3.363927e+01	-2.467549e+02
3.800000e-07	-4.646256e-09	-3.723812e-09	-3.338866e+01	-2.457845e+02
3.900000e-07	-4.610550e-09	-3.735921e-09	-3.313207e+01	-2.447853e+02
4.000000e-07	-4.574124e-09	-3.728793e-09	-3.287030e+01	-2.437574e+02
4.100000e-07	-4.536917e-09	-3.697599e-09	-3.260293e+01	-2.427007e+02
4.200000e-07	-4.498941e-09	-3.662251e-09	-3.233003e+01	-2.416148e+02
4.300000e-07	-4.460192e-09	-3.648147e-09	-3.205157e+01	-2.404990e+02
4.400000e-07	-4.420746e-09	-3.658607e-09	-3.176811e+01	-2.393528e+02
4.500000e-07	-4.380729e-09	-3.641568e-09	-3.148054e+01	-2.381754e+02
4.600000e-07	-4.339996e-09	-3.599037e-09	-3.118783e+01	-2.369664e+02
4.700000e-07	-4.298196e-09	-3.570816e-09	-3.088745e+01	-2.357252e+02
4.800000e-07	-4.255284e-09	-3.567110e-09	-3.057907e+01	-2.344517e+02
4.900000e-07	-4.211583e-09	-3.565069e-09	-3.026503e+01	-2.331461e+02
5.000000e-07	-4.167271e-09	-3.533360e-09	-2.994660e+01	-2.318085e+02
5.100000e-07	-4.122275e-09	-3.493641e-09	-2.962325e+01	-2.304395e+02
5.200000e-07	-4.076522e-09	-3.472112e-09	-2.929447e+01	-2.290398e+02
5.300000e-07	-4.030038e-09	-3.465039e-09	-2.896043e+01	-2.276104e+02
5.400000e-07	-3.982880e-09	-3.451085e-09	-2.862154e+01	-2.261520e+02
5.500000e-07	-3.935091e-09	-3.416052e-09	-2.827812e+01	-2.246656e+02
5.600000e-07	-3.886563e-09	-3.386708e-09	-2.792939e+01	-2.231519e+02
5.700000e-07	-3.837068e-09	-3.370683e-09	-2.757372e+01	-2.216113e+02
5.800000e-07	-3.786500e-09	-3.354610e-09	-2.721033e+01	-2.200442e+02
5.900000e-07	-3.735017e-09	-3.329759e-09	-2.684036e+01	-2.184505e+02
6.000000e-07	-3.682815e-09	-3.297036e-09	-2.646523e+01	-2.168297e+02
6.100000e-07	-3.629932e-09	-3.271757e-09	-2.608521e+01	-2.151812e+02
6.200000e-07	-3.576400e-09	-3.248045e-09	-2.570052e+01	-2.135039e+02
6.300000e-07	-3.522272e-09	-3.222616e-09	-2.531154e+01	-2.117965e+02
6.400000e-07	-3.467548e-09	-3.197619e-09	-2.491829e+01	-2.100575e+02
6.500000e-07	-3.412255e-09	-3.168001e-09	-2.452095e+01	-2.082854e+02
6.600000e-07	-3.356480e-09	-3.138696e-09	-2.412014e+01	-2.064785e+02
6.700000e-07	-3.300215e-09	-3.109074e-09	-2.371581e+01	-2.046355e+02
6.800000e-07	-3.243298e-09	-3.083297e-09	-2.330680e+01	-2.027550e+02
6.900000e-07	-3.185574e-09	-3.057307e-09	-2.289199e+01	-2.008361e+02
7.000000e-07	-3.127036e-09	-3.023254e-09	-2.247132e+01	-1.988780e+02
7.100000e-07	-3.067826e-09	-2.989524e-09	-2.204583e+01	-1.968806e+02
7.200000e-07	-3.008147e-09	-2.958503e-09	-2.161697e+01	-1.948437e+02
7.300000e-07	-2.948079e-09	-2.931712e-09	-2.118531e+01	-1.927678e+02
7.400000e-07	-2.887579e-09	-2.901515e-09	-2.075055e+01	-1.906536e+02
7.500000e-07	-2.826599e-09	-2.862840e-09	-2.031234e+01	-1.885020e+02
7.600000e-07	-2.765122e-09	-2.826453e-09	-1.987055e+01	-1.863140e+02
7.700000e-07	-2.703178e-09	-2.794528e-09	-1.942542e+01	-1.840907e+02
7.800000e-07	-2.640795e-09	-2.763688e-09	-1.897713e+01	-1.818332e+02
7.900000e-07	-2.577963e-09	-2.727144e-09	-1.852560e+01	-1.795423e+02
8.000000e-07	-2.514686e-09	-2.686701e-09	-1.807088e+01	-1.772187e+02
8.100000e-07	-2.451022e-09	-2.650386e-09	-1.761338e+01	-1.748626e+02
8.200000e-07	-2.387035e-09	-2.613540e-09	-1.715356e+01	-1.724740e+02
8.300000e-07	-2.322709e-09	-2.576409e-09	-1.669131e+01	-1.700525e+02
8.400000e-07	-2.257952e-09	-2.539548e-09	-1.622596e+01	-1.675974e+02
8.500000e-07	-2.192652e-09	-2.501945e-09	-1.575670e+01	-1.651075e+02
8.600000e-07	-2.126786e-09	-2.462729e-09	-1.528338e+01	-1.625816e+02
8.700000e-07	-2.060398e-09	-2.420766e-09	-1.480630e+01	-1.600180e+02
8.800000e-07	-1.993555e-09	-2.383085e-09	-1.432596e+01	-1.574152e+02
8.900000e-07	-1.926314e-09	-2.346450e-09	-1.384276e+01	-1.547716e+02
9.000000e-07	-1.858752e-09	-2.303532e-09	-1.335725e+01	-1.520857e+02
9.100000e-07	-1.790983e-09	-2.256528e-09	-1.287025e+01	-1.493562e+02
9.200000e-07	-1.723038e-09	-2.212758e-09	-1.238199e+01	-1.465820e+02
9.300000e-07	-1.654876e-09	-2.176999e-09	-1.189217e+01	-1.437624e+02
9.400000e-07	-1.586438e-09	-2.136830e-09	-1.140036e+01	-1.408972e+02
9.500000e-07	-1.517698e-09	-2.085998e-09	-1.090638e+01	-1.379862e+02
9.600000e-07	-1.448711e-09	-2.034736e-09	-1.041063e+01	-1.350298e+02
9.700000e-07	-1.379505e-09	-1.992268e-09	-9.913309e+00	-1.320286e+02
9.800000e-07	-1.310046e-09	-1.955096e-09	-9.414171e+00	-1.289834e+02
9.900000e-07	-1.240318e-09	-1.907145e-09	-8.913093e+00	-1.258952e+02
1.000000e-06	-1.170338e-09	-1.849950e-09	-8.410205e+00	-1.227648e+02
1.010000e-06	-1.100164e-09	-1.799589e-09	-7.905925e+00	-1.195933e+02
1.020000e-06	-1.029822e-09	-1.758607e-09	-7.400438e+00	-1.163815e+02
1.030000e-06	-9.593048e-10	-1.714237e-09	-6.893692e+00	-1.131298e+02
1.040000e-06	-8.885922e-10	-1.657720e-09	-6.385541e+00	-1.098387e+02
1.050000e-06	-8.177006e-10	-1.601067e-09	-5.876104e+00	-1.065082e+02
1.060000e-06	-7.467040e-10	-1.554321e-09	-5.365912e+00	-1.031382e+02
1.070000e-06	-6.756177e-10	-1.509038e-09	-4.855076e+00	-9.972804e+01
1.080000e-06	-6.044049e-10	-1.456285e-09	-4.343330e+00	-9.627713e+01
1.090000e-06	-5.330803e-10	-1.396004e-09	-3.830781e+00	-9.278457e+01
1.100000e-06	-4.616986e-10	-1.339403e-09	-3.317822e+00	-8.924939e+01
1.110000e-06	-3.902815e-10	-1.289458e-09	-2.804608e+00	-8.567062e+01
1.120000e-06	-3.188315e-10	-1.236023e-09	-2.291158e+00	-8.204736e+01
1.130000e-06	-2.473355e-10	-1.176618e-09	-1.777377e+00	-7.837881e+01
1.140000e-06	-1.758075e-10	-1.115782e-09	-1.263367e+00	-7.466442e+01
1.150000e-06	-1.042717e-10	-1.060164e-09	-7.493004e-01	-7.090382e+01
1.160000e-06	-3.272941e-11	-1.006574e-09	-2.351869e-01	-6.709694e+01
1.170000e-06	3.881769e-11	-9.481913e-10	2.789610e-01	-6.324392e+01
1.180000e-06	1.103671e-10	-8.857367e-10	7.931255e-01	-5.934515e+01
1.190000e-06	1.819097e-10	-8.229799e-10	1.307241e+00	-5.540116e+01
1.200000e-06	2.534301e-10	-7.632450e-10	1.821197e+00	-5.141260e+01
1.210000e-06	3.249015e-10	-7.033043e-10	2.334801e+00	-4.738015e+01
1.220000e-06	3.963183e-10	-6.402300e-10	2.848013e+00	-4.330442e+01
1.230000e-06	4.676952e-10	-5.754372e-10	3.360937e+00	-3.918589e+01
1.240000e-06	5.390223e-10	-5.106260e-10	3.873504e+00	-3.502484e+01
1.250000e-06	6.102631e-10	-4.486751e-10	4.385451e+00	-3.082130e+01
1.260000e-06	6.813993e-10	-3.861082e-10	4.896646e+00	-2.657501e+01
1.270000e-06	7.524256e-10	-3.194809e-10	5.407052e+00	-2.228542e+01
1.280000e-06	8.233283e-10	-2.494495e-10	5.916569e+00	-1.795176e+01
1.290000e-06	8.940832e-10	-1.793395e-10	6.425023e+00	-1.357305e+01
1.300000e-06	9.646562e-10	-1.124439e-10	6.932171e+00	-9.148212e+00
1.310000e-06	1.035052e-09	-4.524659e-11	7.438047e+00	-4.676168e+00
1.320000e-06	1.105269e-09	2.502980e-11	7.942636e+00	-1.559909e-01
1.330000e-06	1.175287e-09	9.637514e-11	8.445793e+00	4.412974e+00
1.340000e-06	1.245090e-09	1.660615e-10	8.947405e+00	9.030959e+00
1.350000e-06	1.314639e-09	2.344684e-10	9.447194e+00	1.369764e+01
1.360000e-06	1.383923e-09	3.059423e-10	9.945082e+00	1.841204e+01
1.370000e-06	1.452947e-09	3.803862e-10	1.044110e+01	2.317237e+01
1.380000e-06	1.521697e-09	4.547236e-10	1.093514e+01	2.797606e+01
1.390000e-06	1.590180e-09	5.294232e-10	1.142728e+01	3.281964e+01
1.400000e-06	1.658408e-09	6.041390e-10	1.191757e+01	3.769878e+01
1.410000e-06	1.726395e-09	6.801252e-10	1.240614e+01	4.260835e+01
1.420000e-06	1.794186e-09	7.562908e-10	1.289329e+01	4.754247e+01
1.430000e-06	1.861781e-09	8.324090e-10	1.337904e+01	5.249462e+01
1.440000e-06	1.929138e-09	9.076899e-10	1.386307e+01	5.745779e+01
1.450000e-06	1.996165e-09	9.807582e-10	1.434474e+01	6.242463e+01
1.460000e-06	2.062763e-09	1.054585e-09	1.482332e+01	6.738759e+01
1.470000e-06	2.128847e-09	1.130968e-09	1.529821e+01	7.233910e+01
1.480000e-06	2.194349e-09	1.208090e-09	1.576892e+01	7.727173e+01
1.490000e-06	2.259270e-09	1.282556e-09	1.623545e+01	8.217831e+01
1.500000e-06	2.323693e-09	1.353772e-09	1.669840e+01	8.705208e+01
1.510000e-06	2.387724e-09	1.426078e-09	1.715854e+01	9.188674e+01
1.520000e-06	2.451449e-09	1.501456e-09	1.761647e+01	9.667655e+01
1.530000e-06	2.514870e-09	1.576391e-09	1.807223e+01	1.014164e+02
1.540000e-06	2.577908e-09	1.646022e-09	1.852523e+01	1.061017e+02
1.550000e-06	2.640505e-09	1.712313e-09	1.897506e+01	1.107284e+02
1.560000e-06	2.702661e-09	1.781640e-09	1.942172e+01	1.152932e+02
1.570000e-06	2.764394e-09	1.853767e-09	1.986535e+01	1.197932e+02
1.580000e-06	2.825693e-09	1.922724e-09	2.030585e+01	1.242257e+02
1.590000e-06	2.886498e-09	1.985821e-09	2.074280e+01	1.285887e+02
1.600000e-06	2.946820e-09	2.047708e-09	2.117628e+01	1.328802e+02
1.610000e-06	3.006744e-09	2.112143e-09	2.160690e+01	1.370986e+02
1.620000e-06	3.066293e-09	2.176579e-09	2.203483e+01	1.412424e+02
1.630000e-06	3.125358e-09	2.237424e-09	2.245928e+01	1.453102e+02
1.640000e-06	3.183704e-09	2.294766e-09	2.287857e+01	1.493009e+02
1.650000e-06	3.241151e-09	2.353531e-09	2.329138e+01	1.532133e+02
1.660000e-06	3.297764e-09	2.413848e-09	2.369821e+01	1.570462e+02
1.670000e-06	3.353783e-09	2.471207e-09	2.410078e+01	1.607989e+02
1.680000e-06	3.409361e-09	2.524273e-09	2.450017e+01	1.644704e+02
1.690000e-06	3.464450e-09	2.575283e-09	2.489604e+01	1.680602e+02
1.700000e-06	3.518948e-09	2.626742e-09	2.528767e+01	1.715677e+02
1.710000e-06	3.572858e-09	2.678805e-09	2.567508e+01	1.749927e+02
1.720000e-06	3.626186e-09	2.730192e-09	2.605830e+01	1.783350e+02
1.730000e-06	3.678870e-09	2.778606e-09	2.643689e+01	1.815949e+02
1.740000e-06	3.730842e-09	2.824006e-09	2.681038e+01	1.847725e+02
1.750000e-06	3.782029e-09	2.868502e-09	2.717821e+01	1.878684e+02
1.760000e-06	3.832286e-09	2.913493e-09	2.753937e+01	1.908833e+02
1.770000e-06	3.881515e-09	2.956481e-09	2.789313e+01	1.938181e+02
1.780000e-06	3.929854e-09	2.995785e-09	2.824051e+01	1.966735e+02
1.790000e-06	3.977539e-09	3.032770e-09	2.858317e+01	1.994507e+02
1.800000e-06	4.024618e-09	3.071022e-09	2.892149e+01	2.021507e+02
1.810000e-06	4.071030e-09	3.111372e-09	2.925501e+01	2.047745e+02
1.820000e-06	4.116743e-09	3.150507e-09	2.958352e+01	2.073231e+02
1.830000e-06	4.161737e-09	3.185818e-09	2.990685e+01	2.097977e+02
1.840000e-06	4.206056e-09	3.219058e-09	3.022533e+01	2.121993e+02
1.850000e-06	4.249840e-09	3.252886e-09	3.053997e+01	2.145288e+02
1.860000e-06	4.293043e-09	3.285841e-09	3.085043e+01	2.167873e+02
1.870000e-06	4.335356e-09	3.315478e-09	3.115450e+01	2.189757e+02
1.880000e-06	4.376571e-09	3.342925e-09	3.145067e+01	2.210953e+02
1.890000e-06	4.416835e-09	3.371155e-09	3.174001e+01	2.231470e+02
1.900000e-06	4.456400e-09	3.400585e-09	3.202434e+01	2.251322e+02
1.910000e-06	4.495286e-09	3.429444e-09	3.230378e+01	2.270521e+02
1.920000e-06	4.533437e-09	3.456361e-09	3.257794e+01	2.289080e+02
1.930000e-06	4.570821e-09	3.481292e-09	3.284658e+01	2.307016e+02
1.940000e-06	4.607422e-09	3.505291e-09	3.310960e+01	2.324342e+02
1.950000e-06	4.643368e-09	3.529654e-09	3.336792e+01	2.341076e+02
1.960000e-06	4.678682e-09	3.553163e-09	3.362168e+01	2.357234e+02
1.970000e-06	4.713070e-09	3.574535e-09	3.386880e+01	2.372831e+02
1.980000e-06	4.746295e-09	3.594631e-09	3.410756e+01	2.387883e+02
1.990000e-06	4.778518e-09	3.615202e-09	3.433912e+01	2.402403e+02
2.000000e-06	4.810005e-09	3.635888e-09	3.456539e+01	2.416405e+02
2.010000e-06	4.840764e-09	3.656067e-09	3.478643e+01	2.429900e+02
2.020000e-06	4.870732e-09	3.675599e-09	3.500179e+01	2.442896e+02
2.030000e-06	4.899869e-09	3.693550e-09	3.521116e+01	2.455401e+02
2.040000e-06	4.928218e-09	3.711013e-09	3.541489e+01	2.467421e+02
2.050000e-06	4.955919e-09	3.728490e-09	3.561395e+01	2.478960e+02
2.060000e-06	4.982830e-09	3.744789e-09	3.580733e+01	2.490020e+02
2.070000e-06	5.008568e-09	3.759462e-09	3.599229e+01	2.500604e+02
2.080000e-06	5.033114e-09	3.773022e-09	3.616868e+01	2.510714e+02
2.090000e-06	5.056756e-09	3.786814e-09	3.633858e+01	2.520353e+02
2.100000e-06	5.079580e-09	3.801798e-09	3.650259e+01	2.529524e+02
2.110000e-06	5.101550e-09	3.816298e-09	3.666047e+01	2.538232e+02
2.120000e-06	5.122658e-09	3.829020e-09	3.681216e+01	2.546486e+02
2.130000e-06	5.142968e-09	3.840511e-09	3.695811e+01	2.554294e+02
2.140000e-06	5.162615e-09	3.852074e-09	3.709930e+01	2.561668e+02
2.150000e-06	5.181474e-09	3.864069e-09	3.723482e+01	2.568622e+02
2.160000e-06	5.199303e-09	3.875092e-09	3.736294e+01	2.575170e+02
2.170000e-06	5.216171e-09	3.884492e-09	3.748416e+01	2.581329e+02
2.180000e-06	5.232136e-09	3.892756e-09	3.759888e+01	2.587114e+02
2.190000e-06	5.247056e-09	3.900303e-09	3.770610e+01	2.592543e+02
2.200000e-06	5.260949e-09	3.908155e-09	3.780593e+01	2.597629e+02
2.210000e-06	5.273902e-09	3.915908e-09	3.789902e+01	2.602384e+02
2.220000e-06	5.285933e-09	3.922504e-09	3.798547e+01	2.606819e+02
2.230000e-06	5.296933e-09	3.929507e-09	3.806452e+01	2.610940e+02
2.240000e-06	5.306675e-09	3.936089e-09	3.813453e+01	2.614749e+02
2.250000e-06	5.315217e-09	3.942329e-09	3.819591e+01	2.618245e+02
2.260000e-06	5.322866e-09	3.948771e-09	3.825088e+01	2.621423e+02
2.270000e-06	5.329686e-09	3.953933e-09	3.829989e+01	2.624275e+02
2.280000e-06	5.335593e-09	3.957388e-09	3.834234e+01	2.626792e+02
2.290000e-06	5.340575e-09	3.959165e-09	3.837814e+01	2.628962e+02
2.300000e-06	5.344742e-09	3.962547e-09	3.840808e+01	2.630773e+02
2.310000e-06	5.348183e-09	3.967670e-09	3.843281e+01	2.632215e+02
2.320000e-06	5.350624e-09	3.970443e-09	3.845035e+01	2.633279e+02
2.330000e-06	5.351801e-09	3.972127e-09	3.845881e+01	2.633961e+02
2.340000e-06	5.351945e-09	3.974821e-09	3.845984e+01	2.634261e+02
2.350000e-06	5.351291e-09	3.977467e-09	3.845515e+01	2.634184e+02
2.360000e-06	5.349807e-09	3.977374e-09	3.844448e+01	2.633741e+02
2.370000e-06	5.347474e-09	3.974445e-09	3.842772e+01	2.632948e+02
2.380000e-06	5.344301e-09	3.971600e-09	3.840492e+01	2.631827e+02
2.390000e-06	5.340392e-09	3.969039e-09	3.837682e+01	2.630406e+02
2.400000e-06	5.335812e-09	3.967201e-09	3.834391e+01	2.628715e+02
2.410000e-06	5.330293e-09	3.963339e-09	3.830425e+01	2.626787e+02
2.420000e-06	5.323575e-09	3.957123e-09	3.825597e+01	2.624658e+02
2.430000e-06	5.315798e-09	3.959863e-09	3.820008e+01	2.622361e+02
2.440000e-06	5.307024e-09	3.950877e-09	3.813703e+01	2.619926e+02
2.450000e-06	5.296978e-09	3.946804e-09	3.806484e+01	2.617380e+02
2.460000e-06	5.285706e-09	3.930981e-09	3.798384e+01	2.614747e+02
2.470000e-06	5.273856e-09	3.942546e-09	3.789868e+01	2.612039e+02
2.480000e-06	5.261675e-09	3.958757e-09	3.781115e+01	2.609265e+02
2.490000e-06	5.248281e-09	3.905314e-09	3.771490e+01	2.606423e+02
2.500000e-06	5.233209e-09	3.916372e-09	3.760659e+01	2.603504e+02
2.510000e-06	5.217245e-09	3.934416e-09	3.749187e+01	2.600493e+02
2.520000e-06	5.200718e-09	3.902863e-09	3.737310e+01	2.597365e+02
2.530000e-06	5.183175e-09	3.917707e-09	3.724703e+01	2.594092e+02
2.540000e-06	5.164657e-09	3.934074e-09	3.711396e+01	2.590641e+02
2.550000e-06	5.145465e-09	3.903306e-09	3.697604e+01	2.586978e+02
2.560000e-06	5.125608e-09	3.923168e-09	3.683335e+01	2.583065e+02
2.570000e-06	5.104913e-09	3.981335e-09	3.668464e+01	2.578869e+02
2.580000e-06	5.082912e-09	3.947402e-09	3.652653e+01	2.574357e+02
2.590000e-06	5.059581e-09	3.911078e-09	3.635887e+01	2.569502e+02
2.600000e-06	5.035481e-09	3.917482e-09	3.618568e+01	2.564281e+02
2.610000e-06	5.010596e-09	3.912565e-09	3.600686e+01	2.558678e+02
2.620000e-06	4.984751e-09	3.924681e-09	3.582113e+01	2.552682e+02
2.630000e-06	4.958219e-09	3.899394e-09	3.563047e+01	2.546289e+02
2.640000e-06	4.930983e-09	3.860018e-09	3.543475e+01	2.539502e+02
2.650000e-06	4.902939e-09	3.864010e-09	3.523322e+01	2.532326e+02
2.660000e-06	4.874129e-09	3.855036e-09	3.502619e+01	2.524773e+02
2.670000e-06	4.844194e-09	3.854674e-09	3.481107e+01	2.516856e+02
2.680000e-06	4.812980e-09	3.869036e-09	3.458676e+01	2.508590e+02
2.690000e-06	4.780868e-09	3.823540e-09	3.435600e+01	2.499991e+02
2.700000e-06	4.748063e-09	3.795209e-09	3.412026e+01	2.491073e+02
2.710000e-06	4.714523e-09	3.833608e-09	3.387923e+01	2.481848e+02
2.720000e-06	4.680124e-09	3.821985e-09	3.363203e+01	2.472326e+02
2.730000e-06	4.644863e-09	3.776942e-09	3.337865e+01	2.462514e+02
2.740000e-06	4.608998e-09	3.749453e-09	3.312091e+01	2.452414e+02
2.750000e-06	4.572536e-09	3.741050e-09	3.285889e+01	2.442028e+02
2.760000e-06	4.535091e-09	3.758488e-09	3.258981e+01	2.431352e+02
2.770000e-06	4.496442e-09	3.731658e-09	3.231207e+01	2.420382e+02
2.780000e-06	4.456836e-09	3.685338e-09	3.202746e+01	2.409111e+02
2.790000e-06	4.416594e-09	3.671188e-09	3.173827e+01	2.397533e+02
2.800000e-06	4.375682e-09	3.667852e-09	3.144427e+01	2.385641e+02
2.810000e-06	4.334031e-09	3.668259e-09	3.114496e+01	2.373431e+02
2.820000e-06	4.291659e-09	3.629582e-09	3.084047e+01	2.360899e+02
2.830000e-06	4.248538e-09	3.591735e-09	3.053060e+01	2.348044e+02
2.840000e-06	4.204787e-09	3.583217e-09	3.021620e+01	2.334868e+02
2.850000e-06	4.160536e-09	3.572163e-09	2.989820e+01	2.321374e+02
2.860000e-06	4.115668e-09	3.558285e-09	2.957577e+01	2.307569e+02
2.870000e-06	4.069943e-09	3.518352e-09	2.924719e+01	2.293460e+02
2.880000e-06	4.023367e-09	3.489971e-09	2.891249e+01	2.279057e+02
2.890000e-06	3.976150e-09	3.482505e-09	2.857318e+01	2.264368e+02
2.900000e-06	3.928255e-09	3.461360e-09	2.822900e+01	2.249401e+02
2.910000e-06	3.879535e-09	3.440457e-09	2.787889e+01	2.234163e+02
2.920000e-06	3.830012e-09	3.409974e-09	2.752301e+01	2.218658e+02
2.930000e-06	3.779789e-09	3.385581e-09	2.716209e+01	2.202888e+02
2.940000e-06	3.728909e-09	3.365578e-09	2.679646e+01	2.186850e+02
