# Temperatura_=_20.0
# Concentracion g/m^3_=_10000.0
# C_Vs_to_Am_M_A/Vsm_=_65563218390.804596
# pendiente_HvsI_1/m_=_3716.3
# ordenada_HvsI_A/m_=_1297.0
# frecuencia_Hz_=_135489.07665892786

Tiempo_(s)	Campo_(V.s)	Magnetizacion_(V.s)	Campo_(kA/m)	Magnetizacion_(A/m)
0.000000e+00	-7.810993e-06	-1.148415e-09	-5.690384e+01	-7.592908e+01
1.000000e-08	-7.811230e-06	-1.148201e-09	-5.690556e+01	-7.591920e+01
2.000000e-08	-7.811190e-06	-1.146999e-09	-5.690527e+01	-7.594958e+01
3.000000e-08	-7.810693e-06	-1.148996e-09	-5.690166e+01	-7.602309e+01
4.000000e-08	-7.809491e-06	-1.151286e-09	-5.689289e+01	-7.614229e+01
5.000000e-08	-7.807483e-06	-1.150054e-09	-5.687827e+01	-7.630947e+01
6.000000e-08	-7.804644e-06	-1.148337e-09	-5.685758e+01	-7.652654e+01
7.000000e-08	-7.801188e-06	-1.145700e-09	-5.683241e+01	-7.679507e+01
8.000000e-08	-7.797397e-06	-1.143116e-09	-5.680479e+01	-7.711625e+01
9.000000e-08	-7.793290e-06	-1.128370e-09	-5.677487e+01	-7.749086e+01
1.000000e-07	-7.788593e-06	-1.135142e-09	-5.674066e+01	-7.791926e+01
1.100000e-07	-7.783051e-06	-1.181501e-09	-5.670028e+01	-7.840140e+01
1.200000e-07	-7.776572e-06	-1.206681e-09	-5.665308e+01	-7.893677e+01
1.300000e-07	-7.769328e-06	-1.167911e-09	-5.660031e+01	-7.952447e+01
1.400000e-07	-7.761709e-06	-1.043233e-09	-5.654480e+01	-8.016313e+01
1.500000e-07	-7.753946e-06	-1.079625e-09	-5.648824e+01	-8.085097e+01
1.600000e-07	-7.745915e-06	-1.245711e-09	-5.642974e+01	-8.158579e+01
1.700000e-07	-7.737507e-06	-1.222808e-09	-5.636848e+01	-8.236499e+01
1.800000e-07	-7.728592e-06	-1.059547e-09	-5.630354e+01	-8.318560e+01
1.900000e-07	-7.718775e-06	-1.096592e-09	-5.623202e+01	-8.404427e+01
2.000000e-07	-7.707974e-06	-1.202366e-09	-5.615333e+01	-8.493732e+01
2.100000e-07	-7.696550e-06	-1.238830e-09	-5.607011e+01	-8.586077e+01
2.200000e-07	-7.684703e-06	-1.198218e-09	-5.598381e+01	-8.681035e+01
2.300000e-07	-7.672176e-06	-1.106490e-09	-5.589254e+01	-8.778157e+01
2.400000e-07	-7.658853e-06	-1.089411e-09	-5.579548e+01	-8.876972e+01
2.500000e-07	-7.645135e-06	-1.315451e-09	-5.569555e+01	-8.976992e+01
2.600000e-07	-7.630901e-06	-1.472771e-09	-5.559185e+01	-9.077719e+01
2.700000e-07	-7.615657e-06	-1.314502e-09	-5.548079e+01	-9.178644e+01
2.800000e-07	-7.599563e-06	-1.245692e-09	-5.536355e+01	-9.279255e+01
2.900000e-07	-7.582944e-06	-1.526275e-09	-5.524248e+01	-9.379041e+01
3.000000e-07	-7.565816e-06	-1.679569e-09	-5.511770e+01	-9.477495e+01
3.100000e-07	-7.548192e-06	-1.533289e-09	-5.498931e+01	-9.574118e+01
3.200000e-07	-7.530076e-06	-1.527367e-09	-5.485733e+01	-9.668424e+01
3.300000e-07	-7.511449e-06	-1.705812e-09	-5.472164e+01	-9.759946e+01
3.400000e-07	-7.492355e-06	-1.719879e-09	-5.458253e+01	-9.848235e+01
3.500000e-07	-7.472810e-06	-1.627965e-09	-5.444014e+01	-9.932868e+01
3.600000e-07	-7.452825e-06	-1.654473e-09	-5.429455e+01	-1.001345e+02
3.700000e-07	-7.432412e-06	-1.585249e-09	-5.414584e+01	-1.008962e+02
3.800000e-07	-7.411644e-06	-1.615743e-09	-5.399455e+01	-1.016104e+02
3.900000e-07	-7.390400e-06	-1.719838e-09	-5.383978e+01	-1.022741e+02
4.000000e-07	-7.368610e-06	-1.658914e-09	-5.368103e+01	-1.028850e+02
4.100000e-07	-7.346182e-06	-1.507796e-09	-5.351764e+01	-1.034407e+02
4.200000e-07	-7.323068e-06	-1.609078e-09	-5.334926e+01	-1.039395e+02
4.300000e-07	-7.299554e-06	-1.765678e-09	-5.317795e+01	-1.043802e+02
4.400000e-07	-7.275733e-06	-1.688360e-09	-5.300442e+01	-1.047618e+02
4.500000e-07	-7.251389e-06	-1.535512e-09	-5.282707e+01	-1.050839e+02
4.600000e-07	-7.226586e-06	-1.622115e-09	-5.264638e+01	-1.053465e+02
4.700000e-07	-7.201228e-06	-1.766282e-09	-5.246164e+01	-1.055499e+02
4.800000e-07	-7.175033e-06	-1.681365e-09	-5.227081e+01	-1.056951e+02
4.900000e-07	-7.148102e-06	-1.548661e-09	-5.207461e+01	-1.057831e+02
5.000000e-07	-7.120603e-06	-1.616539e-09	-5.187428e+01	-1.058157e+02
5.100000e-07	-7.092742e-06	-1.682297e-09	-5.167131e+01	-1.057947e+02
5.200000e-07	-7.064514e-06	-1.640997e-09	-5.146566e+01	-1.057225e+02
5.300000e-07	-7.035823e-06	-1.622442e-09	-5.125665e+01	-1.056016e+02
5.400000e-07	-7.006622e-06	-1.596634e-09	-5.104392e+01	-1.054350e+02
5.500000e-07	-6.976850e-06	-1.577548e-09	-5.082702e+01	-1.052257e+02
5.600000e-07	-6.946651e-06	-1.644235e-09	-5.060702e+01	-1.049770e+02
5.700000e-07	-6.916040e-06	-1.665758e-09	-5.038402e+01	-1.046926e+02
5.800000e-07	-6.884934e-06	-1.560071e-09	-5.015741e+01	-1.043760e+02
5.900000e-07	-6.853449e-06	-1.543302e-09	-4.992804e+01	-1.040309e+02
6.000000e-07	-6.821638e-06	-1.630233e-09	-4.969629e+01	-1.036612e+02
6.100000e-07	-6.789464e-06	-1.637410e-09	-4.946190e+01	-1.032707e+02
6.200000e-07	-6.756718e-06	-1.555386e-09	-4.922334e+01	-1.028633e+02
6.300000e-07	-6.723327e-06	-1.534409e-09	-4.898009e+01	-1.024426e+02
6.400000e-07	-6.689273e-06	-1.580271e-09	-4.873200e+01	-1.020125e+02
6.500000e-07	-6.654582e-06	-1.609376e-09	-4.847927e+01	-1.015764e+02
6.600000e-07	-6.619325e-06	-1.567059e-09	-4.822242e+01	-1.011379e+02
6.700000e-07	-6.583578e-06	-1.535188e-09	-4.796200e+01	-1.007001e+02
6.800000e-07	-6.547464e-06	-1.558536e-09	-4.769891e+01	-1.002660e+02
6.900000e-07	-6.510965e-06	-1.583972e-09	-4.743301e+01	-9.983862e+01
7.000000e-07	-6.474004e-06	-1.559563e-09	-4.716374e+01	-9.942038e+01
7.100000e-07	-6.436542e-06	-1.542481e-09	-4.689083e+01	-9.901359e+01
7.200000e-07	-6.398604e-06	-1.539073e-09	-4.661445e+01	-9.862029e+01
7.300000e-07	-6.360234e-06	-1.540622e-09	-4.633492e+01	-9.824217e+01
7.400000e-07	-6.321452e-06	-1.549512e-09	-4.605239e+01	-9.788066e+01
7.500000e-07	-6.282257e-06	-1.548567e-09	-4.576685e+01	-9.753686e+01
7.600000e-07	-6.242701e-06	-1.519435e-09	-4.547868e+01	-9.721155e+01
7.700000e-07	-6.202820e-06	-1.520053e-09	-4.518814e+01	-9.690523e+01
7.800000e-07	-6.162595e-06	-1.547390e-09	-4.489510e+01	-9.661808e+01
7.900000e-07	-6.121896e-06	-1.534720e-09	-4.459861e+01	-9.634999e+01
8.000000e-07	-6.080651e-06	-1.501216e-09	-4.429813e+01	-9.610056e+01
8.100000e-07	-6.038837e-06	-1.507235e-09	-4.399351e+01	-9.586915e+01
8.200000e-07	-5.996391e-06	-1.522176e-09	-4.368429e+01	-9.565482e+01
8.300000e-07	-5.953326e-06	-1.501428e-09	-4.337055e+01	-9.545645e+01
8.400000e-07	-5.909769e-06	-1.482284e-09	-4.305324e+01	-9.527269e+01
8.500000e-07	-5.865784e-06	-1.488781e-09	-4.273281e+01	-9.510198e+01
8.600000e-07	-5.821442e-06	-1.494566e-09	-4.240977e+01	-9.494264e+01
8.700000e-07	-5.776814e-06	-1.480655e-09	-4.208465e+01	-9.479282e+01
8.800000e-07	-5.731815e-06	-1.470861e-09	-4.175682e+01	-9.465058e+01
8.900000e-07	-5.686404e-06	-1.469203e-09	-4.142601e+01	-9.451389e+01
9.000000e-07	-5.640594e-06	-1.471813e-09	-4.109227e+01	-9.438068e+01
9.100000e-07	-5.594399e-06	-1.467328e-09	-4.075574e+01	-9.424883e+01
9.200000e-07	-5.547918e-06	-1.458346e-09	-4.041712e+01	-9.411623e+01
9.300000e-07	-5.501091e-06	-1.445278e-09	-4.007598e+01	-9.398081e+01
9.400000e-07	-5.453787e-06	-1.442521e-09	-3.973136e+01	-9.384054e+01
9.500000e-07	-5.406058e-06	-1.445517e-09	-3.938365e+01	-9.369346e+01
9.600000e-07	-5.357976e-06	-1.441741e-09	-3.903337e+01	-9.353772e+01
9.700000e-07	-5.309517e-06	-1.427272e-09	-3.868035e+01	-9.337159e+01
9.800000e-07	-5.260564e-06	-1.421396e-09	-3.832372e+01	-9.319345e+01
9.900000e-07	-5.211026e-06	-1.428771e-09	-3.796282e+01	-9.300188e+01
1.000000e-06	-5.160878e-06	-1.431683e-09	-3.759749e+01	-9.279558e+01
1.010000e-06	-5.110207e-06	-1.414583e-09	-3.722835e+01	-9.257346e+01
1.020000e-06	-5.059142e-06	-1.402931e-09	-3.685634e+01	-9.233460e+01
1.030000e-06	-5.007704e-06	-1.404971e-09	-3.648161e+01	-9.207828e+01
1.040000e-06	-4.955900e-06	-1.407153e-09	-3.610421e+01	-9.180399e+01
1.050000e-06	-4.903656e-06	-1.396159e-09	-3.572361e+01	-9.151140e+01
1.060000e-06	-4.851057e-06	-1.382166e-09	-3.534042e+01	-9.120037e+01
1.070000e-06	-4.798131e-06	-1.377353e-09	-3.495485e+01	-9.087097e+01
1.080000e-06	-4.744743e-06	-1.374944e-09	-3.456591e+01	-9.052346e+01
1.090000e-06	-4.691007e-06	-1.370464e-09	-3.417444e+01	-9.015825e+01
1.100000e-06	-4.636947e-06	-1.357964e-09	-3.378061e+01	-8.977594e+01
1.110000e-06	-4.582509e-06	-1.347022e-09	-3.338402e+01	-8.937728e+01
1.120000e-06	-4.527674e-06	-1.345533e-09	-3.298455e+01	-8.896314e+01
1.130000e-06	-4.472572e-06	-1.345616e-09	-3.258312e+01	-8.853453e+01
1.140000e-06	-4.417305e-06	-1.336826e-09	-3.218050e+01	-8.809256e+01
1.150000e-06	-4.361749e-06	-1.323804e-09	-3.177576e+01	-8.763842e+01
1.160000e-06	-4.305890e-06	-1.317470e-09	-3.136883e+01	-8.717338e+01
1.170000e-06	-4.249899e-06	-1.318261e-09	-3.096092e+01	-8.669875e+01
1.180000e-06	-4.193766e-06	-1.309606e-09	-3.055199e+01	-8.621585e+01
1.190000e-06	-4.137324e-06	-1.292934e-09	-3.014081e+01	-8.572604e+01
1.200000e-06	-4.080541e-06	-1.280534e-09	-2.972714e+01	-8.523065e+01
1.210000e-06	-4.023346e-06	-1.280498e-09	-2.931047e+01	-8.473097e+01
1.220000e-06	-3.965730e-06	-1.277766e-09	-2.889073e+01	-8.422825e+01
1.230000e-06	-3.907724e-06	-1.267397e-09	-2.846814e+01	-8.372368e+01
1.240000e-06	-3.849309e-06	-1.257290e-09	-2.804259e+01	-8.321835e+01
1.250000e-06	-3.790511e-06	-1.255499e-09	-2.761424e+01	-8.271328e+01
1.260000e-06	-3.731431e-06	-1.253100e-09	-2.718383e+01	-8.220933e+01
1.270000e-06	-3.672042e-06	-1.245337e-09	-2.675118e+01	-8.170730e+01
1.280000e-06	-3.612309e-06	-1.233485e-09	-2.631602e+01	-8.120780e+01
1.290000e-06	-3.552358e-06	-1.223567e-09	-2.587927e+01	-8.071134e+01
1.300000e-06	-3.492246e-06	-1.220079e-09	-2.544135e+01	-8.021828e+01
1.310000e-06	-3.431941e-06	-1.215228e-09	-2.500202e+01	-7.972881e+01
1.320000e-06	-3.371455e-06	-1.205684e-09	-2.456137e+01	-7.924300e+01
1.330000e-06	-3.310834e-06	-1.195243e-09	-2.411974e+01	-7.876074e+01
1.340000e-06	-3.250048e-06	-1.189795e-09	-2.367691e+01	-7.828181e+01
1.350000e-06	-3.189033e-06	-1.184684e-09	-2.323241e+01	-7.780581e+01
1.360000e-06	-3.127754e-06	-1.174506e-09	-2.278599e+01	-7.733224e+01
1.370000e-06	-3.066161e-06	-1.163140e-09	-2.233728e+01	-7.686046e+01
1.380000e-06	-3.004324e-06	-1.158340e-09	-2.188679e+01	-7.638970e+01
1.390000e-06	-2.942325e-06	-1.155332e-09	-2.143512e+01	-7.591911e+01
1.400000e-06	-2.880182e-06	-1.149261e-09	-2.098240e+01	-7.544774e+01
1.410000e-06	-2.817905e-06	-1.137903e-09	-2.052871e+01	-7.497454e+01
1.420000e-06	-2.755444e-06	-1.129904e-09	-2.007367e+01	-7.449842e+01
1.430000e-06	-2.692742e-06	-1.123441e-09	-1.961689e+01	-7.401824e+01
1.440000e-06	-2.629893e-06	-1.113957e-09	-1.915903e+01	-7.353281e+01
1.450000e-06	-2.566939e-06	-1.102259e-09	-1.870040e+01	-7.304095e+01
1.460000e-06	-2.503855e-06	-1.091974e-09	-1.824082e+01	-7.254146e+01
1.470000e-06	-2.440611e-06	-1.083309e-09	-1.778009e+01	-7.203314e+01
1.480000e-06	-2.377215e-06	-1.073441e-09	-1.731824e+01	-7.151485e+01
1.490000e-06	-2.313617e-06	-1.062770e-09	-1.685492e+01	-7.098549e+01
1.500000e-06	-2.249783e-06	-1.050550e-09	-1.638989e+01	-7.044398e+01
1.510000e-06	-2.185857e-06	-1.039374e-09	-1.592418e+01	-6.988937e+01
1.520000e-06	-2.121822e-06	-1.028149e-09	-1.545768e+01	-6.932074e+01
1.530000e-06	-2.057650e-06	-1.015393e-09	-1.499018e+01	-6.873728e+01
1.540000e-06	-1.993416e-06	-9.999438e-10	-1.452223e+01	-6.813830e+01
1.550000e-06	-1.929152e-06	-9.878858e-10	-1.405406e+01	-6.752318e+01
1.560000e-06	-1.864771e-06	-9.774492e-10	-1.358504e+01	-6.689144e+01
1.570000e-06	-1.800164e-06	-9.627990e-10	-1.311437e+01	-6.624270e+01
1.580000e-06	-1.735377e-06	-9.491347e-10	-1.264239e+01	-6.557671e+01
1.590000e-06	-1.670450e-06	-9.382606e-10	-1.216939e+01	-6.489333e+01
1.600000e-06	-1.605366e-06	-9.296215e-10	-1.169525e+01	-6.419254e+01
1.610000e-06	-1.540182e-06	-9.175536e-10	-1.122038e+01	-6.347442e+01
1.620000e-06	-1.474907e-06	-9.011869e-10	-1.074484e+01	-6.273917e+01
1.630000e-06	-1.409557e-06	-8.864559e-10	-1.026876e+01	-6.198709e+01
1.640000e-06	-1.344029e-06	-8.755857e-10	-9.791380e+00	-6.121856e+01
1.650000e-06	-1.278188e-06	-8.675593e-10	-9.311722e+00	-6.043405e+01
1.660000e-06	-1.212133e-06	-8.553118e-10	-8.830504e+00	-5.963410e+01
1.670000e-06	-1.145985e-06	-8.430295e-10	-8.348613e+00	-5.881930e+01
1.680000e-06	-1.079830e-06	-8.344174e-10	-7.866664e+00	-5.799030e+01
1.690000e-06	-1.013664e-06	-8.251829e-10	-7.384641e+00	-5.714777e+01
1.700000e-06	-9.473549e-07	-8.109714e-10	-6.901572e+00	-5.629240e+01
1.710000e-06	-8.808973e-07	-7.931696e-10	-6.417422e+00	-5.542490e+01
1.720000e-06	-8.144150e-07	-7.781333e-10	-5.933092e+00	-5.454595e+01
1.730000e-06	-7.478735e-07	-7.664842e-10	-5.448331e+00	-5.365622e+01
1.740000e-06	-6.812558e-07	-7.538963e-10	-4.963015e+00	-5.275633e+01
1.750000e-06	-6.146373e-07	-7.380276e-10	-4.477692e+00	-5.184686e+01
1.760000e-06	-5.479666e-07	-7.248233e-10	-3.991990e+00	-5.092832e+01
1.770000e-06	-4.812625e-07	-7.175639e-10	-3.506044e+00	-5.000115e+01
1.780000e-06	-4.145284e-07	-7.082916e-10	-3.019879e+00	-4.906571e+01
1.790000e-06	-3.477274e-07	-6.931646e-10	-2.533228e+00	-4.812226e+01
1.800000e-06	-2.808511e-07	-6.777077e-10	-2.046027e+00	-4.717096e+01
1.810000e-06	-2.139649e-07	-6.625317e-10	-1.558755e+00	-4.621186e+01
1.820000e-06	-1.471085e-07	-6.444565e-10	-1.071700e+00	-4.524492e+01
1.830000e-06	-8.024008e-08	-6.265008e-10	-5.845568e-01	-4.426996e+01
1.840000e-06	-1.332157e-08	-6.108671e-10	-9.704890e-02	-4.328670e+01
1.850000e-06	5.360766e-08	-5.980430e-10	3.905370e-01	-4.229475e+01
1.860000e-06	1.204593e-07	-5.875283e-10	8.775580e-01	-4.129362e+01
1.870000e-06	1.873947e-07	-5.753319e-10	1.365189e+00	-4.028270e+01
1.880000e-06	2.543509e-07	-5.608270e-10	1.852971e+00	-3.926128e+01
1.890000e-06	3.212026e-07	-5.483033e-10	2.339992e+00	-3.822859e+01
1.900000e-06	3.880023e-07	-5.339600e-10	2.826634e+00	-3.718376e+01
1.910000e-06	4.548050e-07	-5.154830e-10	3.313298e+00	-3.612585e+01
1.920000e-06	5.216616e-07	-4.981081e-10	3.800355e+00	-3.505388e+01
1.930000e-06	5.884937e-07	-4.819841e-10	4.287233e+00	-3.396683e+01
1.940000e-06	6.552379e-07	-4.658906e-10	4.773471e+00	-3.286365e+01
1.950000e-06	7.219162e-07	-4.496774e-10	5.259229e+00	-3.174329e+01
1.960000e-06	7.885091e-07	-4.360000e-10	5.744365e+00	-3.060471e+01
1.970000e-06	8.550061e-07	-4.244258e-10	6.228802e+00	-2.944688e+01
1.980000e-06	9.214143e-07	-4.108495e-10	6.712592e+00	-2.826884e+01
1.990000e-06	9.876852e-07	-3.934956e-10	7.195382e+00	-2.706967e+01
2.000000e-06	1.053814e-06	-3.742133e-10	7.677134e+00	-2.584855e+01
2.010000e-06	1.119768e-06	-3.559150e-10	8.157618e+00	-2.460473e+01
2.020000e-06	1.185606e-06	-3.387078e-10	8.637251e+00	-2.333758e+01
2.030000e-06	1.251467e-06	-3.198635e-10	9.117058e+00	-2.204662e+01
2.040000e-06	1.317189e-06	-3.000134e-10	9.595851e+00	-2.073148e+01
2.050000e-06	1.382671e-06	-2.828715e-10	1.007289e+01	-1.939196e+01
2.060000e-06	1.448047e-06	-2.681204e-10	1.054916e+01	-1.802802e+01
2.070000e-06	1.513306e-06	-2.520200e-10	1.102458e+01	-1.663979e+01
2.080000e-06	1.578449e-06	-2.350569e-10	1.149916e+01	-1.522758e+01
2.090000e-06	1.643460e-06	-2.185501e-10	1.197276e+01	-1.379190e+01
2.100000e-06	1.708193e-06	-2.002267e-10	1.244435e+01	-1.233343e+01
2.110000e-06	1.772771e-06	-1.781485e-10	1.291481e+01	-1.085308e+01
2.120000e-06	1.837284e-06	-1.526610e-10	1.338479e+01	-9.351897e+00
2.130000e-06	1.901588e-06	-1.281918e-10	1.385325e+01	-7.831165e+00
2.140000e-06	1.965716e-06	-1.067545e-10	1.432043e+01	-6.292328e+00
2.150000e-06	2.029746e-06	-8.295123e-11	1.478690e+01	-4.737014e+00
2.160000e-06	2.093659e-06	-5.858966e-11	1.525251e+01	-3.167019e+00
2.170000e-06	2.157512e-06	-3.851746e-11	1.571768e+01	-1.584293e+00
2.180000e-06	2.221344e-06	-2.422971e-11	1.618271e+01	9.066683e-03
2.190000e-06	2.285051e-06	-6.833470e-12	1.664682e+01	1.610835e+00
2.200000e-06	2.348651e-06	1.864277e-11	1.711015e+01	3.218675e+00
2.210000e-06	2.412104e-06	4.519489e-11	1.757241e+01	4.830152e+00
2.220000e-06	2.475365e-06	6.919290e-11	1.803327e+01	6.442758e+00
2.230000e-06	2.538436e-06	9.350514e-11	1.849275e+01	8.053927e+00
2.240000e-06	2.601400e-06	1.208678e-10	1.895145e+01	9.661059e+00
2.250000e-06	2.664202e-06	1.467483e-10	1.940897e+01	1.126154e+01
2.260000e-06	2.726765e-06	1.658057e-10	1.986475e+01	1.285276e+01
2.270000e-06	2.789165e-06	1.818650e-10	2.031934e+01	1.443215e+01
2.280000e-06	2.851396e-06	2.016340e-10	2.077270e+01	1.599717e+01
2.290000e-06	2.913413e-06	2.247602e-10	2.122450e+01	1.754538e+01
2.300000e-06	2.975188e-06	2.460793e-10	2.167453e+01	1.907441e+01
2.310000e-06	3.036826e-06	2.658520e-10	2.212357e+01	2.058202e+01
2.320000e-06	3.098281e-06	2.901035e-10	2.257128e+01	2.206608e+01
2.330000e-06	3.159447e-06	3.145124e-10	2.301688e+01	2.352463e+01
2.340000e-06	3.220425e-06	3.341943e-10	2.346111e+01	2.495585e+01
2.350000e-06	3.281229e-06	3.503046e-10	2.390407e+01	2.635813e+01
2.360000e-06	3.341835e-06	3.679263e-10	2.434559e+01	2.773001e+01
2.370000e-06	3.402251e-06	3.875944e-10	2.478573e+01	2.907025e+01
2.380000e-06	3.462453e-06	4.058781e-10	2.522431e+01	3.037782e+01
2.390000e-06	3.522462e-06	4.214282e-10	2.566147e+01	3.165189e+01
2.400000e-06	3.582308e-06	4.381544e-10	2.609746e+01	3.289186e+01
2.410000e-06	3.641950e-06	4.566797e-10	2.653196e+01	3.409733e+01
2.420000e-06	3.701344e-06	4.744107e-10	2.696465e+01	3.526812e+01
2.430000e-06	3.760473e-06	4.910356e-10	2.739541e+01	3.640428e+01
2.440000e-06	3.819252e-06	5.071658e-10	2.782362e+01	3.750604e+01
2.450000e-06	3.877686e-06	5.238641e-10	2.824932e+01	3.857384e+01
2.460000e-06	3.935684e-06	5.417835e-10	2.867184e+01	3.960830e+01
2.470000e-06	3.993300e-06	5.561504e-10	2.909158e+01	4.061023e+01
2.480000e-06	4.050586e-06	5.691334e-10	2.950891e+01	4.158057e+01
2.490000e-06	4.107366e-06	5.833186e-10	2.992256e+01	4.252045e+01
2.500000e-06	4.163733e-06	5.972839e-10	3.033320e+01	4.343110e+01
2.510000e-06	4.219837e-06	6.108062e-10	3.074192e+01	4.431387e+01
2.520000e-06	4.275698e-06	6.240539e-10	3.114887e+01	4.517019e+01
2.530000e-06	4.331327e-06	6.349257e-10	3.155414e+01	4.600158e+01
2.540000e-06	4.386694e-06	6.473770e-10	3.195749e+01	4.680961e+01
2.550000e-06	4.441808e-06	6.572418e-10	3.235900e+01	4.759586e+01
2.560000e-06	4.496675e-06	6.655726e-10	3.275871e+01	4.836196e+01
2.570000e-06	4.551259e-06	6.776489e-10	3.315636e+01	4.910949e+01
2.580000e-06	4.605544e-06	6.865699e-10	3.355184e+01	4.984003e+01
2.590000e-06	4.659461e-06	6.940489e-10	3.394462e+01	5.055510e+01
2.600000e-06	4.713062e-06	7.046489e-10	3.433511e+01	5.125616e+01
2.610000e-06	4.766404e-06	7.195113e-10	3.472372e+01	5.194459e+01
2.620000e-06	4.819452e-06	7.336587e-10	3.511017e+01	5.262166e+01
2.630000e-06	4.872100e-06	7.444179e-10	3.549372e+01	5.328855e+01
2.640000e-06	4.924294e-06	7.528547e-10	3.587396e+01	5.394629e+01
2.650000e-06	4.976051e-06	7.596910e-10	3.625101e+01	5.459580e+01
2.660000e-06	5.027341e-06	7.661507e-10	3.662466e+01	5.523786e+01
2.670000e-06	5.078201e-06	7.744180e-10	3.699518e+01	5.587307e+01
2.680000e-06	5.128624e-06	7.833877e-10	3.736252e+01	5.650193e+01
2.690000e-06	5.178524e-06	7.913315e-10	3.772605e+01	5.712474e+01
2.700000e-06	5.227784e-06	7.984996e-10	3.808491e+01	5.774168e+01
2.710000e-06	5.276406e-06	8.057302e-10	3.843913e+01	5.835277e+01
2.720000e-06	5.324649e-06	8.140199e-10	3.879058e+01	5.895788e+01
2.730000e-06	5.372633e-06	8.234556e-10	3.914015e+01	5.955675e+01
2.740000e-06	5.420316e-06	8.307028e-10	3.948753e+01	6.014900e+01
2.750000e-06	5.467694e-06	8.379479e-10	3.983268e+01	6.073411e+01
2.760000e-06	5.514682e-06	8.446654e-10	4.017499e+01	6.131148e+01
2.770000e-06	5.561235e-06	8.532503e-10	4.051413e+01	6.188039e+01
2.780000e-06	5.607413e-06	8.627335e-10	4.085055e+01	6.244008e+01
2.790000e-06	5.653171e-06	8.717956e-10	4.118390e+01	6.298970e+01
2.800000e-06	5.698496e-06	8.796961e-10	4.151409e+01	6.352837e+01
2.810000e-06	5.743445e-06	8.871981e-10	4.184155e+01	6.405519e+01
2.820000e-06	5.788090e-06	8.973384e-10	4.216680e+01	6.456923e+01
2.830000e-06	5.832441e-06	9.078264e-10	4.248989e+01	6.506960e+01
2.840000e-06	5.876506e-06	9.143789e-10	4.281092e+01	6.555542e+01
2.850000e-06	5.920324e-06	9.189812e-10	4.313013e+01	6.602586e+01
2.860000e-06	5.963755e-06	9.287822e-10	4.344653e+01	6.648015e+01
2.870000e-06	6.006751e-06	9.409642e-10	4.375976e+01	6.691762e+01
2.880000e-06	6.049164e-06	9.492911e-10	4.406875e+01	6.733767e+01
2.890000e-06	6.090930e-06	9.545136e-10	4.437301e+01	6.773981e+01
2.900000e-06	6.132117e-06	9.627025e-10	4.467306e+01	6.812368e+01
