# Temperatura_=_20.0
# Concentracion g/m^3_=_10000.0
# C_Vs_to_Am_M_A/Vsm_=_65563218390.804596
# pendiente_HvsI_1/m_=_3716.3
# ordenada_HvsI_A/m_=_1297.0
# frecuencia_Hz_=_135486.2747781439

Tiempo_(s)	Campo_(V.s)	Magnetizacion_(V.s)	Campo_(kA/m)	Magnetizacion_(A/m)
0.000000e+00	-7.839376e-06	-1.116782e-09	-5.691479e+01	-6.738398e+01
1.000000e-08	-7.839620e-06	-1.116503e-09	-5.691656e+01	-6.732056e+01
2.000000e-08	-7.839570e-06	-1.115162e-09	-5.691620e+01	-6.731354e+01
3.000000e-08	-7.839088e-06	-1.119397e-09	-5.691270e+01	-6.736792e+01
4.000000e-08	-7.837871e-06	-1.125231e-09	-5.690386e+01	-6.748836e+01
5.000000e-08	-7.835836e-06	-1.124189e-09	-5.688909e+01	-6.767915e+01
6.000000e-08	-7.832996e-06	-1.120107e-09	-5.686847e+01	-6.794412e+01
7.000000e-08	-7.829459e-06	-1.115817e-09	-5.684279e+01	-6.828661e+01
8.000000e-08	-7.825535e-06	-1.106609e-09	-5.681431e+01	-6.870947e+01
9.000000e-08	-7.821299e-06	-1.088443e-09	-5.678355e+01	-6.921497e+01
1.000000e-07	-7.816502e-06	-1.111562e-09	-5.674872e+01	-6.980478e+01
1.100000e-07	-7.810915e-06	-1.190683e-09	-5.670816e+01	-7.047998e+01
1.200000e-07	-7.804404e-06	-1.256781e-09	-5.666089e+01	-7.124098e+01
1.300000e-07	-7.797011e-06	-1.186622e-09	-5.660722e+01	-7.208756e+01
1.400000e-07	-7.789193e-06	-1.013588e-09	-5.655046e+01	-7.301884e+01
1.500000e-07	-7.781324e-06	-1.011403e-09	-5.649332e+01	-7.403326e+01
1.600000e-07	-7.773268e-06	-1.229461e-09	-5.643484e+01	-7.512862e+01
1.700000e-07	-7.764777e-06	-1.262704e-09	-5.637319e+01	-7.630205e+01
1.800000e-07	-7.755643e-06	-1.050626e-09	-5.630688e+01	-7.755007e+01
1.900000e-07	-7.745688e-06	-9.323591e-10	-5.623460e+01	-7.886856e+01
2.000000e-07	-7.734890e-06	-1.040500e-09	-5.615621e+01	-8.025285e+01
2.100000e-07	-7.723423e-06	-1.192716e-09	-5.607296e+01	-8.169768e+01
2.200000e-07	-7.711464e-06	-1.173564e-09	-5.598613e+01	-8.319732e+01
2.300000e-07	-7.698825e-06	-1.016773e-09	-5.589437e+01	-8.474555e+01
2.400000e-07	-7.685434e-06	-9.482394e-10	-5.579715e+01	-8.633573e+01
2.500000e-07	-7.671559e-06	-1.186370e-09	-5.569642e+01	-8.796086e+01
2.600000e-07	-7.657160e-06	-1.402988e-09	-5.559188e+01	-8.961364e+01
2.700000e-07	-7.641756e-06	-1.274933e-09	-5.548004e+01	-9.128650e+01
2.800000e-07	-7.625378e-06	-1.127985e-09	-5.536114e+01	-9.297170e+01
2.900000e-07	-7.608557e-06	-1.379350e-09	-5.523901e+01	-9.466136e+01
3.000000e-07	-7.591426e-06	-1.659416e-09	-5.511465e+01	-9.634754e+01
3.100000e-07	-7.573863e-06	-1.622011e-09	-5.498713e+01	-9.802232e+01
3.200000e-07	-7.555796e-06	-1.555115e-09	-5.485597e+01	-9.967784e+01
3.300000e-07	-7.537150e-06	-1.696761e-09	-5.472060e+01	-1.013064e+02
3.400000e-07	-7.517868e-06	-1.809293e-09	-5.458060e+01	-1.029004e+02
3.500000e-07	-7.498160e-06	-1.767708e-09	-5.443752e+01	-1.044526e+02
3.600000e-07	-7.478120e-06	-1.685785e-09	-5.429203e+01	-1.059560e+02
3.700000e-07	-7.457614e-06	-1.631610e-09	-5.414315e+01	-1.074041e+02
3.800000e-07	-7.436642e-06	-1.663482e-09	-5.399089e+01	-1.087908e+02
3.900000e-07	-7.415262e-06	-1.770601e-09	-5.383567e+01	-1.101102e+02
4.000000e-07	-7.393398e-06	-1.768352e-09	-5.367694e+01	-1.113573e+02
4.100000e-07	-7.370875e-06	-1.624841e-09	-5.351342e+01	-1.125274e+02
4.200000e-07	-7.347697e-06	-1.630489e-09	-5.334514e+01	-1.136166e+02
4.300000e-07	-7.324117e-06	-1.819590e-09	-5.317395e+01	-1.146212e+02
4.400000e-07	-7.300191e-06	-1.854198e-09	-5.300024e+01	-1.155387e+02
4.500000e-07	-7.275828e-06	-1.651417e-09	-5.282336e+01	-1.163668e+02
4.600000e-07	-7.250931e-06	-1.626152e-09	-5.264261e+01	-1.171041e+02
4.700000e-07	-7.225414e-06	-1.814142e-09	-5.245735e+01	-1.177497e+02
4.800000e-07	-7.199212e-06	-1.816257e-09	-5.226712e+01	-1.183035e+02
4.900000e-07	-7.172156e-06	-1.646062e-09	-5.207069e+01	-1.187659e+02
5.000000e-07	-7.144461e-06	-1.662386e-09	-5.186962e+01	-1.191381e+02
5.100000e-07	-7.116438e-06	-1.754412e-09	-5.166618e+01	-1.194217e+02
5.200000e-07	-7.088070e-06	-1.744713e-09	-5.146022e+01	-1.196191e+02
5.300000e-07	-7.059240e-06	-1.716246e-09	-5.125091e+01	-1.197332e+02
5.400000e-07	-7.029865e-06	-1.696986e-09	-5.103764e+01	-1.197673e+02
5.500000e-07	-6.999931e-06	-1.657573e-09	-5.082032e+01	-1.197252e+02
5.600000e-07	-6.969521e-06	-1.711943e-09	-5.059954e+01	-1.196113e+02
5.700000e-07	-6.938685e-06	-1.763690e-09	-5.037567e+01	-1.194301e+02
5.800000e-07	-6.907383e-06	-1.681885e-09	-5.014841e+01	-1.191866e+02
5.900000e-07	-6.875683e-06	-1.621524e-09	-4.991826e+01	-1.188862e+02
6.000000e-07	-6.843703e-06	-1.697616e-09	-4.968608e+01	-1.185342e+02
6.100000e-07	-6.811369e-06	-1.742145e-09	-4.945134e+01	-1.181364e+02
6.200000e-07	-6.778443e-06	-1.675216e-09	-4.921229e+01	-1.176985e+02
6.300000e-07	-6.744752e-06	-1.621128e-09	-4.896769e+01	-1.172262e+02
6.400000e-07	-6.710428e-06	-1.657924e-09	-4.871849e+01	-1.167253e+02
6.500000e-07	-6.675524e-06	-1.704985e-09	-4.846509e+01	-1.162017e+02
6.600000e-07	-6.640073e-06	-1.676614e-09	-4.820771e+01	-1.156609e+02
6.700000e-07	-6.604257e-06	-1.628622e-09	-4.794768e+01	-1.151083e+02
6.800000e-07	-6.568021e-06	-1.641161e-09	-4.768460e+01	-1.145493e+02
6.900000e-07	-6.531277e-06	-1.679331e-09	-4.741784e+01	-1.139887e+02
7.000000e-07	-6.494022e-06	-1.672277e-09	-4.714736e+01	-1.134314e+02
7.100000e-07	-6.456344e-06	-1.651247e-09	-4.687381e+01	-1.128816e+02
7.200000e-07	-6.418300e-06	-1.639094e-09	-4.659761e+01	-1.123433e+02
7.300000e-07	-6.379731e-06	-1.645841e-09	-4.631760e+01	-1.118201e+02
7.400000e-07	-6.340666e-06	-1.664853e-09	-4.603398e+01	-1.113153e+02
7.500000e-07	-6.301350e-06	-1.667693e-09	-4.574854e+01	-1.108314e+02
7.600000e-07	-6.261818e-06	-1.633901e-09	-4.546153e+01	-1.103709e+02
7.700000e-07	-6.221942e-06	-1.628583e-09	-4.517203e+01	-1.099356e+02
7.800000e-07	-6.181626e-06	-1.661758e-09	-4.487933e+01	-1.095267e+02
7.900000e-07	-6.140791e-06	-1.666471e-09	-4.458286e+01	-1.091453e+02
8.000000e-07	-6.099376e-06	-1.627137e-09	-4.428219e+01	-1.087918e+02
8.100000e-07	-6.057339e-06	-1.617518e-09	-4.397699e+01	-1.084663e+02
8.200000e-07	-6.014641e-06	-1.638575e-09	-4.366700e+01	-1.081682e+02
8.300000e-07	-5.971339e-06	-1.638272e-09	-4.335262e+01	-1.078969e+02
8.400000e-07	-5.927557e-06	-1.610725e-09	-4.303476e+01	-1.076511e+02
8.500000e-07	-5.883452e-06	-1.601093e-09	-4.271456e+01	-1.074294e+02
8.600000e-07	-5.839013e-06	-1.611450e-09	-4.239192e+01	-1.072298e+02
8.700000e-07	-5.794142e-06	-1.613587e-09	-4.206615e+01	-1.070503e+02
8.800000e-07	-5.748890e-06	-1.601496e-09	-4.173761e+01	-1.068885e+02
8.900000e-07	-5.703256e-06	-1.590190e-09	-4.140631e+01	-1.067419e+02
9.000000e-07	-5.657244e-06	-1.588199e-09	-4.107226e+01	-1.066076e+02
9.100000e-07	-5.610846e-06	-1.592896e-09	-4.073540e+01	-1.064829e+02
9.200000e-07	-5.564096e-06	-1.590875e-09	-4.039599e+01	-1.063647e+02
9.300000e-07	-5.517070e-06	-1.574547e-09	-4.005458e+01	-1.062500e+02
9.400000e-07	-5.469642e-06	-1.560962e-09	-3.971024e+01	-1.061360e+02
9.500000e-07	-5.421748e-06	-1.563012e-09	-3.936253e+01	-1.060195e+02
9.600000e-07	-5.373395e-06	-1.569459e-09	-3.901147e+01	-1.058976e+02
9.700000e-07	-5.324606e-06	-1.559326e-09	-3.865726e+01	-1.057677e+02
9.800000e-07	-5.275351e-06	-1.543974e-09	-3.829967e+01	-1.056270e+02
9.900000e-07	-5.225497e-06	-1.545189e-09	-3.793772e+01	-1.054730e+02
1.000000e-06	-5.175031e-06	-1.555424e-09	-3.757133e+01	-1.053034e+02
1.010000e-06	-5.124058e-06	-1.547136e-09	-3.720126e+01	-1.051163e+02
1.020000e-06	-5.072671e-06	-1.528762e-09	-3.682819e+01	-1.049096e+02
1.030000e-06	-5.020890e-06	-1.522480e-09	-3.645225e+01	-1.046820e+02
1.040000e-06	-4.968771e-06	-1.526607e-09	-3.607386e+01	-1.044321e+02
1.050000e-06	-4.916335e-06	-1.518400e-09	-3.569317e+01	-1.041588e+02
1.060000e-06	-4.863500e-06	-1.503739e-09	-3.530958e+01	-1.038615e+02
1.070000e-06	-4.810308e-06	-1.494707e-09	-3.492340e+01	-1.035398e+02
1.080000e-06	-4.756781e-06	-1.494242e-09	-3.453479e+01	-1.031934e+02
1.090000e-06	-4.702855e-06	-1.493564e-09	-3.414328e+01	-1.028226e+02
1.100000e-06	-4.648535e-06	-1.485068e-09	-3.374891e+01	-1.024277e+02
1.110000e-06	-4.593895e-06	-1.472676e-09	-3.335222e+01	-1.020094e+02
1.120000e-06	-4.538947e-06	-1.466880e-09	-3.295329e+01	-1.015687e+02
1.130000e-06	-4.483700e-06	-1.465967e-09	-3.255219e+01	-1.011066e+02
1.140000e-06	-4.428183e-06	-1.459168e-09	-3.214913e+01	-1.006246e+02
1.150000e-06	-4.372423e-06	-1.444149e-09	-3.174430e+01	-1.001241e+02
1.160000e-06	-4.316414e-06	-1.435167e-09	-3.133767e+01	-9.960686e+01
1.170000e-06	-4.260175e-06	-1.435131e-09	-3.092937e+01	-9.907461e+01
1.180000e-06	-4.203756e-06	-1.432839e-09	-3.051976e+01	-9.852928e+01
1.190000e-06	-4.147083e-06	-1.419899e-09	-3.010831e+01	-9.797286e+01
1.200000e-06	-4.089945e-06	-1.407648e-09	-2.969348e+01	-9.740733e+01
1.210000e-06	-4.032305e-06	-1.406782e-09	-2.927501e+01	-9.683474e+01
1.220000e-06	-3.974386e-06	-1.404969e-09	-2.885451e+01	-9.625706e+01
1.230000e-06	-3.916119e-06	-1.393534e-09	-2.843148e+01	-9.567627e+01
1.240000e-06	-3.857379e-06	-1.381024e-09	-2.800502e+01	-9.509423e+01
1.250000e-06	-3.798312e-06	-1.378172e-09	-2.757619e+01	-9.451272e+01
1.260000e-06	-3.739050e-06	-1.377595e-09	-2.714594e+01	-9.393340e+01
1.270000e-06	-3.679517e-06	-1.370965e-09	-2.671372e+01	-9.335778e+01
1.280000e-06	-3.619671e-06	-1.359841e-09	-2.627924e+01	-9.278719e+01
1.290000e-06	-3.559623e-06	-1.352154e-09	-2.584328e+01	-9.222279e+01
1.300000e-06	-3.499414e-06	-1.351042e-09	-2.540616e+01	-9.166554e+01
1.310000e-06	-3.439033e-06	-1.348502e-09	-2.496779e+01	-9.111620e+01
1.320000e-06	-3.378462e-06	-1.339322e-09	-2.452803e+01	-9.057531e+01
1.330000e-06	-3.317664e-06	-1.327897e-09	-2.408663e+01	-9.004317e+01
1.340000e-06	-3.256676e-06	-1.320240e-09	-2.364385e+01	-8.951988e+01
1.350000e-06	-3.195469e-06	-1.314087e-09	-2.319948e+01	-8.900532e+01
1.360000e-06	-3.134002e-06	-1.303682e-09	-2.275322e+01	-8.849912e+01
1.370000e-06	-3.072248e-06	-1.293255e-09	-2.230488e+01	-8.800073e+01
1.380000e-06	-3.010227e-06	-1.287275e-09	-2.185460e+01	-8.750938e+01
1.390000e-06	-2.948015e-06	-1.284819e-09	-2.140293e+01	-8.702412e+01
1.400000e-06	-2.885531e-06	-1.280557e-09	-2.094929e+01	-8.654381e+01
1.410000e-06	-2.822841e-06	-1.270442e-09	-2.049416e+01	-8.606718e+01
1.420000e-06	-2.760118e-06	-1.259977e-09	-2.003878e+01	-8.559280e+01
1.430000e-06	-2.697234e-06	-1.252366e-09	-1.958223e+01	-8.511911e+01
1.440000e-06	-2.634136e-06	-1.244192e-09	-1.912414e+01	-8.464447e+01
1.450000e-06	-2.570928e-06	-1.235003e-09	-1.866524e+01	-8.416718e+01
1.460000e-06	-2.507527e-06	-1.226402e-09	-1.820494e+01	-8.368545e+01
1.470000e-06	-2.443971e-06	-1.219353e-09	-1.774352e+01	-8.319749e+01
1.480000e-06	-2.380390e-06	-1.211662e-09	-1.728191e+01	-8.270151e+01
1.490000e-06	-2.316709e-06	-1.202088e-09	-1.681958e+01	-8.219572e+01
1.500000e-06	-2.252890e-06	-1.191997e-09	-1.635624e+01	-8.167839e+01
1.510000e-06	-2.188966e-06	-1.182593e-09	-1.589215e+01	-8.114785e+01
1.520000e-06	-2.124820e-06	-1.171302e-09	-1.542644e+01	-8.060252e+01
1.530000e-06	-2.060439e-06	-1.159137e-09	-1.495903e+01	-8.004091e+01
1.540000e-06	-1.995930e-06	-1.147896e-09	-1.449069e+01	-7.946168e+01
1.550000e-06	-1.931316e-06	-1.140383e-09	-1.402158e+01	-7.886361e+01
1.560000e-06	-1.866577e-06	-1.130100e-09	-1.355157e+01	-7.824564e+01
1.570000e-06	-1.801654e-06	-1.116870e-09	-1.308022e+01	-7.760685e+01
1.580000e-06	-1.736632e-06	-1.107599e-09	-1.260815e+01	-7.694653e+01
1.590000e-06	-1.671513e-06	-1.099788e-09	-1.213538e+01	-7.626413e+01
1.600000e-06	-1.606176e-06	-1.091797e-09	-1.166103e+01	-7.555926e+01
1.610000e-06	-1.540622e-06	-1.080720e-09	-1.118510e+01	-7.483175e+01
1.620000e-06	-1.474878e-06	-1.068569e-09	-1.070779e+01	-7.408158e+01
1.630000e-06	-1.409001e-06	-1.054349e-09	-1.022951e+01	-7.330892e+01
1.640000e-06	-1.343021e-06	-1.040295e-09	-9.750487e+00	-7.251410e+01
1.650000e-06	-1.276883e-06	-1.031836e-09	-9.270321e+00	-7.169762e+01
1.660000e-06	-1.210644e-06	-1.024845e-09	-8.789421e+00	-7.086010e+01
1.670000e-06	-1.144381e-06	-1.016044e-09	-8.308344e+00	-7.000232e+01
1.680000e-06	-1.078057e-06	-1.008565e-09	-7.826823e+00	-6.912517e+01
1.690000e-06	-1.011610e-06	-1.000801e-09	-7.344406e+00	-6.822963e+01
1.700000e-06	-9.451270e-07	-9.891779e-10	-6.861733e+00	-6.731677e+01
1.710000e-06	-8.785930e-07	-9.734890e-10	-6.378688e+00	-6.638772e+01
1.720000e-06	-8.119592e-07	-9.580481e-10	-5.894919e+00	-6.544366e+01
1.730000e-06	-7.453245e-07	-9.441392e-10	-5.411143e+00	-6.448577e+01
1.740000e-06	-6.785927e-07	-9.294966e-10	-4.926662e+00	-6.351523e+01
1.750000e-06	-6.117714e-07	-9.149994e-10	-4.441532e+00	-6.253323e+01
1.760000e-06	-5.449414e-07	-9.061588e-10	-3.956339e+00	-6.154087e+01
1.770000e-06	-4.780289e-07	-9.002569e-10	-3.470546e+00	-6.053923e+01
1.780000e-06	-4.110231e-07	-8.894460e-10	-2.984076e+00	-5.952929e+01
1.790000e-06	-3.439756e-07	-8.749995e-10	-2.497303e+00	-5.851192e+01
1.800000e-06	-2.769218e-07	-8.615730e-10	-2.010485e+00	-5.748789e+01
1.810000e-06	-2.098569e-07	-8.464631e-10	-1.523586e+00	-5.645784e+01
1.820000e-06	-1.427514e-07	-8.274299e-10	-1.036392e+00	-5.542228e+01
1.830000e-06	-7.567123e-08	-8.105915e-10	-5.493820e-01	-5.438155e+01
1.840000e-06	-8.644915e-09	-7.971332e-10	-6.276310e-02	-5.333583e+01
1.850000e-06	5.833633e-08	-7.862503e-10	4.235286e-01	-5.228517e+01
1.860000e-06	1.253307e-07	-7.771132e-10	9.099155e-01	-5.122941e+01
1.870000e-06	1.923725e-07	-7.678770e-10	1.396647e+00	-5.016826e+01
1.880000e-06	2.593904e-07	-7.562699e-10	1.883205e+00	-4.910125e+01
1.890000e-06	3.264545e-07	-7.431258e-10	2.370098e+00	-4.802777e+01
1.900000e-06	3.935331e-07	-7.274306e-10	2.857097e+00	-4.694705e+01
1.910000e-06	4.605475e-07	-7.112506e-10	3.343629e+00	-4.585817e+01
1.920000e-06	5.275457e-07	-6.951031e-10	3.830044e+00	-4.476012e+01
1.930000e-06	5.944934e-07	-6.751296e-10	4.316092e+00	-4.365175e+01
1.940000e-06	6.614033e-07	-6.569015e-10	4.801866e+00	-4.253182e+01
1.950000e-06	7.282556e-07	-6.440715e-10	5.287221e+00	-4.139904e+01
1.960000e-06	7.950333e-07	-6.306915e-10	5.772035e+00	-4.025205e+01
1.970000e-06	8.616503e-07	-6.155253e-10	6.255682e+00	-3.908945e+01
1.980000e-06	9.281652e-07	-6.020423e-10	6.738588e+00	-3.790986e+01
1.990000e-06	9.946654e-07	-5.882283e-10	7.221388e+00	-3.671188e+01
2.000000e-06	1.061156e-06	-5.713571e-10	7.704116e+00	-3.549418e+01
2.010000e-06	1.127603e-06	-5.537374e-10	8.186532e+00	-3.425548e+01
2.020000e-06	1.193883e-06	-5.373383e-10	8.667728e+00	-3.299459e+01
2.030000e-06	1.259965e-06	-5.200214e-10	9.147492e+00	-3.171041e+01
2.040000e-06	1.325989e-06	-5.033634e-10	9.626833e+00	-3.040202e+01
2.050000e-06	1.391969e-06	-4.897823e-10	1.010586e+01	-2.906859e+01
2.060000e-06	1.457699e-06	-4.759125e-10	1.058307e+01	-2.770952e+01
2.070000e-06	1.523235e-06	-4.595178e-10	1.105886e+01	-2.632437e+01
2.080000e-06	1.588696e-06	-4.432158e-10	1.153412e+01	-2.491290e+01
2.090000e-06	1.653961e-06	-4.260089e-10	1.200795e+01	-2.347511e+01
2.100000e-06	1.718977e-06	-4.066825e-10	1.247998e+01	-2.201123e+01
2.110000e-06	1.783854e-06	-3.851515e-10	1.295099e+01	-2.052171e+01
2.120000e-06	1.848653e-06	-3.608649e-10	1.342144e+01	-1.900726e+01
2.130000e-06	1.913303e-06	-3.372077e-10	1.389080e+01	-1.746882e+01
2.140000e-06	1.977719e-06	-3.161900e-10	1.435847e+01	-1.590760e+01
2.150000e-06	2.041979e-06	-2.932250e-10	1.482501e+01	-1.432505e+01
2.160000e-06	2.106114e-06	-2.697141e-10	1.529063e+01	-1.272283e+01
2.170000e-06	2.170094e-06	-2.494003e-10	1.575513e+01	-1.110286e+01
2.180000e-06	2.233913e-06	-2.313004e-10	1.621847e+01	-9.467268e+00
2.190000e-06	2.297610e-06	-2.129514e-10	1.668091e+01	-7.818371e+00
2.200000e-06	2.361222e-06	-1.906501e-10	1.714275e+01	-6.158682e+00
2.210000e-06	2.424730e-06	-1.641126e-10	1.760382e+01	-4.490875e+00
2.220000e-06	2.488125e-06	-1.383032e-10	1.806408e+01	-2.817768e+00
2.230000e-06	2.551419e-06	-1.161435e-10	1.852360e+01	-1.142297e+00
2.240000e-06	2.614554e-06	-9.174165e-11	1.898197e+01	5.325087e-01
2.250000e-06	2.677468e-06	-6.772854e-11	1.943874e+01	2.203554e+00
2.260000e-06	2.740149e-06	-5.083234e-11	1.989380e+01	3.867703e+00
2.270000e-06	2.802673e-06	-3.619901e-11	2.034773e+01	5.521812e+00
2.280000e-06	2.865047e-06	-1.593769e-11	2.080058e+01	7.162754e+00
2.290000e-06	2.927195e-06	7.979826e-12	2.125178e+01	8.787451e+00
2.300000e-06	2.989154e-06	2.890265e-11	2.170161e+01	1.039290e+01
2.310000e-06	3.050959e-06	4.803835e-11	2.215032e+01	1.197621e+01
2.320000e-06	3.112571e-06	6.990409e-11	2.259763e+01	1.353461e+01
2.330000e-06	3.174038e-06	9.133874e-11	2.304389e+01	1.506548e+01
2.340000e-06	3.235353e-06	1.097485e-10	2.348904e+01	1.656642e+01
2.350000e-06	3.296446e-06	1.272593e-10	2.393258e+01	1.803518e+01
2.360000e-06	3.357280e-06	1.454681e-10	2.437424e+01	1.946977e+01
2.370000e-06	3.417851e-06	1.629095e-10	2.481400e+01	2.086843e+01
2.380000e-06	3.478151e-06	1.790692e-10	2.525179e+01	2.222965e+01
2.390000e-06	3.538191e-06	1.973738e-10	2.568768e+01	2.355221e+01
2.400000e-06	3.598031e-06	2.158362e-10	2.612213e+01	2.483512e+01
2.410000e-06	3.657714e-06	2.308216e-10	2.655543e+01	2.607773e+01
2.420000e-06	3.717220e-06	2.456581e-10	2.698745e+01	2.727963e+01
2.430000e-06	3.776496e-06	2.642129e-10	2.741781e+01	2.844071e+01
2.440000e-06	3.835531e-06	2.816263e-10	2.784641e+01	2.956116e+01
2.450000e-06	3.894234e-06	2.952204e-10	2.827259e+01	3.064140e+01
2.460000e-06	3.952566e-06	3.096742e-10	2.869609e+01	3.168216e+01
2.470000e-06	4.010467e-06	3.225732e-10	2.911646e+01	3.268439e+01
2.480000e-06	4.067866e-06	3.332771e-10	2.953319e+01	3.364929e+01
2.490000e-06	4.124851e-06	3.451009e-10	2.994690e+01	3.457828e+01
2.500000e-06	4.181471e-06	3.579703e-10	3.035797e+01	3.547296e+01
2.510000e-06	4.237760e-06	3.706407e-10	3.076664e+01	3.633511e+01
2.520000e-06	4.293707e-06	3.821777e-10	3.117282e+01	3.716667e+01
2.530000e-06	4.349378e-06	3.939940e-10	3.157699e+01	3.796970e+01
2.540000e-06	4.404867e-06	4.063175e-10	3.197985e+01	3.874634e+01
2.550000e-06	4.460181e-06	4.176664e-10	3.238144e+01	3.949881e+01
2.560000e-06	4.515278e-06	4.286945e-10	3.278145e+01	4.022938e+01
2.570000e-06	4.570092e-06	4.401065e-10	3.317940e+01	4.094031e+01
2.580000e-06	4.624565e-06	4.506860e-10	3.357489e+01	4.163386e+01
2.590000e-06	4.678680e-06	4.604066e-10	3.396776e+01	4.231222e+01
2.600000e-06	4.732479e-06	4.697323e-10	3.435835e+01	4.297752e+01
2.610000e-06	4.785987e-06	4.809506e-10	3.474683e+01	4.363181e+01
2.620000e-06	4.839171e-06	4.931641e-10	3.513295e+01	4.427698e+01
2.630000e-06	4.891944e-06	5.031629e-10	3.551608e+01	4.491481e+01
2.640000e-06	4.944242e-06	5.123966e-10	3.589578e+01	4.554689e+01
2.650000e-06	4.996151e-06	5.224949e-10	3.627264e+01	4.617464e+01
2.660000e-06	5.047703e-06	5.309820e-10	3.664692e+01	4.679927e+01
2.670000e-06	5.098845e-06	5.383227e-10	3.701822e+01	4.742179e+01
2.680000e-06	5.149438e-06	5.464844e-10	3.738552e+01	4.804300e+01
2.690000e-06	5.199473e-06	5.543197e-10	3.774878e+01	4.866345e+01
2.700000e-06	5.249027e-06	5.604133e-10	3.810856e+01	4.928347e+01
2.710000e-06	5.297974e-06	5.648305e-10	3.846391e+01	4.990318e+01
2.720000e-06	5.346428e-06	5.716460e-10	3.881570e+01	5.052246e+01
2.730000e-06	5.394506e-06	5.814793e-10	3.916475e+01	5.114096e+01
2.740000e-06	5.442218e-06	5.912440e-10	3.951114e+01	5.175815e+01
2.750000e-06	5.489611e-06	5.995758e-10	3.985522e+01	5.237329e+01
2.760000e-06	5.536661e-06	6.053137e-10	4.019681e+01	5.298544e+01
2.770000e-06	5.583291e-06	6.119730e-10	4.053535e+01	5.359353e+01
2.780000e-06	5.629515e-06	6.211620e-10	4.087094e+01	5.419633e+01
2.790000e-06	5.675406e-06	6.294537e-10	4.120411e+01	5.479249e+01
2.800000e-06	5.721018e-06	6.353259e-10	4.153526e+01	5.538056e+01
2.810000e-06	5.766243e-06	6.405978e-10	4.186360e+01	5.595902e+01
2.820000e-06	5.810980e-06	6.479916e-10	4.218840e+01	5.652632e+01
2.830000e-06	5.855409e-06	6.581738e-10	4.251096e+01	5.708086e+01
2.840000e-06	5.899549e-06	6.665543e-10	4.283142e+01	5.762107e+01
2.850000e-06	5.943365e-06	6.719755e-10	4.314953e+01	5.814542e+01
2.860000e-06	5.986843e-06	6.804266e-10	4.346518e+01	5.865242e+01
2.870000e-06	6.029932e-06	6.902332e-10	4.377802e+01	5.914069e+01
2.880000e-06	6.072520e-06	6.962364e-10	4.408720e+01	5.960894e+01
2.890000e-06	6.114373e-06	6.999758e-10	4.439107e+01	6.005605e+01
