# Temperatura_=_20.0
# Concentracion g/m^3_=_10000.0
# C_Vs_to_Am_M_A/Vsm_=_65563218390.804596
# pendiente_HvsI_1/m_=_3716.3
# ordenada_HvsI_A/m_=_1297.0
# frecuencia_Hz_=_135487.08471815352

Tiempo_(s)	Campo_(V.s)	Magnetizacion_(V.s)	Campo_(kA/m)	Magnetizacion_(A/m)
0.000000e+00	-7.824194e-06	-1.421035e-09	-5.691028e+01	-8.056271e+01
1.000000e-08	-7.824273e-06	-1.419839e-09	-5.691086e+01	-8.058583e+01
2.000000e-08	-7.824044e-06	-1.421406e-09	-5.690919e+01	-8.066570e+01
3.000000e-08	-7.823374e-06	-1.426488e-09	-5.690432e+01	-8.080595e+01
4.000000e-08	-7.821883e-06	-1.431420e-09	-5.689347e+01	-8.100980e+01
5.000000e-08	-7.819394e-06	-1.432768e-09	-5.687537e+01	-8.128003e+01
6.000000e-08	-7.816145e-06	-1.430860e-09	-5.685174e+01	-8.161896e+01
7.000000e-08	-7.812514e-06	-1.422499e-09	-5.682533e+01	-8.202841e+01
8.000000e-08	-7.808597e-06	-1.398970e-09	-5.679683e+01	-8.250969e+01
9.000000e-08	-7.804334e-06	-1.384283e-09	-5.676583e+01	-8.306354e+01
1.000000e-07	-7.799434e-06	-1.459156e-09	-5.673019e+01	-8.369016e+01
1.100000e-07	-7.793462e-06	-1.594922e-09	-5.668675e+01	-8.438915e+01
1.200000e-07	-7.786532e-06	-1.616256e-09	-5.663634e+01	-8.515956e+01
1.300000e-07	-7.779024e-06	-1.385841e-09	-5.658173e+01	-8.599985e+01
1.400000e-07	-7.771259e-06	-1.150795e-09	-5.652525e+01	-8.690791e+01
1.500000e-07	-7.763347e-06	-1.375834e-09	-5.646770e+01	-8.788106e+01
1.600000e-07	-7.755150e-06	-1.705596e-09	-5.640808e+01	-8.891609e+01
1.700000e-07	-7.746500e-06	-1.534634e-09	-5.634517e+01	-9.000923e+01
1.800000e-07	-7.737263e-06	-1.177020e-09	-5.627798e+01	-9.115626e+01
1.900000e-07	-7.727089e-06	-1.192188e-09	-5.620397e+01	-9.235245e+01
2.000000e-07	-7.715956e-06	-1.415329e-09	-5.612300e+01	-9.359267e+01
2.100000e-07	-7.704438e-06	-1.582143e-09	-5.603922e+01	-9.487138e+01
2.200000e-07	-7.692479e-06	-1.494775e-09	-5.595223e+01	-9.618270e+01
2.300000e-07	-7.679674e-06	-1.205953e-09	-5.585910e+01	-9.752045e+01
2.400000e-07	-7.666192e-06	-1.180768e-09	-5.576103e+01	-9.887821e+01
2.500000e-07	-7.652415e-06	-1.622786e-09	-5.566082e+01	-1.002493e+02
2.600000e-07	-7.638056e-06	-1.772177e-09	-5.555638e+01	-1.016271e+02
2.700000e-07	-7.622426e-06	-1.345513e-09	-5.544269e+01	-1.030045e+02
2.800000e-07	-7.605951e-06	-1.231470e-09	-5.532286e+01	-1.043749e+02
2.900000e-07	-7.589230e-06	-1.703483e-09	-5.520124e+01	-1.057312e+02
3.000000e-07	-7.571947e-06	-1.866765e-09	-5.507553e+01	-1.070669e+02
3.100000e-07	-7.554126e-06	-1.554381e-09	-5.494591e+01	-1.083751e+02
3.200000e-07	-7.535862e-06	-1.527260e-09	-5.481306e+01	-1.096495e+02
3.300000e-07	-7.516944e-06	-1.787038e-09	-5.467546e+01	-1.108839e+02
3.400000e-07	-7.497483e-06	-1.822109e-09	-5.453390e+01	-1.120725e+02
3.500000e-07	-7.477752e-06	-1.779669e-09	-5.439039e+01	-1.132096e+02
3.600000e-07	-7.457715e-06	-1.738359e-09	-5.424465e+01	-1.142902e+02
3.700000e-07	-7.437158e-06	-1.553639e-09	-5.409512e+01	-1.153096e+02
3.800000e-07	-7.416099e-06	-1.660270e-09	-5.394195e+01	-1.162634e+02
3.900000e-07	-7.394639e-06	-1.934192e-09	-5.378586e+01	-1.171480e+02
4.000000e-07	-7.372567e-06	-1.817711e-09	-5.362531e+01	-1.179602e+02
4.100000e-07	-7.349804e-06	-1.488434e-09	-5.345974e+01	-1.186972e+02
4.200000e-07	-7.326527e-06	-1.640546e-09	-5.329043e+01	-1.193569e+02
4.300000e-07	-7.302892e-06	-1.978286e-09	-5.311852e+01	-1.199379e+02
4.400000e-07	-7.278811e-06	-1.837995e-09	-5.294337e+01	-1.204391e+02
4.500000e-07	-7.254086e-06	-1.490882e-09	-5.276353e+01	-1.208602e+02
4.600000e-07	-7.228924e-06	-1.621590e-09	-5.258051e+01	-1.212014e+02
4.700000e-07	-7.203267e-06	-1.884194e-09	-5.239389e+01	-1.214634e+02
4.800000e-07	-7.176761e-06	-1.740391e-09	-5.220109e+01	-1.216475e+02
4.900000e-07	-7.149477e-06	-1.552830e-09	-5.200264e+01	-1.217557e+02
5.000000e-07	-7.121782e-06	-1.658016e-09	-5.180120e+01	-1.217901e+02
5.100000e-07	-7.093800e-06	-1.723720e-09	-5.159767e+01	-1.217537e+02
5.200000e-07	-7.065411e-06	-1.694807e-09	-5.139117e+01	-1.216495e+02
5.300000e-07	-7.036564e-06	-1.709427e-09	-5.118136e+01	-1.214814e+02
5.400000e-07	-7.007167e-06	-1.633383e-09	-5.096753e+01	-1.212531e+02
5.500000e-07	-6.977173e-06	-1.577084e-09	-5.074937e+01	-1.209692e+02
5.600000e-07	-6.946725e-06	-1.718851e-09	-5.052790e+01	-1.206340e+02
5.700000e-07	-6.915817e-06	-1.768402e-09	-5.030309e+01	-1.202525e+02
5.800000e-07	-6.884439e-06	-1.592334e-09	-5.007485e+01	-1.198294e+02
5.900000e-07	-6.852690e-06	-1.551306e-09	-4.984392e+01	-1.193700e+02
6.000000e-07	-6.820656e-06	-1.699301e-09	-4.961091e+01	-1.188793e+02
6.100000e-07	-6.788189e-06	-1.743699e-09	-4.937477e+01	-1.183625e+02
6.200000e-07	-6.755108e-06	-1.625296e-09	-4.913415e+01	-1.178247e+02
6.300000e-07	-6.721361e-06	-1.569011e-09	-4.888869e+01	-1.172710e+02
6.400000e-07	-6.686985e-06	-1.649658e-09	-4.863864e+01	-1.167062e+02
6.500000e-07	-6.652051e-06	-1.717515e-09	-4.838455e+01	-1.161351e+02
6.600000e-07	-6.616532e-06	-1.646518e-09	-4.812620e+01	-1.155622e+02
6.700000e-07	-6.580588e-06	-1.579001e-09	-4.786475e+01	-1.149917e+02
6.800000e-07	-6.544296e-06	-1.616604e-09	-4.760078e+01	-1.144278e+02
6.900000e-07	-6.507553e-06	-1.663056e-09	-4.733352e+01	-1.138740e+02
7.000000e-07	-6.470304e-06	-1.641200e-09	-4.706259e+01	-1.133337e+02
7.100000e-07	-6.432627e-06	-1.615096e-09	-4.678854e+01	-1.128098e+02
7.200000e-07	-6.394499e-06	-1.598454e-09	-4.651121e+01	-1.123050e+02
7.300000e-07	-6.355838e-06	-1.610138e-09	-4.623000e+01	-1.118213e+02
7.400000e-07	-6.316794e-06	-1.648528e-09	-4.594601e+01	-1.113606e+02
7.500000e-07	-6.277420e-06	-1.638777e-09	-4.565962e+01	-1.109243e+02
7.600000e-07	-6.237733e-06	-1.572053e-09	-4.537095e+01	-1.105132e+02
7.700000e-07	-6.197757e-06	-1.575113e-09	-4.508018e+01	-1.101280e+02
7.800000e-07	-6.157384e-06	-1.635154e-09	-4.478652e+01	-1.097686e+02
7.900000e-07	-6.116471e-06	-1.620185e-09	-4.448894e+01	-1.094350e+02
8.000000e-07	-6.074809e-06	-1.553863e-09	-4.418590e+01	-1.091264e+02
8.100000e-07	-6.032447e-06	-1.557439e-09	-4.387778e+01	-1.088419e+02
8.200000e-07	-5.989563e-06	-1.603970e-09	-4.356586e+01	-1.085802e+02
8.300000e-07	-5.946221e-06	-1.596839e-09	-4.325060e+01	-1.083397e+02
8.400000e-07	-5.902494e-06	-1.555156e-09	-4.293255e+01	-1.081184e+02
8.500000e-07	-5.858375e-06	-1.545816e-09	-4.261164e+01	-1.079144e+02
8.600000e-07	-5.813906e-06	-1.565732e-09	-4.228819e+01	-1.077253e+02
8.700000e-07	-5.769055e-06	-1.567201e-09	-4.196196e+01	-1.075486e+02
8.800000e-07	-5.723889e-06	-1.546114e-09	-4.163345e+01	-1.073816e+02
8.900000e-07	-5.678381e-06	-1.524608e-09	-4.130243e+01	-1.072217e+02
9.000000e-07	-5.632366e-06	-1.527437e-09	-4.096774e+01	-1.070662e+02
9.100000e-07	-5.585947e-06	-1.541524e-09	-4.063011e+01	-1.069121e+02
9.200000e-07	-5.539211e-06	-1.541848e-09	-4.029016e+01	-1.067567e+02
9.300000e-07	-5.492085e-06	-1.516213e-09	-3.994739e+01	-1.065974e+02
9.400000e-07	-5.444626e-06	-1.499019e-09	-3.960219e+01	-1.064313e+02
9.500000e-07	-5.396858e-06	-1.512319e-09	-3.925474e+01	-1.062561e+02
9.600000e-07	-5.348550e-06	-1.526654e-09	-3.890336e+01	-1.060693e+02
9.700000e-07	-5.299612e-06	-1.501757e-09	-3.854741e+01	-1.058686e+02
9.800000e-07	-5.250149e-06	-1.472071e-09	-3.818763e+01	-1.056520e+02
9.900000e-07	-5.200160e-06	-1.478238e-09	-3.782403e+01	-1.054177e+02
1.000000e-06	-5.149632e-06	-1.495517e-09	-3.745651e+01	-1.051642e+02
1.010000e-06	-5.098686e-06	-1.479811e-09	-3.708595e+01	-1.048900e+02
1.020000e-06	-5.047319e-06	-1.452868e-09	-3.671232e+01	-1.045940e+02
1.030000e-06	-4.995580e-06	-1.449363e-09	-3.633599e+01	-1.042755e+02
1.040000e-06	-4.943511e-06	-1.460422e-09	-3.595726e+01	-1.039339e+02
1.050000e-06	-4.891089e-06	-1.456493e-09	-3.557596e+01	-1.035688e+02
1.060000e-06	-4.838282e-06	-1.438410e-09	-3.519187e+01	-1.031803e+02
1.070000e-06	-4.784956e-06	-1.425109e-09	-3.480400e+01	-1.027685e+02
1.080000e-06	-4.731229e-06	-1.425947e-09	-3.441320e+01	-1.023340e+02
1.090000e-06	-4.677220e-06	-1.430025e-09	-3.402036e+01	-1.018774e+02
1.100000e-06	-4.622827e-06	-1.419645e-09	-3.362472e+01	-1.013997e+02
1.110000e-06	-4.568043e-06	-1.400988e-09	-3.322625e+01	-1.009020e+02
1.120000e-06	-4.513004e-06	-1.393607e-09	-3.282591e+01	-1.003856e+02
1.130000e-06	-4.457775e-06	-1.397934e-09	-3.242420e+01	-9.985191e+01
1.140000e-06	-4.402399e-06	-1.393265e-09	-3.202141e+01	-9.930262e+01
1.150000e-06	-4.346804e-06	-1.373444e-09	-3.161703e+01	-9.873942e+01
1.160000e-06	-4.290913e-06	-1.358197e-09	-3.121051e+01	-9.816408e+01
1.170000e-06	-4.234746e-06	-1.361482e-09	-3.080197e+01	-9.757846e+01
1.180000e-06	-4.178367e-06	-1.361321e-09	-3.039189e+01	-9.698444e+01
1.190000e-06	-4.121697e-06	-1.347390e-09	-2.997969e+01	-9.638389e+01
1.200000e-06	-4.064583e-06	-1.333035e-09	-2.956426e+01	-9.577867e+01
1.210000e-06	-4.007085e-06	-1.330479e-09	-2.914604e+01	-9.517058e+01
1.220000e-06	-3.949134e-06	-1.329699e-09	-2.872453e+01	-9.456136e+01
1.230000e-06	-3.890716e-06	-1.320205e-09	-2.829963e+01	-9.395264e+01
1.240000e-06	-3.831985e-06	-1.307519e-09	-2.787243e+01	-9.334592e+01
1.250000e-06	-3.772918e-06	-1.301796e-09	-2.744281e+01	-9.274260e+01
1.260000e-06	-3.713572e-06	-1.299014e-09	-2.701114e+01	-9.214388e+01
1.270000e-06	-3.654050e-06	-1.293731e-09	-2.657820e+01	-9.155082e+01
1.280000e-06	-3.594266e-06	-1.281970e-09	-2.614336e+01	-9.096428e+01
1.290000e-06	-3.534251e-06	-1.270262e-09	-2.570683e+01	-9.038494e+01
1.300000e-06	-3.474038e-06	-1.267118e-09	-2.526886e+01	-8.981326e+01
1.310000e-06	-3.413574e-06	-1.265850e-09	-2.482907e+01	-8.924953e+01
1.320000e-06	-3.352884e-06	-1.255137e-09	-2.438764e+01	-8.869380e+01
1.330000e-06	-3.292076e-06	-1.242834e-09	-2.394534e+01	-8.814594e+01
1.340000e-06	-3.231121e-06	-1.239102e-09	-2.350198e+01	-8.760560e+01
1.350000e-06	-3.169952e-06	-1.235228e-09	-2.305705e+01	-8.707225e+01
1.360000e-06	-3.108560e-06	-1.223970e-09	-2.261051e+01	-8.654519e+01
1.370000e-06	-3.046890e-06	-1.213602e-09	-2.216195e+01	-8.602351e+01
1.380000e-06	-2.984953e-06	-1.212418e-09	-2.171144e+01	-8.550617e+01
1.390000e-06	-2.922783e-06	-1.211496e-09	-2.125924e+01	-8.499198e+01
1.400000e-06	-2.860327e-06	-1.201830e-09	-2.080495e+01	-8.447962e+01
1.410000e-06	-2.797713e-06	-1.189514e-09	-2.034953e+01	-8.396768e+01
1.420000e-06	-2.735003e-06	-1.182014e-09	-1.989339e+01	-8.345463e+01
1.430000e-06	-2.672124e-06	-1.175902e-09	-1.943604e+01	-8.293891e+01
1.440000e-06	-2.609106e-06	-1.167086e-09	-1.897767e+01	-8.241889e+01
1.450000e-06	-2.545914e-06	-1.155835e-09	-1.851803e+01	-8.189292e+01
1.460000e-06	-2.482573e-06	-1.147340e-09	-1.805731e+01	-8.135936e+01
1.470000e-06	-2.419138e-06	-1.141610e-09	-1.759591e+01	-8.081658e+01
1.480000e-06	-2.355600e-06	-1.132675e-09	-1.713376e+01	-8.026300e+01
1.490000e-06	-2.291964e-06	-1.118657e-09	-1.667089e+01	-7.969707e+01
1.500000e-06	-2.228253e-06	-1.105474e-09	-1.620749e+01	-7.911736e+01
1.510000e-06	-2.164398e-06	-1.097904e-09	-1.574303e+01	-7.852251e+01
1.520000e-06	-2.100326e-06	-1.092944e-09	-1.527699e+01	-7.791128e+01
1.530000e-06	-2.036042e-06	-1.082579e-09	-1.480942e+01	-7.728254e+01
1.540000e-06	-1.971631e-06	-1.068863e-09	-1.434091e+01	-7.663533e+01
1.550000e-06	-1.907047e-06	-1.056815e-09	-1.387115e+01	-7.596879e+01
1.560000e-06	-1.842249e-06	-1.044471e-09	-1.339984e+01	-7.528226e+01
1.570000e-06	-1.777367e-06	-1.030137e-09	-1.292791e+01	-7.457522e+01
1.580000e-06	-1.712289e-06	-1.015428e-09	-1.245455e+01	-7.384729e+01
1.590000e-06	-1.647008e-06	-1.002591e-09	-1.197973e+01	-7.309829e+01
1.600000e-06	-1.581699e-06	-9.917655e-10	-1.150469e+01	-7.232818e+01
1.610000e-06	-1.516278e-06	-9.794427e-10	-1.102884e+01	-7.153707e+01
1.620000e-06	-1.450691e-06	-9.645449e-10	-1.055179e+01	-7.072523e+01
1.630000e-06	-1.384953e-06	-9.475842e-10	-1.007363e+01	-6.989306e+01
1.640000e-06	-1.319050e-06	-9.388497e-10	-9.594277e+00	-6.904110e+01
1.650000e-06	-1.252937e-06	-9.378681e-10	-9.113398e+00	-6.817001e+01
1.660000e-06	-1.186643e-06	-9.300863e-10	-8.631202e+00	-6.728053e+01
1.670000e-06	-1.120273e-06	-9.185509e-10	-8.148449e+00	-6.637351e+01
1.680000e-06	-1.053866e-06	-9.065159e-10	-7.665433e+00	-6.544985e+01
1.690000e-06	-9.874267e-07	-8.942309e-10	-7.182175e+00	-6.451052e+01
1.700000e-06	-9.209172e-07	-8.781059e-10	-6.698410e+00	-6.355652e+01
1.710000e-06	-8.543678e-07	-8.615797e-10	-6.214354e+00	-6.258886e+01
1.720000e-06	-7.877888e-07	-8.479249e-10	-5.730083e+00	-6.160854e+01
1.730000e-06	-7.211351e-07	-8.366376e-10	-5.245269e+00	-6.061654e+01
1.740000e-06	-6.544776e-07	-8.261458e-10	-4.760427e+00	-5.961382e+01
1.750000e-06	-5.877542e-07	-8.143592e-10	-4.275106e+00	-5.860125e+01
1.760000e-06	-5.209006e-07	-8.055129e-10	-3.788838e+00	-5.757965e+01
1.770000e-06	-4.540578e-07	-7.970554e-10	-3.302648e+00	-5.654973e+01
1.780000e-06	-3.872399e-07	-7.813771e-10	-2.816639e+00	-5.551210e+01
1.790000e-06	-3.203536e-07	-7.632463e-10	-2.330133e+00	-5.446728e+01
1.800000e-06	-2.534067e-07	-7.492500e-10	-1.843187e+00	-5.341561e+01
1.810000e-06	-1.863730e-07	-7.361281e-10	-1.355608e+00	-5.235735e+01
1.820000e-06	-1.192977e-07	-7.187172e-10	-8.677272e-01	-5.129257e+01
1.830000e-06	-5.224769e-08	-7.031122e-10	-3.800303e-01	-5.022123e+01
1.840000e-06	1.474815e-08	-6.931828e-10	1.072726e-01	-4.914313e+01
1.850000e-06	8.165773e-08	-6.841756e-10	5.939480e-01	-4.805792e+01
1.860000e-06	1.485399e-07	-6.731985e-10	1.080424e+00	-4.696509e+01
1.870000e-06	2.154114e-07	-6.599008e-10	1.566822e+00	-4.586403e+01
1.880000e-06	2.823039e-07	-6.443444e-10	2.053374e+00	-4.475397e+01
1.890000e-06	3.492014e-07	-6.286781e-10	2.539961e+00	-4.363402e+01
1.900000e-06	4.160998e-07	-6.127117e-10	3.026555e+00	-4.250319e+01
1.910000e-06	4.830818e-07	-5.954583e-10	3.513757e+00	-4.136040e+01
1.920000e-06	5.500260e-07	-5.796246e-10	4.000685e+00	-4.020448e+01
1.930000e-06	6.167506e-07	-5.626991e-10	4.486015e+00	-3.903420e+01
1.940000e-06	6.834124e-07	-5.454275e-10	4.970888e+00	-3.784827e+01
1.950000e-06	7.500553e-07	-5.274447e-10	5.455624e+00	-3.664542e+01
1.960000e-06	8.166042e-07	-5.110470e-10	5.939676e+00	-3.542434e+01
1.970000e-06	8.830783e-07	-4.968427e-10	6.423183e+00	-3.418375e+01
1.980000e-06	9.494063e-07	-4.809410e-10	6.905629e+00	-3.292241e+01
1.990000e-06	1.015633e-06	-4.626550e-10	7.387336e+00	-3.163913e+01
2.000000e-06	1.081865e-06	-4.450936e-10	7.869087e+00	-3.033283e+01
2.010000e-06	1.148055e-06	-4.284026e-10	8.350523e+00	-2.900251e+01
2.020000e-06	1.214112e-06	-4.114821e-10	8.831000e+00	-2.764731e+01
2.030000e-06	1.280040e-06	-3.936142e-10	9.310539e+00	-2.626649e+01
2.040000e-06	1.345812e-06	-3.763261e-10	9.788937e+00	-2.485950e+01
2.050000e-06	1.411504e-06	-3.606914e-10	1.026675e+01	-2.342594e+01
2.060000e-06	1.477063e-06	-3.447288e-10	1.074361e+01	-2.196562e+01
2.070000e-06	1.542430e-06	-3.262821e-10	1.121907e+01	-2.047854e+01
2.080000e-06	1.607795e-06	-3.076211e-10	1.169450e+01	-1.896491e+01
2.090000e-06	1.672998e-06	-2.886609e-10	1.216876e+01	-1.742518e+01
2.100000e-06	1.737894e-06	-2.691889e-10	1.264080e+01	-1.586000e+01
2.110000e-06	1.802662e-06	-2.478136e-10	1.311189e+01	-1.427026e+01
2.120000e-06	1.867274e-06	-2.245358e-10	1.358186e+01	-1.265708e+01
2.130000e-06	1.931740e-06	-2.035671e-10	1.405076e+01	-1.102179e+01
2.140000e-06	1.996128e-06	-1.826428e-10	1.451909e+01	-9.365954e+00
2.150000e-06	2.060309e-06	-1.591586e-10	1.498592e+01	-7.691336e+00
2.160000e-06	2.124311e-06	-1.362397e-10	1.545145e+01	-5.999903e+00
2.170000e-06	2.188184e-06	-1.160536e-10	1.591604e+01	-4.293808e+00
2.180000e-06	2.251889e-06	-9.569571e-11	1.637941e+01	-2.575373e+00
2.190000e-06	2.315463e-06	-7.294554e-11	1.684182e+01	-8.470769e-01
2.200000e-06	2.378921e-06	-4.775148e-11	1.730339e+01	8.884720e-01
2.210000e-06	2.442293e-06	-2.287119e-11	1.776433e+01	2.628551e+00
2.220000e-06	2.505564e-06	5.265198e-13	1.822454e+01	4.370349e+00
2.230000e-06	2.568677e-06	2.457222e-11	1.868360e+01	6.110987e+00
2.240000e-06	2.631653e-06	4.926667e-11	1.914167e+01	7.847550e+00
2.250000e-06	2.694484e-06	7.108121e-11	1.959867e+01	9.577104e+00
2.260000e-06	2.757120e-06	9.033068e-11	2.005426e+01	1.129673e+01
2.270000e-06	2.819465e-06	1.116814e-10	2.050774e+01	1.300353e+01
2.280000e-06	2.881548e-06	1.379348e-10	2.095931e+01	1.469470e+01
2.290000e-06	2.943461e-06	1.635727e-10	2.140964e+01	1.636750e+01
2.300000e-06	3.005174e-06	1.846981e-10	2.185852e+01	1.801930e+01
2.310000e-06	3.066753e-06	2.062240e-10	2.230642e+01	1.964762e+01
2.320000e-06	3.128202e-06	2.320842e-10	2.275338e+01	2.125013e+01
2.330000e-06	3.189488e-06	2.564859e-10	2.319915e+01	2.282466e+01
2.340000e-06	3.250581e-06	2.751436e-10	2.364352e+01	2.436926e+01
2.350000e-06	3.311431e-06	2.922067e-10	2.408612e+01	2.588218e+01
2.360000e-06	3.372074e-06	3.124873e-10	2.452721e+01	2.736189e+01
2.370000e-06	3.432469e-06	3.327303e-10	2.496650e+01	2.880711e+01
2.380000e-06	3.492543e-06	3.501077e-10	2.540346e+01	3.021676e+01
2.390000e-06	3.552426e-06	3.663866e-10	2.583902e+01	3.159007e+01
2.400000e-06	3.612123e-06	3.837044e-10	2.627324e+01	3.292647e+01
2.410000e-06	3.671601e-06	4.025015e-10	2.670586e+01	3.422567e+01
2.420000e-06	3.730817e-06	4.205158e-10	2.713657e+01	3.548762e+01
2.430000e-06	3.789736e-06	4.372570e-10	2.756513e+01	3.671251e+01
2.440000e-06	3.848439e-06	4.531801e-10	2.799211e+01	3.790076e+01
2.450000e-06	3.906818e-06	4.693063e-10	2.841674e+01	3.905303e+01
2.460000e-06	3.964838e-06	4.833025e-10	2.883876e+01	4.017018e+01
2.470000e-06	4.022478e-06	4.946076e-10	2.925801e+01	4.125326e+01
2.480000e-06	4.079620e-06	5.072560e-10	2.967364e+01	4.230350e+01
2.490000e-06	4.136321e-06	5.218724e-10	3.008606e+01	4.332229e+01
2.500000e-06	4.192685e-06	5.350586e-10	3.049603e+01	4.431116e+01
2.510000e-06	4.248769e-06	5.465789e-10	3.090397e+01	4.527175e+01
2.520000e-06	4.304580e-06	5.575699e-10	3.130991e+01	4.620578e+01
2.530000e-06	4.360093e-06	5.689889e-10	3.171369e+01	4.711505e+01
2.540000e-06	4.415350e-06	5.800801e-10	3.211561e+01	4.800141e+01
2.550000e-06	4.470364e-06	5.899913e-10	3.251577e+01	4.886669e+01
2.560000e-06	4.525133e-06	6.001746e-10	3.291414e+01	4.971275e+01
2.570000e-06	4.579634e-06	6.105361e-10	3.331055e+01	5.054141e+01
2.580000e-06	4.633772e-06	6.196921e-10	3.370434e+01	5.135441e+01
2.590000e-06	4.687628e-06	6.284045e-10	3.409607e+01	5.215344e+01
2.600000e-06	4.741269e-06	6.377540e-10	3.448623e+01	5.294008e+01
2.610000e-06	4.794590e-06	6.499774e-10	3.487407e+01	5.371579e+01
2.620000e-06	4.847534e-06	6.640737e-10	3.525916e+01	5.448191e+01
2.630000e-06	4.900103e-06	6.759075e-10	3.564153e+01	5.523961e+01
2.640000e-06	4.952307e-06	6.846377e-10	3.602124e+01	5.598992e+01
2.650000e-06	5.004061e-06	6.927387e-10	3.639768e+01	5.673367e+01
2.660000e-06	5.055315e-06	7.018685e-10	3.677048e+01	5.747153e+01
2.670000e-06	5.106048e-06	7.104568e-10	3.713950e+01	5.820397e+01
2.680000e-06	5.156264e-06	7.156030e-10	3.750475e+01	5.893129e+01
2.690000e-06	5.205891e-06	7.206055e-10	3.786572e+01	5.965358e+01
2.700000e-06	5.255024e-06	7.287531e-10	3.822309e+01	6.037076e+01
2.710000e-06	5.303781e-06	7.367797e-10	3.857773e+01	6.108256e+01
2.720000e-06	5.352064e-06	7.447488e-10	3.892892e+01	6.178855e+01
2.730000e-06	5.399949e-06	7.530512e-10	3.927722e+01	6.248812e+01
2.740000e-06	5.447523e-06	7.618359e-10	3.962326e+01	6.318055e+01
2.750000e-06	5.494777e-06	7.697629e-10	3.996697e+01	6.386494e+01
2.760000e-06	5.541751e-06	7.770850e-10	4.030864e+01	6.454032e+01
2.770000e-06	5.588371e-06	7.837778e-10	4.064773e+01	6.520559e+01
2.780000e-06	5.634492e-06	7.927105e-10	4.098320e+01	6.585959e+01
2.790000e-06	5.680175e-06	7.994885e-10	4.131549e+01	6.650111e+01
2.800000e-06	5.725407e-06	8.048799e-10	4.164448e+01	6.712890e+01
2.810000e-06	5.770180e-06	8.105357e-10	4.197015e+01	6.774170e+01
2.820000e-06	5.814624e-06	8.190874e-10	4.229342e+01	6.833827e+01
2.830000e-06	5.858835e-06	8.293565e-10	4.261499e+01	6.891741e+01
2.840000e-06	5.902806e-06	8.367452e-10	4.293482e+01	6.947797e+01
2.850000e-06	5.946501e-06	8.446211e-10	4.325264e+01	7.001888e+01
2.860000e-06	5.989801e-06	8.550910e-10	4.356759e+01	7.053919e+01
2.870000e-06	6.032596e-06	8.650906e-10	4.387886e+01	7.103806e+01
2.880000e-06	6.074842e-06	8.720847e-10	4.418615e+01	7.151479e+01
2.890000e-06	6.116391e-06	8.782076e-10	4.448836e+01	7.196882e+01
2.900000e-06	6.157297e-06	8.863168e-10	4.478589e+01	7.239979e+01
