# Temperatura_=_20.0
# Concentracion g/m^3_=_9000.0
# C_Vs_to_Am_M_A/Vsm_=_65563218390.804596
# pendiente_HvsI_1/m_=_3716.3
# ordenada_HvsI_A/m_=_1297.0
# frecuencia_Hz_=_135297.96969897466

Tiempo_(s)	Campo_(V.s)	Magnetizacion_(V.s)	Campo_(kA/m)	Magnetizacion_(A/m)
0.000000e+00	-6.491076e-06	-4.387980e-09	-4.763390e+01	-2.823642e+02
1.000000e-08	-6.491232e-06	-4.386957e-09	-4.763504e+01	-2.823906e+02
2.000000e-08	-6.491040e-06	-4.387624e-09	-4.763364e+01	-2.824079e+02
3.000000e-08	-6.490435e-06	-4.388573e-09	-4.762919e+01	-2.824152e+02
4.000000e-08	-6.489252e-06	-4.388307e-09	-4.762052e+01	-2.824117e+02
5.000000e-08	-6.487399e-06	-4.387991e-09	-4.760691e+01	-2.823969e+02
6.000000e-08	-6.484951e-06	-4.386808e-09	-4.758895e+01	-2.823702e+02
7.000000e-08	-6.481930e-06	-4.390058e-09	-4.756678e+01	-2.823310e+02
8.000000e-08	-6.478385e-06	-4.396114e-09	-4.754077e+01	-2.822791e+02
9.000000e-08	-6.474400e-06	-4.377693e-09	-4.751153e+01	-2.822141e+02
1.000000e-07	-6.469886e-06	-4.339818e-09	-4.747840e+01	-2.821358e+02
1.100000e-07	-6.464786e-06	-4.333283e-09	-4.744097e+01	-2.820443e+02
1.200000e-07	-6.459186e-06	-4.390937e-09	-4.739988e+01	-2.819397e+02
1.300000e-07	-6.453209e-06	-4.416348e-09	-4.735601e+01	-2.818221e+02
1.400000e-07	-6.446878e-06	-4.358179e-09	-4.730956e+01	-2.816919e+02
1.500000e-07	-6.440136e-06	-4.291671e-09	-4.726008e+01	-2.815496e+02
1.600000e-07	-6.433015e-06	-4.341579e-09	-4.720783e+01	-2.813957e+02
1.700000e-07	-6.425496e-06	-4.413718e-09	-4.715265e+01	-2.812308e+02
1.800000e-07	-6.417637e-06	-4.387889e-09	-4.709497e+01	-2.810559e+02
1.900000e-07	-6.409515e-06	-4.303713e-09	-4.703537e+01	-2.808717e+02
2.000000e-07	-6.401103e-06	-4.290397e-09	-4.697364e+01	-2.806792e+02
2.100000e-07	-6.392172e-06	-4.318401e-09	-4.690810e+01	-2.804793e+02
2.200000e-07	-6.382462e-06	-4.342862e-09	-4.683685e+01	-2.802732e+02
2.300000e-07	-6.372040e-06	-4.293266e-09	-4.676037e+01	-2.800620e+02
2.400000e-07	-6.360956e-06	-4.224353e-09	-4.667903e+01	-2.798466e+02
2.500000e-07	-6.349350e-06	-4.226869e-09	-4.659386e+01	-2.796284e+02
2.600000e-07	-6.337264e-06	-4.322220e-09	-4.650517e+01	-2.794083e+02
2.700000e-07	-6.324569e-06	-4.298372e-09	-4.641201e+01	-2.791874e+02
2.800000e-07	-6.311406e-06	-4.160010e-09	-4.631542e+01	-2.789667e+02
2.900000e-07	-6.297767e-06	-4.154644e-09	-4.621532e+01	-2.787473e+02
3.000000e-07	-6.283540e-06	-4.280829e-09	-4.611092e+01	-2.785299e+02
3.100000e-07	-6.268800e-06	-4.249347e-09	-4.600275e+01	-2.783155e+02
3.200000e-07	-6.253448e-06	-4.103750e-09	-4.589010e+01	-2.781047e+02
3.300000e-07	-6.237447e-06	-4.105393e-09	-4.577268e+01	-2.778980e+02
3.400000e-07	-6.220858e-06	-4.170221e-09	-4.565094e+01	-2.776959e+02
3.500000e-07	-6.203778e-06	-4.136427e-09	-4.552560e+01	-2.774987e+02
3.600000e-07	-6.186424e-06	-4.065692e-09	-4.539825e+01	-2.773066e+02
3.700000e-07	-6.168742e-06	-4.084639e-09	-4.526849e+01	-2.771197e+02
3.800000e-07	-6.150643e-06	-4.082316e-09	-4.513568e+01	-2.769376e+02
3.900000e-07	-6.132040e-06	-4.108465e-09	-4.499916e+01	-2.767603e+02
4.000000e-07	-6.112983e-06	-4.146312e-09	-4.485931e+01	-2.765872e+02
4.100000e-07	-6.093560e-06	-4.131294e-09	-4.471678e+01	-2.764177e+02
4.200000e-07	-6.073736e-06	-4.071429e-09	-4.457130e+01	-2.762510e+02
4.300000e-07	-6.053580e-06	-4.123547e-09	-4.442339e+01	-2.760864e+02
4.400000e-07	-6.033120e-06	-4.188523e-09	-4.427325e+01	-2.759228e+02
4.500000e-07	-6.012416e-06	-4.137585e-09	-4.412131e+01	-2.757591e+02
4.600000e-07	-5.991341e-06	-4.055553e-09	-4.396666e+01	-2.755939e+02
4.700000e-07	-5.969798e-06	-4.118701e-09	-4.380857e+01	-2.754260e+02
4.800000e-07	-5.947792e-06	-4.184780e-09	-4.364708e+01	-2.752541e+02
4.900000e-07	-5.925386e-06	-4.115137e-09	-4.348266e+01	-2.750764e+02
5.000000e-07	-5.902672e-06	-4.028838e-09	-4.331598e+01	-2.748917e+02
5.100000e-07	-5.879549e-06	-4.083059e-09	-4.314629e+01	-2.746983e+02
5.200000e-07	-5.856002e-06	-4.135195e-09	-4.297349e+01	-2.744947e+02
5.300000e-07	-5.832077e-06	-4.078265e-09	-4.279792e+01	-2.742793e+02
5.400000e-07	-5.807767e-06	-4.030847e-09	-4.261953e+01	-2.740507e+02
5.500000e-07	-5.783105e-06	-4.059685e-09	-4.243855e+01	-2.738073e+02
5.600000e-07	-5.757920e-06	-4.072023e-09	-4.225373e+01	-2.735479e+02
5.700000e-07	-5.732048e-06	-4.056471e-09	-4.206388e+01	-2.732711e+02
5.800000e-07	-5.705624e-06	-4.047441e-09	-4.186997e+01	-2.729757e+02
5.900000e-07	-5.678647e-06	-4.015446e-09	-4.167200e+01	-2.726606e+02
6.000000e-07	-5.651173e-06	-4.008027e-09	-4.147038e+01	-2.723250e+02
6.100000e-07	-5.623413e-06	-4.046222e-09	-4.126667e+01	-2.719680e+02
6.200000e-07	-5.595376e-06	-4.042542e-09	-4.106092e+01	-2.715891e+02
6.300000e-07	-5.567022e-06	-3.980175e-09	-4.085285e+01	-2.711877e+02
6.400000e-07	-5.538307e-06	-3.975918e-09	-4.064213e+01	-2.707637e+02
6.500000e-07	-5.509276e-06	-4.017005e-09	-4.042909e+01	-2.703169e+02
6.600000e-07	-5.479878e-06	-4.014713e-09	-4.021336e+01	-2.698473e+02
6.700000e-07	-5.449974e-06	-3.961471e-09	-3.999391e+01	-2.693553e+02
6.800000e-07	-5.419659e-06	-3.947595e-09	-3.977145e+01	-2.688414e+02
6.900000e-07	-5.389037e-06	-3.969646e-09	-3.954673e+01	-2.683061e+02
7.000000e-07	-5.358145e-06	-3.979426e-09	-3.932003e+01	-2.677502e+02
7.100000e-07	-5.326914e-06	-3.944940e-09	-3.909085e+01	-2.671747e+02
7.200000e-07	-5.295266e-06	-3.928077e-09	-3.885861e+01	-2.665806e+02
7.300000e-07	-5.263293e-06	-3.935634e-09	-3.862397e+01	-2.659693e+02
7.400000e-07	-5.231095e-06	-3.939176e-09	-3.838770e+01	-2.653420e+02
7.500000e-07	-5.198596e-06	-3.923235e-09	-3.814920e+01	-2.647002e+02
7.600000e-07	-5.165685e-06	-3.911612e-09	-3.790769e+01	-2.640453e+02
7.700000e-07	-5.132242e-06	-3.895273e-09	-3.766227e+01	-2.633790e+02
7.800000e-07	-5.098240e-06	-3.890106e-09	-3.741276e+01	-2.627029e+02
7.900000e-07	-5.063763e-06	-3.894884e-09	-3.715975e+01	-2.620186e+02
8.000000e-07	-5.028798e-06	-3.882510e-09	-3.690317e+01	-2.613277e+02
8.100000e-07	-4.993381e-06	-3.856676e-09	-3.664326e+01	-2.606318e+02
8.200000e-07	-4.957631e-06	-3.859929e-09	-3.638091e+01	-2.599324e+02
8.300000e-07	-4.921597e-06	-3.872213e-09	-3.611648e+01	-2.592310e+02
8.400000e-07	-4.885325e-06	-3.855295e-09	-3.585031e+01	-2.585289e+02
8.500000e-07	-4.848794e-06	-3.832066e-09	-3.558223e+01	-2.578274e+02
8.600000e-07	-4.811975e-06	-3.830373e-09	-3.531204e+01	-2.571275e+02
8.700000e-07	-4.774858e-06	-3.831168e-09	-3.503966e+01	-2.564302e+02
8.800000e-07	-4.737400e-06	-3.810187e-09	-3.476478e+01	-2.557363e+02
8.900000e-07	-4.699611e-06	-3.790066e-09	-3.448747e+01	-2.550463e+02
9.000000e-07	-4.661481e-06	-3.785998e-09	-3.420766e+01	-2.543606e+02
9.100000e-07	-4.623011e-06	-3.788898e-09	-3.392535e+01	-2.536794e+02
9.200000e-07	-4.584239e-06	-3.776226e-09	-3.364083e+01	-2.530027e+02
9.300000e-07	-4.545169e-06	-3.762963e-09	-3.335412e+01	-2.523302e+02
9.400000e-07	-4.505817e-06	-3.756826e-09	-3.306534e+01	-2.516614e+02
9.500000e-07	-4.466235e-06	-3.755858e-09	-3.277487e+01	-2.509956e+02
9.600000e-07	-4.426369e-06	-3.741070e-09	-3.248232e+01	-2.503321e+02
9.700000e-07	-4.386183e-06	-3.722123e-09	-3.218742e+01	-2.496695e+02
9.800000e-07	-4.345659e-06	-3.706465e-09	-3.189004e+01	-2.490067e+02
9.900000e-07	-4.304796e-06	-3.703426e-09	-3.159017e+01	-2.483422e+02
1.000000e-06	-4.263574e-06	-3.700970e-09	-3.128767e+01	-2.476743e+02
1.010000e-06	-4.221936e-06	-3.690918e-09	-3.098212e+01	-2.470013e+02
1.020000e-06	-4.179957e-06	-3.672833e-09	-3.067406e+01	-2.463211e+02
1.030000e-06	-4.137564e-06	-3.663484e-09	-3.036296e+01	-2.456319e+02
1.040000e-06	-4.094821e-06	-3.659985e-09	-3.004930e+01	-2.449315e+02
1.050000e-06	-4.051762e-06	-3.647692e-09	-2.973332e+01	-2.442178e+02
1.060000e-06	-4.008310e-06	-3.620940e-09	-2.941445e+01	-2.434885e+02
1.070000e-06	-3.964532e-06	-3.602802e-09	-2.909319e+01	-2.427415e+02
1.080000e-06	-3.920422e-06	-3.598822e-09	-2.876950e+01	-2.419746e+02
1.090000e-06	-3.876144e-06	-3.588946e-09	-2.844457e+01	-2.411857e+02
1.100000e-06	-3.831731e-06	-3.568479e-09	-2.811865e+01	-2.403728e+02
1.110000e-06	-3.787040e-06	-3.549552e-09	-2.779069e+01	-2.395338e+02
1.120000e-06	-3.742075e-06	-3.541010e-09	-2.746072e+01	-2.386671e+02
1.130000e-06	-3.696862e-06	-3.532006e-09	-2.712893e+01	-2.377708e+02
1.140000e-06	-3.651388e-06	-3.516000e-09	-2.679522e+01	-2.368437e+02
1.150000e-06	-3.605691e-06	-3.494457e-09	-2.645989e+01	-2.358843e+02
1.160000e-06	-3.559805e-06	-3.476512e-09	-2.612316e+01	-2.348915e+02
1.170000e-06	-3.513693e-06	-3.461851e-09	-2.578477e+01	-2.338646e+02
1.180000e-06	-3.467365e-06	-3.449293e-09	-2.544480e+01	-2.328027e+02
1.190000e-06	-3.420868e-06	-3.431519e-09	-2.510359e+01	-2.317057e+02
1.200000e-06	-3.374161e-06	-3.413673e-09	-2.476083e+01	-2.305733e+02
1.210000e-06	-3.327082e-06	-3.400096e-09	-2.441535e+01	-2.294055e+02
1.220000e-06	-3.279663e-06	-3.389205e-09	-2.406737e+01	-2.282028e+02
1.230000e-06	-3.232009e-06	-3.371676e-09	-2.371767e+01	-2.269657e+02
1.240000e-06	-3.184090e-06	-3.351850e-09	-2.336602e+01	-2.256950e+02
1.250000e-06	-3.135901e-06	-3.334901e-09	-2.301240e+01	-2.243918e+02
1.260000e-06	-3.087528e-06	-3.317344e-09	-2.265741e+01	-2.230571e+02
1.270000e-06	-3.039067e-06	-3.294814e-09	-2.230179e+01	-2.216925e+02
1.280000e-06	-2.990384e-06	-3.271968e-09	-2.194454e+01	-2.202993e+02
1.290000e-06	-2.941460e-06	-3.251620e-09	-2.158551e+01	-2.188794e+02
1.300000e-06	-2.892269e-06	-3.229826e-09	-2.122453e+01	-2.174343e+02
1.310000e-06	-2.842763e-06	-3.203820e-09	-2.086124e+01	-2.159660e+02
1.320000e-06	-2.792999e-06	-3.180863e-09	-2.049605e+01	-2.144761e+02
1.330000e-06	-2.742904e-06	-3.161733e-09	-2.012844e+01	-2.129666e+02
1.340000e-06	-2.692538e-06	-3.139487e-09	-1.975883e+01	-2.114392e+02
1.350000e-06	-2.641882e-06	-3.113623e-09	-1.938710e+01	-2.098956e+02
1.360000e-06	-2.590886e-06	-3.087706e-09	-1.901287e+01	-2.083372e+02
1.370000e-06	-2.539634e-06	-3.065373e-09	-1.863676e+01	-2.067655e+02
1.380000e-06	-2.488104e-06	-3.043608e-09	-1.825862e+01	-2.051817e+02
1.390000e-06	-2.436345e-06	-3.019859e-09	-1.787879e+01	-2.035866e+02
1.400000e-06	-2.384447e-06	-2.995150e-09	-1.749795e+01	-2.019808e+02
1.410000e-06	-2.332405e-06	-2.972702e-09	-1.711605e+01	-2.003648e+02
1.420000e-06	-2.280204e-06	-2.950708e-09	-1.673297e+01	-1.987384e+02
1.430000e-06	-2.227853e-06	-2.927339e-09	-1.634880e+01	-1.971013e+02
1.440000e-06	-2.175392e-06	-2.900545e-09	-1.596383e+01	-1.954526e+02
1.450000e-06	-2.122817e-06	-2.872701e-09	-1.557801e+01	-1.937911e+02
1.460000e-06	-2.070099e-06	-2.846576e-09	-1.519115e+01	-1.921152e+02
1.470000e-06	-2.017246e-06	-2.820548e-09	-1.480329e+01	-1.904226e+02
1.480000e-06	-1.964278e-06	-2.791717e-09	-1.441459e+01	-1.887109e+02
1.490000e-06	-1.911168e-06	-2.761602e-09	-1.402485e+01	-1.869768e+02
1.500000e-06	-1.857779e-06	-2.733788e-09	-1.363307e+01	-1.852169e+02
1.510000e-06	-1.804141e-06	-2.707347e-09	-1.323945e+01	-1.834271e+02
1.520000e-06	-1.750355e-06	-2.677861e-09	-1.284475e+01	-1.816031e+02
1.530000e-06	-1.696529e-06	-2.645650e-09	-1.244975e+01	-1.797398e+02
1.540000e-06	-1.642636e-06	-2.613630e-09	-1.205426e+01	-1.778321e+02
1.550000e-06	-1.588581e-06	-2.582685e-09	-1.165759e+01	-1.758741e+02
1.560000e-06	-1.534446e-06	-2.547061e-09	-1.126033e+01	-1.738599e+02
1.570000e-06	-1.480231e-06	-2.508872e-09	-1.086248e+01	-1.717832e+02
1.580000e-06	-1.425923e-06	-2.471643e-09	-1.046394e+01	-1.696373e+02
1.590000e-06	-1.371552e-06	-2.436484e-09	-1.006495e+01	-1.674153e+02
1.600000e-06	-1.317110e-06	-2.399573e-09	-9.665434e+00	-1.651103e+02
1.610000e-06	-1.262625e-06	-2.357740e-09	-9.265608e+00	-1.627152e+02
1.620000e-06	-1.208060e-06	-2.315025e-09	-8.865191e+00	-1.602228e+02
1.630000e-06	-1.153364e-06	-2.275333e-09	-8.463812e+00	-1.576260e+02
1.640000e-06	-1.098566e-06	-2.236595e-09	-8.061684e+00	-1.549176e+02
1.650000e-06	-1.043681e-06	-2.193550e-09	-7.658913e+00	-1.520907e+02
1.660000e-06	-9.887775e-07	-2.149012e-09	-7.256013e+00	-1.491385e+02
1.670000e-06	-9.338612e-07	-2.105211e-09	-6.853017e+00	-1.460547e+02
1.680000e-06	-8.788982e-07	-2.060624e-09	-6.449677e+00	-1.428329e+02
1.690000e-06	-8.239243e-07	-2.013530e-09	-6.046259e+00	-1.394675e+02
1.700000e-06	-7.689568e-07	-1.964471e-09	-5.642887e+00	-1.359531e+02
1.710000e-06	-7.138855e-07	-1.912659e-09	-5.238754e+00	-1.322851e+02
1.720000e-06	-6.587131e-07	-1.856335e-09	-4.833879e+00	-1.284591e+02
1.730000e-06	-6.034844e-07	-1.798333e-09	-4.428590e+00	-1.244718e+02
1.740000e-06	-5.481340e-07	-1.740230e-09	-4.022409e+00	-1.203201e+02
1.750000e-06	-4.926829e-07	-1.681222e-09	-3.615488e+00	-1.160020e+02
1.760000e-06	-4.372613e-07	-1.619285e-09	-3.208784e+00	-1.115162e+02
1.770000e-06	-3.818602e-07	-1.553039e-09	-2.802230e+00	-1.068621e+02
1.780000e-06	-3.263959e-07	-1.483405e-09	-2.395213e+00	-1.020400e+02
1.790000e-06	-2.708817e-07	-1.411099e-09	-1.987829e+00	-9.705108e+01
1.800000e-06	-2.153559e-07	-1.337253e-09	-1.580361e+00	-9.189739e+01
1.810000e-06	-1.598507e-07	-1.258938e-09	-1.173043e+00	-8.658189e+01
1.820000e-06	-1.043070e-07	-1.177569e-09	-7.654430e-01	-8.110841e+01
1.830000e-06	-4.877791e-08	-1.094576e-09	-3.579502e-01	-7.548169e+01
1.840000e-06	6.727148e-09	-1.010065e-09	4.936628e-02	-6.970735e+01
1.850000e-06	6.223973e-08	-9.245020e-10	4.567380e-01	-6.379186e+01
1.860000e-06	1.177045e-07	-8.363237e-10	8.637585e-01	-5.774253e+01
1.870000e-06	1.731669e-07	-7.440154e-10	1.270762e+00	-5.156748e+01
1.880000e-06	2.286066e-07	-6.502403e-10	1.677599e+00	-4.527560e+01
1.890000e-06	2.840177e-07	-5.553177e-10	2.084226e+00	-3.887647e+01
1.900000e-06	3.394290e-07	-4.551436e-10	2.490854e+00	-3.238038e+01
1.910000e-06	3.947867e-07	-3.504573e-10	2.897090e+00	-2.579818e+01
1.920000e-06	4.501675e-07	-2.452858e-10	3.303495e+00	-1.914130e+01
1.930000e-06	5.055723e-07	-1.416461e-10	3.710075e+00	-1.242164e+01
1.940000e-06	5.608553e-07	-3.654599e-11	4.115762e+00	-5.651516e+00
1.950000e-06	6.160278e-07	7.038646e-11	4.520638e+00	1.156443e+00
1.960000e-06	6.711797e-07	1.736091e-10	4.925363e+00	7.989340e+00
1.970000e-06	7.262865e-07	2.777173e-10	5.329757e+00	1.483411e+01
1.980000e-06	7.813527e-07	3.863966e-10	5.733853e+00	2.167758e+01
1.990000e-06	8.363754e-07	4.953687e-10	6.137630e+00	2.850660e+01
2.000000e-06	8.913536e-07	6.010106e-10	6.541080e+00	3.530805e+01
2.010000e-06	9.463117e-07	7.062010e-10	6.944382e+00	4.206900e+01
2.020000e-06	1.001178e-06	8.142878e-10	7.347014e+00	4.877673e+01
2.030000e-06	1.055941e-06	9.223232e-10	7.748880e+00	5.541886e+01
2.040000e-06	1.110718e-06	1.024670e-09	8.150856e+00	6.198337e+01
2.050000e-06	1.165441e-06	1.121344e-09	8.552433e+00	6.845873e+01
2.060000e-06	1.220111e-06	1.218431e-09	8.953624e+00	7.483392e+01
2.070000e-06	1.274691e-06	1.312895e-09	9.354151e+00	8.109853e+01
2.080000e-06	1.329107e-06	1.400492e-09	9.753477e+00	8.724279e+01
2.090000e-06	1.383496e-06	1.486295e-09	1.015260e+01	9.325765e+01
2.100000e-06	1.437772e-06	1.575325e-09	1.055090e+01	9.913481e+01
2.110000e-06	1.491955e-06	1.664413e-09	1.094851e+01	1.048668e+02
2.120000e-06	1.546081e-06	1.747393e-09	1.134571e+01	1.104468e+02
2.130000e-06	1.600082e-06	1.823890e-09	1.174199e+01	1.158692e+02
2.140000e-06	1.653950e-06	1.898300e-09	1.213729e+01	1.211290e+02
2.150000e-06	1.707649e-06	1.971637e-09	1.253136e+01	1.262221e+02
2.160000e-06	1.761217e-06	2.041122e-09	1.292446e+01	1.311455e+02
2.170000e-06	1.814712e-06	2.103352e-09	1.331702e+01	1.358968e+02
2.180000e-06	1.868082e-06	2.162354e-09	1.370867e+01	1.404747e+02
2.190000e-06	1.921294e-06	2.223692e-09	1.409916e+01	1.448787e+02
2.200000e-06	1.974379e-06	2.285152e-09	1.448872e+01	1.491093e+02
2.210000e-06	2.027314e-06	2.342685e-09	1.487717e+01	1.531676e+02
2.220000e-06	2.080089e-06	2.397812e-09	1.526446e+01	1.570557e+02
2.230000e-06	2.132662e-06	2.449776e-09	1.565026e+01	1.607762e+02
2.240000e-06	2.185086e-06	2.495038e-09	1.603496e+01	1.643327e+02
2.250000e-06	2.237365e-06	2.536147e-09	1.641860e+01	1.677293e+02
2.260000e-06	2.289487e-06	2.575890e-09	1.680109e+01	1.709707e+02
2.270000e-06	2.341550e-06	2.615579e-09	1.718315e+01	1.740622e+02
2.280000e-06	2.393390e-06	2.656425e-09	1.756358e+01	1.770096e+02
2.290000e-06	2.444967e-06	2.693966e-09	1.794207e+01	1.798190e+02
2.300000e-06	2.496370e-06	2.727721e-09	1.831928e+01	1.824970e+02
2.310000e-06	2.547576e-06	2.762906e-09	1.869505e+01	1.850504e+02
2.320000e-06	2.598621e-06	2.799187e-09	1.906964e+01	1.874864e+02
2.330000e-06	2.649483e-06	2.832876e-09	1.944288e+01	1.898122e+02
2.340000e-06	2.700018e-06	2.862797e-09	1.981373e+01	1.920351e+02
2.350000e-06	2.750192e-06	2.893642e-09	2.018192e+01	1.941625e+02
2.360000e-06	2.800013e-06	2.924860e-09	2.054752e+01	1.962017e+02
2.370000e-06	2.849395e-06	2.953996e-09	2.090991e+01	1.981601e+02
2.380000e-06	2.898463e-06	2.980981e-09	2.126999e+01	2.000446e+02
2.390000e-06	2.947285e-06	3.005210e-09	2.162826e+01	2.018624e+02
2.400000e-06	2.995807e-06	3.031049e-09	2.198433e+01	2.036199e+02
2.410000e-06	3.044064e-06	3.059782e-09	2.233846e+01	2.053237e+02
2.420000e-06	3.092111e-06	3.085750e-09	2.269104e+01	2.069798e+02
2.430000e-06	3.140042e-06	3.108245e-09	2.304278e+01	2.085938e+02
2.440000e-06	3.187862e-06	3.135186e-09	2.339370e+01	2.101711e+02
2.450000e-06	3.235535e-06	3.164380e-09	2.374355e+01	2.117165e+02
2.460000e-06	3.283002e-06	3.188795e-09	2.409187e+01	2.132344e+02
2.470000e-06	3.330183e-06	3.210474e-09	2.443811e+01	2.147289e+02
2.480000e-06	3.377103e-06	3.233901e-09	2.478242e+01	2.162034e+02
2.490000e-06	3.423771e-06	3.257669e-09	2.512489e+01	2.176609e+02
2.500000e-06	3.470204e-06	3.278830e-09	2.546563e+01	2.191040e+02
2.510000e-06	3.516440e-06	3.299200e-09	2.580493e+01	2.205349e+02
2.520000e-06	3.562438e-06	3.320789e-09	2.614247e+01	2.219550e+02
2.530000e-06	3.608140e-06	3.344625e-09	2.647785e+01	2.233658e+02
2.540000e-06	3.653539e-06	3.366453e-09	2.681101e+01	2.247678e+02
2.550000e-06	3.698684e-06	3.383802e-09	2.714230e+01	2.261615e+02
2.560000e-06	3.743588e-06	3.399469e-09	2.747182e+01	2.275470e+02
2.570000e-06	3.788224e-06	3.415889e-09	2.779938e+01	2.289238e+02
2.580000e-06	3.832700e-06	3.433367e-09	2.812576e+01	2.302914e+02
2.590000e-06	3.876999e-06	3.450147e-09	2.845084e+01	2.316488e+02
2.600000e-06	3.921024e-06	3.467081e-09	2.877392e+01	2.329949e+02
2.610000e-06	3.964902e-06	3.486511e-09	2.909591e+01	2.343284e+02
2.620000e-06	4.008694e-06	3.507132e-09	2.941727e+01	2.356477e+02
2.630000e-06	4.052303e-06	3.527004e-09	2.973729e+01	2.369512e+02
2.640000e-06	4.095578e-06	3.545549e-09	3.005485e+01	2.382371e+02
2.650000e-06	4.138515e-06	3.563016e-09	3.036995e+01	2.395037e+02
2.660000e-06	4.181055e-06	3.578948e-09	3.068212e+01	2.407492e+02
2.670000e-06	4.222968e-06	3.594769e-09	3.098969e+01	2.419718e+02
2.680000e-06	4.264287e-06	3.610943e-09	3.129291e+01	2.431697e+02
2.690000e-06	4.305226e-06	3.626060e-09	3.159333e+01	2.443414e+02
2.700000e-06	4.345750e-06	3.641943e-09	3.189071e+01	2.454854e+02
2.710000e-06	4.385909e-06	3.658757e-09	3.218541e+01	2.466001e+02
2.720000e-06	4.425876e-06	3.673427e-09	3.247870e+01	2.476845e+02
2.730000e-06	4.465647e-06	3.686342e-09	3.277056e+01	2.487374e+02
2.740000e-06	4.505228e-06	3.697891e-09	3.306102e+01	2.497580e+02
2.750000e-06	4.544603e-06	3.709108e-09	3.334997e+01	2.507456e+02
2.760000e-06	4.583737e-06	3.720849e-09	3.363715e+01	2.516999e+02
2.770000e-06	4.622481e-06	3.733800e-09	3.392147e+01	2.526205e+02
2.780000e-06	4.660771e-06	3.748764e-09	3.420245e+01	2.535075e+02
2.790000e-06	4.698752e-06	3.762700e-09	3.448116e+01	2.543612e+02
2.800000e-06	4.736514e-06	3.775675e-09	3.475827e+01	2.551820e+02
2.810000e-06	4.773976e-06	3.786256e-09	3.503319e+01	2.559705e+02
2.820000e-06	4.811072e-06	3.798609e-09	3.530541e+01	2.567277e+02
2.830000e-06	4.847744e-06	3.813379e-09	3.557452e+01	2.574546e+02
2.840000e-06	4.884104e-06	3.822321e-09	3.584135e+01	2.581524e+02
2.850000e-06	4.920218e-06	3.828454e-09	3.610637e+01	2.588226e+02
2.860000e-06	4.956060e-06	3.839108e-09	3.636939e+01	2.594665e+02
2.870000e-06	4.991809e-06	3.854277e-09	3.663173e+01	2.600860e+02
2.880000e-06	5.027408e-06	3.864083e-09	3.689296e+01	2.606827e+02
2.890000e-06	5.062632e-06	3.871236e-09	3.715145e+01	2.612584e+02
2.900000e-06	5.097344e-06	3.880380e-09	3.740618e+01	2.618150e+02
