# Temperatura_=_20.0
# Concentracion g/m^3_=_9000.0
# C_Vs_to_Am_M_A/Vsm_=_65563218390.804596
# pendiente_HvsI_1/m_=_3716.3
# ordenada_HvsI_A/m_=_1297.0
# frecuencia_Hz_=_135293.74443537308

Tiempo_(s)	Campo_(V.s)	Magnetizacion_(V.s)	Campo_(kA/m)	Magnetizacion_(A/m)
0.000000e+00	-6.520667e-06	-4.533127e-09	-4.764021e+01	-2.813300e+02
1.000000e-08	-6.520731e-06	-4.532320e-09	-4.764067e+01	-2.814389e+02
2.000000e-08	-6.520448e-06	-4.535697e-09	-4.763861e+01	-2.815444e+02
3.000000e-08	-6.519681e-06	-4.540268e-09	-4.763300e+01	-2.816454e+02
4.000000e-08	-6.518285e-06	-4.542855e-09	-4.762280e+01	-2.817409e+02
5.000000e-08	-6.516186e-06	-4.545014e-09	-4.760747e+01	-2.818296e+02
6.000000e-08	-6.513392e-06	-4.546892e-09	-4.758706e+01	-2.819108e+02
7.000000e-08	-6.510056e-06	-4.548101e-09	-4.756268e+01	-2.819834e+02
8.000000e-08	-6.506363e-06	-4.557471e-09	-4.753570e+01	-2.820467e+02
9.000000e-08	-6.502230e-06	-4.565403e-09	-4.750551e+01	-2.820999e+02
1.000000e-07	-6.497508e-06	-4.552283e-09	-4.747101e+01	-2.821422e+02
1.100000e-07	-6.492158e-06	-4.513655e-09	-4.743191e+01	-2.821733e+02
1.200000e-07	-6.486334e-06	-4.518797e-09	-4.738936e+01	-2.821927e+02
1.300000e-07	-6.480225e-06	-4.574222e-09	-4.734474e+01	-2.821999e+02
1.400000e-07	-6.473766e-06	-4.608918e-09	-4.729755e+01	-2.821950e+02
1.500000e-07	-6.466909e-06	-4.554772e-09	-4.724745e+01	-2.821777e+02
1.600000e-07	-6.459704e-06	-4.538679e-09	-4.719481e+01	-2.821482e+02
1.700000e-07	-6.452138e-06	-4.564621e-09	-4.713953e+01	-2.821066e+02
1.800000e-07	-6.444237e-06	-4.603539e-09	-4.708180e+01	-2.820531e+02
1.900000e-07	-6.436045e-06	-4.583315e-09	-4.702196e+01	-2.819882e+02
2.000000e-07	-6.427476e-06	-4.549986e-09	-4.695935e+01	-2.819123e+02
2.100000e-07	-6.418130e-06	-4.532583e-09	-4.689107e+01	-2.818260e+02
2.200000e-07	-6.407888e-06	-4.529124e-09	-4.681623e+01	-2.817300e+02
2.300000e-07	-6.397084e-06	-4.528602e-09	-4.673730e+01	-2.816248e+02
2.400000e-07	-6.385877e-06	-4.467434e-09	-4.665542e+01	-2.815114e+02
2.500000e-07	-6.374122e-06	-4.403988e-09	-4.656954e+01	-2.813904e+02
2.600000e-07	-6.361686e-06	-4.363834e-09	-4.647868e+01	-2.812626e+02
2.700000e-07	-6.348700e-06	-4.385365e-09	-4.638381e+01	-2.811290e+02
2.800000e-07	-6.335284e-06	-4.330461e-09	-4.628579e+01	-2.809902e+02
2.900000e-07	-6.321358e-06	-4.232877e-09	-4.618405e+01	-2.808471e+02
3.000000e-07	-6.306916e-06	-4.178103e-09	-4.607853e+01	-2.807005e+02
3.100000e-07	-6.291895e-06	-4.170209e-09	-4.596879e+01	-2.805509e+02
3.200000e-07	-6.276116e-06	-4.095386e-09	-4.585350e+01	-2.803991e+02
3.300000e-07	-6.259816e-06	-4.031210e-09	-4.573442e+01	-2.802456e+02
3.400000e-07	-6.243188e-06	-4.018090e-09	-4.561293e+01	-2.800909e+02
3.500000e-07	-6.226041e-06	-3.998993e-09	-4.548766e+01	-2.799353e+02
3.600000e-07	-6.208500e-06	-3.955000e-09	-4.535950e+01	-2.797791e+02
3.700000e-07	-6.190692e-06	-3.986763e-09	-4.522940e+01	-2.796225e+02
3.800000e-07	-6.172529e-06	-4.004293e-09	-4.509670e+01	-2.794655e+02
3.900000e-07	-6.153896e-06	-3.964202e-09	-4.496057e+01	-2.793080e+02
4.000000e-07	-6.134694e-06	-3.984148e-09	-4.482027e+01	-2.791498e+02
4.100000e-07	-6.115050e-06	-4.064179e-09	-4.467676e+01	-2.789906e+02
4.200000e-07	-6.095074e-06	-4.037685e-09	-4.453081e+01	-2.788299e+02
4.300000e-07	-6.074792e-06	-3.988552e-09	-4.438263e+01	-2.786671e+02
4.400000e-07	-6.054213e-06	-4.056011e-09	-4.423227e+01	-2.785017e+02
4.500000e-07	-6.033212e-06	-4.086277e-09	-4.407884e+01	-2.783328e+02
4.600000e-07	-6.011831e-06	-4.008132e-09	-4.392263e+01	-2.781595e+02
4.700000e-07	-5.990128e-06	-3.982813e-09	-4.376407e+01	-2.779809e+02
4.800000e-07	-5.967978e-06	-4.056384e-09	-4.360224e+01	-2.777960e+02
4.900000e-07	-5.945380e-06	-4.029447e-09	-4.343714e+01	-2.776037e+02
5.000000e-07	-5.922422e-06	-3.965984e-09	-4.326941e+01	-2.774029e+02
5.100000e-07	-5.899132e-06	-3.988337e-09	-4.309925e+01	-2.771925e+02
5.200000e-07	-5.875459e-06	-4.026557e-09	-4.292630e+01	-2.769713e+02
5.300000e-07	-5.851433e-06	-3.973989e-09	-4.275076e+01	-2.767381e+02
5.400000e-07	-5.826989e-06	-3.962642e-09	-4.257217e+01	-2.764919e+02
5.500000e-07	-5.802013e-06	-3.994970e-09	-4.238969e+01	-2.762316e+02
5.600000e-07	-5.776459e-06	-3.986437e-09	-4.220299e+01	-2.759561e+02
5.700000e-07	-5.750200e-06	-3.952851e-09	-4.201115e+01	-2.756645e+02
5.800000e-07	-5.723353e-06	-3.973274e-09	-4.181500e+01	-2.753559e+02
5.900000e-07	-5.696087e-06	-3.972666e-09	-4.161580e+01	-2.750296e+02
6.000000e-07	-5.668487e-06	-3.946161e-09	-4.141415e+01	-2.746849e+02
6.100000e-07	-5.640668e-06	-3.946570e-09	-4.121090e+01	-2.743212e+02
6.200000e-07	-5.612547e-06	-3.963335e-09	-4.100545e+01	-2.739382e+02
6.300000e-07	-5.584075e-06	-3.941831e-09	-4.079743e+01	-2.735357e+02
6.400000e-07	-5.555258e-06	-3.925982e-09	-4.058689e+01	-2.731134e+02
6.500000e-07	-5.526065e-06	-3.945205e-09	-4.037361e+01	-2.726714e+02
6.600000e-07	-5.496463e-06	-3.950267e-09	-4.015734e+01	-2.722099e+02
6.700000e-07	-5.466444e-06	-3.924960e-09	-3.993802e+01	-2.717293e+02
6.800000e-07	-5.435982e-06	-3.910620e-09	-3.971546e+01	-2.712300e+02
6.900000e-07	-5.405112e-06	-3.922973e-09	-3.948992e+01	-2.707126e+02
7.000000e-07	-5.373934e-06	-3.919043e-09	-3.926214e+01	-2.701779e+02
7.100000e-07	-5.342407e-06	-3.900608e-09	-3.903180e+01	-2.696268e+02
7.200000e-07	-5.310618e-06	-3.892630e-09	-3.879955e+01	-2.690602e+02
7.300000e-07	-5.278643e-06	-3.896916e-09	-3.856594e+01	-2.684794e+02
7.400000e-07	-5.246418e-06	-3.883384e-09	-3.833050e+01	-2.678854e+02
7.500000e-07	-5.213801e-06	-3.874251e-09	-3.809220e+01	-2.672795e+02
7.600000e-07	-5.180633e-06	-3.872778e-09	-3.784987e+01	-2.666631e+02
7.700000e-07	-5.146862e-06	-3.867357e-09	-3.760314e+01	-2.660375e+02
7.800000e-07	-5.112498e-06	-3.850939e-09	-3.735208e+01	-2.654041e+02
7.900000e-07	-5.077661e-06	-3.848991e-09	-3.709755e+01	-2.647641e+02
8.000000e-07	-5.042396e-06	-3.844787e-09	-3.683991e+01	-2.641191e+02
8.100000e-07	-5.006757e-06	-3.831541e-09	-3.657953e+01	-2.634701e+02
8.200000e-07	-4.970853e-06	-3.818136e-09	-3.631721e+01	-2.628186e+02
8.300000e-07	-4.934764e-06	-3.819286e-09	-3.605354e+01	-2.621656e+02
8.400000e-07	-4.898386e-06	-3.814387e-09	-3.578777e+01	-2.615122e+02
8.500000e-07	-4.861572e-06	-3.801872e-09	-3.551880e+01	-2.608592e+02
8.600000e-07	-4.824404e-06	-3.792411e-09	-3.524725e+01	-2.602075e+02
8.700000e-07	-4.786900e-06	-3.789416e-09	-3.497325e+01	-2.595577e+02
8.800000e-07	-4.749026e-06	-3.777445e-09	-3.469654e+01	-2.589102e+02
8.900000e-07	-4.710920e-06	-3.761643e-09	-3.441814e+01	-2.582653e+02
9.000000e-07	-4.672594e-06	-3.752309e-09	-3.413812e+01	-2.576231e+02
9.100000e-07	-4.633927e-06	-3.744706e-09	-3.385562e+01	-2.569835e+02
9.200000e-07	-4.594947e-06	-3.733725e-09	-3.357083e+01	-2.563463e+02
9.300000e-07	-4.555698e-06	-3.726218e-09	-3.328408e+01	-2.557108e+02
9.400000e-07	-4.516151e-06	-3.723064e-09	-3.299515e+01	-2.550764e+02
9.500000e-07	-4.476341e-06	-3.715985e-09	-3.270429e+01	-2.544422e+02
9.600000e-07	-4.436287e-06	-3.703335e-09	-3.241166e+01	-2.538071e+02
9.700000e-07	-4.395986e-06	-3.692154e-09	-3.211722e+01	-2.531698e+02
9.800000e-07	-4.355418e-06	-3.684932e-09	-3.182082e+01	-2.525289e+02
9.900000e-07	-4.314408e-06	-3.674041e-09	-3.152120e+01	-2.518828e+02
1.000000e-06	-4.272877e-06	-3.664012e-09	-3.121778e+01	-2.512297e+02
1.010000e-06	-4.230954e-06	-3.653223e-09	-3.091149e+01	-2.505679e+02
1.020000e-06	-4.188630e-06	-3.643869e-09	-3.060226e+01	-2.498952e+02
1.030000e-06	-4.145804e-06	-3.632910e-09	-3.028938e+01	-2.492098e+02
1.040000e-06	-4.102536e-06	-3.624651e-09	-2.997326e+01	-2.485095e+02
1.050000e-06	-4.059009e-06	-3.613175e-09	-2.965525e+01	-2.477921e+02
1.060000e-06	-4.015296e-06	-3.596494e-09	-2.933589e+01	-2.470556e+02
1.070000e-06	-3.971342e-06	-3.580581e-09	-2.901476e+01	-2.462978e+02
1.080000e-06	-3.927157e-06	-3.569283e-09	-2.869193e+01	-2.455167e+02
1.090000e-06	-3.882730e-06	-3.556433e-09	-2.836735e+01	-2.447103e+02
1.100000e-06	-3.838065e-06	-3.542598e-09	-2.804103e+01	-2.438766e+02
1.110000e-06	-3.793161e-06	-3.528529e-09	-2.771296e+01	-2.430140e+02
1.120000e-06	-3.748021e-06	-3.517741e-09	-2.738316e+01	-2.421207e+02
1.130000e-06	-3.702598e-06	-3.501877e-09	-2.705130e+01	-2.411954e+02
1.140000e-06	-3.656885e-06	-3.486007e-09	-2.671732e+01	-2.402366e+02
1.150000e-06	-3.610875e-06	-3.470008e-09	-2.638117e+01	-2.392434e+02
1.160000e-06	-3.564629e-06	-3.454108e-09	-2.604329e+01	-2.382149e+02
1.170000e-06	-3.518210e-06	-3.438559e-09	-2.570416e+01	-2.371505e+02
1.180000e-06	-3.471505e-06	-3.422591e-09	-2.536292e+01	-2.360496e+02
1.190000e-06	-3.424585e-06	-3.405371e-09	-2.502013e+01	-2.349123e+02
1.200000e-06	-3.377442e-06	-3.388922e-09	-2.467570e+01	-2.337386e+02
1.210000e-06	-3.330039e-06	-3.374242e-09	-2.432937e+01	-2.325287e+02
1.220000e-06	-3.282457e-06	-3.357925e-09	-2.398174e+01	-2.312834e+02
1.230000e-06	-3.234677e-06	-3.339695e-09	-2.363265e+01	-2.300033e+02
1.240000e-06	-3.186673e-06	-3.321387e-09	-2.328194e+01	-2.286895e+02
1.250000e-06	-3.138473e-06	-3.304328e-09	-2.292979e+01	-2.273432e+02
1.260000e-06	-3.090041e-06	-3.285600e-09	-2.257594e+01	-2.259659e+02
1.270000e-06	-3.041235e-06	-3.265379e-09	-2.221936e+01	-2.245590e+02
1.280000e-06	-2.992025e-06	-3.244844e-09	-2.185983e+01	-2.231242e+02
1.290000e-06	-2.942476e-06	-3.224812e-09	-2.149782e+01	-2.216634e+02
1.300000e-06	-2.892737e-06	-3.201998e-09	-2.113443e+01	-2.201784e+02
1.310000e-06	-2.842809e-06	-3.178085e-09	-2.076966e+01	-2.186711e+02
1.320000e-06	-2.792523e-06	-3.156992e-09	-2.040226e+01	-2.171434e+02
1.330000e-06	-2.741881e-06	-3.138192e-09	-2.003227e+01	-2.155972e+02
1.340000e-06	-2.690917e-06	-3.115457e-09	-1.965993e+01	-2.140343e+02
1.350000e-06	-2.639797e-06	-3.091940e-09	-1.928644e+01	-2.124564e+02
1.360000e-06	-2.588509e-06	-3.068973e-09	-1.891173e+01	-2.108650e+02
1.370000e-06	-2.536915e-06	-3.046914e-09	-1.853478e+01	-2.092615e+02
1.380000e-06	-2.485136e-06	-3.024352e-09	-1.815649e+01	-2.076469e+02
1.390000e-06	-2.433168e-06	-3.002434e-09	-1.777680e+01	-2.060222e+02
1.400000e-06	-2.381091e-06	-2.979411e-09	-1.739633e+01	-2.043880e+02
1.410000e-06	-2.328942e-06	-2.955579e-09	-1.701532e+01	-2.027443e+02
1.420000e-06	-2.276568e-06	-2.931516e-09	-1.663268e+01	-2.010910e+02
1.430000e-06	-2.223934e-06	-2.908149e-09	-1.624813e+01	-1.994277e+02
1.440000e-06	-2.171151e-06	-2.885345e-09	-1.586250e+01	-1.977533e+02
1.450000e-06	-2.118270e-06	-2.861499e-09	-1.547615e+01	-1.960665e+02
1.460000e-06	-2.065175e-06	-2.833994e-09	-1.508824e+01	-1.943654e+02
1.470000e-06	-2.011930e-06	-2.806197e-09	-1.469923e+01	-1.926476e+02
1.480000e-06	-1.958550e-06	-2.781298e-09	-1.430923e+01	-1.909104e+02
1.490000e-06	-1.905044e-06	-2.756043e-09	-1.391831e+01	-1.891504e+02
1.500000e-06	-1.851485e-06	-2.727610e-09	-1.352701e+01	-1.873640e+02
1.510000e-06	-1.797814e-06	-2.698395e-09	-1.313488e+01	-1.855470e+02
1.520000e-06	-1.743983e-06	-2.668733e-09	-1.274159e+01	-1.836946e+02
1.530000e-06	-1.689985e-06	-2.637179e-09	-1.234708e+01	-1.818017e+02
1.540000e-06	-1.635899e-06	-2.604185e-09	-1.195193e+01	-1.798630e+02
1.550000e-06	-1.581737e-06	-2.571626e-09	-1.155622e+01	-1.778724e+02
1.560000e-06	-1.527412e-06	-2.537134e-09	-1.115932e+01	-1.758239e+02
1.570000e-06	-1.472945e-06	-2.499225e-09	-1.076138e+01	-1.737108e+02
1.580000e-06	-1.418405e-06	-2.462370e-09	-1.036291e+01	-1.715265e+02
1.590000e-06	-1.363852e-06	-2.426151e-09	-9.964350e+00	-1.692639e+02
1.600000e-06	-1.309188e-06	-2.388211e-09	-9.564967e+00	-1.669160e+02
1.610000e-06	-1.254312e-06	-2.349624e-09	-9.164045e+00	-1.644756e+02
1.620000e-06	-1.199333e-06	-2.308275e-09	-8.762364e+00	-1.619353e+02
1.630000e-06	-1.144284e-06	-2.267100e-09	-8.360177e+00	-1.592881e+02
1.640000e-06	-1.089178e-06	-2.227054e-09	-7.957569e+00	-1.565268e+02
1.650000e-06	-1.033987e-06	-2.182867e-09	-7.554343e+00	-1.536444e+02
1.660000e-06	-9.786997e-07	-2.136323e-09	-7.150411e+00	-1.506343e+02
1.670000e-06	-9.233840e-07	-2.091422e-09	-6.746273e+00	-1.474899e+02
1.680000e-06	-8.680770e-07	-2.047129e-09	-6.342198e+00	-1.442052e+02
1.690000e-06	-8.127812e-07	-1.997791e-09	-5.938206e+00	-1.407746e+02
1.700000e-06	-7.574441e-07	-1.946899e-09	-5.533911e+00	-1.371929e+02
1.710000e-06	-7.020403e-07	-1.896043e-09	-5.129129e+00	-1.334555e+02
1.720000e-06	-6.465957e-07	-1.842187e-09	-4.724049e+00	-1.295583e+02
1.730000e-06	-5.911058e-07	-1.786093e-09	-4.318638e+00	-1.254981e+02
1.740000e-06	-5.355614e-07	-1.728758e-09	-3.912829e+00	-1.212722e+02
1.750000e-06	-4.799876e-07	-1.668625e-09	-3.506805e+00	-1.168787e+02
1.760000e-06	-4.244159e-07	-1.606027e-09	-3.100797e+00	-1.123166e+02
1.770000e-06	-3.688125e-07	-1.539514e-09	-2.694556e+00	-1.075855e+02
1.780000e-06	-3.131764e-07	-1.469563e-09	-2.288077e+00	-1.026861e+02
1.790000e-06	-2.575575e-07	-1.397053e-09	-1.881724e+00	-9.761984e+01
1.800000e-06	-2.019581e-07	-1.323753e-09	-1.475513e+00	-9.238912e+01
1.810000e-06	-1.463907e-07	-1.246845e-09	-1.069535e+00	-8.699720e+01
1.820000e-06	-9.082650e-08	-1.163766e-09	-6.635813e-01	-8.144825e+01
1.830000e-06	-3.528345e-08	-1.078418e-09	-2.577820e-01	-7.574735e+01
1.840000e-06	2.028779e-08	-9.946830e-10	1.482232e-01	-6.990045e+01
1.850000e-06	7.591750e-08	-9.090690e-10	5.546557e-01	-6.391435e+01
1.860000e-06	1.315193e-07	-8.182166e-10	9.608843e-01	-5.779671e+01
1.870000e-06	1.871088e-07	-7.247513e-10	1.367023e+00	-5.155594e+01
1.880000e-06	2.427048e-07	-6.317136e-10	1.773209e+00	-4.520126e+01
1.890000e-06	2.982649e-07	-5.389620e-10	2.179133e+00	-3.874254e+01
1.900000e-06	3.538508e-07	-4.422297e-10	2.585246e+00	-3.219035e+01
1.910000e-06	4.094648e-07	-3.414260e-10	2.991563e+00	-2.555582e+01
1.920000e-06	4.650457e-07	-2.403327e-10	3.397639e+00	-1.885062e+01
1.930000e-06	5.206374e-07	-1.376075e-10	3.803794e+00	-1.208686e+01
1.940000e-06	5.762161e-07	-3.050402e-11	4.209854e+00	-5.277050e+00
1.950000e-06	6.317372e-07	7.768135e-11	4.615493e+00	1.565993e+00
1.960000e-06	6.871904e-07	1.842803e-10	5.020635e+00	8.429234e+00
1.970000e-06	7.425987e-07	2.901208e-10	5.425450e+00	1.529949e+01
1.980000e-06	7.979619e-07	3.960112e-10	5.829936e+00	2.216352e+01
1.990000e-06	8.532501e-07	5.018176e-10	6.233873e+00	2.900809e+01
2.000000e-06	9.084932e-07	6.066475e-10	6.637481e+00	3.582008e+01
2.010000e-06	9.637694e-07	7.101900e-10	7.041330e+00	4.258657e+01
2.020000e-06	1.019029e-06	8.143360e-10	7.445058e+00	4.929488e+01
2.030000e-06	1.074172e-06	9.185016e-10	7.847936e+00	5.593269e+01
2.040000e-06	1.129161e-06	1.020125e-09	8.249686e+00	6.248810e+01
2.050000e-06	1.184013e-06	1.118702e-09	8.650435e+00	6.894970e+01
2.060000e-06	1.238882e-06	1.214608e-09	9.051312e+00	7.530666e+01
2.070000e-06	1.293784e-06	1.307240e-09	9.452426e+00	8.154873e+01
2.080000e-06	1.348552e-06	1.395877e-09	9.852567e+00	8.766640e+01
2.090000e-06	1.403152e-06	1.481783e-09	1.025147e+01	9.365083e+01
2.100000e-06	1.457612e-06	1.565868e-09	1.064936e+01	9.949402e+01
2.110000e-06	1.511956e-06	1.649361e-09	1.104640e+01	1.051887e+02
2.120000e-06	1.566183e-06	1.732003e-09	1.144258e+01	1.107286e+02
2.130000e-06	1.620357e-06	1.811170e-09	1.183838e+01	1.161082e+02
2.140000e-06	1.674432e-06	1.886172e-09	1.223345e+01	1.213229e+02
2.150000e-06	1.728353e-06	1.957090e-09	1.262740e+01	1.263690e+02
2.160000e-06	1.782137e-06	2.024774e-09	1.302035e+01	1.312437e+02
2.170000e-06	1.835838e-06	2.085713e-09	1.341269e+01	1.359452e+02
2.180000e-06	1.889467e-06	2.142118e-09	1.380451e+01	1.404724e+02
2.190000e-06	1.942897e-06	2.200340e-09	1.419487e+01	1.448253e+02
2.200000e-06	1.996179e-06	2.258604e-09	1.458415e+01	1.490046e+02
2.210000e-06	2.049325e-06	2.314473e-09	1.497243e+01	1.530120e+02
2.220000e-06	2.102277e-06	2.368393e-09	1.535930e+01	1.568496e+02
2.230000e-06	2.155056e-06	2.419528e-09	1.574491e+01	1.605206e+02
2.240000e-06	2.207680e-06	2.466144e-09	1.612938e+01	1.640289e+02
2.250000e-06	2.260142e-06	2.508831e-09	1.651267e+01	1.673788e+02
2.260000e-06	2.312403e-06	2.547613e-09	1.689449e+01	1.705753e+02
2.270000e-06	2.364483e-06	2.585673e-09	1.727499e+01	1.736241e+02
2.280000e-06	2.416425e-06	2.624403e-09	1.765448e+01	1.765310e+02
2.290000e-06	2.468179e-06	2.659912e-09	1.803260e+01	1.793025e+02
2.300000e-06	2.519729e-06	2.693456e-09	1.840922e+01	1.819453e+02
2.310000e-06	2.571072e-06	2.727324e-09	1.878433e+01	1.844665e+02
2.320000e-06	2.622175e-06	2.762103e-09	1.915770e+01	1.868732e+02
2.330000e-06	2.673088e-06	2.796519e-09	1.952967e+01	1.891728e+02
2.340000e-06	2.723908e-06	2.828730e-09	1.990096e+01	1.913727e+02
2.350000e-06	2.774408e-06	2.860346e-09	2.026992e+01	1.934803e+02
2.360000e-06	2.824477e-06	2.890473e-09	2.063572e+01	1.955030e+02
2.370000e-06	2.874207e-06	2.918955e-09	2.099905e+01	1.974479e+02
2.380000e-06	2.923525e-06	2.944351e-09	2.135936e+01	1.993222e+02
2.390000e-06	2.972475e-06	2.967818e-09	2.171700e+01	2.011326e+02
2.400000e-06	3.021203e-06	2.992482e-09	2.207301e+01	2.028859e+02
2.410000e-06	3.069691e-06	3.017937e-09	2.242726e+01	2.045881e+02
2.420000e-06	3.117915e-06	3.042671e-09	2.277959e+01	2.062452e+02
2.430000e-06	3.165926e-06	3.066568e-09	2.313036e+01	2.078626e+02
2.440000e-06	3.213777e-06	3.091801e-09	2.347996e+01	2.094456e+02
2.450000e-06	3.261495e-06	3.115744e-09	2.382859e+01	2.109986e+02
2.460000e-06	3.309005e-06	3.138076e-09	2.417570e+01	2.125259e+02
2.470000e-06	3.356309e-06	3.159716e-09	2.452131e+01	2.140312e+02
2.480000e-06	3.403441e-06	3.181619e-09	2.486565e+01	2.155177e+02
2.490000e-06	3.450288e-06	3.203733e-09	2.520792e+01	2.169882e+02
2.500000e-06	3.496766e-06	3.224130e-09	2.554748e+01	2.184449e+02
2.510000e-06	3.542994e-06	3.243451e-09	2.588523e+01	2.198897e+02
2.520000e-06	3.589002e-06	3.263643e-09	2.622136e+01	2.213239e+02
2.530000e-06	3.634737e-06	3.285512e-09	2.655550e+01	2.227485e+02
2.540000e-06	3.680279e-06	3.304004e-09	2.688824e+01	2.241638e+02
2.550000e-06	3.725608e-06	3.319393e-09	2.721941e+01	2.255702e+02
2.560000e-06	3.770663e-06	3.335284e-09	2.754859e+01	2.269672e+02
2.570000e-06	3.815451e-06	3.351451e-09	2.787581e+01	2.283544e+02
2.580000e-06	3.860010e-06	3.367027e-09	2.820136e+01	2.297309e+02
2.590000e-06	3.904359e-06	3.381362e-09	2.852537e+01	2.310955e+02
2.600000e-06	3.948534e-06	3.397700e-09	2.884812e+01	2.324470e+02
2.610000e-06	3.992532e-06	3.416251e-09	2.916957e+01	2.337839e+02
2.620000e-06	4.036299e-06	3.434400e-09	2.948933e+01	2.351044e+02
2.630000e-06	4.079915e-06	3.449753e-09	2.980799e+01	2.364069e+02
2.640000e-06	4.123271e-06	3.463356e-09	3.012475e+01	2.376895e+02
2.650000e-06	4.166216e-06	3.479764e-09	3.043851e+01	2.389504e+02
2.660000e-06	4.208792e-06	3.497305e-09	3.074957e+01	2.401878e+02
2.670000e-06	4.250973e-06	3.511490e-09	3.105775e+01	2.413999e+02
2.680000e-06	4.292705e-06	3.523961e-09	3.136264e+01	2.425850e+02
2.690000e-06	4.333945e-06	3.537308e-09	3.166394e+01	2.437415e+02
2.700000e-06	4.374665e-06	3.551124e-09	3.196144e+01	2.448681e+02
2.710000e-06	4.414961e-06	3.564976e-09	3.225585e+01	2.459634e+02
2.720000e-06	4.454958e-06	3.576660e-09	3.254807e+01	2.470263e+02
2.730000e-06	4.494718e-06	3.587348e-09	3.283856e+01	2.480560e+02
2.740000e-06	4.534275e-06	3.599873e-09	3.312756e+01	2.490518e+02
2.750000e-06	4.573670e-06	3.612047e-09	3.341538e+01	2.500132e+02
2.760000e-06	4.612842e-06	3.622223e-09	3.370157e+01	2.509400e+02
2.770000e-06	4.651652e-06	3.633600e-09	3.398512e+01	2.518323e+02
2.780000e-06	4.690115e-06	3.646700e-09	3.426613e+01	2.526903e+02
2.790000e-06	4.728248e-06	3.658446e-09	3.454474e+01	2.535146e+02
2.800000e-06	4.766066e-06	3.669638e-09	3.482103e+01	2.543058e+02
2.810000e-06	4.803581e-06	3.679098e-09	3.509512e+01	2.550649e+02
2.820000e-06	4.840796e-06	3.688743e-09	3.536701e+01	2.557931e+02
2.830000e-06	4.877676e-06	3.701384e-09	3.563646e+01	2.564917e+02
2.840000e-06	4.914200e-06	3.711891e-09	3.590330e+01	2.571621e+02
2.850000e-06	4.950403e-06	3.718930e-09	3.616780e+01	2.578062e+02
2.860000e-06	4.986332e-06	3.727625e-09	3.643030e+01	2.584256e+02
2.870000e-06	5.022075e-06	3.740500e-09	3.669145e+01	2.590222e+02
2.880000e-06	5.057584e-06	3.748644e-09	3.695087e+01	2.595981e+02
2.890000e-06	5.092774e-06	3.755127e-09	3.720797e+01	2.601552e+02
2.900000e-06	5.127517e-06	3.765074e-09	3.746180e+01	2.606955e+02
