# Temperatura_=_20.0
# Concentracion g/m^3_=_9000.0
# C_Vs_to_Am_M_A/Vsm_=_65563218390.804596
# pendiente_HvsI_1/m_=_3716.3
# ordenada_HvsI_A/m_=_1297.0
# frecuencia_Hz_=_135294.4156787475

Tiempo_(s)	Campo_(V.s)	Magnetizacion_(V.s)	Campo_(kA/m)	Magnetizacion_(A/m)
0.000000e+00	-6.540636e-06	-3.080631e-10	-4.762766e+01	-2.770412e+00
1.000000e-08	-6.540900e-06	-3.108262e-10	-4.762958e+01	-2.868371e+00
2.000000e-08	-6.540829e-06	-3.114878e-10	-4.762906e+01	-2.983968e+00
3.000000e-08	-6.540386e-06	-3.106788e-10	-4.762584e+01	-3.117647e+00
4.000000e-08	-6.539554e-06	-3.115571e-10	-4.761978e+01	-3.269720e+00
5.000000e-08	-6.538107e-06	-3.161731e-10	-4.760924e+01	-3.440363e+00
6.000000e-08	-6.535922e-06	-3.195008e-10	-4.759333e+01	-3.629611e+00
7.000000e-08	-6.533095e-06	-3.263410e-10	-4.757275e+01	-3.837356e+00
8.000000e-08	-6.529714e-06	-3.481467e-10	-4.754813e+01	-4.063346e+00
9.000000e-08	-6.525879e-06	-3.591950e-10	-4.752020e+01	-4.307182e+00
1.000000e-07	-6.521569e-06	-2.962609e-10	-4.748881e+01	-4.568326e+00
1.100000e-07	-6.516719e-06	-2.051352e-10	-4.745350e+01	-4.846095e+00
1.200000e-07	-6.511401e-06	-2.403504e-10	-4.741478e+01	-5.139675e+00
1.300000e-07	-6.505688e-06	-4.389973e-10	-4.737318e+01	-5.448115e+00
1.400000e-07	-6.499592e-06	-5.101855e-10	-4.732878e+01	-5.770345e+00
1.500000e-07	-6.493124e-06	-3.384682e-10	-4.728169e+01	-6.105175e+00
1.600000e-07	-6.486245e-06	-1.867147e-10	-4.723160e+01	-6.451310e+00
1.700000e-07	-6.478920e-06	-3.317777e-10	-4.717826e+01	-6.807355e+00
1.800000e-07	-6.471233e-06	-4.629171e-10	-4.712228e+01	-7.171832e+00
1.900000e-07	-6.463205e-06	-4.411314e-10	-4.706382e+01	-7.543185e+00
2.000000e-07	-6.454821e-06	-2.597868e-10	-4.700277e+01	-7.919798e+00
2.100000e-07	-6.446047e-06	-2.269947e-10	-4.693888e+01	-8.300004e+00
2.200000e-07	-6.436699e-06	-3.323705e-10	-4.687081e+01	-8.682103e+00
2.300000e-07	-6.426684e-06	-4.563838e-10	-4.679789e+01	-9.064372e+00
2.400000e-07	-6.415958e-06	-3.500154e-10	-4.671978e+01	-9.445082e+00
2.500000e-07	-6.404582e-06	-1.361906e-10	-4.663694e+01	-9.822510e+00
2.600000e-07	-6.392665e-06	-1.742574e-10	-4.655017e+01	-1.019496e+01
2.700000e-07	-6.380248e-06	-3.497842e-10	-4.645975e+01	-1.056075e+01
2.800000e-07	-6.367317e-06	-2.840240e-10	-4.636559e+01	-1.091829e+01
2.900000e-07	-6.353844e-06	-2.960140e-11	-4.626748e+01	-1.126600e+01
3.000000e-07	-6.339879e-06	-5.918661e-11	-4.616578e+01	-1.160241e+01
3.100000e-07	-6.325328e-06	-2.105589e-10	-4.605983e+01	-1.192613e+01
3.200000e-07	-6.310110e-06	-1.106453e-10	-4.594902e+01	-1.223587e+01
3.300000e-07	-6.294426e-06	8.852976e-11	-4.583480e+01	-1.253043e+01
3.400000e-07	-6.278251e-06	6.910527e-11	-4.571702e+01	-1.280876e+01
3.500000e-07	-6.261474e-06	5.722151e-11	-4.559485e+01	-1.306989e+01
3.600000e-07	-6.244220e-06	6.532628e-11	-4.546922e+01	-1.331302e+01
3.700000e-07	-6.226574e-06	7.506954e-11	-4.534072e+01	-1.353748e+01
3.800000e-07	-6.208571e-06	1.031656e-10	-4.520963e+01	-1.374273e+01
3.900000e-07	-6.190184e-06	2.001481e-10	-4.507573e+01	-1.392838e+01
4.000000e-07	-6.171378e-06	7.675098e-11	-4.493879e+01	-1.409418e+01
4.100000e-07	-6.152063e-06	-2.954012e-11	-4.479814e+01	-1.424005e+01
4.200000e-07	-6.132365e-06	6.446593e-11	-4.465471e+01	-1.436603e+01
4.300000e-07	-6.112394e-06	1.769789e-10	-4.450929e+01	-1.447230e+01
4.400000e-07	-6.092054e-06	3.574406e-11	-4.436117e+01	-1.455921e+01
4.500000e-07	-6.071333e-06	-7.297463e-11	-4.421028e+01	-1.462721e+01
4.600000e-07	-6.050302e-06	4.951615e-11	-4.405714e+01	-1.467689e+01
4.700000e-07	-6.028955e-06	1.501556e-10	-4.390169e+01	-1.470897e+01
4.800000e-07	-6.007221e-06	1.566560e-11	-4.374343e+01	-1.472427e+01
4.900000e-07	-5.985046e-06	-7.646948e-11	-4.358196e+01	-1.472372e+01
5.000000e-07	-5.962393e-06	3.258910e-11	-4.341700e+01	-1.470833e+01
5.100000e-07	-5.939350e-06	9.829961e-11	-4.324921e+01	-1.467921e+01
5.200000e-07	-5.915983e-06	2.430910e-11	-4.307906e+01	-1.463753e+01
5.300000e-07	-5.892260e-06	-2.135843e-11	-4.290631e+01	-1.458452e+01
5.400000e-07	-5.868139e-06	2.227612e-11	-4.273066e+01	-1.452145e+01
5.500000e-07	-5.843564e-06	3.468040e-11	-4.255171e+01	-1.444964e+01
5.600000e-07	-5.818481e-06	4.257164e-11	-4.236906e+01	-1.437042e+01
5.700000e-07	-5.792819e-06	1.861113e-11	-4.218220e+01	-1.428512e+01
5.800000e-07	-5.766460e-06	-2.247097e-11	-4.199026e+01	-1.419508e+01
5.900000e-07	-5.739540e-06	-1.926277e-11	-4.179423e+01	-1.410162e+01
6.000000e-07	-5.712219e-06	5.174575e-11	-4.159529e+01	-1.400604e+01
6.100000e-07	-5.684513e-06	3.014098e-11	-4.139354e+01	-1.390957e+01
6.200000e-07	-5.656523e-06	-3.438205e-11	-4.118972e+01	-1.381344e+01
6.300000e-07	-5.628251e-06	-2.801949e-11	-4.098385e+01	-1.371877e+01
6.400000e-07	-5.599613e-06	4.688430e-11	-4.077531e+01	-1.362664e+01
6.500000e-07	-5.570595e-06	3.663021e-11	-4.056401e+01	-1.353805e+01
6.600000e-07	-5.541297e-06	-2.510046e-11	-4.035066e+01	-1.345390e+01
6.700000e-07	-5.511586e-06	-3.561057e-11	-4.013432e+01	-1.337501e+01
6.800000e-07	-5.481374e-06	2.129520e-11	-3.991431e+01	-1.330212e+01
6.900000e-07	-5.450804e-06	2.357584e-11	-3.969171e+01	-1.323583e+01
7.000000e-07	-5.419873e-06	-1.895551e-11	-3.946648e+01	-1.317668e+01
7.100000e-07	-5.388565e-06	-3.195179e-11	-3.923850e+01	-1.312506e+01
7.200000e-07	-5.356913e-06	-4.467512e-12	-3.900802e+01	-1.308130e+01
7.300000e-07	-5.324947e-06	2.888809e-12	-3.877525e+01	-1.304559e+01
7.400000e-07	-5.292745e-06	-3.991189e-12	-3.854075e+01	-1.301802e+01
7.500000e-07	-5.260274e-06	-1.701104e-11	-3.830431e+01	-1.299860e+01
7.600000e-07	-5.227382e-06	-2.694860e-11	-3.806480e+01	-1.298722e+01
7.700000e-07	-5.193941e-06	-1.492883e-11	-3.782129e+01	-1.298367e+01
7.800000e-07	-5.160000e-06	-3.312615e-13	-3.757413e+01	-1.298768e+01
7.900000e-07	-5.125592e-06	-2.045215e-11	-3.732358e+01	-1.299887e+01
8.000000e-07	-5.090624e-06	-4.624734e-11	-3.706895e+01	-1.301680e+01
8.100000e-07	-5.055167e-06	-2.503086e-11	-3.681076e+01	-1.304096e+01
8.200000e-07	-5.019330e-06	-6.525763e-12	-3.654980e+01	-1.307077e+01
8.300000e-07	-4.983229e-06	-2.677040e-11	-3.628692e+01	-1.310560e+01
8.400000e-07	-4.946923e-06	-5.264107e-11	-3.602255e+01	-1.314479e+01
8.500000e-07	-4.910312e-06	-3.925069e-11	-3.575595e+01	-1.318764e+01
8.600000e-07	-4.873373e-06	-2.658173e-11	-3.548697e+01	-1.323341e+01
8.700000e-07	-4.836117e-06	-3.765337e-11	-3.521568e+01	-1.328137e+01
8.800000e-07	-4.798543e-06	-5.801648e-11	-3.494207e+01	-1.333077e+01
8.900000e-07	-4.760659e-06	-5.002053e-11	-3.466621e+01	-1.338086e+01
9.000000e-07	-4.722420e-06	-3.815830e-11	-3.438776e+01	-1.343091e+01
9.100000e-07	-4.683873e-06	-3.803851e-11	-3.410707e+01	-1.348019e+01
9.200000e-07	-4.645009e-06	-5.171925e-11	-3.382407e+01	-1.352803e+01
9.300000e-07	-4.605749e-06	-5.450459e-11	-3.353818e+01	-1.357376e+01
9.400000e-07	-4.566243e-06	-5.260738e-11	-3.325050e+01	-1.361678e+01
9.500000e-07	-4.526543e-06	-4.962832e-11	-3.296142e+01	-1.365652e+01
9.600000e-07	-4.486606e-06	-5.815862e-11	-3.267060e+01	-1.369247e+01
9.700000e-07	-4.446391e-06	-6.601082e-11	-3.237777e+01	-1.372418e+01
9.800000e-07	-4.405832e-06	-6.659481e-11	-3.208243e+01	-1.375124e+01
9.900000e-07	-4.364853e-06	-5.907248e-11	-3.178402e+01	-1.377333e+01
1.000000e-06	-4.323426e-06	-6.399881e-11	-3.148236e+01	-1.379019e+01
1.010000e-06	-4.281651e-06	-7.773216e-11	-3.117816e+01	-1.380162e+01
1.020000e-06	-4.239497e-06	-8.035836e-11	-3.087121e+01	-1.380749e+01
1.030000e-06	-4.196871e-06	-7.285300e-11	-3.056081e+01	-1.380773e+01
1.040000e-06	-4.153800e-06	-7.593300e-11	-3.024718e+01	-1.380235e+01
1.050000e-06	-4.110397e-06	-8.870793e-11	-2.993113e+01	-1.379142e+01
1.060000e-06	-4.066741e-06	-8.930600e-11	-2.961323e+01	-1.377506e+01
1.070000e-06	-4.022852e-06	-8.062515e-11	-2.929364e+01	-1.375347e+01
1.080000e-06	-3.978754e-06	-7.850133e-11	-2.897253e+01	-1.372688e+01
1.090000e-06	-3.934378e-06	-8.502285e-11	-2.864939e+01	-1.369557e+01
1.100000e-06	-3.889693e-06	-8.621699e-11	-2.832400e+01	-1.365989e+01
1.110000e-06	-3.844777e-06	-8.476480e-11	-2.799693e+01	-1.362021e+01
1.120000e-06	-3.799573e-06	-8.496024e-11	-2.766776e+01	-1.357692e+01
1.130000e-06	-3.754124e-06	-9.021711e-11	-2.733681e+01	-1.353046e+01
1.140000e-06	-3.708458e-06	-9.382495e-11	-2.700428e+01	-1.348128e+01
1.150000e-06	-3.662469e-06	-9.778118e-11	-2.666940e+01	-1.342984e+01
1.160000e-06	-3.616260e-06	-9.509238e-11	-2.633291e+01	-1.337662e+01
1.170000e-06	-3.569931e-06	-9.233199e-11	-2.599555e+01	-1.332209e+01
1.180000e-06	-3.523349e-06	-9.275604e-11	-2.565635e+01	-1.326671e+01
1.190000e-06	-3.476440e-06	-9.505491e-11	-2.531477e+01	-1.321095e+01
1.200000e-06	-3.429290e-06	-9.134228e-11	-2.497143e+01	-1.315523e+01
1.210000e-06	-3.381923e-06	-9.016936e-11	-2.462651e+01	-1.309999e+01
1.220000e-06	-3.334316e-06	-9.427124e-11	-2.427985e+01	-1.304561e+01
1.230000e-06	-3.286534e-06	-1.017035e-10	-2.393191e+01	-1.299245e+01
1.240000e-06	-3.238523e-06	-1.028003e-10	-2.358230e+01	-1.294084e+01
1.250000e-06	-3.190198e-06	-1.029859e-10	-2.323041e+01	-1.289105e+01
1.260000e-06	-3.141684e-06	-1.053997e-10	-2.287714e+01	-1.284333e+01
1.270000e-06	-3.092976e-06	-1.068534e-10	-2.252246e+01	-1.279788e+01
1.280000e-06	-3.043961e-06	-1.047046e-10	-2.216554e+01	-1.275485e+01
1.290000e-06	-2.994681e-06	-1.031516e-10	-2.180669e+01	-1.271434e+01
1.300000e-06	-2.945108e-06	-1.042216e-10	-2.144571e+01	-1.267641e+01
1.310000e-06	-2.895214e-06	-1.005522e-10	-2.108239e+01	-1.264108e+01
1.320000e-06	-2.845013e-06	-9.743480e-11	-2.071684e+01	-1.260829e+01
1.330000e-06	-2.794371e-06	-9.996046e-11	-2.034808e+01	-1.257798e+01
1.340000e-06	-2.743342e-06	-1.051619e-10	-1.997649e+01	-1.255001e+01
1.350000e-06	-2.692179e-06	-1.067430e-10	-1.960393e+01	-1.252422e+01
1.360000e-06	-2.640836e-06	-1.081824e-10	-1.923007e+01	-1.250039e+01
1.370000e-06	-2.589209e-06	-1.096733e-10	-1.885413e+01	-1.247830e+01
1.380000e-06	-2.537417e-06	-1.098967e-10	-1.847698e+01	-1.245766e+01
1.390000e-06	-2.485434e-06	-1.091052e-10	-1.809845e+01	-1.243817e+01
1.400000e-06	-2.433226e-06	-1.080055e-10	-1.771829e+01	-1.241951e+01
1.410000e-06	-2.380883e-06	-1.068652e-10	-1.733713e+01	-1.240134e+01
1.420000e-06	-2.328364e-06	-1.072799e-10	-1.695470e+01	-1.238330e+01
1.430000e-06	-2.275622e-06	-1.099381e-10	-1.657065e+01	-1.236501e+01
1.440000e-06	-2.222708e-06	-1.150807e-10	-1.618534e+01	-1.234610e+01
1.450000e-06	-2.169685e-06	-1.184199e-10	-1.579923e+01	-1.232619e+01
1.460000e-06	-2.116571e-06	-1.202209e-10	-1.541247e+01	-1.230491e+01
1.470000e-06	-2.063291e-06	-1.212418e-10	-1.502449e+01	-1.228190e+01
1.480000e-06	-2.009855e-06	-1.226887e-10	-1.463538e+01	-1.225679e+01
1.490000e-06	-1.956265e-06	-1.229336e-10	-1.424515e+01	-1.222924e+01
1.500000e-06	-1.902528e-06	-1.206545e-10	-1.385385e+01	-1.219893e+01
1.510000e-06	-1.848740e-06	-1.194206e-10	-1.346217e+01	-1.216556e+01
1.520000e-06	-1.794825e-06	-1.227623e-10	-1.306958e+01	-1.212884e+01
1.530000e-06	-1.740711e-06	-1.264976e-10	-1.267552e+01	-1.208853e+01
1.540000e-06	-1.686479e-06	-1.262644e-10	-1.228062e+01	-1.204439e+01
1.550000e-06	-1.632202e-06	-1.249846e-10	-1.188538e+01	-1.199624e+01
1.560000e-06	-1.577756e-06	-1.250964e-10	-1.148892e+01	-1.194390e+01
1.570000e-06	-1.523138e-06	-1.256362e-10	-1.109120e+01	-1.188725e+01
1.580000e-06	-1.468453e-06	-1.267480e-10	-1.069299e+01	-1.182617e+01
1.590000e-06	-1.413592e-06	-1.276685e-10	-1.029351e+01	-1.176060e+01
1.600000e-06	-1.358568e-06	-1.276869e-10	-9.892836e+00	-1.169049e+01
1.610000e-06	-1.303574e-06	-1.271631e-10	-9.492376e+00	-1.161582e+01
1.620000e-06	-1.248550e-06	-1.264829e-10	-9.091704e+00	-1.153661e+01
1.630000e-06	-1.193433e-06	-1.242380e-10	-8.690352e+00	-1.145290e+01
1.640000e-06	-1.138263e-06	-1.256965e-10	-8.288611e+00	-1.136474e+01
1.650000e-06	-1.082964e-06	-1.285140e-10	-7.885934e+00	-1.127221e+01
1.660000e-06	-1.027568e-06	-1.320208e-10	-7.482552e+00	-1.117543e+01
1.670000e-06	-9.721404e-07	-1.350194e-10	-7.078941e+00	-1.107450e+01
1.680000e-06	-9.167124e-07	-1.353166e-10	-6.675324e+00	-1.096955e+01
1.690000e-06	-8.612876e-07	-1.365319e-10	-6.271731e+00	-1.086073e+01
1.700000e-06	-8.057818e-07	-1.355687e-10	-5.867549e+00	-1.074818e+01
1.710000e-06	-7.501718e-07	-1.329447e-10	-5.462607e+00	-1.063205e+01
1.720000e-06	-6.945360e-07	-1.298227e-10	-5.057478e+00	-1.051250e+01
1.730000e-06	-6.389021e-07	-1.278213e-10	-4.652363e+00	-1.038968e+01
1.740000e-06	-5.832241e-07	-1.280037e-10	-4.246926e+00	-1.026374e+01
1.750000e-06	-5.275229e-07	-1.296234e-10	-3.841321e+00	-1.013483e+01
1.760000e-06	-4.718490e-07	-1.335805e-10	-3.435914e+00	-1.000309e+01
1.770000e-06	-4.161322e-07	-1.369971e-10	-3.030195e+00	-9.868643e+00
1.780000e-06	-3.603054e-07	-1.349780e-10	-2.623675e+00	-9.731610e+00
1.790000e-06	-3.044367e-07	-1.310404e-10	-2.216850e+00	-9.592100e+00
1.800000e-06	-2.485841e-07	-1.286625e-10	-1.810142e+00	-9.450209e+00
1.810000e-06	-1.927730e-07	-1.277723e-10	-1.403736e+00	-9.306022e+00
1.820000e-06	-1.369886e-07	-1.229448e-10	-9.975248e-01	-9.159610e+00
1.830000e-06	-8.116228e-08	-1.170629e-10	-5.910082e-01	-9.011033e+00
1.840000e-06	-2.533709e-08	-1.148785e-10	-1.844998e-01	-8.860339e+00
1.850000e-06	3.047573e-08	-1.176325e-10	2.219184e-01	-8.707567e+00
1.860000e-06	8.626101e-08	-1.198569e-10	6.281362e-01	-8.552744e+00
1.870000e-06	1.420026e-07	-1.180241e-10	1.034036e+00	-8.395893e+00
1.880000e-06	1.978017e-07	-1.154133e-10	1.440354e+00	-8.237030e+00
1.890000e-06	2.536049e-07	-1.159442e-10	1.846703e+00	-8.076166e+00
1.900000e-06	3.093647e-07	-1.162110e-10	2.252735e+00	-7.913313e+00
1.910000e-06	3.651338e-07	-1.131000e-10	2.658834e+00	-7.748482e+00
1.920000e-06	4.209050e-07	-1.087568e-10	3.064950e+00	-7.581688e+00
1.930000e-06	4.766695e-07	-1.066434e-10	3.471016e+00	-7.412954e+00
1.940000e-06	5.324003e-07	-1.064671e-10	3.876837e+00	-7.242309e+00
1.950000e-06	5.880893e-07	-1.061433e-10	4.282354e+00	-7.069795e+00
1.960000e-06	6.437520e-07	-1.049681e-10	4.687679e+00	-6.895467e+00
1.970000e-06	6.993756e-07	-1.040954e-10	5.092719e+00	-6.719395e+00
1.980000e-06	7.549475e-07	-1.035579e-10	5.497383e+00	-6.541669e+00
1.990000e-06	8.104749e-07	-1.015592e-10	5.901723e+00	-6.362398e+00
2.000000e-06	8.659790e-07	-9.884337e-11	6.305894e+00	-6.181713e+00
2.010000e-06	9.214476e-07	-9.738978e-11	6.709805e+00	-5.999767e+00
2.020000e-06	9.768341e-07	-9.563548e-11	7.113119e+00	-5.816740e+00
2.030000e-06	1.032145e-06	-9.043351e-11	7.515880e+00	-5.632835e+00
2.040000e-06	1.087376e-06	-8.643198e-11	7.918064e+00	-5.448279e+00
2.050000e-06	1.142557e-06	-8.486918e-11	8.319880e+00	-5.263328e+00
2.060000e-06	1.197694e-06	-8.450307e-11	8.721378e+00	-5.078260e+00
2.070000e-06	1.252719e-06	-8.323720e-11	9.122061e+00	-4.893377e+00
2.080000e-06	1.307627e-06	-8.230347e-11	9.521886e+00	-4.709004e+00
2.090000e-06	1.362472e-06	-8.323892e-11	9.921263e+00	-4.525488e+00
2.100000e-06	1.417236e-06	-8.460613e-11	1.032004e+01	-4.343194e+00
2.110000e-06	1.471925e-06	-8.240182e-11	1.071828e+01	-4.162503e+00
2.120000e-06	1.526533e-06	-7.736399e-11	1.111592e+01	-3.983810e+00
2.130000e-06	1.580964e-06	-7.369285e-11	1.151227e+01	-3.807519e+00
2.140000e-06	1.635262e-06	-7.385220e-11	1.190767e+01	-3.634043e+00
2.150000e-06	1.689465e-06	-7.493546e-11	1.230236e+01	-3.463797e+00
2.160000e-06	1.743610e-06	-7.395062e-11	1.269664e+01	-3.297194e+00
2.170000e-06	1.797691e-06	-7.292370e-11	1.309045e+01	-3.134645e+00
2.180000e-06	1.851624e-06	-7.395874e-11	1.348317e+01	-2.976547e+00
2.190000e-06	1.905403e-06	-7.445158e-11	1.387478e+01	-2.823289e+00
2.200000e-06	1.959022e-06	-7.146479e-11	1.426523e+01	-2.675237e+00
2.210000e-06	2.012490e-06	-6.770495e-11	1.465457e+01	-2.532737e+00
2.220000e-06	2.065791e-06	-6.579809e-11	1.504270e+01	-2.396111e+00
2.230000e-06	2.118980e-06	-6.455752e-11	1.543001e+01	-2.265646e+00
2.240000e-06	2.172040e-06	-6.437334e-11	1.581638e+01	-2.141598e+00
2.250000e-06	2.224851e-06	-6.609967e-11	1.620094e+01	-2.024184e+00
2.260000e-06	2.277432e-06	-6.743549e-11	1.658382e+01	-1.913580e+00
2.270000e-06	2.329911e-06	-6.790980e-11	1.696597e+01	-1.809920e+00
2.280000e-06	2.382237e-06	-6.926370e-11	1.734699e+01	-1.713290e+00
2.290000e-06	2.434347e-06	-6.995007e-11	1.772645e+01	-1.623727e+00
2.300000e-06	2.486222e-06	-7.002465e-11	1.810419e+01	-1.541222e+00
2.310000e-06	2.537888e-06	-7.134463e-11	1.848042e+01	-1.465711e+00
2.320000e-06	2.589462e-06	-7.274574e-11	1.885597e+01	-1.397082e+00
2.330000e-06	2.640917e-06	-7.276970e-11	1.923065e+01	-1.335172e+00
2.340000e-06	2.692144e-06	-7.245999e-11	1.960368e+01	-1.279766e+00
2.350000e-06	2.743043e-06	-7.377424e-11	1.997431e+01	-1.230602e+00
2.360000e-06	2.793644e-06	-7.443314e-11	2.034278e+01	-1.187370e+00
2.370000e-06	2.843837e-06	-7.367337e-11	2.070828e+01	-1.149716e+00
2.380000e-06	2.893584e-06	-7.336612e-11	2.107053e+01	-1.117244e+00
2.390000e-06	2.942945e-06	-7.612196e-11	2.142997e+01	-1.089520e+00
2.400000e-06	2.992054e-06	-7.917259e-11	2.178756e+01	-1.066076e+00
2.410000e-06	3.040947e-06	-7.987037e-11	2.214359e+01	-1.046414e+00
2.420000e-06	3.089484e-06	-7.883949e-11	2.249703e+01	-1.030010e+00
2.430000e-06	3.137783e-06	-7.853090e-11	2.284873e+01	-1.016321e+00
2.440000e-06	3.185924e-06	-7.914202e-11	2.319929e+01	-1.004790e+00
2.450000e-06	3.233864e-06	-7.768207e-11	2.354838e+01	-9.948496e-01
2.460000e-06	3.281624e-06	-7.603653e-11	2.389616e+01	-9.859304e-01
2.470000e-06	3.329293e-06	-7.603429e-11	2.424327e+01	-9.774652e-01
2.480000e-06	3.376808e-06	-7.636333e-11	2.458927e+01	-9.688956e-01
2.490000e-06	3.424019e-06	-7.592582e-11	2.493305e+01	-9.596778e-01
2.500000e-06	3.470948e-06	-7.548499e-11	2.527478e+01	-9.492881e-01
2.510000e-06	3.517565e-06	-7.647462e-11	2.561423e+01	-9.372289e-01
2.520000e-06	3.563915e-06	-7.681393e-11	2.595175e+01	-9.230337e-01
2.530000e-06	3.610108e-06	-7.446465e-11	2.628812e+01	-9.062723e-01
2.540000e-06	3.656076e-06	-7.456606e-11	2.662285e+01	-8.865553e-01
2.550000e-06	3.701809e-06	-7.796573e-11	2.695587e+01	-8.635385e-01
2.560000e-06	3.747233e-06	-8.021845e-11	2.728663e+01	-8.369263e-01
2.570000e-06	3.792351e-06	-8.212559e-11	2.761517e+01	-8.064752e-01
2.580000e-06	3.837263e-06	-8.613887e-11	2.794221e+01	-7.719961e-01
2.590000e-06	3.881907e-06	-9.050404e-11	2.826730e+01	-7.333565e-01
2.600000e-06	3.926334e-06	-9.251876e-11	2.859081e+01	-6.904816e-01
2.610000e-06	3.970554e-06	-9.018679e-11	2.891281e+01	-6.433550e-01
2.620000e-06	4.014604e-06	-8.716513e-11	2.923358e+01	-5.920188e-01
2.630000e-06	4.058515e-06	-8.733030e-11	2.955333e+01	-5.365725e-01
2.640000e-06	4.102226e-06	-8.759966e-11	2.987163e+01	-4.771721e-01
2.650000e-06	4.145693e-06	-8.649568e-11	3.018814e+01	-4.140275e-01
2.660000e-06	4.188772e-06	-8.504480e-11	3.050184e+01	-3.474000e-01
2.670000e-06	4.231382e-06	-8.495868e-11	3.081211e+01	-2.775990e-01
2.680000e-06	4.273400e-06	-8.666851e-11	3.111808e+01	-2.049775e-01
2.690000e-06	4.314920e-06	-8.746999e-11	3.142042e+01	-1.299286e-01
2.700000e-06	4.356078e-06	-8.677841e-11	3.172013e+01	-5.287919e-02
2.710000e-06	4.396832e-06	-8.796193e-11	3.201689e+01	2.571436e-02
2.720000e-06	4.437267e-06	-9.049990e-11	3.231133e+01	1.053727e-01
2.730000e-06	4.477448e-06	-9.223469e-11	3.260392e+01	1.855994e-01
2.740000e-06	4.517392e-06	-9.220321e-11	3.289479e+01	2.658875e-01
2.750000e-06	4.557086e-06	-9.304167e-11	3.318383e+01	3.457256e-01
2.760000e-06	4.596560e-06	-9.750467e-11	3.347127e+01	4.246051e-01
2.770000e-06	4.635841e-06	-1.007965e-10	3.375730e+01	5.020263e-01
2.780000e-06	4.674810e-06	-9.965385e-11	3.404107e+01	5.775049e-01
2.790000e-06	4.713379e-06	-9.893365e-11	3.432192e+01	6.505790e-01
2.800000e-06	4.751574e-06	-1.012400e-10	3.460005e+01	7.208143e-01
2.810000e-06	4.789404e-06	-1.037692e-10	3.487553e+01	7.878105e-01
2.820000e-06	4.826898e-06	-1.051099e-10	3.514855e+01	8.512065e-01
2.830000e-06	4.864061e-06	-1.050761e-10	3.541916e+01	9.106854e-01
2.840000e-06	4.900867e-06	-1.049456e-10	3.568717e+01	9.659788e-01
2.850000e-06	4.937369e-06	-1.064567e-10	3.595298e+01	1.016870e+00
2.860000e-06	4.973649e-06	-1.079866e-10	3.621716e+01	1.063200e+00
2.870000e-06	5.009688e-06	-1.062059e-10	3.647959e+01	1.104864e+00
2.880000e-06	5.045524e-06	-1.031188e-10	3.674054e+01	1.141820e+00
