# Temperatura_=_20.0
# Concentracion g/m^3_=_9000.0
# C_Vs_to_Am_M_A/Vsm_=_65563218390.804596
# pendiente_HvsI_1/m_=_3716.3
# ordenada_HvsI_A/m_=_1297.0
# frecuencia_Hz_=_135292.4427173028

Tiempo_(s)	Campo_(V.s)	Magnetizacion_(V.s)	Campo_(kA/m)	Magnetizacion_(A/m)
0.000000e+00	-6.565097e-06	-4.619330e-09	-4.763256e+01	-2.863307e+02
1.000000e-08	-6.565236e-06	-4.618986e-09	-4.763358e+01	-2.863973e+02
2.000000e-08	-6.565086e-06	-4.620700e-09	-4.763248e+01	-2.864596e+02
3.000000e-08	-6.564487e-06	-4.625767e-09	-4.762814e+01	-2.865166e+02
4.000000e-08	-6.563334e-06	-4.630738e-09	-4.761978e+01	-2.865675e+02
5.000000e-08	-6.561568e-06	-4.634477e-09	-4.760696e+01	-2.866115e+02
6.000000e-08	-6.559130e-06	-4.634447e-09	-4.758927e+01	-2.866478e+02
7.000000e-08	-6.556041e-06	-4.626553e-09	-4.756686e+01	-2.866755e+02
8.000000e-08	-6.552437e-06	-4.611143e-09	-4.754071e+01	-2.866941e+02
9.000000e-08	-6.548494e-06	-4.621736e-09	-4.751210e+01	-2.867028e+02
1.000000e-07	-6.544122e-06	-4.676846e-09	-4.748038e+01	-2.867013e+02
1.100000e-07	-6.539115e-06	-4.712142e-09	-4.744405e+01	-2.866891e+02
1.200000e-07	-6.533496e-06	-4.625057e-09	-4.740329e+01	-2.866659e+02
1.300000e-07	-6.527521e-06	-4.510546e-09	-4.735994e+01	-2.866313e+02
1.400000e-07	-6.521268e-06	-4.550820e-09	-4.731457e+01	-2.865854e+02
1.500000e-07	-6.514601e-06	-4.704117e-09	-4.726620e+01	-2.865281e+02
1.600000e-07	-6.507483e-06	-4.692759e-09	-4.721455e+01	-2.864595e+02
1.700000e-07	-6.499918e-06	-4.576376e-09	-4.715967e+01	-2.863798e+02
1.800000e-07	-6.491974e-06	-4.532037e-09	-4.710203e+01	-2.862893e+02
1.900000e-07	-6.483736e-06	-4.633090e-09	-4.704225e+01	-2.861882e+02
2.000000e-07	-6.475301e-06	-4.722955e-09	-4.698106e+01	-2.860772e+02
2.100000e-07	-6.466470e-06	-4.682827e-09	-4.691698e+01	-2.859566e+02
2.200000e-07	-6.456756e-06	-4.576335e-09	-4.684650e+01	-2.858272e+02
2.300000e-07	-6.446162e-06	-4.513898e-09	-4.676964e+01	-2.856895e+02
2.400000e-07	-6.435002e-06	-4.612138e-09	-4.668867e+01	-2.855442e+02
2.500000e-07	-6.423359e-06	-4.647697e-09	-4.660420e+01	-2.853920e+02
2.600000e-07	-6.411087e-06	-4.515260e-09	-4.651515e+01	-2.852336e+02
2.700000e-07	-6.398236e-06	-4.330720e-09	-4.642192e+01	-2.850698e+02
2.800000e-07	-6.385058e-06	-4.360103e-09	-4.632631e+01	-2.849013e+02
2.900000e-07	-6.371485e-06	-4.429990e-09	-4.622783e+01	-2.847287e+02
3.000000e-07	-6.357292e-06	-4.322756e-09	-4.612485e+01	-2.845527e+02
3.100000e-07	-6.342540e-06	-4.161068e-09	-4.601782e+01	-2.843738e+02
3.200000e-07	-6.327224e-06	-4.167213e-09	-4.590669e+01	-2.841927e+02
3.300000e-07	-6.311196e-06	-4.198586e-09	-4.579041e+01	-2.840097e+02
3.400000e-07	-6.294634e-06	-4.161468e-09	-4.567024e+01	-2.838252e+02
3.500000e-07	-6.277613e-06	-4.091801e-09	-4.554674e+01	-2.836395e+02
3.600000e-07	-6.260199e-06	-4.028646e-09	-4.542040e+01	-2.834528e+02
3.700000e-07	-6.242471e-06	-4.032176e-09	-4.529178e+01	-2.832651e+02
3.800000e-07	-6.224445e-06	-4.125045e-09	-4.516099e+01	-2.830764e+02
3.900000e-07	-6.205928e-06	-4.125831e-09	-4.502664e+01	-2.828865e+02
4.000000e-07	-6.186773e-06	-4.000480e-09	-4.488767e+01	-2.826953e+02
4.100000e-07	-6.167194e-06	-4.015627e-09	-4.474561e+01	-2.825022e+02
4.200000e-07	-6.147336e-06	-4.158206e-09	-4.460154e+01	-2.823069e+02
4.300000e-07	-6.127140e-06	-4.152875e-09	-4.445500e+01	-2.821088e+02
4.400000e-07	-6.106476e-06	-4.023161e-09	-4.430508e+01	-2.819071e+02
4.500000e-07	-6.085467e-06	-4.041976e-09	-4.415264e+01	-2.817010e+02
4.600000e-07	-6.064248e-06	-4.134709e-09	-4.399869e+01	-2.814898e+02
4.700000e-07	-6.042734e-06	-4.123110e-09	-4.384260e+01	-2.812726e+02
4.800000e-07	-6.020705e-06	-4.037473e-09	-4.368277e+01	-2.810482e+02
4.900000e-07	-5.998154e-06	-4.028274e-09	-4.351915e+01	-2.808157e+02
5.000000e-07	-5.975187e-06	-4.046743e-09	-4.335252e+01	-2.805740e+02
5.100000e-07	-5.951903e-06	-4.072171e-09	-4.318358e+01	-2.803222e+02
5.200000e-07	-5.928327e-06	-4.060905e-09	-4.301253e+01	-2.800589e+02
5.300000e-07	-5.904365e-06	-4.018236e-09	-4.283867e+01	-2.797833e+02
5.400000e-07	-5.879938e-06	-3.986876e-09	-4.266144e+01	-2.794943e+02
5.500000e-07	-5.855040e-06	-4.044338e-09	-4.248080e+01	-2.791908e+02
5.600000e-07	-5.829640e-06	-4.066267e-09	-4.229652e+01	-2.788720e+02
5.700000e-07	-5.803542e-06	-4.003944e-09	-4.210716e+01	-2.785370e+02
5.800000e-07	-5.776718e-06	-3.965093e-09	-4.191254e+01	-2.781850e+02
5.900000e-07	-5.749355e-06	-4.015334e-09	-4.171401e+01	-2.778154e+02
6.000000e-07	-5.721642e-06	-4.034924e-09	-4.151294e+01	-2.774276e+02
6.100000e-07	-5.693722e-06	-3.996323e-09	-4.131037e+01	-2.770211e+02
6.200000e-07	-5.665593e-06	-3.966994e-09	-4.110628e+01	-2.765957e+02
6.300000e-07	-5.637094e-06	-3.981889e-09	-4.089951e+01	-2.761511e+02
6.400000e-07	-5.608121e-06	-4.001028e-09	-4.068930e+01	-2.756874e+02
6.500000e-07	-5.578752e-06	-3.987926e-09	-4.047621e+01	-2.752046e+02
6.600000e-07	-5.549074e-06	-3.960443e-09	-4.026089e+01	-2.747031e+02
6.700000e-07	-5.519073e-06	-3.954617e-09	-4.004322e+01	-2.741831e+02
6.800000e-07	-5.488612e-06	-3.973098e-09	-3.982221e+01	-2.736452e+02
6.900000e-07	-5.457701e-06	-3.967759e-09	-3.959794e+01	-2.730902e+02
7.000000e-07	-5.426489e-06	-3.947510e-09	-3.937148e+01	-2.725187e+02
7.100000e-07	-5.395009e-06	-3.930924e-09	-3.914308e+01	-2.719318e+02
7.200000e-07	-5.363272e-06	-3.939183e-09	-3.891282e+01	-2.713303e+02
7.300000e-07	-5.331280e-06	-3.942301e-09	-3.868070e+01	-2.707155e+02
7.400000e-07	-5.298981e-06	-3.927066e-09	-3.844635e+01	-2.700885e+02
7.500000e-07	-5.266277e-06	-3.898731e-09	-3.820908e+01	-2.694505e+02
7.600000e-07	-5.233123e-06	-3.903961e-09	-3.796853e+01	-2.688029e+02
7.700000e-07	-5.199411e-06	-3.916614e-09	-3.772394e+01	-2.681469e+02
7.800000e-07	-5.164986e-06	-3.902901e-09	-3.747417e+01	-2.674839e+02
7.900000e-07	-5.129984e-06	-3.868886e-09	-3.722021e+01	-2.668152e+02
8.000000e-07	-5.094595e-06	-3.867104e-09	-3.696345e+01	-2.661421e+02
8.100000e-07	-5.058936e-06	-3.880143e-09	-3.670473e+01	-2.654657e+02
8.200000e-07	-5.023071e-06	-3.874330e-09	-3.644451e+01	-2.647873e+02
8.300000e-07	-4.986883e-06	-3.844298e-09	-3.618195e+01	-2.641079e+02
8.400000e-07	-4.950374e-06	-3.832675e-09	-3.591707e+01	-2.634284e+02
8.500000e-07	-4.913465e-06	-3.841861e-09	-3.564928e+01	-2.627497e+02
8.600000e-07	-4.876144e-06	-3.845017e-09	-3.537849e+01	-2.620725e+02
8.700000e-07	-4.838616e-06	-3.822166e-09	-3.510621e+01	-2.613973e+02
8.800000e-07	-4.800816e-06	-3.793403e-09	-3.483196e+01	-2.607245e+02
8.900000e-07	-4.762617e-06	-3.788268e-09	-3.455481e+01	-2.600542e+02
9.000000e-07	-4.724056e-06	-3.798528e-09	-3.427503e+01	-2.593865e+02
9.100000e-07	-4.685235e-06	-3.793151e-09	-3.399337e+01	-2.587211e+02
9.200000e-07	-4.646165e-06	-3.767041e-09	-3.370990e+01	-2.580577e+02
9.300000e-07	-4.606784e-06	-3.751482e-09	-3.342417e+01	-2.573957e+02
9.400000e-07	-4.567144e-06	-3.755587e-09	-3.313657e+01	-2.567343e+02
9.500000e-07	-4.527337e-06	-3.757210e-09	-3.284775e+01	-2.560725e+02
9.600000e-07	-4.487339e-06	-3.734240e-09	-3.255755e+01	-2.554093e+02
9.700000e-07	-4.447032e-06	-3.708072e-09	-3.226511e+01	-2.547432e+02
9.800000e-07	-4.406295e-06	-3.699465e-09	-3.196954e+01	-2.540727e+02
9.900000e-07	-4.364975e-06	-3.703652e-09	-3.166974e+01	-2.533964e+02
1.000000e-06	-4.323054e-06	-3.692040e-09	-3.136559e+01	-2.527123e+02
1.010000e-06	-4.280655e-06	-3.671921e-09	-3.105797e+01	-2.520187e+02
1.020000e-06	-4.237956e-06	-3.659433e-09	-3.074817e+01	-2.513136e+02
1.030000e-06	-4.194948e-06	-3.657203e-09	-3.043613e+01	-2.505948e+02
1.040000e-06	-4.151590e-06	-3.646952e-09	-3.012155e+01	-2.498605e+02
1.050000e-06	-4.107990e-06	-3.626453e-09	-2.980521e+01	-2.491083e+02
1.060000e-06	-4.064191e-06	-3.604143e-09	-2.948743e+01	-2.483364e+02
1.070000e-06	-4.020182e-06	-3.591468e-09	-2.916813e+01	-2.475426e+02
1.080000e-06	-3.975911e-06	-3.582583e-09	-2.884692e+01	-2.467249e+02
1.090000e-06	-3.931329e-06	-3.570541e-09	-2.852346e+01	-2.458813e+02
1.100000e-06	-3.886455e-06	-3.552633e-09	-2.819788e+01	-2.450102e+02
1.110000e-06	-3.841323e-06	-3.537484e-09	-2.787043e+01	-2.441097e+02
1.120000e-06	-3.795859e-06	-3.527696e-09	-2.754057e+01	-2.431783e+02
1.130000e-06	-3.750103e-06	-3.516966e-09	-2.720859e+01	-2.422147e+02
1.140000e-06	-3.704150e-06	-3.499859e-09	-2.687518e+01	-2.412177e+02
1.150000e-06	-3.657996e-06	-3.482139e-09	-2.654031e+01	-2.401864e+02
1.160000e-06	-3.611622e-06	-3.466099e-09	-2.620385e+01	-2.391199e+02
1.170000e-06	-3.564957e-06	-3.448623e-09	-2.586528e+01	-2.380177e+02
1.180000e-06	-3.518045e-06	-3.430508e-09	-2.552491e+01	-2.368797e+02
1.190000e-06	-3.470955e-06	-3.413294e-09	-2.518325e+01	-2.357057e+02
1.200000e-06	-3.423616e-06	-3.398354e-09	-2.483979e+01	-2.344960e+02
1.210000e-06	-3.376034e-06	-3.383044e-09	-2.449456e+01	-2.332510e+02
1.220000e-06	-3.328235e-06	-3.366369e-09	-2.414775e+01	-2.319714e+02
1.230000e-06	-3.280170e-06	-3.345998e-09	-2.379902e+01	-2.306582e+02
1.240000e-06	-3.231838e-06	-3.328717e-09	-2.344836e+01	-2.293124e+02
1.250000e-06	-3.183251e-06	-3.313510e-09	-2.309584e+01	-2.279354e+02
1.260000e-06	-3.134340e-06	-3.294696e-09	-2.274096e+01	-2.265287e+02
1.270000e-06	-3.085159e-06	-3.271658e-09	-2.238414e+01	-2.250940e+02
1.280000e-06	-3.035684e-06	-3.252298e-09	-2.202517e+01	-2.236329e+02
1.290000e-06	-2.985933e-06	-3.235977e-09	-2.166421e+01	-2.221475e+02
1.300000e-06	-2.935907e-06	-3.218187e-09	-2.130125e+01	-2.206397e+02
1.310000e-06	-2.885512e-06	-3.193687e-09	-2.093561e+01	-2.191114e+02
1.320000e-06	-2.834742e-06	-3.169810e-09	-2.056726e+01	-2.175646e+02
1.330000e-06	-2.783655e-06	-3.150800e-09	-2.019660e+01	-2.160012e+02
1.340000e-06	-2.732345e-06	-3.134495e-09	-1.982432e+01	-2.144231e+02
1.350000e-06	-2.680879e-06	-3.112137e-09	-1.945091e+01	-2.128320e+02
1.360000e-06	-2.629277e-06	-3.086785e-09	-1.907652e+01	-2.112294e+02
1.370000e-06	-2.577349e-06	-3.066923e-09	-1.869976e+01	-2.096167e+02
1.380000e-06	-2.525194e-06	-3.048376e-09	-1.832136e+01	-2.079951e+02
1.390000e-06	-2.472949e-06	-3.025764e-09	-1.794229e+01	-2.063653e+02
1.400000e-06	-2.420486e-06	-2.999131e-09	-1.756166e+01	-2.047279e+02
1.410000e-06	-2.367897e-06	-2.974080e-09	-1.718010e+01	-2.030830e+02
1.420000e-06	-2.315147e-06	-2.951877e-09	-1.679738e+01	-2.014305e+02
1.430000e-06	-2.262157e-06	-2.927769e-09	-1.641291e+01	-1.997697e+02
1.440000e-06	-2.209042e-06	-2.901964e-09	-1.602754e+01	-1.980997e+02
1.450000e-06	-2.155891e-06	-2.876187e-09	-1.564190e+01	-1.964189e+02
1.460000e-06	-2.102619e-06	-2.851747e-09	-1.525539e+01	-1.947254e+02
1.470000e-06	-2.049130e-06	-2.828152e-09	-1.486731e+01	-1.930167e+02
1.480000e-06	-1.995539e-06	-2.801895e-09	-1.447848e+01	-1.912899e+02
1.490000e-06	-1.941841e-06	-2.773989e-09	-1.408888e+01	-1.895417e+02
1.500000e-06	-1.887955e-06	-2.745163e-09	-1.369792e+01	-1.877681e+02
1.510000e-06	-1.833868e-06	-2.717933e-09	-1.330549e+01	-1.859649e+02
1.520000e-06	-1.779647e-06	-2.688965e-09	-1.291210e+01	-1.841271e+02
1.530000e-06	-1.725328e-06	-2.655695e-09	-1.251798e+01	-1.822496e+02
1.540000e-06	-1.670843e-06	-2.619315e-09	-1.212267e+01	-1.803267e+02
1.550000e-06	-1.616203e-06	-2.586408e-09	-1.172624e+01	-1.783523e+02
1.560000e-06	-1.561509e-06	-2.553227e-09	-1.132941e+01	-1.763201e+02
1.570000e-06	-1.506816e-06	-2.516014e-09	-1.093259e+01	-1.742233e+02
1.580000e-06	-1.451992e-06	-2.478869e-09	-1.053482e+01	-1.720551e+02
1.590000e-06	-1.397021e-06	-2.443098e-09	-1.013598e+01	-1.698083e+02
1.600000e-06	-1.341941e-06	-2.405018e-09	-9.736348e+00	-1.674756e+02
1.610000e-06	-1.286790e-06	-2.364926e-09	-9.336208e+00	-1.650496e+02
1.620000e-06	-1.231604e-06	-2.323109e-09	-8.935811e+00	-1.625229e+02
1.630000e-06	-1.176281e-06	-2.279810e-09	-8.534416e+00	-1.598880e+02
1.640000e-06	-1.120829e-06	-2.237969e-09	-8.132087e+00	-1.571376e+02
1.650000e-06	-1.065362e-06	-2.195809e-09	-7.729657e+00	-1.542647e+02
1.660000e-06	-1.009893e-06	-2.150648e-09	-7.327202e+00	-1.512623e+02
1.670000e-06	-9.543275e-07	-2.103846e-09	-6.924051e+00	-1.481237e+02
1.680000e-06	-8.986853e-07	-2.057663e-09	-6.520343e+00	-1.448428e+02
1.690000e-06	-8.430395e-07	-2.010997e-09	-6.116609e+00	-1.414137e+02
1.700000e-06	-7.873986e-07	-1.960737e-09	-5.712911e+00	-1.378310e+02
1.710000e-06	-7.317624e-07	-1.906033e-09	-5.309247e+00	-1.340900e+02
1.720000e-06	-6.760973e-07	-1.848758e-09	-4.905373e+00	-1.301865e+02
1.730000e-06	-6.204035e-07	-1.790746e-09	-4.501291e+00	-1.261170e+02
1.740000e-06	-5.646914e-07	-1.731264e-09	-4.097076e+00	-1.218788e+02
1.750000e-06	-5.089341e-07	-1.668337e-09	-3.692533e+00	-1.174698e+02
1.760000e-06	-4.531962e-07	-1.603799e-09	-3.288131e+00	-1.128888e+02
1.770000e-06	-3.974559e-07	-1.538700e-09	-2.883711e+00	-1.081355e+02
1.780000e-06	-3.416480e-07	-1.471540e-09	-2.478801e+00	-1.032103e+02
1.790000e-06	-2.858203e-07	-1.399809e-09	-2.073748e+00	-9.811465e+01
1.800000e-06	-2.299956e-07	-1.325472e-09	-1.668715e+00	-9.285086e+01
1.810000e-06	-1.741507e-07	-1.250132e-09	-1.263537e+00	-8.742213e+01
1.820000e-06	-1.183231e-07	-1.170500e-09	-8.584845e-01	-8.183259e+01
1.830000e-06	-6.251726e-08	-1.084048e-09	-4.535892e-01	-7.608729e+01
1.840000e-06	-6.692117e-09	-9.974922e-10	-4.855415e-02	-7.019216e+01
1.850000e-06	4.910257e-08	-9.125411e-10	3.562600e-01	-6.415402e+01
1.860000e-06	1.048833e-07	-8.226238e-10	7.609732e-01	-5.798053e+01
1.870000e-06	1.607119e-07	-7.272717e-10	1.166033e+00	-5.168015e+01
1.880000e-06	2.165499e-07	-6.332312e-10	1.571161e+00	-4.526215e+01
1.890000e-06	2.723334e-07	-5.397431e-10	1.975894e+00	-3.873647e+01
1.900000e-06	3.281067e-07	-4.429284e-10	2.380554e+00	-3.211376e+01
1.910000e-06	3.838844e-07	-3.419713e-10	2.785244e+00	-2.540527e+01
1.920000e-06	4.396336e-07	-2.380978e-10	3.189729e+00	-1.862278e+01
1.930000e-06	4.953649e-07	-1.343010e-10	3.594083e+00	-1.177854e+01
1.940000e-06	5.510553e-07	-3.067780e-11	3.998140e+00	-4.885220e+00
1.950000e-06	6.067005e-07	7.633078e-11	4.401870e+00	2.044202e+00
1.960000e-06	6.623991e-07	1.850055e-10	4.805987e+00	8.996506e+00
1.970000e-06	7.180964e-07	2.927925e-10	5.210094e+00	1.595831e+01
1.980000e-06	7.737038e-07	4.017735e-10	5.613549e+00	2.291616e+01
1.990000e-06	8.292713e-07	5.103225e-10	6.016716e+00	2.985660e+01
2.000000e-06	8.847838e-07	6.168836e-10	6.419482e+00	3.676628e+01
2.010000e-06	9.403103e-07	7.217514e-10	6.822350e+00	4.363202e+01
2.020000e-06	9.958142e-07	8.277388e-10	7.225054e+00	5.044090e+01
2.030000e-06	1.051264e-06	9.311700e-10	7.627366e+00	5.718034e+01
2.040000e-06	1.106683e-06	1.030819e-09	8.029458e+00	6.383817e+01
2.050000e-06	1.162029e-06	1.129145e-09	8.431013e+00	7.040272e+01
2.060000e-06	1.217356e-06	1.227123e-09	8.832435e+00	7.686285e+01
2.070000e-06	1.272689e-06	1.324372e-09	9.233899e+00	8.320807e+01
2.080000e-06	1.327935e-06	1.417767e-09	9.634734e+00	8.942857e+01
2.090000e-06	1.383081e-06	1.506509e-09	1.003484e+01	9.551526e+01
2.100000e-06	1.438062e-06	1.593795e-09	1.043375e+01	1.014598e+02
2.110000e-06	1.492823e-06	1.681138e-09	1.083106e+01	1.072548e+02
2.120000e-06	1.547433e-06	1.764208e-09	1.122728e+01	1.128936e+02
2.130000e-06	1.601920e-06	1.839832e-09	1.162261e+01	1.183705e+02
2.140000e-06	1.656305e-06	1.912876e-09	1.201720e+01	1.236806e+02
2.150000e-06	1.710615e-06	1.985418e-09	1.241124e+01	1.288199e+02
2.160000e-06	1.764923e-06	2.054876e-09	1.280527e+01	1.337856e+02
2.170000e-06	1.819138e-06	2.121516e-09	1.319862e+01	1.385756e+02
2.180000e-06	1.873108e-06	2.185463e-09	1.359020e+01	1.431886e+02
2.190000e-06	1.926937e-06	2.247668e-09	1.398074e+01	1.476244e+02
2.200000e-06	1.980666e-06	2.309059e-09	1.437057e+01	1.518835e+02
2.210000e-06	2.034215e-06	2.366950e-09	1.475909e+01	1.559676e+02
2.220000e-06	2.087623e-06	2.421277e-09	1.514659e+01	1.598786e+02
2.230000e-06	2.140926e-06	2.472591e-09	1.553333e+01	1.636197e+02
2.240000e-06	2.194087e-06	2.519066e-09	1.591903e+01	1.671946e+02
2.250000e-06	2.247067e-06	2.562484e-09	1.630342e+01	1.706077e+02
2.260000e-06	2.299842e-06	2.605376e-09	1.668633e+01	1.738639e+02
2.270000e-06	2.352394e-06	2.647304e-09	1.706762e+01	1.769687e+02
2.280000e-06	2.404777e-06	2.688269e-09	1.744768e+01	1.799283e+02
2.290000e-06	2.457010e-06	2.729215e-09	1.782665e+01	1.827489e+02
2.300000e-06	2.509077e-06	2.765911e-09	1.820442e+01	1.854375e+02
2.310000e-06	2.560955e-06	2.797933e-09	1.858082e+01	1.880011e+02
2.320000e-06	2.612653e-06	2.831402e-09	1.895591e+01	1.904470e+02
2.330000e-06	2.664197e-06	2.866068e-09	1.932988e+01	1.927826e+02
2.340000e-06	2.715515e-06	2.896237e-09	1.970222e+01	1.950155e+02
2.350000e-06	2.766559e-06	2.927066e-09	2.007256e+01	1.971533e+02
2.360000e-06	2.817300e-06	2.960480e-09	2.044071e+01	1.992035e+02
2.370000e-06	2.867779e-06	2.993071e-09	2.080695e+01	2.011734e+02
2.380000e-06	2.917992e-06	3.021765e-09	2.117127e+01	2.030703e+02
2.390000e-06	2.967787e-06	3.047874e-09	2.153255e+01	2.049012e+02
2.400000e-06	3.017083e-06	3.074369e-09	2.189022e+01	2.066730e+02
2.410000e-06	3.066101e-06	3.099186e-09	2.224587e+01	2.083919e+02
2.420000e-06	3.114796e-06	3.122024e-09	2.259917e+01	2.100643e+02
2.430000e-06	3.163128e-06	3.142157e-09	2.294983e+01	2.116957e+02
2.440000e-06	3.211335e-06	3.165172e-09	2.329960e+01	2.132914e+02
2.450000e-06	3.259387e-06	3.190826e-09	2.364824e+01	2.148563e+02
2.460000e-06	3.307245e-06	3.214473e-09	2.399546e+01	2.163948e+02
2.470000e-06	3.354928e-06	3.238395e-09	2.434143e+01	2.179108e+02
2.480000e-06	3.402456e-06	3.263458e-09	2.468626e+01	2.194077e+02
2.490000e-06	3.449868e-06	3.286069e-09	2.503026e+01	2.208884e+02
2.500000e-06	3.497094e-06	3.306906e-09	2.537290e+01	2.223554e+02
2.510000e-06	3.543971e-06	3.327526e-09	2.571302e+01	2.238106e+02
2.520000e-06	3.590544e-06	3.347409e-09	2.605092e+01	2.252555e+02
2.530000e-06	3.636793e-06	3.367943e-09	2.638648e+01	2.266912e+02
2.540000e-06	3.682686e-06	3.387659e-09	2.671945e+01	2.281183e+02
2.550000e-06	3.728341e-06	3.404115e-09	2.705070e+01	2.295370e+02
2.560000e-06	3.773815e-06	3.418332e-09	2.738063e+01	2.309471e+02
2.570000e-06	3.819117e-06	3.433326e-09	2.770931e+01	2.323481e+02
2.580000e-06	3.864185e-06	3.448847e-09	2.803630e+01	2.337393e+02
2.590000e-06	3.908995e-06	3.463634e-09	2.836142e+01	2.351194e+02
2.600000e-06	3.953581e-06	3.479683e-09	2.868491e+01	2.364872e+02
2.610000e-06	3.997838e-06	3.498075e-09	2.900601e+01	2.378411e+02
2.620000e-06	4.041791e-06	3.516126e-09	2.932491e+01	2.391795e+02
2.630000e-06	4.085614e-06	3.529805e-09	2.964287e+01	2.405005e+02
2.640000e-06	4.129345e-06	3.541461e-09	2.996015e+01	2.418023e+02
2.650000e-06	4.172934e-06	3.556372e-09	3.027641e+01	2.430830e+02
2.660000e-06	4.216219e-06	3.572060e-09	3.059046e+01	2.443406e+02
2.670000e-06	4.259115e-06	3.584493e-09	3.090169e+01	2.455732e+02
2.680000e-06	4.301539e-06	3.596674e-09	3.120949e+01	2.467790e+02
2.690000e-06	4.343438e-06	3.611802e-09	3.151348e+01	2.479563e+02
2.700000e-06	4.384782e-06	3.627748e-09	3.181345e+01	2.491036e+02
2.710000e-06	4.425538e-06	3.641957e-09	3.210916e+01	2.502194e+02
2.720000e-06	4.465923e-06	3.653595e-09	3.240217e+01	2.513024e+02
2.730000e-06	4.506089e-06	3.664348e-09	3.269359e+01	2.523516e+02
2.740000e-06	4.546009e-06	3.676632e-09	3.298322e+01	2.533663e+02
2.750000e-06	4.585721e-06	3.687772e-09	3.327135e+01	2.543457e+02
2.760000e-06	4.625232e-06	3.695438e-09	3.355802e+01	2.552895e+02
2.770000e-06	4.664515e-06	3.704376e-09	3.384304e+01	2.561977e+02
2.780000e-06	4.703540e-06	3.716401e-09	3.412618e+01	2.570703e+02
2.790000e-06	4.742170e-06	3.729046e-09	3.440646e+01	2.579078e+02
2.800000e-06	4.780400e-06	3.739537e-09	3.468383e+01	2.587106e+02
2.810000e-06	4.818288e-06	3.749356e-09	3.495873e+01	2.594798e+02
2.820000e-06	4.855819e-06	3.760626e-09	3.523103e+01	2.602163e+02
2.830000e-06	4.893026e-06	3.772801e-09	3.550098e+01	2.609215e+02
2.840000e-06	4.929922e-06	3.783350e-09	3.576868e+01	2.615967e+02
2.850000e-06	4.966555e-06	3.790195e-09	3.603447e+01	2.622436e+02
2.860000e-06	5.002883e-06	3.797621e-09	3.629804e+01	2.628639e+02
2.870000e-06	5.038874e-06	3.810444e-09	3.655917e+01	2.634597e+02
2.880000e-06	5.074646e-06	3.821950e-09	3.681871e+01	2.640327e+02
2.890000e-06	5.110234e-06	3.829055e-09	3.707692e+01	2.645852e+02
2.900000e-06	5.145545e-06	3.839677e-09	3.733311e+01	2.651192e+02
