# Temperatura_=_20.0
# Concentracion g/m^3_=_9000.0
# C_Vs_to_Am_M_A/Vsm_=_65563218390.804596
# pendiente_HvsI_1/m_=_3716.3
# ordenada_HvsI_A/m_=_1297.0
# frecuencia_Hz_=_135294.61604579014

Tiempo_(s)	Campo_(V.s)	Magnetizacion_(V.s)	Campo_(kA/m)	Magnetizacion_(A/m)
0.000000e+00	-6.509900e-06	-4.390311e-09	-4.763368e+01	-2.817200e+02
1.000000e-08	-6.509953e-06	-4.390268e-09	-4.763407e+01	-2.817822e+02
2.000000e-08	-6.509641e-06	-4.387565e-09	-4.763179e+01	-2.818402e+02
3.000000e-08	-6.508801e-06	-4.383299e-09	-4.762565e+01	-2.818930e+02
4.000000e-08	-6.507349e-06	-4.385020e-09	-4.761502e+01	-2.819396e+02
5.000000e-08	-6.505269e-06	-4.389273e-09	-4.759980e+01	-2.819791e+02
6.000000e-08	-6.502567e-06	-4.388671e-09	-4.758003e+01	-2.820106e+02
7.000000e-08	-6.499311e-06	-4.389427e-09	-4.755620e+01	-2.820333e+02
8.000000e-08	-6.495601e-06	-4.410986e-09	-4.752906e+01	-2.820465e+02
9.000000e-08	-6.491419e-06	-4.407886e-09	-4.749846e+01	-2.820494e+02
1.000000e-07	-6.486637e-06	-4.345308e-09	-4.746347e+01	-2.820415e+02
1.100000e-07	-6.481332e-06	-4.280170e-09	-4.742465e+01	-2.820223e+02
1.200000e-07	-6.475680e-06	-4.371355e-09	-4.738329e+01	-2.819916e+02
1.300000e-07	-6.469751e-06	-4.504299e-09	-4.733991e+01	-2.819490e+02
1.400000e-07	-6.463412e-06	-4.472212e-09	-4.729353e+01	-2.818944e+02
1.500000e-07	-6.456532e-06	-4.259670e-09	-4.724319e+01	-2.818278e+02
1.600000e-07	-6.449199e-06	-4.293065e-09	-4.718953e+01	-2.817493e+02
1.700000e-07	-6.441507e-06	-4.454117e-09	-4.713325e+01	-2.816592e+02
1.800000e-07	-6.433538e-06	-4.497390e-09	-4.707493e+01	-2.815577e+02
1.900000e-07	-6.425375e-06	-4.369515e-09	-4.701521e+01	-2.814453e+02
2.000000e-07	-6.416882e-06	-4.272646e-09	-4.695306e+01	-2.813226e+02
2.100000e-07	-6.407666e-06	-4.323480e-09	-4.688563e+01	-2.811900e+02
2.200000e-07	-6.397680e-06	-4.409929e-09	-4.681256e+01	-2.810484e+02
2.300000e-07	-6.387162e-06	-4.416119e-09	-4.673560e+01	-2.808984e+02
2.400000e-07	-6.376055e-06	-4.199053e-09	-4.665433e+01	-2.807409e+02
2.500000e-07	-6.364234e-06	-4.138252e-09	-4.656783e+01	-2.805766e+02
2.600000e-07	-6.351866e-06	-4.299257e-09	-4.647733e+01	-2.804064e+02
2.700000e-07	-6.339100e-06	-4.405224e-09	-4.638393e+01	-2.802312e+02
2.800000e-07	-6.325928e-06	-4.202412e-09	-4.628754e+01	-2.800518e+02
2.900000e-07	-6.312218e-06	-4.097815e-09	-4.618722e+01	-2.798690e+02
3.000000e-07	-6.297901e-06	-4.247376e-09	-4.608247e+01	-2.796837e+02
3.100000e-07	-6.283002e-06	-4.306916e-09	-4.597344e+01	-2.794965e+02
3.200000e-07	-6.267407e-06	-4.094320e-09	-4.585933e+01	-2.793082e+02
3.300000e-07	-6.251178e-06	-4.033046e-09	-4.574059e+01	-2.791192e+02
3.400000e-07	-6.234473e-06	-4.114014e-09	-4.561835e+01	-2.789302e+02
3.500000e-07	-6.217336e-06	-4.108106e-09	-4.549296e+01	-2.787415e+02
3.600000e-07	-6.199836e-06	-4.078808e-09	-4.536491e+01	-2.785534e+02
3.700000e-07	-6.181970e-06	-4.113841e-09	-4.523419e+01	-2.783661e+02
3.800000e-07	-6.163640e-06	-4.029945e-09	-4.510006e+01	-2.781797e+02
3.900000e-07	-6.144882e-06	-4.011227e-09	-4.496281e+01	-2.779940e+02
4.000000e-07	-6.125693e-06	-4.190221e-09	-4.482240e+01	-2.778089e+02
4.100000e-07	-6.106131e-06	-4.225838e-09	-4.467926e+01	-2.776240e+02
4.200000e-07	-6.086287e-06	-4.047754e-09	-4.453406e+01	-2.774390e+02
4.300000e-07	-6.066064e-06	-4.066745e-09	-4.438609e+01	-2.772532e+02
4.400000e-07	-6.045454e-06	-4.281690e-09	-4.423528e+01	-2.770660e+02
4.500000e-07	-6.024470e-06	-4.253162e-09	-4.408174e+01	-2.768766e+02
4.600000e-07	-6.003096e-06	-4.080853e-09	-4.392535e+01	-2.766840e+02
4.700000e-07	-5.981378e-06	-4.099375e-09	-4.376643e+01	-2.764874e+02
4.800000e-07	-5.959360e-06	-4.257094e-09	-4.360532e+01	-2.762855e+02
4.900000e-07	-5.936842e-06	-4.204701e-09	-4.344055e+01	-2.760775e+02
5.000000e-07	-5.913773e-06	-4.096680e-09	-4.327176e+01	-2.758620e+02
5.100000e-07	-5.890395e-06	-4.114271e-09	-4.310070e+01	-2.756378e+02
5.200000e-07	-5.866702e-06	-4.182036e-09	-4.292733e+01	-2.754038e+02
5.300000e-07	-5.842672e-06	-4.137978e-09	-4.275150e+01	-2.751587e+02
5.400000e-07	-5.818367e-06	-4.129933e-09	-4.257366e+01	-2.749014e+02
5.500000e-07	-5.793625e-06	-4.134027e-09	-4.239262e+01	-2.746306e+02
5.600000e-07	-5.768157e-06	-4.107937e-09	-4.220627e+01	-2.743453e+02
5.700000e-07	-5.741902e-06	-4.106997e-09	-4.201415e+01	-2.740443e+02
5.800000e-07	-5.715051e-06	-4.157594e-09	-4.181768e+01	-2.737268e+02
5.900000e-07	-5.687778e-06	-4.106325e-09	-4.161813e+01	-2.733918e+02
6.000000e-07	-5.660191e-06	-4.050452e-09	-4.141627e+01	-2.730385e+02
6.100000e-07	-5.632332e-06	-4.093918e-09	-4.121242e+01	-2.726664e+02
6.200000e-07	-5.604172e-06	-4.128210e-09	-4.100637e+01	-2.722749e+02
6.300000e-07	-5.575625e-06	-4.065923e-09	-4.079749e+01	-2.718636e+02
6.400000e-07	-5.546680e-06	-4.032609e-09	-4.058569e+01	-2.714323e+02
6.500000e-07	-5.517418e-06	-4.075138e-09	-4.037158e+01	-2.709810e+02
6.600000e-07	-5.487891e-06	-4.088354e-09	-4.015553e+01	-2.705096e+02
6.700000e-07	-5.458027e-06	-4.048012e-09	-3.993701e+01	-2.700184e+02
6.800000e-07	-5.427694e-06	-4.021492e-09	-3.971506e+01	-2.695079e+02
6.900000e-07	-5.396875e-06	-4.045967e-09	-3.948956e+01	-2.689785e+02
7.000000e-07	-5.365650e-06	-4.048707e-09	-3.926108e+01	-2.684309e+02
7.100000e-07	-5.334200e-06	-4.019726e-09	-3.903095e+01	-2.678659e+02
7.200000e-07	-5.302587e-06	-3.998014e-09	-3.879964e+01	-2.672846e+02
7.300000e-07	-5.270754e-06	-4.007899e-09	-3.856671e+01	-2.666878e+02
7.400000e-07	-5.238649e-06	-3.997663e-09	-3.833180e+01	-2.660768e+02
7.500000e-07	-5.206100e-06	-3.992269e-09	-3.809363e+01	-2.654528e+02
7.600000e-07	-5.172990e-06	-3.986979e-09	-3.785136e+01	-2.648171e+02
7.700000e-07	-5.139206e-06	-3.974551e-09	-3.760416e+01	-2.641710e+02
7.800000e-07	-5.104788e-06	-3.962382e-09	-3.735232e+01	-2.635160e+02
7.900000e-07	-5.069912e-06	-3.981130e-09	-3.709713e+01	-2.628534e+02
8.000000e-07	-5.034680e-06	-3.965789e-09	-3.683933e+01	-2.621847e+02
8.100000e-07	-4.999178e-06	-3.928247e-09	-3.657956e+01	-2.615111e+02
8.200000e-07	-4.963378e-06	-3.920949e-09	-3.631761e+01	-2.608339e+02
8.300000e-07	-4.927318e-06	-3.944433e-09	-3.605375e+01	-2.601544e+02
8.400000e-07	-4.890956e-06	-3.928307e-09	-3.578769e+01	-2.594738e+02
8.500000e-07	-4.854185e-06	-3.895773e-09	-3.551863e+01	-2.587930e+02
8.600000e-07	-4.817077e-06	-3.891326e-09	-3.524711e+01	-2.581130e+02
8.700000e-07	-4.779704e-06	-3.904343e-09	-3.497365e+01	-2.574345e+02
8.800000e-07	-4.742038e-06	-3.892425e-09	-3.469803e+01	-2.567581e+02
8.900000e-07	-4.704055e-06	-3.865728e-09	-3.442011e+01	-2.560843e+02
9.000000e-07	-4.665694e-06	-3.849667e-09	-3.413942e+01	-2.554132e+02
9.100000e-07	-4.626997e-06	-3.846886e-09	-3.385627e+01	-2.547450e+02
9.200000e-07	-4.588028e-06	-3.843872e-09	-3.357113e+01	-2.540795e+02
9.300000e-07	-4.548761e-06	-3.831645e-09	-3.328380e+01	-2.534165e+02
9.400000e-07	-4.509238e-06	-3.817115e-09	-3.299461e+01	-2.527552e+02
9.500000e-07	-4.469493e-06	-3.804285e-09	-3.270379e+01	-2.520951e+02
9.600000e-07	-4.429486e-06	-3.797483e-09	-3.241106e+01	-2.514352e+02
9.700000e-07	-4.389209e-06	-3.787304e-09	-3.211634e+01	-2.507744e+02
9.800000e-07	-4.348675e-06	-3.769805e-09	-3.181976e+01	-2.501115e+02
9.900000e-07	-4.307758e-06	-3.749517e-09	-3.152036e+01	-2.494449e+02
1.000000e-06	-4.266349e-06	-3.748399e-09	-3.121737e+01	-2.487731e+02
1.010000e-06	-4.224533e-06	-3.747152e-09	-3.091139e+01	-2.480944e+02
1.020000e-06	-4.182237e-06	-3.731241e-09	-3.060191e+01	-2.474069e+02
1.030000e-06	-4.139340e-06	-3.707615e-09	-3.028803e+01	-2.467086e+02
1.040000e-06	-4.096095e-06	-3.703110e-09	-2.997160e+01	-2.459977e+02
1.050000e-06	-4.052676e-06	-3.697217e-09	-2.965389e+01	-2.452720e+02
1.060000e-06	-4.009029e-06	-3.677291e-09	-2.933453e+01	-2.445296e+02
1.070000e-06	-3.965191e-06	-3.654910e-09	-2.901376e+01	-2.437682e+02
1.080000e-06	-3.921134e-06	-3.644704e-09	-2.869139e+01	-2.429859e+02
1.090000e-06	-3.876813e-06	-3.632611e-09	-2.836708e+01	-2.421807e+02
1.100000e-06	-3.832197e-06	-3.617774e-09	-2.804062e+01	-2.413507e+02
1.110000e-06	-3.787299e-06	-3.600017e-09	-2.771210e+01	-2.404941e+02
1.120000e-06	-3.742165e-06	-3.584183e-09	-2.738185e+01	-2.396092e+02
1.130000e-06	-3.696797e-06	-3.569716e-09	-2.704989e+01	-2.386945e+02
1.140000e-06	-3.651193e-06	-3.558038e-09	-2.671620e+01	-2.377486e+02
1.150000e-06	-3.605331e-06	-3.543273e-09	-2.638062e+01	-2.367704e+02
1.160000e-06	-3.559220e-06	-3.523459e-09	-2.604322e+01	-2.357588e+02
1.170000e-06	-3.512856e-06	-3.505876e-09	-2.570397e+01	-2.347132e+02
1.180000e-06	-3.466223e-06	-3.492969e-09	-2.536275e+01	-2.336329e+02
1.190000e-06	-3.419340e-06	-3.477798e-09	-2.501970e+01	-2.325177e+02
1.200000e-06	-3.372238e-06	-3.457344e-09	-2.467505e+01	-2.313675e+02
1.210000e-06	-3.324956e-06	-3.438718e-09	-2.432908e+01	-2.301825e+02
1.220000e-06	-3.277482e-06	-3.424077e-09	-2.398171e+01	-2.289630e+02
1.230000e-06	-3.229804e-06	-3.407938e-09	-2.363285e+01	-2.277097e+02
1.240000e-06	-3.181863e-06	-3.387822e-09	-2.328205e+01	-2.264233e+02
1.250000e-06	-3.133636e-06	-3.370735e-09	-2.292917e+01	-2.251050e+02
1.260000e-06	-3.085132e-06	-3.352124e-09	-2.257427e+01	-2.237559e+02
1.270000e-06	-3.036346e-06	-3.330040e-09	-2.221729e+01	-2.223773e+02
1.280000e-06	-2.987319e-06	-3.308077e-09	-2.185855e+01	-2.209709e+02
1.290000e-06	-2.938176e-06	-3.292211e-09	-2.149897e+01	-2.195382e+02
1.300000e-06	-2.888805e-06	-3.273316e-09	-2.113772e+01	-2.180809e+02
1.310000e-06	-2.838922e-06	-3.247537e-09	-2.077272e+01	-2.166007e+02
1.320000e-06	-2.788717e-06	-3.223439e-09	-2.040536e+01	-2.150994e+02
1.330000e-06	-2.738264e-06	-3.205754e-09	-2.003619e+01	-2.135788e+02
1.340000e-06	-2.687401e-06	-3.184440e-09	-1.966402e+01	-2.120404e+02
1.350000e-06	-2.636285e-06	-3.158874e-09	-1.929000e+01	-2.104859e+02
1.360000e-06	-2.585064e-06	-3.133283e-09	-1.891521e+01	-2.089168e+02
1.370000e-06	-2.533612e-06	-3.111898e-09	-1.853873e+01	-2.073342e+02
1.380000e-06	-2.481921e-06	-3.090871e-09	-1.816050e+01	-2.057392e+02
1.390000e-06	-2.430069e-06	-3.067597e-09	-1.778109e+01	-2.041326e+02
1.400000e-06	-2.378032e-06	-3.040669e-09	-1.740033e+01	-2.025150e+02
1.410000e-06	-2.325799e-06	-3.014176e-09	-1.701814e+01	-2.008866e+02
1.420000e-06	-2.273436e-06	-2.989759e-09	-1.663499e+01	-1.992471e+02
1.430000e-06	-2.221015e-06	-2.965842e-09	-1.625142e+01	-1.975961e+02
1.440000e-06	-2.168425e-06	-2.938941e-09	-1.586662e+01	-1.959327e+02
1.450000e-06	-2.115637e-06	-2.910059e-09	-1.548036e+01	-1.942554e+02
1.460000e-06	-2.062698e-06	-2.882959e-09	-1.509300e+01	-1.925625e+02
1.470000e-06	-2.009648e-06	-2.857001e-09	-1.470482e+01	-1.908517e+02
1.480000e-06	-1.956465e-06	-2.828063e-09	-1.431568e+01	-1.891203e+02
1.490000e-06	-1.903050e-06	-2.796083e-09	-1.392484e+01	-1.873652e+02
1.500000e-06	-1.849413e-06	-2.765600e-09	-1.353237e+01	-1.855827e+02
1.510000e-06	-1.795663e-06	-2.738454e-09	-1.313907e+01	-1.837687e+02
1.520000e-06	-1.741804e-06	-2.709888e-09	-1.274498e+01	-1.819187e+02
1.530000e-06	-1.687811e-06	-2.675969e-09	-1.234990e+01	-1.800276e+02
1.540000e-06	-1.633746e-06	-2.638888e-09	-1.195431e+01	-1.780903e+02
1.550000e-06	-1.579649e-06	-2.601421e-09	-1.155847e+01	-1.761008e+02
1.560000e-06	-1.525429e-06	-2.565038e-09	-1.116174e+01	-1.740531e+02
1.570000e-06	-1.471036e-06	-2.528858e-09	-1.076374e+01	-1.719409e+02
1.580000e-06	-1.416592e-06	-2.492623e-09	-1.036537e+01	-1.697574e+02
1.590000e-06	-1.362068e-06	-2.455592e-09	-9.966411e+00	-1.674960e+02
1.600000e-06	-1.307404e-06	-2.415122e-09	-9.566424e+00	-1.651494e+02
1.610000e-06	-1.252617e-06	-2.374164e-09	-9.165541e+00	-1.627108e+02
1.620000e-06	-1.197780e-06	-2.333305e-09	-8.764295e+00	-1.601728e+02
1.630000e-06	-1.142953e-06	-2.293543e-09	-8.363119e+00	-1.575285e+02
1.640000e-06	-1.088102e-06	-2.252194e-09	-7.961764e+00	-1.547706e+02
1.650000e-06	-1.033159e-06	-2.206510e-09	-7.559740e+00	-1.518924e+02
1.660000e-06	-9.780570e-07	-2.162182e-09	-7.156556e+00	-1.488872e+02
1.670000e-06	-9.228207e-07	-2.117438e-09	-6.752385e+00	-1.457485e+02
1.680000e-06	-8.675343e-07	-2.071114e-09	-6.347848e+00	-1.424702e+02
1.690000e-06	-8.122487e-07	-2.022149e-09	-5.943317e+00	-1.390468e+02
1.700000e-06	-7.569457e-07	-1.972542e-09	-5.538659e+00	-1.354730e+02
1.710000e-06	-7.015972e-07	-1.919351e-09	-5.133667e+00	-1.317443e+02
1.720000e-06	-6.461543e-07	-1.862400e-09	-4.727985e+00	-1.278564e+02
1.730000e-06	-5.907151e-07	-1.804774e-09	-4.322330e+00	-1.238061e+02
1.740000e-06	-5.352738e-07	-1.746444e-09	-3.916660e+00	-1.195906e+02
1.750000e-06	-4.797212e-07	-1.685982e-09	-3.510175e+00	-1.152079e+02
1.760000e-06	-4.241965e-07	-1.621737e-09	-3.103894e+00	-1.106569e+02
1.770000e-06	-3.687107e-07	-1.552267e-09	-2.697898e+00	-1.059372e+02
1.780000e-06	-3.132288e-07	-1.480970e-09	-2.291931e+00	-1.010493e+02
1.790000e-06	-2.577586e-07	-1.408846e-09	-1.886049e+00	-9.599454e+01
1.800000e-06	-2.022353e-07	-1.335454e-09	-1.479779e+00	-9.077516e+01
1.810000e-06	-1.466548e-07	-1.258038e-09	-1.073090e+00	-8.539431e+01
1.820000e-06	-9.104796e-08	-1.173728e-09	-6.662084e-01	-7.985604e+01
1.830000e-06	-3.547637e-08	-1.086855e-09	-2.595847e-01	-7.416528e+01
1.840000e-06	2.010872e-08	-1.002747e-09	1.471378e-01	-6.832787e+01
1.850000e-06	7.573861e-08	-9.182660e-10	5.541881e-01	-6.235047e+01
1.860000e-06	1.313237e-07	-8.266403e-10	9.609104e-01	-5.624062e+01
1.870000e-06	1.869008e-07	-7.304216e-10	1.367574e+00	-5.000665e+01
1.880000e-06	2.425018e-07	-6.358456e-10	1.774413e+00	-4.365764e+01
1.890000e-06	2.980855e-07	-5.417999e-10	2.181126e+00	-3.720340e+01
1.900000e-06	3.536684e-07	-4.421442e-10	2.587832e+00	-3.065440e+01
1.910000e-06	4.092170e-07	-3.388680e-10	2.994288e+00	-2.402171e+01
1.920000e-06	4.647472e-07	-2.352170e-10	3.400609e+00	-1.731696e+01
1.930000e-06	5.202112e-07	-1.311197e-10	3.806445e+00	-1.055222e+01
1.940000e-06	5.755798e-07	-2.422123e-11	4.211584e+00	-3.739989e+00
1.950000e-06	6.309661e-07	8.446205e-11	4.616851e+00	3.106928e+00
1.960000e-06	6.863110e-07	1.924958e-10	5.021816e+00	9.975474e+00
1.970000e-06	7.415610e-07	2.994413e-10	5.426087e+00	1.685243e+01
1.980000e-06	7.967664e-07	4.071405e-10	5.830031e+00	2.372450e+01
1.990000e-06	8.519649e-07	5.157072e-10	6.233925e+00	3.057839e+01
2.000000e-06	9.071212e-07	6.224549e-10	6.637510e+00	3.740090e+01
2.010000e-06	9.621592e-07	7.281276e-10	7.040229e+00	4.417897e+01
2.020000e-06	1.017104e-06	8.354256e-10	7.442264e+00	5.089984e+01
2.030000e-06	1.072011e-06	9.424676e-10	7.844029e+00	5.755104e+01
2.040000e-06	1.126867e-06	1.044230e-09	8.245414e+00	6.412053e+01
2.050000e-06	1.181647e-06	1.141204e-09	8.646248e+00	7.059675e+01
2.060000e-06	1.236403e-06	1.238301e-09	9.046901e+00	7.696867e+01
2.070000e-06	1.291103e-06	1.334656e-09	9.447150e+00	8.322591e+01
2.080000e-06	1.345662e-06	1.424750e-09	9.846363e+00	8.935873e+01
2.090000e-06	1.400111e-06	1.510178e-09	1.024477e+01	9.535814e+01
2.100000e-06	1.454456e-06	1.596861e-09	1.064242e+01	1.012159e+02
2.110000e-06	1.508703e-06	1.685606e-09	1.103935e+01	1.069247e+02
2.120000e-06	1.562889e-06	1.769364e-09	1.143584e+01	1.124778e+02
2.130000e-06	1.616960e-06	1.845165e-09	1.183148e+01	1.178698e+02
2.140000e-06	1.670887e-06	1.918195e-09	1.222607e+01	1.230956e+02
2.150000e-06	1.724685e-06	1.991138e-09	1.261972e+01	1.281516e+02
2.160000e-06	1.778376e-06	2.060422e-09	1.301258e+01	1.330348e+02
2.170000e-06	1.831985e-06	2.122352e-09	1.340484e+01	1.377431e+02
2.180000e-06	1.885516e-06	2.179863e-09	1.379654e+01	1.422755e+02
2.190000e-06	1.938899e-06	2.240633e-09	1.418715e+01	1.466316e+02
2.200000e-06	1.992097e-06	2.300727e-09	1.457640e+01	1.508122e+02
2.210000e-06	2.045097e-06	2.355656e-09	1.496421e+01	1.548187e+02
2.220000e-06	2.097886e-06	2.408590e-09	1.535047e+01	1.586533e+02
2.230000e-06	2.150584e-06	2.458674e-09	1.573607e+01	1.623192e+02
2.240000e-06	2.203183e-06	2.503183e-09	1.612095e+01	1.658201e+02
2.250000e-06	2.255590e-06	2.546845e-09	1.650441e+01	1.691604e+02
2.260000e-06	2.307799e-06	2.591006e-09	1.688643e+01	1.723452e+02
2.270000e-06	2.359852e-06	2.631933e-09	1.726731e+01	1.753799e+02
2.280000e-06	2.411721e-06	2.672009e-09	1.764684e+01	1.782708e+02
2.290000e-06	2.463377e-06	2.708886e-09	1.802481e+01	1.810241e+02
2.300000e-06	2.514895e-06	2.741913e-09	1.840178e+01	1.836469e+02
2.310000e-06	2.566308e-06	2.775153e-09	1.877797e+01	1.861462e+02
2.320000e-06	2.617529e-06	2.810244e-09	1.915276e+01	1.885294e+02
2.330000e-06	2.668444e-06	2.843714e-09	1.952531e+01	1.908039e+02
2.340000e-06	2.719037e-06	2.874435e-09	1.989551e+01	1.929774e+02
2.350000e-06	2.769361e-06	2.906595e-09	2.026373e+01	1.950574e+02
2.360000e-06	2.819314e-06	2.939147e-09	2.062924e+01	1.970514e+02
2.370000e-06	2.868823e-06	2.969402e-09	2.099151e+01	1.989670e+02
2.380000e-06	2.917975e-06	2.996656e-09	2.135116e+01	2.008114e+02
2.390000e-06	2.966832e-06	3.022533e-09	2.170865e+01	2.025917e+02
2.400000e-06	3.015490e-06	3.049240e-09	2.206469e+01	2.043146e+02
2.410000e-06	3.063919e-06	3.077116e-09	2.241905e+01	2.059866e+02
2.420000e-06	3.112107e-06	3.102194e-09	2.277165e+01	2.076139e+02
2.430000e-06	3.160104e-06	3.125779e-09	2.312285e+01	2.092021e+02
2.440000e-06	3.207891e-06	3.151103e-09	2.347251e+01	2.107566e+02
2.450000e-06	3.255484e-06	3.177146e-09	2.382075e+01	2.122822e+02
2.460000e-06	3.302912e-06	3.201440e-09	2.416779e+01	2.137833e+02
2.470000e-06	3.350167e-06	3.223546e-09	2.451356e+01	2.152638e+02
2.480000e-06	3.397160e-06	3.247048e-09	2.485741e+01	2.167271e+02
2.490000e-06	3.443855e-06	3.270712e-09	2.519908e+01	2.181761e+02
2.500000e-06	3.490297e-06	3.292896e-09	2.553891e+01	2.196132e+02
2.510000e-06	3.536519e-06	3.316220e-09	2.587711e+01	2.210403e+02
2.520000e-06	3.582501e-06	3.341037e-09	2.621357e+01	2.224590e+02
2.530000e-06	3.628250e-06	3.364430e-09	2.654833e+01	2.238702e+02
2.540000e-06	3.673782e-06	3.382127e-09	2.688148e+01	2.252744e+02
2.550000e-06	3.719105e-06	3.398062e-09	2.721312e+01	2.266719e+02
2.560000e-06	3.764159e-06	3.416034e-09	2.754278e+01	2.280623e+02
2.570000e-06	3.808866e-06	3.435293e-09	2.786991e+01	2.294452e+02
2.580000e-06	3.853348e-06	3.454333e-09	2.819539e+01	2.308196e+02
2.590000e-06	3.897676e-06	3.470441e-09	2.851975e+01	2.321844e+02
2.600000e-06	3.941843e-06	3.488319e-09	2.884292e+01	2.335382e+02
2.610000e-06	3.985804e-06	3.508635e-09	2.916458e+01	2.348792e+02
2.620000e-06	4.029537e-06	3.527529e-09	2.948459e+01	2.362059e+02
2.630000e-06	4.073087e-06	3.540910e-09	2.980324e+01	2.375162e+02
2.640000e-06	4.116347e-06	3.553069e-09	3.011979e+01	2.388083e+02
2.650000e-06	4.159238e-06	3.569840e-09	3.043362e+01	2.400800e+02
2.660000e-06	4.201666e-06	3.588511e-09	3.074407e+01	2.413295e+02
2.670000e-06	4.243557e-06	3.604013e-09	3.105060e+01	2.425546e+02
2.680000e-06	4.285002e-06	3.619328e-09	3.135386e+01	2.437537e+02
2.690000e-06	4.326072e-06	3.637684e-09	3.165437e+01	2.449247e+02
2.700000e-06	4.366798e-06	3.656775e-09	3.195236e+01	2.460662e+02
2.710000e-06	4.407188e-06	3.673195e-09	3.224790e+01	2.471765e+02
2.720000e-06	4.447299e-06	3.684329e-09	3.254140e+01	2.482543e+02
2.730000e-06	4.487196e-06	3.693630e-09	3.283333e+01	2.492986e+02
2.740000e-06	4.526777e-06	3.704836e-09	3.312295e+01	2.503085e+02
2.750000e-06	4.566061e-06	3.717077e-09	3.341039e+01	2.512833e+02
2.760000e-06	4.605070e-06	3.728922e-09	3.369582e+01	2.522225e+02
2.770000e-06	4.643718e-06	3.740662e-09	3.397862e+01	2.531261e+02
2.780000e-06	4.682076e-06	3.754805e-09	3.425929e+01	2.539941e+02
2.790000e-06	4.720201e-06	3.769369e-09	3.453825e+01	2.548268e+02
2.800000e-06	4.757995e-06	3.780417e-09	3.481480e+01	2.556248e+02
2.810000e-06	4.795423e-06	3.788088e-09	3.508866e+01	2.563889e+02
2.820000e-06	4.832519e-06	3.798027e-09	3.536009e+01	2.571203e+02
2.830000e-06	4.869316e-06	3.810844e-09	3.562935e+01	2.578200e+02
2.840000e-06	4.905820e-06	3.819919e-09	3.589645e+01	2.584896e+02
2.850000e-06	4.942023e-06	3.827325e-09	3.616135e+01	2.591306e+02
2.860000e-06	4.977960e-06	3.837381e-09	3.642431e+01	2.597449e+02
2.870000e-06	5.013683e-06	3.853271e-09	3.668569e+01	2.603343e+02
2.880000e-06	5.049150e-06	3.864256e-09	3.694521e+01	2.609007e+02
2.890000e-06	5.084244e-06	3.875097e-09	3.720200e+01	2.614463e+02
2.900000e-06	5.118904e-06	3.888495e-09	3.745561e+01	2.619732e+02
