# Temperatura_=_20.0
# Concentracion g/m^3_=_9000.0
# C_Vs_to_Am_M_A/Vsm_=_65563218390.804596
# pendiente_HvsI_1/m_=_3716.3
# ordenada_HvsI_A/m_=_1297.0
# frecuencia_Hz_=_135294.76718536334

Tiempo_(s)	Campo_(V.s)	Magnetizacion_(V.s)	Campo_(kA/m)	Magnetizacion_(A/m)
0.000000e+00	-6.526086e-06	2.554297e-10	-4.764457e+01	-1.045441e+00
1.000000e-08	-6.526143e-06	2.622858e-10	-4.764499e+01	-1.078272e+00
2.000000e-08	-6.525894e-06	2.694020e-10	-4.764316e+01	-1.110665e+00
3.000000e-08	-6.525178e-06	2.741571e-10	-4.763794e+01	-1.142648e+00
4.000000e-08	-6.523875e-06	2.762935e-10	-4.762842e+01	-1.174249e+00
5.000000e-08	-6.521862e-06	2.764185e-10	-4.761373e+01	-1.205502e+00
6.000000e-08	-6.519120e-06	2.743715e-10	-4.759371e+01	-1.236442e+00
7.000000e-08	-6.515852e-06	2.727237e-10	-4.756986e+01	-1.267106e+00
8.000000e-08	-6.512135e-06	2.855553e-10	-4.754271e+01	-1.297533e+00
9.000000e-08	-6.507909e-06	2.995704e-10	-4.751186e+01	-1.327761e+00
1.000000e-07	-6.503146e-06	2.843735e-10	-4.747709e+01	-1.357832e+00
1.100000e-07	-6.497821e-06	2.416625e-10	-4.743821e+01	-1.387786e+00
1.200000e-07	-6.492009e-06	2.609776e-10	-4.739579e+01	-1.417662e+00
1.300000e-07	-6.485842e-06	3.556494e-10	-4.735076e+01	-1.447500e+00
1.400000e-07	-6.479404e-06	3.912722e-10	-4.730376e+01	-1.477336e+00
1.500000e-07	-6.472591e-06	2.661785e-10	-4.725402e+01	-1.507208e+00
1.600000e-07	-6.465297e-06	2.308094e-10	-4.720077e+01	-1.537149e+00
1.700000e-07	-6.457616e-06	3.167071e-10	-4.714469e+01	-1.567189e+00
1.800000e-07	-6.449588e-06	3.487876e-10	-4.708609e+01	-1.597356e+00
1.900000e-07	-6.441338e-06	3.286772e-10	-4.702585e+01	-1.627675e+00
2.000000e-07	-6.432906e-06	2.835679e-10	-4.696429e+01	-1.658166e+00
2.100000e-07	-6.423813e-06	3.128368e-10	-4.689791e+01	-1.688846e+00
2.200000e-07	-6.413812e-06	3.267595e-10	-4.682490e+01	-1.719726e+00
2.300000e-07	-6.403151e-06	3.456488e-10	-4.674707e+01	-1.750814e+00
2.400000e-07	-6.391959e-06	2.410843e-10	-4.666536e+01	-1.782114e+00
2.500000e-07	-6.380161e-06	1.638669e-10	-4.657923e+01	-1.813621e+00
2.600000e-07	-6.367705e-06	1.537666e-10	-4.648829e+01	-1.845330e+00
2.700000e-07	-6.354780e-06	1.550090e-10	-4.639393e+01	-1.877226e+00
2.800000e-07	-6.341372e-06	4.534624e-11	-4.629604e+01	-1.909293e+00
2.900000e-07	-6.327347e-06	-3.673579e-11	-4.619365e+01	-1.941508e+00
3.000000e-07	-6.312851e-06	-2.725537e-11	-4.608782e+01	-1.973842e+00
3.100000e-07	-6.297839e-06	-5.864447e-11	-4.597822e+01	-2.006262e+00
3.200000e-07	-6.282184e-06	-2.055302e-10	-4.586393e+01	-2.038732e+00
3.300000e-07	-6.266023e-06	-2.501821e-10	-4.574594e+01	-2.071208e+00
3.400000e-07	-6.249366e-06	-1.877660e-10	-4.562434e+01	-2.103644e+00
3.500000e-07	-6.232232e-06	-2.481175e-10	-4.549925e+01	-2.135990e+00
3.600000e-07	-6.214740e-06	-2.981610e-10	-4.537155e+01	-2.168191e+00
3.700000e-07	-6.196869e-06	-2.507751e-10	-4.524108e+01	-2.200189e+00
3.800000e-07	-6.178598e-06	-2.441921e-10	-4.510768e+01	-2.231924e+00
3.900000e-07	-6.159812e-06	-3.063215e-10	-4.497053e+01	-2.263332e+00
4.000000e-07	-6.140530e-06	-2.282673e-10	-4.482977e+01	-2.294349e+00
4.100000e-07	-6.120888e-06	-1.848108e-10	-4.468637e+01	-2.324907e+00
4.200000e-07	-6.100960e-06	-2.629435e-10	-4.454088e+01	-2.354938e+00
4.300000e-07	-6.080733e-06	-2.910443e-10	-4.439321e+01	-2.384374e+00
4.400000e-07	-6.060224e-06	-1.813696e-10	-4.424348e+01	-2.413147e+00
4.500000e-07	-6.039404e-06	-1.845883e-10	-4.409148e+01	-2.441186e+00
4.600000e-07	-6.018159e-06	-2.709461e-10	-4.393638e+01	-2.468426e+00
4.700000e-07	-5.996485e-06	-2.789259e-10	-4.377815e+01	-2.494800e+00
4.800000e-07	-5.974430e-06	-1.737197e-10	-4.361713e+01	-2.520243e+00
4.900000e-07	-5.951976e-06	-1.898311e-10	-4.345320e+01	-2.544695e+00
5.000000e-07	-5.929022e-06	-2.768890e-10	-4.328563e+01	-2.568095e+00
5.100000e-07	-5.905606e-06	-2.654523e-10	-4.311467e+01	-2.590389e+00
5.200000e-07	-5.881873e-06	-1.801730e-10	-4.294141e+01	-2.611524e+00
5.300000e-07	-5.857853e-06	-2.104177e-10	-4.276604e+01	-2.631453e+00
5.400000e-07	-5.833521e-06	-2.485615e-10	-4.258841e+01	-2.650132e+00
5.500000e-07	-5.808678e-06	-2.222086e-10	-4.240703e+01	-2.667524e+00
5.600000e-07	-5.783112e-06	-2.127061e-10	-4.222039e+01	-2.683594e+00
5.700000e-07	-5.756894e-06	-2.178996e-10	-4.202898e+01	-2.698316e+00
5.800000e-07	-5.730134e-06	-1.861686e-10	-4.183362e+01	-2.711666e+00
5.900000e-07	-5.702907e-06	-2.002605e-10	-4.163484e+01	-2.723628e+00
6.000000e-07	-5.675295e-06	-2.379171e-10	-4.143326e+01	-2.734192e+00
6.100000e-07	-5.647388e-06	-2.029364e-10	-4.122951e+01	-2.743353e+00
6.200000e-07	-5.619203e-06	-1.669342e-10	-4.102375e+01	-2.751113e+00
6.300000e-07	-5.590708e-06	-1.961910e-10	-4.081571e+01	-2.757479e+00
6.400000e-07	-5.561835e-06	-2.272150e-10	-4.060492e+01	-2.762463e+00
6.500000e-07	-5.532603e-06	-1.945444e-10	-4.039151e+01	-2.766087e+00
6.600000e-07	-5.503004e-06	-1.700890e-10	-4.017542e+01	-2.768373e+00
6.700000e-07	-5.473030e-06	-1.797664e-10	-3.995659e+01	-2.769353e+00
6.800000e-07	-5.442659e-06	-2.045427e-10	-3.973487e+01	-2.769063e+00
6.900000e-07	-5.411820e-06	-1.865938e-10	-3.950972e+01	-2.767541e+00
7.000000e-07	-5.380577e-06	-1.712729e-10	-3.928163e+01	-2.764834e+00
7.100000e-07	-5.349011e-06	-1.747513e-10	-3.905118e+01	-2.760991e+00
7.200000e-07	-5.317220e-06	-1.840091e-10	-3.881908e+01	-2.756064e+00
7.300000e-07	-5.285208e-06	-1.713263e-10	-3.858537e+01	-2.750111e+00
7.400000e-07	-5.252844e-06	-1.815405e-10	-3.834909e+01	-2.743190e+00
7.500000e-07	-5.220084e-06	-1.821166e-10	-3.810993e+01	-2.735364e+00
7.600000e-07	-5.186949e-06	-1.694873e-10	-3.786802e+01	-2.726696e+00
7.700000e-07	-5.153299e-06	-1.678255e-10	-3.762235e+01	-2.717251e+00
7.800000e-07	-5.118974e-06	-1.845795e-10	-3.737176e+01	-2.707097e+00
7.900000e-07	-5.084046e-06	-1.723834e-10	-3.711676e+01	-2.696299e+00
8.000000e-07	-5.048660e-06	-1.619502e-10	-3.685842e+01	-2.684925e+00
8.100000e-07	-5.013006e-06	-1.678309e-10	-3.659813e+01	-2.673039e+00
8.200000e-07	-4.977138e-06	-1.689792e-10	-3.633626e+01	-2.660707e+00
8.300000e-07	-4.940982e-06	-1.569549e-10	-3.607231e+01	-2.647993e+00
8.400000e-07	-4.904511e-06	-1.557370e-10	-3.580604e+01	-2.634955e+00
8.500000e-07	-4.867725e-06	-1.594011e-10	-3.553748e+01	-2.621654e+00
8.600000e-07	-4.830624e-06	-1.539146e-10	-3.526662e+01	-2.608144e+00
8.700000e-07	-4.793174e-06	-1.501459e-10	-3.499321e+01	-2.594477e+00
8.800000e-07	-4.755395e-06	-1.545245e-10	-3.471740e+01	-2.580700e+00
8.900000e-07	-4.717296e-06	-1.591076e-10	-3.443925e+01	-2.566857e+00
9.000000e-07	-4.678898e-06	-1.505798e-10	-3.415892e+01	-2.552986e+00
9.100000e-07	-4.640235e-06	-1.417534e-10	-3.387666e+01	-2.539121e+00
9.200000e-07	-4.601311e-06	-1.395603e-10	-3.359249e+01	-2.525292e+00
9.300000e-07	-4.562050e-06	-1.427096e-10	-3.330586e+01	-2.511521e+00
9.400000e-07	-4.522466e-06	-1.343464e-10	-3.301687e+01	-2.497826e+00
9.500000e-07	-4.482684e-06	-1.300903e-10	-3.272644e+01	-2.484220e+00
9.600000e-07	-4.442667e-06	-1.307391e-10	-3.243429e+01	-2.470708e+00
9.700000e-07	-4.402401e-06	-1.333984e-10	-3.214032e+01	-2.457293e+00
9.800000e-07	-4.361720e-06	-1.298566e-10	-3.184333e+01	-2.443969e+00
9.900000e-07	-4.320495e-06	-1.279564e-10	-3.154236e+01	-2.430725e+00
1.000000e-06	-4.278902e-06	-1.200596e-10	-3.123870e+01	-2.417547e+00
1.010000e-06	-4.237009e-06	-1.150751e-10	-3.093285e+01	-2.404413e+00
1.020000e-06	-4.194677e-06	-1.136053e-10	-3.062380e+01	-2.391296e+00
1.030000e-06	-4.151881e-06	-1.137383e-10	-3.031137e+01	-2.378167e+00
1.040000e-06	-4.108644e-06	-1.044137e-10	-2.999571e+01	-2.364989e+00
1.050000e-06	-4.065074e-06	-1.012203e-10	-2.967762e+01	-2.351723e+00
1.060000e-06	-4.021307e-06	-1.060674e-10	-2.935809e+01	-2.338326e+00
1.070000e-06	-3.977346e-06	-1.079744e-10	-2.903715e+01	-2.324751e+00
1.080000e-06	-3.933198e-06	-1.002622e-10	-2.871484e+01	-2.310949e+00
1.090000e-06	-3.888794e-06	-9.408596e-11	-2.839066e+01	-2.296867e+00
1.100000e-06	-3.844154e-06	-9.199202e-11	-2.806476e+01	-2.282452e+00
1.110000e-06	-3.799298e-06	-9.031142e-11	-2.773729e+01	-2.267647e+00
1.120000e-06	-3.754154e-06	-8.593174e-11	-2.740770e+01	-2.252397e+00
1.130000e-06	-3.708694e-06	-8.076436e-11	-2.707582e+01	-2.236645e+00
1.140000e-06	-3.662979e-06	-7.752658e-11	-2.674207e+01	-2.220332e+00
1.150000e-06	-3.617028e-06	-7.874048e-11	-2.640660e+01	-2.203404e+00
1.160000e-06	-3.570740e-06	-8.359510e-11	-2.606867e+01	-2.185804e+00
1.170000e-06	-3.524155e-06	-8.293548e-11	-2.572857e+01	-2.167479e+00
1.180000e-06	-3.477376e-06	-8.011091e-11	-2.538705e+01	-2.148376e+00
1.190000e-06	-3.430397e-06	-7.929939e-11	-2.504408e+01	-2.128448e+00
1.200000e-06	-3.383175e-06	-8.149385e-11	-2.469932e+01	-2.107648e+00
1.210000e-06	-3.335755e-06	-7.924790e-11	-2.435313e+01	-2.085932e+00
1.220000e-06	-3.288152e-06	-7.436413e-11	-2.400560e+01	-2.063262e+00
1.230000e-06	-3.240301e-06	-7.026092e-11	-2.365625e+01	-2.039604e+00
1.240000e-06	-3.192267e-06	-6.978700e-11	-2.330557e+01	-2.014927e+00
1.250000e-06	-3.144038e-06	-6.696797e-11	-2.295347e+01	-1.989206e+00
1.260000e-06	-3.095480e-06	-6.372174e-11	-2.259897e+01	-1.962420e+00
1.270000e-06	-3.046654e-06	-6.371349e-11	-2.224250e+01	-1.934554e+00
1.280000e-06	-2.997551e-06	-6.500680e-11	-2.188403e+01	-1.905599e+00
1.290000e-06	-2.948099e-06	-6.164365e-11	-2.152299e+01	-1.875550e+00
1.300000e-06	-2.898299e-06	-6.146646e-11	-2.115942e+01	-1.844410e+00
1.310000e-06	-2.848169e-06	-6.493678e-11	-2.079344e+01	-1.812186e+00
1.320000e-06	-2.797823e-06	-6.314737e-11	-2.042588e+01	-1.778890e+00
1.330000e-06	-2.747154e-06	-5.491383e-11	-2.005597e+01	-1.744541e+00
1.340000e-06	-2.696181e-06	-5.135372e-11	-1.968383e+01	-1.709163e+00
1.350000e-06	-2.644995e-06	-5.194528e-11	-1.931014e+01	-1.672785e+00
1.360000e-06	-2.593523e-06	-5.043626e-11	-1.893437e+01	-1.635442e+00
1.370000e-06	-2.541815e-06	-4.711157e-11	-1.855686e+01	-1.597173e+00
1.380000e-06	-2.489950e-06	-4.540334e-11	-1.817822e+01	-1.558023e+00
1.390000e-06	-2.437902e-06	-4.490235e-11	-1.779823e+01	-1.518038e+00
1.400000e-06	-2.385671e-06	-4.407153e-11	-1.741691e+01	-1.477272e+00
1.410000e-06	-2.333274e-06	-4.139676e-11	-1.703438e+01	-1.435780e+00
1.420000e-06	-2.280708e-06	-3.833838e-11	-1.665062e+01	-1.393621e+00
1.430000e-06	-2.228018e-06	-3.582070e-11	-1.626594e+01	-1.350856e+00
1.440000e-06	-2.175209e-06	-3.462133e-11	-1.588040e+01	-1.307550e+00
1.450000e-06	-2.122217e-06	-3.438884e-11	-1.549353e+01	-1.263767e+00
1.460000e-06	-2.069014e-06	-3.305300e-11	-1.510511e+01	-1.219575e+00
1.470000e-06	-2.015732e-06	-3.222632e-11	-1.471612e+01	-1.175042e+00
1.480000e-06	-1.962386e-06	-3.155901e-11	-1.432666e+01	-1.130235e+00
1.490000e-06	-1.908834e-06	-2.917300e-11	-1.393570e+01	-1.085221e+00
1.500000e-06	-1.855060e-06	-2.526809e-11	-1.354311e+01	-1.040069e+00
1.510000e-06	-1.801144e-06	-2.072532e-11	-1.314949e+01	-9.948440e-01
1.520000e-06	-1.747133e-06	-1.541169e-11	-1.275518e+01	-9.496097e-01
1.530000e-06	-1.693052e-06	-1.108927e-11	-1.236036e+01	-9.044286e-01
1.540000e-06	-1.638810e-06	-8.116271e-12	-1.196436e+01	-8.593601e-01
1.550000e-06	-1.584456e-06	-7.238231e-12	-1.156753e+01	-8.144607e-01
1.560000e-06	-1.530072e-06	-6.956859e-12	-1.117049e+01	-7.697838e-01
1.570000e-06	-1.475575e-06	-5.795548e-12	-1.077263e+01	-7.253787e-01
1.580000e-06	-1.420960e-06	-2.605102e-12	-1.037391e+01	-6.812909e-01
1.590000e-06	-1.366193e-06	5.784764e-15	-9.974074e+00	-6.375617e-01
1.600000e-06	-1.311291e-06	1.275143e-12	-9.573259e+00	-5.942276e-01
1.610000e-06	-1.256320e-06	2.974494e-12	-9.171934e+00	-5.513206e-01
1.620000e-06	-1.201341e-06	2.549237e-12	-8.770553e+00	-5.088675e-01
1.630000e-06	-1.146281e-06	6.325636e-12	-8.368581e+00	-4.668904e-01
1.640000e-06	-1.091027e-06	1.301043e-11	-7.965191e+00	-4.254060e-01
1.650000e-06	-1.035725e-06	1.690492e-11	-7.561446e+00	-3.844261e-01
1.660000e-06	-9.804224e-07	2.117287e-11	-7.157706e+00	-3.439573e-01
1.670000e-06	-9.250529e-07	2.414358e-11	-6.753474e+00	-3.040013e-01
1.680000e-06	-8.696320e-07	2.704536e-11	-6.348866e+00	-2.645546e-01
1.690000e-06	-8.142217e-07	3.013074e-11	-5.944335e+00	-2.256092e-01
1.700000e-06	-7.588031e-07	3.327687e-11	-5.539744e+00	-1.871523e-01
1.710000e-06	-7.033108e-07	3.457873e-11	-5.134615e+00	-1.491671e-01
1.720000e-06	-6.477638e-07	3.513620e-11	-4.729087e+00	-1.116323e-01
1.730000e-06	-5.922133e-07	3.851871e-11	-4.323533e+00	-7.452321e-02
1.740000e-06	-5.366514e-07	4.346568e-11	-3.917896e+00	-3.781158e-02
1.750000e-06	-4.810162e-07	4.782499e-11	-3.511723e+00	-1.466144e-03
1.760000e-06	-4.253352e-07	5.086912e-11	-3.105217e+00	3.454697e-02
1.770000e-06	-3.696772e-07	5.254033e-11	-2.698878e+00	7.026384e-02
1.780000e-06	-3.140430e-07	5.318122e-11	-2.292713e+00	1.057223e-01
1.790000e-06	-2.583623e-07	5.386388e-11	-1.886208e+00	1.409615e-01
1.800000e-06	-2.026442e-07	5.545514e-11	-1.479431e+00	1.760213e-01
1.810000e-06	-1.469068e-07	5.661208e-11	-1.072513e+00	2.109422e-01
1.820000e-06	-9.117487e-08	5.542426e-11	-6.656344e-01	2.457641e-01
1.830000e-06	-3.548778e-08	5.401895e-11	-2.590833e-01	2.805268e-01
1.840000e-06	2.018321e-08	5.731387e-11	1.473502e-01	3.152685e-01
1.850000e-06	7.582614e-08	6.304078e-11	5.535789e-01	3.500262e-01
1.860000e-06	1.315041e-07	6.452266e-11	9.600634e-01	3.848347e-01
1.870000e-06	1.871838e-07	6.272315e-11	1.366560e+00	4.197264e-01
1.880000e-06	2.428625e-07	6.552259e-11	1.773050e+00	4.547309e-01
1.890000e-06	2.985389e-07	7.132546e-11	2.179523e+00	4.898743e-01
1.900000e-06	3.541925e-07	7.491779e-11	2.585830e+00	5.251794e-01
1.910000e-06	4.098808e-07	7.595293e-11	2.992390e+00	5.606648e-01
1.920000e-06	4.655960e-07	7.811621e-11	3.399146e+00	5.963449e-01
1.930000e-06	5.212492e-07	8.302218e-11	3.805450e+00	6.322297e-01
1.940000e-06	5.768132e-07	8.623634e-11	4.211102e+00	6.683245e-01
1.950000e-06	6.323905e-07	8.791424e-11	4.616852e+00	7.046294e-01
1.960000e-06	6.879363e-07	9.226263e-11	5.022372e+00	7.411399e-01
1.970000e-06	7.434056e-07	9.794049e-11	5.427333e+00	7.778460e-01
1.980000e-06	7.988000e-07	1.016769e-10	5.831747e+00	8.147327e-01
1.990000e-06	8.541235e-07	1.036012e-10	6.235643e+00	8.517800e-01
2.000000e-06	9.094221e-07	1.059127e-10	6.639358e+00	8.889625e-01
2.010000e-06	9.647062e-07	1.118413e-10	7.042968e+00	9.262499e-01
2.020000e-06	1.019929e-06	1.153146e-10	7.446126e+00	9.636072e-01
2.030000e-06	1.075073e-06	1.146735e-10	7.848717e+00	1.000994e+00
2.040000e-06	1.130157e-06	1.139507e-10	8.250862e+00	1.038367e+00
2.050000e-06	1.185222e-06	1.168557e-10	8.652876e+00	1.075677e+00
2.060000e-06	1.240246e-06	1.201115e-10	9.054583e+00	1.112872e+00
2.070000e-06	1.295088e-06	1.210961e-10	9.454968e+00	1.149896e+00
2.080000e-06	1.349800e-06	1.210387e-10	9.854399e+00	1.186689e+00
2.090000e-06	1.404500e-06	1.223636e-10	1.025374e+01	1.223190e+00
2.100000e-06	1.459144e-06	1.253113e-10	1.065268e+01	1.259335e+00
2.110000e-06	1.513608e-06	1.259297e-10	1.105030e+01	1.295057e+00
2.120000e-06	1.567937e-06	1.255922e-10	1.144694e+01	1.330290e+00
2.130000e-06	1.622190e-06	1.279341e-10	1.184302e+01	1.364964e+00
2.140000e-06	1.676245e-06	1.309917e-10	1.223765e+01	1.399011e+00
2.150000e-06	1.730146e-06	1.327753e-10	1.263117e+01	1.432363e+00
2.160000e-06	1.783985e-06	1.343753e-10	1.302422e+01	1.464951e+00
2.170000e-06	1.837726e-06	1.362621e-10	1.341657e+01	1.496708e+00
2.180000e-06	1.891337e-06	1.388027e-10	1.380796e+01	1.527569e+00
2.190000e-06	1.944849e-06	1.402433e-10	1.419863e+01	1.557471e+00
2.200000e-06	1.998243e-06	1.400648e-10	1.458845e+01	1.586354e+00
2.210000e-06	2.051464e-06	1.409261e-10	1.497699e+01	1.614159e+00
2.220000e-06	2.104528e-06	1.442287e-10	1.536439e+01	1.640833e+00
2.230000e-06	2.157363e-06	1.474417e-10	1.575012e+01	1.666326e+00
2.240000e-06	2.209998e-06	1.501014e-10	1.613439e+01	1.690593e+00
2.250000e-06	2.262493e-06	1.519074e-10	1.651763e+01	1.713591e+00
2.260000e-06	2.314818e-06	1.539811e-10	1.689964e+01	1.735286e+00
2.270000e-06	2.367033e-06	1.547150e-10	1.728085e+01	1.755646e+00
2.280000e-06	2.419129e-06	1.541187e-10	1.766117e+01	1.774646e+00
2.290000e-06	2.470982e-06	1.574812e-10	1.803973e+01	1.792266e+00
2.300000e-06	2.522613e-06	1.651482e-10	1.841668e+01	1.808493e+00
2.310000e-06	2.574127e-06	1.717302e-10	1.879276e+01	1.823319e+00
2.320000e-06	2.625483e-06	1.751661e-10	1.916769e+01	1.836742e+00
2.330000e-06	2.676650e-06	1.754418e-10	1.954124e+01	1.848766e+00
2.340000e-06	2.727540e-06	1.767067e-10	1.991277e+01	1.859401e+00
2.350000e-06	2.778026e-06	1.784407e-10	2.028135e+01	1.868664e+00
2.360000e-06	2.828148e-06	1.792274e-10	2.064727e+01	1.876576e+00
2.370000e-06	2.877922e-06	1.797326e-10	2.101066e+01	1.883164e+00
2.380000e-06	2.927295e-06	1.834132e-10	2.137111e+01	1.888462e+00
2.390000e-06	2.976394e-06	1.909961e-10	2.172957e+01	1.892507e+00
2.400000e-06	3.025242e-06	1.971892e-10	2.208619e+01	1.895341e+00
2.410000e-06	3.073759e-06	1.992733e-10	2.244039e+01	1.897013e+00
2.420000e-06	3.122057e-06	2.016229e-10	2.279300e+01	1.897571e+00
2.430000e-06	3.170173e-06	2.062739e-10	2.314428e+01	1.897073e+00
2.440000e-06	3.218087e-06	2.071599e-10	2.349408e+01	1.895574e+00
2.450000e-06	3.265839e-06	2.040539e-10	2.384269e+01	1.893137e+00
2.460000e-06	3.313400e-06	2.022348e-10	2.418992e+01	1.889823e+00
2.470000e-06	3.360739e-06	2.051462e-10	2.453553e+01	1.885698e+00
2.480000e-06	3.407867e-06	2.092286e-10	2.487959e+01	1.880826e+00
2.490000e-06	3.454756e-06	2.104897e-10	2.522191e+01	1.875276e+00
2.500000e-06	3.501407e-06	2.131311e-10	2.556249e+01	1.869112e+00
2.510000e-06	3.547758e-06	2.171520e-10	2.590088e+01	1.862403e+00
2.520000e-06	3.593807e-06	2.184584e-10	2.623707e+01	1.855212e+00
2.530000e-06	3.639657e-06	2.183622e-10	2.657181e+01	1.847605e+00
2.540000e-06	3.685297e-06	2.192217e-10	2.690501e+01	1.839643e+00
2.550000e-06	3.730698e-06	2.229778e-10	2.723646e+01	1.831386e+00
2.560000e-06	3.775832e-06	2.284659e-10	2.756597e+01	1.822891e+00
2.570000e-06	3.820642e-06	2.342689e-10	2.789311e+01	1.814211e+00
2.580000e-06	3.865210e-06	2.370133e-10	2.821849e+01	1.805396e+00
2.590000e-06	3.909634e-06	2.389216e-10	2.854281e+01	1.796493e+00
2.600000e-06	3.953834e-06	2.425599e-10	2.886550e+01	1.787541e+00
2.610000e-06	3.997823e-06	2.452370e-10	2.918664e+01	1.778579e+00
2.620000e-06	4.041619e-06	2.458602e-10	2.950639e+01	1.769636e+00
2.630000e-06	4.085136e-06	2.469291e-10	2.982409e+01	1.760740e+00
2.640000e-06	4.128384e-06	2.493776e-10	3.013982e+01	1.751911e+00
2.650000e-06	4.171383e-06	2.504649e-10	3.045374e+01	1.743165e+00
2.660000e-06	4.214028e-06	2.511788e-10	3.076508e+01	1.734511e+00
2.670000e-06	4.256200e-06	2.520981e-10	3.107296e+01	1.725953e+00
2.680000e-06	4.297893e-06	2.530005e-10	3.137734e+01	1.717490e+00
2.690000e-06	4.339129e-06	2.556026e-10	3.167839e+01	1.709114e+00
2.700000e-06	4.379893e-06	2.565572e-10	3.197600e+01	1.700812e+00
2.710000e-06	4.420248e-06	2.563547e-10	3.227061e+01	1.692566e+00
2.720000e-06	4.460315e-06	2.564209e-10	3.256313e+01	1.684352e+00
2.730000e-06	4.500169e-06	2.588594e-10	3.285409e+01	1.676143e+00
2.740000e-06	4.539882e-06	2.607543e-10	3.314402e+01	1.667904e+00
2.750000e-06	4.579397e-06	2.606480e-10	3.343251e+01	1.659600e+00
2.760000e-06	4.618644e-06	2.626569e-10	3.371903e+01	1.651188e+00
2.770000e-06	4.657538e-06	2.686246e-10	3.400298e+01	1.642624e+00
2.780000e-06	4.696077e-06	2.717488e-10	3.428434e+01	1.633860e+00
2.790000e-06	4.734253e-06	2.709677e-10	3.456305e+01	1.624844e+00
2.800000e-06	4.772007e-06	2.729744e-10	3.483868e+01	1.615524e+00
2.810000e-06	4.809438e-06	2.782322e-10	3.511195e+01	1.605846e+00
2.820000e-06	4.846565e-06	2.799014e-10	3.538300e+01	1.595752e+00
2.830000e-06	4.883344e-06	2.771058e-10	3.565151e+01	1.585186e+00
2.840000e-06	4.919838e-06	2.787412e-10	3.591794e+01	1.574091e+00
2.850000e-06	4.956078e-06	2.844564e-10	3.618251e+01	1.562410e+00
2.860000e-06	4.992103e-06	2.879959e-10	3.644552e+01	1.550087e+00
2.870000e-06	5.027895e-06	2.850347e-10	3.670682e+01	1.537068e+00
2.880000e-06	5.063437e-06	2.856545e-10	3.696630e+01	1.523300e+00
2.890000e-06	5.098712e-06	2.895091e-10	3.722383e+01	1.508731e+00
2.900000e-06	5.133512e-06	2.904113e-10	3.747790e+01	1.493315e+00
2.910000e-06	5.167706e-06	2.870674e-10	3.772754e+01	1.477006e+00
2.920000e-06	5.201248e-06	2.840178e-10	3.797241e+01	1.459764e+00
