# Temperatura_=_20.0
# Concentracion g/m^3_=_9000.0
# C_Vs_to_Am_M_A/Vsm_=_65563218390.804596
# pendiente_HvsI_1/m_=_3716.3
# ordenada_HvsI_A/m_=_1297.0
# frecuencia_Hz_=_135293.76699086232

Tiempo_(s)	Campo_(V.s)	Magnetizacion_(V.s)	Campo_(kA/m)	Magnetizacion_(A/m)
0.000000e+00	-6.523848e-06	-4.517312e-09	-4.763759e+01	-2.840435e+02
1.000000e-08	-6.524049e-06	-4.516759e-09	-4.763906e+01	-2.841590e+02
2.000000e-08	-6.523934e-06	-4.516392e-09	-4.763822e+01	-2.842725e+02
3.000000e-08	-6.523379e-06	-4.517606e-09	-4.763417e+01	-2.843828e+02
4.000000e-08	-6.522144e-06	-4.522249e-09	-4.762515e+01	-2.844887e+02
5.000000e-08	-6.520132e-06	-4.526551e-09	-4.761045e+01	-2.845890e+02
6.000000e-08	-6.517484e-06	-4.526045e-09	-4.759112e+01	-2.846825e+02
7.000000e-08	-6.514338e-06	-4.519349e-09	-4.756815e+01	-2.847681e+02
8.000000e-08	-6.510820e-06	-4.522460e-09	-4.754246e+01	-2.848447e+02
9.000000e-08	-6.506936e-06	-4.550845e-09	-4.751410e+01	-2.849114e+02
1.000000e-07	-6.502448e-06	-4.562633e-09	-4.748133e+01	-2.849672e+02
1.100000e-07	-6.497268e-06	-4.517168e-09	-4.744350e+01	-2.850114e+02
1.200000e-07	-6.491597e-06	-4.462207e-09	-4.740209e+01	-2.850431e+02
1.300000e-07	-6.485657e-06	-4.519564e-09	-4.735871e+01	-2.850620e+02
1.400000e-07	-6.479423e-06	-4.601747e-09	-4.731320e+01	-2.850673e+02
1.500000e-07	-6.472721e-06	-4.580629e-09	-4.726425e+01	-2.850589e+02
1.600000e-07	-6.465560e-06	-4.507841e-09	-4.721197e+01	-2.850364e+02
1.700000e-07	-6.458033e-06	-4.539156e-09	-4.715701e+01	-2.849998e+02
1.800000e-07	-6.450167e-06	-4.581337e-09	-4.709957e+01	-2.849490e+02
1.900000e-07	-6.442076e-06	-4.596736e-09	-4.704049e+01	-2.848842e+02
2.000000e-07	-6.433627e-06	-4.569709e-09	-4.697879e+01	-2.848056e+02
2.100000e-07	-6.424569e-06	-4.539830e-09	-4.691265e+01	-2.847135e+02
2.200000e-07	-6.414712e-06	-4.496679e-09	-4.684067e+01	-2.846084e+02
2.300000e-07	-6.404204e-06	-4.510238e-09	-4.676394e+01	-2.844908e+02
2.400000e-07	-6.393273e-06	-4.494686e-09	-4.668412e+01	-2.843613e+02
2.500000e-07	-6.381695e-06	-4.405691e-09	-4.659958e+01	-2.842206e+02
2.600000e-07	-6.369380e-06	-4.323530e-09	-4.650965e+01	-2.840693e+02
2.700000e-07	-6.356557e-06	-4.370038e-09	-4.641602e+01	-2.839082e+02
2.800000e-07	-6.343275e-06	-4.378799e-09	-4.631903e+01	-2.837381e+02
2.900000e-07	-6.329417e-06	-4.254989e-09	-4.621784e+01	-2.835597e+02
3.000000e-07	-6.315074e-06	-4.186159e-09	-4.611311e+01	-2.833739e+02
3.100000e-07	-6.300174e-06	-4.250240e-09	-4.600431e+01	-2.831813e+02
3.200000e-07	-6.284519e-06	-4.210285e-09	-4.588999e+01	-2.829827e+02
3.300000e-07	-6.268289e-06	-4.076081e-09	-4.577148e+01	-2.827788e+02
3.400000e-07	-6.251632e-06	-4.113553e-09	-4.564985e+01	-2.825702e+02
3.500000e-07	-6.234514e-06	-4.118236e-09	-4.552485e+01	-2.823575e+02
3.600000e-07	-6.217079e-06	-4.046710e-09	-4.539754e+01	-2.821410e+02
3.700000e-07	-6.199416e-06	-4.033176e-09	-4.526856e+01	-2.819213e+02
3.800000e-07	-6.181430e-06	-4.102029e-09	-4.513723e+01	-2.816985e+02
3.900000e-07	-6.162872e-06	-4.041296e-09	-4.500172e+01	-2.814729e+02
4.000000e-07	-6.143750e-06	-4.053950e-09	-4.486209e+01	-2.812445e+02
4.100000e-07	-6.124326e-06	-4.153909e-09	-4.472025e+01	-2.810133e+02
4.200000e-07	-6.104618e-06	-4.142865e-09	-4.457634e+01	-2.807792e+02
4.300000e-07	-6.084512e-06	-4.047654e-09	-4.442953e+01	-2.805419e+02
4.400000e-07	-6.064032e-06	-4.107156e-09	-4.427998e+01	-2.803011e+02
4.500000e-07	-6.043180e-06	-4.181931e-09	-4.412772e+01	-2.800563e+02
4.600000e-07	-6.021951e-06	-4.112430e-09	-4.397270e+01	-2.798071e+02
4.700000e-07	-6.000295e-06	-4.029200e-09	-4.381457e+01	-2.795526e+02
4.800000e-07	-5.978218e-06	-4.102057e-09	-4.365336e+01	-2.792924e+02
4.900000e-07	-5.955764e-06	-4.153688e-09	-4.348940e+01	-2.790255e+02
5.000000e-07	-5.932904e-06	-4.076554e-09	-4.332248e+01	-2.787512e+02
5.100000e-07	-5.909657e-06	-4.028095e-09	-4.315272e+01	-2.784686e+02
5.200000e-07	-5.886141e-06	-4.086327e-09	-4.298101e+01	-2.781768e+02
5.300000e-07	-5.862344e-06	-4.093303e-09	-4.280724e+01	-2.778749e+02
5.400000e-07	-5.838062e-06	-4.049378e-09	-4.262993e+01	-2.775620e+02
5.500000e-07	-5.813184e-06	-4.065307e-09	-4.244827e+01	-2.772371e+02
5.600000e-07	-5.787713e-06	-4.063087e-09	-4.226228e+01	-2.768995e+02
5.700000e-07	-5.761617e-06	-4.025066e-09	-4.207172e+01	-2.765483e+02
5.800000e-07	-5.734907e-06	-4.048682e-09	-4.187668e+01	-2.761828e+02
5.900000e-07	-5.707777e-06	-4.082546e-09	-4.167858e+01	-2.758022e+02
6.000000e-07	-5.680330e-06	-4.021769e-09	-4.147816e+01	-2.754060e+02
6.100000e-07	-5.652581e-06	-3.993716e-09	-4.127554e+01	-2.749936e+02
6.200000e-07	-5.624576e-06	-4.040960e-09	-4.107104e+01	-2.745646e+02
6.300000e-07	-5.596275e-06	-4.050418e-09	-4.086438e+01	-2.741188e+02
6.400000e-07	-5.567620e-06	-3.999457e-09	-4.065514e+01	-2.736559e+02
6.500000e-07	-5.538577e-06	-3.993500e-09	-4.044307e+01	-2.731759e+02
6.600000e-07	-5.509178e-06	-4.010524e-09	-4.022840e+01	-2.726789e+02
6.700000e-07	-5.479347e-06	-4.011679e-09	-4.001057e+01	-2.721651e+02
6.800000e-07	-5.449018e-06	-3.988284e-09	-3.978910e+01	-2.716347e+02
6.900000e-07	-5.418282e-06	-3.982350e-09	-3.956467e+01	-2.710884e+02
7.000000e-07	-5.387180e-06	-3.977953e-09	-3.933756e+01	-2.705266e+02
7.100000e-07	-5.355842e-06	-3.974162e-09	-3.910872e+01	-2.699501e+02
7.200000e-07	-5.324305e-06	-3.967599e-09	-3.887844e+01	-2.693597e+02
7.300000e-07	-5.292429e-06	-3.969828e-09	-3.864568e+01	-2.687561e+02
7.400000e-07	-5.260203e-06	-3.950415e-09	-3.841036e+01	-2.681406e+02
7.500000e-07	-5.227656e-06	-3.930562e-09	-3.817271e+01	-2.675140e+02
7.600000e-07	-5.194698e-06	-3.936716e-09	-3.793204e+01	-2.668774e+02
7.700000e-07	-5.161067e-06	-3.944607e-09	-3.768647e+01	-2.662322e+02
7.800000e-07	-5.126711e-06	-3.919054e-09	-3.743560e+01	-2.655793e+02
7.900000e-07	-5.091883e-06	-3.904126e-09	-3.718128e+01	-2.649201e+02
8.000000e-07	-5.056707e-06	-3.912932e-09	-3.692442e+01	-2.642556e+02
8.100000e-07	-5.021243e-06	-3.904319e-09	-3.666546e+01	-2.635869e+02
8.200000e-07	-4.985487e-06	-3.883563e-09	-3.640437e+01	-2.629153e+02
8.300000e-07	-4.949437e-06	-3.879998e-09	-3.614113e+01	-2.622416e+02
8.400000e-07	-4.913132e-06	-3.879376e-09	-3.587603e+01	-2.615669e+02
8.500000e-07	-4.876499e-06	-3.862575e-09	-3.560853e+01	-2.608919e+02
8.600000e-07	-4.839453e-06	-3.852096e-09	-3.533802e+01	-2.602173e+02
8.700000e-07	-4.802113e-06	-3.848308e-09	-3.506536e+01	-2.595438e+02
8.800000e-07	-4.764536e-06	-3.838409e-09	-3.479097e+01	-2.588717e+02
8.900000e-07	-4.726532e-06	-3.818745e-09	-3.451347e+01	-2.582014e+02
9.000000e-07	-4.688165e-06	-3.809054e-09	-3.423330e+01	-2.575329e+02
9.100000e-07	-4.649545e-06	-3.802375e-09	-3.395130e+01	-2.568662e+02
9.200000e-07	-4.610610e-06	-3.794077e-09	-3.366699e+01	-2.562010e+02
9.300000e-07	-4.571349e-06	-3.779419e-09	-3.338031e+01	-2.555369e+02
9.400000e-07	-4.531873e-06	-3.770326e-09	-3.309205e+01	-2.548733e+02
9.500000e-07	-4.492172e-06	-3.761314e-09	-3.280215e+01	-2.542093e+02
9.600000e-07	-4.452138e-06	-3.752622e-09	-3.250982e+01	-2.535441e+02
9.700000e-07	-4.411846e-06	-3.739487e-09	-3.221560e+01	-2.528765e+02
9.800000e-07	-4.371261e-06	-3.727959e-09	-3.191925e+01	-2.522051e+02
9.900000e-07	-4.330269e-06	-3.712557e-09	-3.161992e+01	-2.515286e+02
1.000000e-06	-4.288801e-06	-3.704274e-09	-3.131712e+01	-2.508454e+02
1.010000e-06	-4.246854e-06	-3.700842e-09	-3.101082e+01	-2.501537e+02
1.020000e-06	-4.204490e-06	-3.691358e-09	-3.070147e+01	-2.494518e+02
1.030000e-06	-4.161772e-06	-3.672595e-09	-3.038955e+01	-2.487378e+02
1.040000e-06	-4.118766e-06	-3.661438e-09	-3.007551e+01	-2.480097e+02
1.050000e-06	-4.075511e-06	-3.654864e-09	-2.975966e+01	-2.472657e+02
1.060000e-06	-4.031965e-06	-3.638478e-09	-2.944168e+01	-2.465036e+02
1.070000e-06	-3.988117e-06	-3.617132e-09	-2.912150e+01	-2.457216e+02
1.080000e-06	-3.944068e-06	-3.602658e-09	-2.879986e+01	-2.449176e+02
1.090000e-06	-3.899773e-06	-3.592148e-09	-2.847641e+01	-2.440899e+02
1.100000e-06	-3.855143e-06	-3.578561e-09	-2.815052e+01	-2.432366e+02
1.110000e-06	-3.810279e-06	-3.564005e-09	-2.782292e+01	-2.423559e+02
1.120000e-06	-3.765176e-06	-3.549081e-09	-2.749357e+01	-2.414465e+02
1.130000e-06	-3.719801e-06	-3.536454e-09	-2.716224e+01	-2.405067e+02
1.140000e-06	-3.674214e-06	-3.524402e-09	-2.682936e+01	-2.395355e+02
1.150000e-06	-3.628369e-06	-3.509948e-09	-2.649460e+01	-2.385316e+02
1.160000e-06	-3.582193e-06	-3.489793e-09	-2.615742e+01	-2.374943e+02
1.170000e-06	-3.535797e-06	-3.471106e-09	-2.581864e+01	-2.364229e+02
1.180000e-06	-3.489241e-06	-3.454323e-09	-2.547868e+01	-2.353169e+02
1.190000e-06	-3.442429e-06	-3.438757e-09	-2.513686e+01	-2.341762e+02
1.200000e-06	-3.395364e-06	-3.418802e-09	-2.479318e+01	-2.330007e+02
1.210000e-06	-3.348061e-06	-3.399445e-09	-2.444777e+01	-2.317907e+02
1.220000e-06	-3.300531e-06	-3.384628e-09	-2.410071e+01	-2.305466e+02
1.230000e-06	-3.252763e-06	-3.371383e-09	-2.375190e+01	-2.292692e+02
1.240000e-06	-3.204772e-06	-3.353700e-09	-2.340146e+01	-2.279593e+02
1.250000e-06	-3.156598e-06	-3.335054e-09	-2.304970e+01	-2.266180e+02
1.260000e-06	-3.108153e-06	-3.315234e-09	-2.269594e+01	-2.252466e+02
1.270000e-06	-3.059319e-06	-3.293334e-09	-2.233936e+01	-2.238466e+02
1.280000e-06	-3.010155e-06	-3.269321e-09	-2.198036e+01	-2.224193e+02
1.290000e-06	-2.960642e-06	-3.248621e-09	-2.161881e+01	-2.209665e+02
1.300000e-06	-2.910792e-06	-3.227159e-09	-2.125481e+01	-2.194900e+02
1.310000e-06	-2.860772e-06	-3.202468e-09	-2.088956e+01	-2.179914e+02
1.320000e-06	-2.810574e-06	-3.181221e-09	-2.052301e+01	-2.164726e+02
1.330000e-06	-2.760199e-06	-3.165404e-09	-2.015517e+01	-2.149353e+02
1.340000e-06	-2.709574e-06	-3.146862e-09	-1.978550e+01	-2.133812e+02
1.350000e-06	-2.658608e-06	-3.121751e-09	-1.941334e+01	-2.118119e+02
1.360000e-06	-2.607342e-06	-3.096984e-09	-1.903899e+01	-2.102288e+02
1.370000e-06	-2.555783e-06	-3.075454e-09	-1.866250e+01	-2.086333e+02
1.380000e-06	-2.504014e-06	-3.054525e-09	-1.828448e+01	-2.070263e+02
1.390000e-06	-2.452113e-06	-3.030560e-09	-1.790550e+01	-2.054088e+02
1.400000e-06	-2.399984e-06	-3.004378e-09	-1.752485e+01	-2.037811e+02
1.410000e-06	-2.347641e-06	-2.979527e-09	-1.714264e+01	-2.021436e+02
1.420000e-06	-2.295229e-06	-2.956727e-09	-1.675992e+01	-2.004960e+02
1.430000e-06	-2.242716e-06	-2.932767e-09	-1.637647e+01	-1.988379e+02
1.440000e-06	-2.190053e-06	-2.906612e-09	-1.599192e+01	-1.971684e+02
1.450000e-06	-2.137193e-06	-2.880054e-09	-1.560593e+01	-1.954861e+02
1.460000e-06	-2.084187e-06	-2.854813e-09	-1.521888e+01	-1.937892e+02
1.470000e-06	-2.031055e-06	-2.829204e-09	-1.483090e+01	-1.920755e+02
1.480000e-06	-1.977765e-06	-2.801730e-09	-1.444178e+01	-1.903423e+02
1.490000e-06	-1.924396e-06	-2.772114e-09	-1.405207e+01	-1.885864e+02
1.500000e-06	-1.870879e-06	-2.743282e-09	-1.366129e+01	-1.868043e+02
1.510000e-06	-1.817089e-06	-2.714700e-09	-1.326851e+01	-1.849917e+02
1.520000e-06	-1.763108e-06	-2.685617e-09	-1.287434e+01	-1.831443e+02
1.530000e-06	-1.709036e-06	-2.655594e-09	-1.247950e+01	-1.812570e+02
1.540000e-06	-1.654872e-06	-2.623483e-09	-1.208399e+01	-1.793246e+02
1.550000e-06	-1.600584e-06	-2.590167e-09	-1.168757e+01	-1.773412e+02
1.560000e-06	-1.546223e-06	-2.557486e-09	-1.129062e+01	-1.753008e+02
1.570000e-06	-1.491827e-06	-2.522318e-09	-1.089342e+01	-1.731970e+02
1.580000e-06	-1.437352e-06	-2.485526e-09	-1.049564e+01	-1.710231e+02
1.590000e-06	-1.382809e-06	-2.447563e-09	-1.009737e+01	-1.687725e+02
1.600000e-06	-1.328180e-06	-2.408359e-09	-9.698466e+00	-1.664379e+02
1.610000e-06	-1.273401e-06	-2.369964e-09	-9.298461e+00	-1.640123e+02
1.620000e-06	-1.218443e-06	-2.329362e-09	-8.897152e+00	-1.614886e+02
1.630000e-06	-1.163399e-06	-2.286522e-09	-8.495220e+00	-1.588595e+02
1.640000e-06	-1.108276e-06	-2.243641e-09	-8.092705e+00	-1.561180e+02
1.650000e-06	-1.053019e-06	-2.200806e-09	-7.689217e+00	-1.532571e+02
1.660000e-06	-9.976802e-07	-2.155396e-09	-7.285130e+00	-1.502700e+02
1.670000e-06	-9.423660e-07	-2.110058e-09	-6.881221e+00	-1.471504e+02
1.680000e-06	-8.870590e-07	-2.065999e-09	-6.477366e+00	-1.438921e+02
1.690000e-06	-8.317141e-07	-2.020213e-09	-6.073234e+00	-1.404892e+02
1.700000e-06	-7.763531e-07	-1.971070e-09	-5.668984e+00	-1.369367e+02
1.710000e-06	-7.209891e-07	-1.920806e-09	-5.264712e+00	-1.332296e+02
1.720000e-06	-6.655695e-07	-1.866406e-09	-4.860035e+00	-1.293639e+02
1.730000e-06	-6.101145e-07	-1.807528e-09	-4.455099e+00	-1.253360e+02
1.740000e-06	-5.546218e-07	-1.748912e-09	-4.049887e+00	-1.211431e+02
1.750000e-06	-4.990511e-07	-1.688721e-09	-3.644106e+00	-1.167830e+02
1.760000e-06	-4.435090e-07	-1.625100e-09	-3.238533e+00	-1.122545e+02
1.770000e-06	-3.879655e-07	-1.558442e-09	-2.832951e+00	-1.075571e+02
1.780000e-06	-3.323566e-07	-1.488243e-09	-2.426891e+00	-1.026910e+02
1.790000e-06	-2.767080e-07	-1.414493e-09	-2.020541e+00	-9.765757e+01
1.800000e-06	-2.210758e-07	-1.340581e-09	-1.614311e+00	-9.245877e+01
1.810000e-06	-1.654944e-07	-1.265845e-09	-1.208452e+00	-8.709763e+01
1.820000e-06	-1.099780e-07	-1.185625e-09	-8.030669e-01	-8.157804e+01
1.830000e-06	-5.441754e-08	-1.100649e-09	-3.973607e-01	-7.590478e+01
1.840000e-06	1.191779e-09	-1.016710e-09	8.702452e-03	-7.008351e+01
1.850000e-06	5.672255e-08	-9.328558e-10	4.141920e-01	-6.412076e+01
1.860000e-06	1.123134e-07	-8.452482e-10	8.201201e-01	-5.802391e+01
1.870000e-06	1.679625e-07	-7.535792e-10	1.226474e+00	-5.180115e+01
1.880000e-06	2.235820e-07	-6.595125e-10	1.632611e+00	-4.546141e+01
1.890000e-06	2.791922e-07	-5.642535e-10	2.038680e+00	-3.901437e+01
1.900000e-06	3.347858e-07	-4.663091e-10	2.444629e+00	-3.247039e+01
1.910000e-06	3.903354e-07	-3.660166e-10	2.850256e+00	-2.584041e+01
1.920000e-06	4.458409e-07	-2.635923e-10	3.255561e+00	-1.913597e+01
1.930000e-06	5.013288e-07	-1.621522e-10	3.660738e+00	-1.236904e+01
1.940000e-06	5.568050e-07	-5.867541e-11	4.065828e+00	-5.552039e+00
1.950000e-06	6.122657e-07	4.871078e-11	4.470806e+00	1.302289e+00
1.960000e-06	6.677016e-07	1.545299e-10	4.875603e+00	8.180942e+00
1.970000e-06	7.230990e-07	2.620301e-10	5.280119e+00	1.507074e+01
1.980000e-06	7.784145e-07	3.708834e-10	5.684036e+00	2.195842e+01
1.990000e-06	8.336681e-07	4.769465e-10	6.087502e+00	2.883069e+01
2.000000e-06	8.888447e-07	5.813720e-10	6.490405e+00	3.567434e+01
2.010000e-06	9.440109e-07	6.854313e-10	6.893233e+00	4.247631e+01
2.020000e-06	9.992023e-07	7.901773e-10	7.296245e+00	4.922379e+01
2.030000e-06	1.054344e-06	8.940806e-10	7.698895e+00	5.590428e+01
2.040000e-06	1.109406e-06	9.958151e-10	8.100960e+00	6.250567e+01
2.050000e-06	1.164352e-06	1.093606e-09	8.502176e+00	6.901632e+01
2.060000e-06	1.219182e-06	1.189048e-09	8.902553e+00	7.542514e+01
2.070000e-06	1.273934e-06	1.285430e-09	9.302353e+00	8.172163e+01
2.080000e-06	1.328625e-06	1.377813e-09	9.701709e+00	8.789594e+01
2.090000e-06	1.383232e-06	1.465305e-09	1.010046e+01	9.393899e+01
2.100000e-06	1.437763e-06	1.551603e-09	1.049864e+01	9.984240e+01
2.110000e-06	1.492173e-06	1.637819e-09	1.089595e+01	1.055987e+02
2.120000e-06	1.546509e-06	1.720275e-09	1.129272e+01	1.112011e+02
2.130000e-06	1.600738e-06	1.796403e-09	1.168870e+01	1.166438e+02
2.140000e-06	1.654818e-06	1.868423e-09	1.208360e+01	1.219219e+02
2.150000e-06	1.708797e-06	1.941543e-09	1.247775e+01	1.270315e+02
2.160000e-06	1.762670e-06	2.012992e-09	1.287113e+01	1.319693e+02
2.170000e-06	1.816414e-06	2.077445e-09	1.326358e+01	1.367332e+02
2.180000e-06	1.870046e-06	2.140090e-09	1.365521e+01	1.413220e+02
2.190000e-06	1.923618e-06	2.205614e-09	1.404639e+01	1.457353e+02
2.200000e-06	1.977052e-06	2.266987e-09	1.443657e+01	1.499735e+02
2.210000e-06	2.030260e-06	2.322516e-09	1.482510e+01	1.540379e+02
2.220000e-06	2.083204e-06	2.376730e-09	1.521170e+01	1.579308e+02
2.230000e-06	2.136030e-06	2.428524e-09	1.559744e+01	1.616550e+02
2.240000e-06	2.188743e-06	2.475687e-09	1.598235e+01	1.652142e+02
2.250000e-06	2.241319e-06	2.519214e-09	1.636626e+01	1.686126e+02
2.260000e-06	2.293781e-06	2.560312e-09	1.674935e+01	1.718551e+02
2.270000e-06	2.346066e-06	2.600443e-09	1.713114e+01	1.749473e+02
2.280000e-06	2.398189e-06	2.641988e-09	1.751174e+01	1.778951e+02
2.290000e-06	2.450091e-06	2.681357e-09	1.789074e+01	1.807049e+02
2.300000e-06	2.501805e-06	2.716259e-09	1.826835e+01	1.833834e+02
2.310000e-06	2.553393e-06	2.750588e-09	1.864505e+01	1.859377e+02
2.320000e-06	2.604793e-06	2.786889e-09	1.902038e+01	1.883751e+02
2.330000e-06	2.655904e-06	2.821847e-09	1.939359e+01	1.907031e+02
2.340000e-06	2.706675e-06	2.852647e-09	1.976433e+01	1.929291e+02
2.350000e-06	2.757162e-06	2.883459e-09	2.013299e+01	1.950607e+02
2.360000e-06	2.807427e-06	2.915950e-09	2.050003e+01	1.971055e+02
2.370000e-06	2.857416e-06	2.946582e-09	2.086505e+01	1.990708e+02
2.380000e-06	2.907057e-06	2.975013e-09	2.122753e+01	2.009639e+02
2.390000e-06	2.956330e-06	3.002923e-09	2.158732e+01	2.027919e+02
2.400000e-06	3.005215e-06	3.030952e-09	2.194429e+01	2.045616e+02
2.410000e-06	3.053758e-06	3.058629e-09	2.229876e+01	2.062794e+02
2.420000e-06	3.101994e-06	3.083942e-09	2.265098e+01	2.079514e+02
2.430000e-06	3.149985e-06	3.107361e-09	2.300141e+01	2.095835e+02
2.440000e-06	3.197823e-06	3.132693e-09	2.335073e+01	2.111808e+02
2.450000e-06	3.245504e-06	3.159682e-09	2.369890e+01	2.127482e+02
2.460000e-06	3.293007e-06	3.184894e-09	2.404576e+01	2.142902e+02
2.470000e-06	3.340375e-06	3.207300e-09	2.439165e+01	2.158106e+02
2.480000e-06	3.387632e-06	3.229895e-09	2.473672e+01	2.173128e+02
2.490000e-06	3.434650e-06	3.252305e-09	2.508005e+01	2.187998e+02
2.500000e-06	3.481367e-06	3.271988e-09	2.542118e+01	2.202740e+02
2.510000e-06	3.527876e-06	3.291788e-09	2.576079e+01	2.217373e+02
2.520000e-06	3.574153e-06	3.314015e-09	2.609871e+01	2.231912e+02
2.530000e-06	3.620098e-06	3.336175e-09	2.643421e+01	2.246366e+02
2.540000e-06	3.665761e-06	3.355439e-09	2.676764e+01	2.260741e+02
2.550000e-06	3.711188e-06	3.371606e-09	2.709935e+01	2.275039e+02
2.560000e-06	3.756413e-06	3.388368e-09	2.742959e+01	2.289258e+02
2.570000e-06	3.801430e-06	3.405947e-09	2.775831e+01	2.303390e+02
2.580000e-06	3.846081e-06	3.421734e-09	2.808435e+01	2.317427e+02
2.590000e-06	3.890481e-06	3.436456e-09	2.840856e+01	2.331358e+02
2.600000e-06	3.934772e-06	3.453674e-09	2.873198e+01	2.345167e+02
2.610000e-06	3.978828e-06	3.474403e-09	2.905368e+01	2.358839e+02
2.620000e-06	4.022640e-06	3.493292e-09	2.937360e+01	2.372354e+02
2.630000e-06	4.066303e-06	3.507559e-09	2.969243e+01	2.385695e+02
2.640000e-06	4.109787e-06	3.520814e-09	3.000995e+01	2.398841e+02
2.650000e-06	4.152976e-06	3.537410e-09	3.032532e+01	2.411772e+02
2.660000e-06	4.195816e-06	3.554323e-09	3.063814e+01	2.424467e+02
2.670000e-06	4.238225e-06	3.568080e-09	3.094781e+01	2.436906e+02
2.680000e-06	4.280152e-06	3.581775e-09	3.125397e+01	2.449071e+02
2.690000e-06	4.321582e-06	3.597406e-09	3.155649e+01	2.460942e+02
2.700000e-06	4.362531e-06	3.614224e-09	3.185550e+01	2.472504e+02
2.710000e-06	4.403073e-06	3.629343e-09	3.215154e+01	2.483741e+02
2.720000e-06	4.443291e-06	3.641150e-09	3.244521e+01	2.494639e+02
2.730000e-06	4.483242e-06	3.652637e-09	3.273694e+01	2.505188e+02
2.740000e-06	4.522967e-06	3.664567e-09	3.302702e+01	2.515379e+02
2.750000e-06	4.562454e-06	3.677181e-09	3.331535e+01	2.525205e+02
2.760000e-06	4.601687e-06	3.688561e-09	3.360184e+01	2.534663e+02
2.770000e-06	4.640699e-06	3.700331e-09	3.388671e+01	2.543751e+02
2.780000e-06	4.679330e-06	3.713262e-09	3.416879e+01	2.552471e+02
2.790000e-06	4.717511e-06	3.724275e-09	3.444759e+01	2.560826e+02
2.800000e-06	4.755418e-06	3.733671e-09	3.472439e+01	2.568822e+02
2.810000e-06	4.793074e-06	3.740833e-09	3.499935e+01	2.576469e+02
2.820000e-06	4.830330e-06	3.750639e-09	3.527140e+01	2.583778e+02
2.830000e-06	4.867199e-06	3.762828e-09	3.554062e+01	2.590762e+02
2.840000e-06	4.903812e-06	3.772764e-09	3.580797e+01	2.597436e+02
2.850000e-06	4.940114e-06	3.781379e-09	3.607306e+01	2.603818e+02
2.860000e-06	4.976124e-06	3.794088e-09	3.633600e+01	2.609926e+02
2.870000e-06	5.011903e-06	3.807942e-09	3.659726e+01	2.615780e+02
2.880000e-06	5.047450e-06	3.814921e-09	3.685683e+01	2.621401e+02
2.890000e-06	5.082785e-06	3.820980e-09	3.711485e+01	2.626811e+02
2.900000e-06	5.117773e-06	3.831667e-09	3.737033e+01	2.632032e+02
