# Temperatura_=_20.0
# Concentracion g/m^3_=_9000.0
# C_Vs_to_Am_M_A/Vsm_=_65563218390.804596
# pendiente_HvsI_1/m_=_3716.3
# ordenada_HvsI_A/m_=_1297.0
# frecuencia_Hz_=_135291.65898294825

Tiempo_(s)	Campo_(V.s)	Magnetizacion_(V.s)	Campo_(kA/m)	Magnetizacion_(A/m)
0.000000e+00	-6.547896e-06	-4.712873e-09	-4.762575e+01	-2.834739e+02
1.000000e-08	-6.547941e-06	-4.714460e-09	-4.762608e+01	-2.836843e+02
2.000000e-08	-6.547662e-06	-4.719930e-09	-4.762405e+01	-2.839012e+02
3.000000e-08	-6.546959e-06	-4.725346e-09	-4.761893e+01	-2.841233e+02
4.000000e-08	-6.545721e-06	-4.727238e-09	-4.760993e+01	-2.843493e+02
5.000000e-08	-6.543780e-06	-4.728034e-09	-4.759581e+01	-2.845778e+02
6.000000e-08	-6.541091e-06	-4.729711e-09	-4.757625e+01	-2.848074e+02
7.000000e-08	-6.537791e-06	-4.728121e-09	-4.755225e+01	-2.850368e+02
8.000000e-08	-6.534095e-06	-4.725490e-09	-4.752537e+01	-2.852644e+02
9.000000e-08	-6.530009e-06	-4.720596e-09	-4.749565e+01	-2.854891e+02
1.000000e-07	-6.525286e-06	-4.711783e-09	-4.746130e+01	-2.857092e+02
1.100000e-07	-6.519969e-06	-4.704749e-09	-4.742262e+01	-2.859236e+02
1.200000e-07	-6.514232e-06	-4.722892e-09	-4.738090e+01	-2.861309e+02
1.300000e-07	-6.508201e-06	-4.758074e-09	-4.733703e+01	-2.863299e+02
1.400000e-07	-6.501907e-06	-4.762822e-09	-4.729125e+01	-2.865194e+02
1.500000e-07	-6.495174e-06	-4.701932e-09	-4.724228e+01	-2.866985e+02
1.600000e-07	-6.487998e-06	-4.677918e-09	-4.719008e+01	-2.868661e+02
1.700000e-07	-6.480447e-06	-4.711576e-09	-4.713517e+01	-2.870214e+02
1.800000e-07	-6.472496e-06	-4.723565e-09	-4.707733e+01	-2.871636e+02
1.900000e-07	-6.464271e-06	-4.693635e-09	-4.701751e+01	-2.872920e+02
2.000000e-07	-6.455780e-06	-4.669101e-09	-4.695575e+01	-2.874060e+02
2.100000e-07	-6.446629e-06	-4.671788e-09	-4.688919e+01	-2.875053e+02
2.200000e-07	-6.436574e-06	-4.676369e-09	-4.681606e+01	-2.875894e+02
2.300000e-07	-6.425928e-06	-4.679875e-09	-4.673862e+01	-2.876581e+02
2.400000e-07	-6.414819e-06	-4.643691e-09	-4.665782e+01	-2.877113e+02
2.500000e-07	-6.403118e-06	-4.584952e-09	-4.657272e+01	-2.877488e+02
2.600000e-07	-6.390774e-06	-4.531364e-09	-4.648294e+01	-2.877708e+02
2.700000e-07	-6.377872e-06	-4.498544e-09	-4.638909e+01	-2.877772e+02
2.800000e-07	-6.364474e-06	-4.416762e-09	-4.629164e+01	-2.877683e+02
2.900000e-07	-6.350452e-06	-4.313979e-09	-4.618965e+01	-2.877443e+02
3.000000e-07	-6.335856e-06	-4.255261e-09	-4.608349e+01	-2.877054e+02
3.100000e-07	-6.320787e-06	-4.219871e-09	-4.597389e+01	-2.876520e+02
3.200000e-07	-6.305127e-06	-4.106337e-09	-4.585998e+01	-2.875844e+02
3.300000e-07	-6.288743e-06	-4.004796e-09	-4.574081e+01	-2.875030e+02
3.400000e-07	-6.271868e-06	-4.001332e-09	-4.561807e+01	-2.874081e+02
3.500000e-07	-6.254633e-06	-3.984211e-09	-4.549272e+01	-2.873001e+02
3.600000e-07	-6.237008e-06	-3.926411e-09	-4.536452e+01	-2.871794e+02
3.700000e-07	-6.219104e-06	-3.927220e-09	-4.523430e+01	-2.870463e+02
3.800000e-07	-6.200864e-06	-3.946825e-09	-4.510163e+01	-2.869011e+02
3.900000e-07	-6.182081e-06	-3.911743e-09	-4.496501e+01	-2.867442e+02
4.000000e-07	-6.162791e-06	-3.903380e-09	-4.482471e+01	-2.865757e+02
4.100000e-07	-6.143166e-06	-3.940503e-09	-4.468197e+01	-2.863960e+02
4.200000e-07	-6.123247e-06	-3.928879e-09	-4.453709e+01	-2.862051e+02
4.300000e-07	-6.102943e-06	-3.909052e-09	-4.438941e+01	-2.860031e+02
4.400000e-07	-6.082283e-06	-3.965144e-09	-4.423914e+01	-2.857902e+02
4.500000e-07	-6.061382e-06	-4.008638e-09	-4.408712e+01	-2.855664e+02
4.600000e-07	-6.040098e-06	-3.976193e-09	-4.393231e+01	-2.853316e+02
4.700000e-07	-6.018330e-06	-3.952777e-09	-4.377398e+01	-2.850858e+02
4.800000e-07	-5.996166e-06	-4.000293e-09	-4.361277e+01	-2.848289e+02
4.900000e-07	-5.973604e-06	-3.993248e-09	-4.344867e+01	-2.845607e+02
5.000000e-07	-5.950566e-06	-3.939483e-09	-4.328110e+01	-2.842810e+02
5.100000e-07	-5.927146e-06	-3.949291e-09	-4.311076e+01	-2.839896e+02
5.200000e-07	-5.903419e-06	-3.989552e-09	-4.293819e+01	-2.836863e+02
5.300000e-07	-5.879379e-06	-3.952986e-09	-4.276333e+01	-2.833709e+02
5.400000e-07	-5.854997e-06	-3.926167e-09	-4.258599e+01	-2.830431e+02
5.500000e-07	-5.830184e-06	-3.956076e-09	-4.240551e+01	-2.827027e+02
5.600000e-07	-5.804751e-06	-3.962368e-09	-4.222053e+01	-2.823495e+02
5.700000e-07	-5.778529e-06	-3.932559e-09	-4.202980e+01	-2.819833e+02
5.800000e-07	-5.751610e-06	-3.934014e-09	-4.183401e+01	-2.816039e+02
5.900000e-07	-5.724185e-06	-3.940720e-09	-4.163453e+01	-2.812111e+02
6.000000e-07	-5.696476e-06	-3.933756e-09	-4.143300e+01	-2.808050e+02
6.100000e-07	-5.668574e-06	-3.933243e-09	-4.123005e+01	-2.803854e+02
6.200000e-07	-5.640378e-06	-3.933294e-09	-4.102497e+01	-2.799524e+02
6.300000e-07	-5.611791e-06	-3.919733e-09	-4.081704e+01	-2.795061e+02
6.400000e-07	-5.582758e-06	-3.913146e-09	-4.060587e+01	-2.790466e+02
6.500000e-07	-5.553345e-06	-3.919787e-09	-4.039194e+01	-2.785741e+02
6.600000e-07	-5.523599e-06	-3.916847e-09	-4.017558e+01	-2.780890e+02
6.700000e-07	-5.493551e-06	-3.899321e-09	-3.995703e+01	-2.775915e+02
6.800000e-07	-5.463113e-06	-3.886677e-09	-3.973564e+01	-2.770822e+02
6.900000e-07	-5.432192e-06	-3.899430e-09	-3.951074e+01	-2.765615e+02
7.000000e-07	-5.400839e-06	-3.904714e-09	-3.928270e+01	-2.760300e+02
7.100000e-07	-5.369180e-06	-3.883442e-09	-3.905242e+01	-2.754883e+02
7.200000e-07	-5.337366e-06	-3.868073e-09	-3.882103e+01	-2.749370e+02
7.300000e-07	-5.305329e-06	-3.881396e-09	-3.858801e+01	-2.743768e+02
7.400000e-07	-5.272905e-06	-3.878210e-09	-3.835218e+01	-2.738086e+02
7.500000e-07	-5.240098e-06	-3.859828e-09	-3.811356e+01	-2.732330e+02
7.600000e-07	-5.206823e-06	-3.855805e-09	-3.787153e+01	-2.726509e+02
7.700000e-07	-5.172887e-06	-3.857811e-09	-3.762470e+01	-2.720630e+02
7.800000e-07	-5.138400e-06	-3.846186e-09	-3.737386e+01	-2.714700e+02
7.900000e-07	-5.103500e-06	-3.837636e-09	-3.712002e+01	-2.708728e+02
8.000000e-07	-5.068143e-06	-3.829131e-09	-3.686285e+01	-2.702721e+02
8.100000e-07	-5.032406e-06	-3.817297e-09	-3.660292e+01	-2.696684e+02
8.200000e-07	-4.996439e-06	-3.810098e-09	-3.634132e+01	-2.690624e+02
8.300000e-07	-4.960264e-06	-3.810915e-09	-3.607820e+01	-2.684547e+02
8.400000e-07	-4.923771e-06	-3.803511e-09	-3.581277e+01	-2.678456e+02
8.500000e-07	-4.886864e-06	-3.791183e-09	-3.554433e+01	-2.672355e+02
8.600000e-07	-4.849599e-06	-3.782926e-09	-3.527328e+01	-2.666246e+02
8.700000e-07	-4.811962e-06	-3.777039e-09	-3.499953e+01	-2.660130e+02
8.800000e-07	-4.774005e-06	-3.765706e-09	-3.472346e+01	-2.654007e+02
8.900000e-07	-4.735864e-06	-3.752476e-09	-3.444604e+01	-2.647876e+02
9.000000e-07	-4.697427e-06	-3.743766e-09	-3.416647e+01	-2.641734e+02
9.100000e-07	-4.658659e-06	-3.737626e-09	-3.388449e+01	-2.635577e+02
9.200000e-07	-4.619567e-06	-3.729880e-09	-3.360016e+01	-2.629398e+02
9.300000e-07	-4.580148e-06	-3.721323e-09	-3.331344e+01	-2.623191e+02
9.400000e-07	-4.540451e-06	-3.717246e-09	-3.302472e+01	-2.616947e+02
9.500000e-07	-4.500523e-06	-3.710498e-09	-3.273430e+01	-2.610656e+02
9.600000e-07	-4.460382e-06	-3.695430e-09	-3.244233e+01	-2.604308e+02
9.700000e-07	-4.419939e-06	-3.680641e-09	-3.214817e+01	-2.597890e+02
9.800000e-07	-4.379181e-06	-3.674315e-09	-3.185172e+01	-2.591387e+02
9.900000e-07	-4.338000e-06	-3.666289e-09	-3.155220e+01	-2.584787e+02
1.000000e-06	-4.296357e-06	-3.655597e-09	-3.124931e+01	-2.578073e+02
1.010000e-06	-4.254224e-06	-3.646173e-09	-3.094286e+01	-2.571230e+02
1.020000e-06	-4.211589e-06	-3.639715e-09	-3.063276e+01	-2.564240e+02
1.030000e-06	-4.168500e-06	-3.631326e-09	-3.031935e+01	-2.557088e+02
1.040000e-06	-4.125022e-06	-3.621539e-09	-3.000311e+01	-2.549755e+02
1.050000e-06	-4.081288e-06	-3.606687e-09	-2.968501e+01	-2.542225e+02
1.060000e-06	-4.037329e-06	-3.588397e-09	-2.936529e+01	-2.534480e+02
1.070000e-06	-3.993196e-06	-3.575355e-09	-2.904428e+01	-2.526504e+02
1.080000e-06	-3.948918e-06	-3.567557e-09	-2.872223e+01	-2.518282e+02
1.090000e-06	-3.904444e-06	-3.555854e-09	-2.839875e+01	-2.509797e+02
1.100000e-06	-3.859735e-06	-3.541417e-09	-2.807356e+01	-2.501037e+02
1.110000e-06	-3.814629e-06	-3.529648e-09	-2.774549e+01	-2.491987e+02
1.120000e-06	-3.769188e-06	-3.521394e-09	-2.741497e+01	-2.482637e+02
1.130000e-06	-3.723528e-06	-3.510781e-09	-2.708287e+01	-2.472976e+02
1.140000e-06	-3.677636e-06	-3.497018e-09	-2.674907e+01	-2.462995e+02
1.150000e-06	-3.631468e-06	-3.483069e-09	-2.641328e+01	-2.452689e+02
1.160000e-06	-3.585040e-06	-3.469265e-09	-2.607558e+01	-2.442052e+02
1.170000e-06	-3.538470e-06	-3.454698e-09	-2.573686e+01	-2.431081e+02
1.180000e-06	-3.491691e-06	-3.438690e-09	-2.539662e+01	-2.419776e+02
1.190000e-06	-3.444694e-06	-3.421228e-09	-2.505479e+01	-2.408138e+02
1.200000e-06	-3.397471e-06	-3.404574e-09	-2.471131e+01	-2.396169e+02
1.210000e-06	-3.349971e-06	-3.389675e-09	-2.436582e+01	-2.383875e+02
1.220000e-06	-3.302234e-06	-3.376172e-09	-2.401861e+01	-2.371264e+02
1.230000e-06	-3.254276e-06	-3.361189e-09	-2.366979e+01	-2.358343e+02
1.240000e-06	-3.206112e-06	-3.343606e-09	-2.331947e+01	-2.345124e+02
1.250000e-06	-3.157723e-06	-3.326136e-09	-2.296752e+01	-2.331618e+02
1.260000e-06	-3.109133e-06	-3.309666e-09	-2.261410e+01	-2.317838e+02
1.270000e-06	-3.060290e-06	-3.290662e-09	-2.225885e+01	-2.303800e+02
1.280000e-06	-3.011062e-06	-3.269181e-09	-2.190079e+01	-2.289519e+02
1.290000e-06	-2.961537e-06	-3.250897e-09	-2.154057e+01	-2.275011e+02
1.300000e-06	-2.911740e-06	-3.231768e-09	-2.117838e+01	-2.260291e+02
1.310000e-06	-2.861542e-06	-3.210297e-09	-2.081326e+01	-2.245378e+02
1.320000e-06	-2.810924e-06	-3.190540e-09	-2.044510e+01	-2.230285e+02
1.330000e-06	-2.760026e-06	-3.172456e-09	-2.007489e+01	-2.215030e+02
1.340000e-06	-2.708862e-06	-3.153317e-09	-1.970275e+01	-2.199626e+02
1.350000e-06	-2.657399e-06	-3.134307e-09	-1.932844e+01	-2.184086e+02
1.360000e-06	-2.605710e-06	-3.114210e-09	-1.895249e+01	-2.168423e+02
1.370000e-06	-2.553858e-06	-3.093268e-09	-1.857534e+01	-2.152646e+02
1.380000e-06	-2.501882e-06	-3.070494e-09	-1.819730e+01	-2.136761e+02
1.390000e-06	-2.449693e-06	-3.047260e-09	-1.781770e+01	-2.120773e+02
1.400000e-06	-2.397315e-06	-3.025900e-09	-1.743673e+01	-2.104684e+02
1.410000e-06	-2.344822e-06	-3.003432e-09	-1.705493e+01	-2.088492e+02
1.420000e-06	-2.292203e-06	-2.979116e-09	-1.667221e+01	-2.072192e+02
1.430000e-06	-2.239416e-06	-2.957325e-09	-1.628826e+01	-2.055774e+02
1.440000e-06	-2.186457e-06	-2.937632e-09	-1.590307e+01	-2.039225e+02
1.450000e-06	-2.133373e-06	-2.915067e-09	-1.551696e+01	-2.022529e+02
1.460000e-06	-2.080138e-06	-2.890078e-09	-1.512976e+01	-2.005663e+02
1.470000e-06	-2.026722e-06	-2.864962e-09	-1.474125e+01	-1.988601e+02
1.480000e-06	-1.973139e-06	-2.838609e-09	-1.435152e+01	-1.971315e+02
1.490000e-06	-1.919476e-06	-2.811282e-09	-1.396120e+01	-1.953767e+02
1.500000e-06	-1.865648e-06	-2.784254e-09	-1.356968e+01	-1.935920e+02
1.510000e-06	-1.811636e-06	-2.757308e-09	-1.317683e+01	-1.917731e+02
1.520000e-06	-1.757572e-06	-2.729080e-09	-1.278360e+01	-1.899151e+02
1.530000e-06	-1.703362e-06	-2.700148e-09	-1.238931e+01	-1.880129e+02
1.540000e-06	-1.649022e-06	-2.667182e-09	-1.199407e+01	-1.860610e+02
1.550000e-06	-1.594675e-06	-2.629822e-09	-1.159878e+01	-1.840535e+02
1.560000e-06	-1.540168e-06	-2.592947e-09	-1.120232e+01	-1.819844e+02
1.570000e-06	-1.485485e-06	-2.556676e-09	-1.080459e+01	-1.798471e+02
1.580000e-06	-1.430789e-06	-2.519919e-09	-1.040676e+01	-1.776350e+02
1.590000e-06	-1.375999e-06	-2.483563e-09	-1.000825e+01	-1.753414e+02
1.600000e-06	-1.321091e-06	-2.446975e-09	-9.608879e+00	-1.729593e+02
1.610000e-06	-1.266045e-06	-2.409754e-09	-9.208507e+00	-1.704816e+02
1.620000e-06	-1.210838e-06	-2.368248e-09	-8.806962e+00	-1.679013e+02
1.630000e-06	-1.155613e-06	-2.325275e-09	-8.405285e+00	-1.652115e+02
1.640000e-06	-1.100279e-06	-2.282680e-09	-8.002819e+00	-1.624054e+02
1.650000e-06	-1.044823e-06	-2.240989e-09	-7.599458e+00	-1.594761e+02
1.660000e-06	-9.893167e-07	-2.197710e-09	-7.195739e+00	-1.564172e+02
1.670000e-06	-9.337393e-07	-2.149583e-09	-6.791500e+00	-1.532226e+02
1.680000e-06	-8.781152e-07	-2.102968e-09	-6.386921e+00	-1.498864e+02
1.690000e-06	-8.224492e-07	-2.058689e-09	-5.982037e+00	-1.464032e+02
1.700000e-06	-7.667868e-07	-2.012408e-09	-5.577180e+00	-1.427682e+02
1.710000e-06	-7.110920e-07	-1.960337e-09	-5.172087e+00	-1.389769e+02
1.720000e-06	-6.553568e-07	-1.904713e-09	-4.766701e+00	-1.350256e+02
1.730000e-06	-5.996036e-07	-1.848714e-09	-4.361183e+00	-1.309112e+02
1.740000e-06	-5.438236e-07	-1.791380e-09	-3.955470e+00	-1.266311e+02
1.750000e-06	-4.880362e-07	-1.729524e-09	-3.549704e+00	-1.221837e+02
1.760000e-06	-4.322418e-07	-1.664802e-09	-3.143886e+00	-1.175680e+02
1.770000e-06	-3.764349e-07	-1.598846e-09	-2.737978e+00	-1.127840e+02
1.780000e-06	-3.206010e-07	-1.530367e-09	-2.331873e+00	-1.078323e+02
1.790000e-06	-2.647826e-07	-1.458365e-09	-1.925881e+00	-1.027145e+02
1.800000e-06	-2.089798e-07	-1.384826e-09	-1.520003e+00	-9.743300e+01
1.810000e-06	-1.531512e-07	-1.309983e-09	-1.113937e+00	-9.199115e+01
1.820000e-06	-9.732936e-08	-1.229569e-09	-7.079196e-01	-8.639312e+01
1.830000e-06	-4.152776e-08	-1.145153e-09	-3.020498e-01	-8.064399e+01
1.840000e-06	1.424581e-08	-1.061745e-09	1.036161e-01	-7.474968e+01
1.850000e-06	7.004670e-08	-9.792463e-10	5.094807e-01	-6.871696e+01
1.860000e-06	1.258795e-07	-8.911042e-10	9.155773e-01	-6.255341e+01
1.870000e-06	1.816781e-07	-7.981008e-10	1.321425e+00	-5.626740e+01
1.880000e-06	2.374660e-07	-7.046671e-10	1.727196e+00	-4.986803e+01
1.890000e-06	2.932411e-07	-6.104530e-10	2.132872e+00	-4.336511e+01
1.900000e-06	3.490355e-07	-5.121529e-10	2.538690e+00	-3.676909e+01
1.910000e-06	4.048594e-07	-4.089182e-10	2.944722e+00	-3.009101e+01
1.920000e-06	4.606729e-07	-3.047614e-10	3.350679e+00	-2.334242e+01
1.930000e-06	5.164727e-07	-2.019197e-10	3.756535e+00	-1.653534e+01
1.940000e-06	5.722499e-07	-9.823395e-11	4.162227e+00	-9.682185e+00
1.950000e-06	6.279836e-07	7.238216e-12	4.567603e+00	-2.795663e+00
1.960000e-06	6.836975e-07	1.118654e-10	4.972835e+00	4.111270e+00
1.970000e-06	7.393523e-07	2.166182e-10	5.377637e+00	1.102551e+01
1.980000e-06	7.949139e-07	3.226066e-10	5.781762e+00	1.793386e+01
1.990000e-06	8.504537e-07	4.299198e-10	6.185727e+00	2.482316e+01
2.000000e-06	9.059416e-07	5.360227e-10	6.589315e+00	3.168032e+01
2.010000e-06	9.614059e-07	6.417901e-10	6.992731e+00	3.849241e+01
2.020000e-06	1.016831e-06	7.470492e-10	7.395866e+00	4.524677e+01
2.030000e-06	1.072168e-06	8.516230e-10	7.798354e+00	5.193106e+01
2.040000e-06	1.127505e-06	9.514660e-10	8.200841e+00	5.853334e+01
2.050000e-06	1.182782e-06	1.047326e-09	8.602899e+00	6.504215e+01
2.060000e-06	1.237862e-06	1.141932e-09	9.003516e+00	7.144657e+01
2.070000e-06	1.292806e-06	1.235725e-09	9.403153e+00	7.773629e+01
2.080000e-06	1.347716e-06	1.326103e-09	9.802538e+00	8.390166e+01
2.090000e-06	1.402513e-06	1.412440e-09	1.020110e+01	8.993376e+01
2.100000e-06	1.457137e-06	1.497442e-09	1.059840e+01	9.582443e+01
2.110000e-06	1.511666e-06	1.582438e-09	1.099501e+01	1.015663e+02
2.120000e-06	1.566153e-06	1.664049e-09	1.139132e+01	1.071529e+02
2.130000e-06	1.620507e-06	1.741400e-09	1.178667e+01	1.125786e+02
2.140000e-06	1.674727e-06	1.814730e-09	1.218103e+01	1.178385e+02
2.150000e-06	1.728877e-06	1.884732e-09	1.257489e+01	1.229290e+02
2.160000e-06	1.782897e-06	1.953517e-09	1.296780e+01	1.278470e+02
2.170000e-06	1.836787e-06	2.018669e-09	1.335976e+01	1.325905e+02
2.180000e-06	1.890578e-06	2.080407e-09	1.375101e+01	1.371584e+02
2.190000e-06	1.944254e-06	2.140976e-09	1.414142e+01	1.415504e+02
2.200000e-06	1.997778e-06	2.199945e-09	1.453073e+01	1.457672e+02
2.210000e-06	2.051179e-06	2.255742e-09	1.491913e+01	1.498103e+02
2.220000e-06	2.104468e-06	2.309956e-09	1.530673e+01	1.536819e+02
2.230000e-06	2.157539e-06	2.359881e-09	1.569273e+01	1.573851e+02
2.240000e-06	2.210475e-06	2.404247e-09	1.607776e+01	1.609235e+02
2.250000e-06	2.263264e-06	2.444750e-09	1.646172e+01	1.643016e+02
2.260000e-06	2.315801e-06	2.484158e-09	1.684385e+01	1.675245e+02
2.270000e-06	2.368184e-06	2.523325e-09	1.722485e+01	1.705976e+02
2.280000e-06	2.420398e-06	2.562350e-09	1.760463e+01	1.735271e+02
2.290000e-06	2.472445e-06	2.598230e-09	1.798319e+01	1.763195e+02
2.300000e-06	2.524327e-06	2.631868e-09	1.836055e+01	1.789816e+02
2.310000e-06	2.576052e-06	2.663894e-09	1.873677e+01	1.815205e+02
2.320000e-06	2.627643e-06	2.696906e-09	1.911201e+01	1.839437e+02
2.330000e-06	2.678972e-06	2.730125e-09	1.948535e+01	1.862586e+02
2.340000e-06	2.730078e-06	2.760863e-09	1.985707e+01	1.884730e+02
2.350000e-06	2.781036e-06	2.791261e-09	2.022771e+01	1.905943e+02
2.360000e-06	2.831680e-06	2.820960e-09	2.059606e+01	1.926303e+02
2.370000e-06	2.881804e-06	2.849392e-09	2.096064e+01	1.945884e+02
2.380000e-06	2.931487e-06	2.876281e-09	2.132201e+01	1.964760e+02
2.390000e-06	2.980808e-06	2.900430e-09	2.168074e+01	1.983003e+02
2.400000e-06	3.029738e-06	2.923557e-09	2.203663e+01	2.000679e+02
2.410000e-06	3.078305e-06	2.949055e-09	2.238988e+01	2.017856e+02
2.420000e-06	3.126640e-06	2.974247e-09	2.274144e+01	2.034595e+02
2.430000e-06	3.174836e-06	2.997038e-09	2.309199e+01	2.050954e+02
2.440000e-06	3.222852e-06	3.021054e-09	2.344123e+01	2.066986e+02
2.450000e-06	3.270708e-06	3.045364e-09	2.378931e+01	2.082740e+02
2.460000e-06	3.318499e-06	3.068436e-09	2.413691e+01	2.098261e+02
2.470000e-06	3.366187e-06	3.089538e-09	2.448377e+01	2.113589e+02
2.480000e-06	3.413579e-06	3.108966e-09	2.482847e+01	2.128757e+02
2.490000e-06	3.460661e-06	3.129713e-09	2.517092e+01	2.143795e+02
2.500000e-06	3.507459e-06	3.150134e-09	2.551130e+01	2.158727e+02
2.510000e-06	3.553962e-06	3.170611e-09	2.584954e+01	2.173572e+02
2.520000e-06	3.600237e-06	3.192651e-09	2.618612e+01	2.188346e+02
2.530000e-06	3.646294e-06	3.214580e-09	2.652112e+01	2.203057e+02
2.540000e-06	3.692159e-06	3.231835e-09	2.685471e+01	2.217710e+02
2.550000e-06	3.737750e-06	3.245981e-09	2.718632e+01	2.232307e+02
2.560000e-06	3.783062e-06	3.261519e-09	2.751589e+01	2.246844e+02
2.570000e-06	3.828109e-06	3.279384e-09	2.784353e+01	2.261315e+02
2.580000e-06	3.872876e-06	3.296746e-09	2.816914e+01	2.275709e+02
2.590000e-06	3.917439e-06	3.311244e-09	2.849327e+01	2.290014e+02
2.600000e-06	3.961746e-06	3.326553e-09	2.881553e+01	2.304214e+02
2.610000e-06	4.005807e-06	3.344887e-09	2.913601e+01	2.318291e+02
2.620000e-06	4.049731e-06	3.362403e-09	2.945549e+01	2.332226e+02
2.630000e-06	4.093542e-06	3.378032e-09	2.977414e+01	2.345998e+02
2.640000e-06	4.137150e-06	3.392139e-09	3.009133e+01	2.359586e+02
2.650000e-06	4.180483e-06	3.407710e-09	3.040650e+01	2.372967e+02
2.660000e-06	4.223433e-06	3.423349e-09	3.071890e+01	2.386120e+02
2.670000e-06	4.265886e-06	3.436848e-09	3.102768e+01	2.399022e+02
2.680000e-06	4.307812e-06	3.449566e-09	3.133263e+01	2.411653e+02
2.690000e-06	4.349241e-06	3.462491e-09	3.163396e+01	2.423992e+02
2.700000e-06	4.390195e-06	3.477942e-09	3.193183e+01	2.436022e+02
2.710000e-06	4.430717e-06	3.495008e-09	3.222657e+01	2.447724e+02
2.720000e-06	4.470903e-06	3.508922e-09	3.251886e+01	2.459085e+02
2.730000e-06	4.510923e-06	3.518463e-09	3.280994e+01	2.470091e+02
2.740000e-06	4.550831e-06	3.528832e-09	3.310021e+01	2.480731e+02
2.750000e-06	4.590478e-06	3.541370e-09	3.338858e+01	2.490998e+02
2.760000e-06	4.629838e-06	3.553122e-09	3.367487e+01	2.500887e+02
2.770000e-06	4.668874e-06	3.563140e-09	3.395879e+01	2.510394e+02
2.780000e-06	4.707544e-06	3.574230e-09	3.424006e+01	2.519520e+02
2.790000e-06	4.745851e-06	3.585990e-09	3.451868e+01	2.528268e+02
2.800000e-06	4.783855e-06	3.595413e-09	3.479510e+01	2.536643e+02
2.810000e-06	4.821624e-06	3.601899e-09	3.506981e+01	2.544654e+02
2.820000e-06	4.859057e-06	3.611147e-09	3.534207e+01	2.552310e+02
2.830000e-06	4.896159e-06	3.624489e-09	3.561194e+01	2.559626e+02
2.840000e-06	4.932909e-06	3.634696e-09	3.587924e+01	2.566616e+02
2.850000e-06	4.969241e-06	3.641995e-09	3.614350e+01	2.573297e+02
2.860000e-06	5.005322e-06	3.650762e-09	3.640592e+01	2.579690e+02
2.870000e-06	5.041240e-06	3.663930e-09	3.666718e+01	2.585813e+02
2.880000e-06	5.076949e-06	3.674527e-09	3.692690e+01	2.591689e+02
2.890000e-06	5.112410e-06	3.682622e-09	3.718482e+01	2.597342e+02
2.900000e-06	5.147437e-06	3.692984e-09	3.743959e+01	2.602793e+02
