# Temperatura_=_20.0
# Concentracion g/m^3_=_9000.0
# C_Vs_to_Am_M_A/Vsm_=_65563218390.804596
# pendiente_HvsI_1/m_=_3716.3
# ordenada_HvsI_A/m_=_1297.0
# frecuencia_Hz_=_135293.88030281302

Tiempo_(s)	Campo_(V.s)	Magnetizacion_(V.s)	Campo_(kA/m)	Magnetizacion_(A/m)
0.000000e+00	-6.496433e-06	-4.593377e-09	-4.764661e+01	-2.798498e+02
1.000000e-08	-6.496450e-06	-4.596540e-09	-4.764674e+01	-2.799638e+02
2.000000e-08	-6.496162e-06	-4.599448e-09	-4.764463e+01	-2.800845e+02
3.000000e-08	-6.495487e-06	-4.602175e-09	-4.763968e+01	-2.802113e+02
4.000000e-08	-6.494154e-06	-4.605625e-09	-4.762990e+01	-2.803439e+02
5.000000e-08	-6.492035e-06	-4.608235e-09	-4.761436e+01	-2.804817e+02
6.000000e-08	-6.489309e-06	-4.608475e-09	-4.759437e+01	-2.806240e+02
7.000000e-08	-6.486056e-06	-4.600173e-09	-4.757050e+01	-2.807703e+02
8.000000e-08	-6.482427e-06	-4.587752e-09	-4.754389e+01	-2.809199e+02
9.000000e-08	-6.478454e-06	-4.594786e-09	-4.751475e+01	-2.810722e+02
1.000000e-07	-6.473861e-06	-4.643951e-09	-4.748107e+01	-2.812265e+02
1.100000e-07	-6.468547e-06	-4.668069e-09	-4.744209e+01	-2.813823e+02
1.200000e-07	-6.462718e-06	-4.592040e-09	-4.739934e+01	-2.815388e+02
1.300000e-07	-6.456663e-06	-4.484567e-09	-4.735493e+01	-2.816956e+02
1.400000e-07	-6.450366e-06	-4.543900e-09	-4.730874e+01	-2.818519e+02
1.500000e-07	-6.443599e-06	-4.688990e-09	-4.725912e+01	-2.820073e+02
1.600000e-07	-6.436282e-06	-4.701116e-09	-4.720545e+01	-2.821613e+02
1.700000e-07	-6.428642e-06	-4.538372e-09	-4.714942e+01	-2.823132e+02
1.800000e-07	-6.420816e-06	-4.507317e-09	-4.709202e+01	-2.824626e+02
1.900000e-07	-6.412709e-06	-4.629773e-09	-4.703256e+01	-2.826092e+02
2.000000e-07	-6.404344e-06	-4.715357e-09	-4.697121e+01	-2.827523e+02
2.100000e-07	-6.395463e-06	-4.678209e-09	-4.690608e+01	-2.828918e+02
2.200000e-07	-6.385655e-06	-4.557497e-09	-4.683414e+01	-2.830270e+02
2.300000e-07	-6.374948e-06	-4.533387e-09	-4.675561e+01	-2.831578e+02
2.400000e-07	-6.363729e-06	-4.601793e-09	-4.667333e+01	-2.832838e+02
2.500000e-07	-6.352103e-06	-4.674303e-09	-4.658806e+01	-2.834046e+02
2.600000e-07	-6.339759e-06	-4.514874e-09	-4.649752e+01	-2.835198e+02
2.700000e-07	-6.326830e-06	-4.338836e-09	-4.640270e+01	-2.836292e+02
2.800000e-07	-6.313653e-06	-4.359812e-09	-4.630606e+01	-2.837324e+02
2.900000e-07	-6.300003e-06	-4.472935e-09	-4.620594e+01	-2.838291e+02
3.000000e-07	-6.285665e-06	-4.327853e-09	-4.610078e+01	-2.839189e+02
3.100000e-07	-6.270759e-06	-4.115406e-09	-4.599146e+01	-2.840014e+02
3.200000e-07	-6.255269e-06	-4.120199e-09	-4.587785e+01	-2.840761e+02
3.300000e-07	-6.239108e-06	-4.180730e-09	-4.575932e+01	-2.841427e+02
3.400000e-07	-6.222442e-06	-4.077291e-09	-4.563709e+01	-2.842007e+02
3.500000e-07	-6.205413e-06	-3.985089e-09	-4.551219e+01	-2.842496e+02
3.600000e-07	-6.187958e-06	-3.977498e-09	-4.538417e+01	-2.842888e+02
3.700000e-07	-6.170089e-06	-3.986679e-09	-4.525312e+01	-2.843177e+02
3.800000e-07	-6.151967e-06	-4.044870e-09	-4.512021e+01	-2.843358e+02
3.900000e-07	-6.133402e-06	-4.054715e-09	-4.498404e+01	-2.843423e+02
4.000000e-07	-6.114218e-06	-3.941012e-09	-4.484335e+01	-2.843366e+02
4.100000e-07	-6.094624e-06	-3.919821e-09	-4.469964e+01	-2.843179e+02
4.200000e-07	-6.074777e-06	-4.083607e-09	-4.455408e+01	-2.842855e+02
4.300000e-07	-6.054650e-06	-4.088328e-09	-4.440646e+01	-2.842387e+02
4.400000e-07	-6.034193e-06	-3.937397e-09	-4.425642e+01	-2.841766e+02
4.500000e-07	-6.013466e-06	-3.935864e-09	-4.410441e+01	-2.840985e+02
4.600000e-07	-5.992403e-06	-4.084668e-09	-4.394992e+01	-2.840035e+02
4.700000e-07	-5.970842e-06	-4.075130e-09	-4.379179e+01	-2.838908e+02
4.800000e-07	-5.948834e-06	-3.960259e-09	-4.363038e+01	-2.837597e+02
4.900000e-07	-5.926436e-06	-3.926423e-09	-4.346610e+01	-2.836094e+02
5.000000e-07	-5.903642e-06	-4.006362e-09	-4.329892e+01	-2.834392e+02
5.100000e-07	-5.880443e-06	-4.024750e-09	-4.312878e+01	-2.832484e+02
5.200000e-07	-5.856861e-06	-3.983564e-09	-4.295582e+01	-2.830364e+02
5.300000e-07	-5.833003e-06	-3.931575e-09	-4.278084e+01	-2.828026e+02
5.400000e-07	-5.808868e-06	-3.943956e-09	-4.260383e+01	-2.825465e+02
5.500000e-07	-5.784243e-06	-3.980497e-09	-4.242322e+01	-2.822678e+02
5.600000e-07	-5.759042e-06	-3.998398e-09	-4.223839e+01	-2.819660e+02
5.700000e-07	-5.733314e-06	-3.945092e-09	-4.204969e+01	-2.816410e+02
5.800000e-07	-5.706885e-06	-3.904707e-09	-4.185586e+01	-2.812927e+02
5.900000e-07	-5.679849e-06	-3.946970e-09	-4.165756e+01	-2.809210e+02
6.000000e-07	-5.652416e-06	-4.000952e-09	-4.145636e+01	-2.805261e+02
6.100000e-07	-5.624618e-06	-3.954146e-09	-4.125248e+01	-2.801081e+02
6.200000e-07	-5.596593e-06	-3.893894e-09	-4.104694e+01	-2.796675e+02
6.300000e-07	-5.568295e-06	-3.921861e-09	-4.083940e+01	-2.792048e+02
6.400000e-07	-5.539628e-06	-3.963239e-09	-4.062915e+01	-2.787204e+02
6.500000e-07	-5.510561e-06	-3.938866e-09	-4.041596e+01	-2.782151e+02
6.600000e-07	-5.481043e-06	-3.891136e-09	-4.019947e+01	-2.776898e+02
6.700000e-07	-5.451160e-06	-3.894270e-09	-3.998029e+01	-2.771454e+02
6.800000e-07	-5.420920e-06	-3.920584e-09	-3.975851e+01	-2.765829e+02
6.900000e-07	-5.390265e-06	-3.927198e-09	-3.953368e+01	-2.760034e+02
7.000000e-07	-5.359209e-06	-3.895325e-09	-3.930590e+01	-2.754082e+02
7.100000e-07	-5.327793e-06	-3.883220e-09	-3.907549e+01	-2.747986e+02
7.200000e-07	-5.296140e-06	-3.894065e-09	-3.884334e+01	-2.741758e+02
7.300000e-07	-5.264316e-06	-3.903688e-09	-3.860993e+01	-2.735414e+02
7.400000e-07	-5.232230e-06	-3.878800e-09	-3.837460e+01	-2.728966e+02
7.500000e-07	-5.199736e-06	-3.859805e-09	-3.813628e+01	-2.722430e+02
7.600000e-07	-5.166819e-06	-3.857549e-09	-3.789486e+01	-2.715820e+02
7.700000e-07	-5.133554e-06	-3.872096e-09	-3.765089e+01	-2.709150e+02
7.800000e-07	-5.099720e-06	-3.861806e-09	-3.740274e+01	-2.702434e+02
7.900000e-07	-5.065175e-06	-3.834584e-09	-3.714938e+01	-2.695685e+02
8.000000e-07	-5.030124e-06	-3.820709e-09	-3.689230e+01	-2.688915e+02
8.100000e-07	-4.994686e-06	-3.839341e-09	-3.663239e+01	-2.682137e+02
8.200000e-07	-4.958903e-06	-3.834096e-09	-3.636995e+01	-2.675361e+02
8.300000e-07	-4.922857e-06	-3.803632e-09	-3.610557e+01	-2.668596e+02
8.400000e-07	-4.886549e-06	-3.793038e-09	-3.583928e+01	-2.661851e+02
8.500000e-07	-4.849929e-06	-3.810942e-09	-3.557070e+01	-2.655132e+02
8.600000e-07	-4.812965e-06	-3.809891e-09	-3.529960e+01	-2.648445e+02
8.700000e-07	-4.775671e-06	-3.783511e-09	-3.502608e+01	-2.641793e+02
8.800000e-07	-4.738080e-06	-3.762882e-09	-3.475037e+01	-2.635178e+02
8.900000e-07	-4.700215e-06	-3.763044e-09	-3.447266e+01	-2.628598e+02
9.000000e-07	-4.662084e-06	-3.765439e-09	-3.419300e+01	-2.622054e+02
9.100000e-07	-4.623565e-06	-3.748831e-09	-3.391049e+01	-2.615540e+02
9.200000e-07	-4.584669e-06	-3.725598e-09	-3.362521e+01	-2.609051e+02
9.300000e-07	-4.545545e-06	-3.719817e-09	-3.333827e+01	-2.602578e+02
9.400000e-07	-4.506187e-06	-3.732317e-09	-3.304960e+01	-2.596114e+02
9.500000e-07	-4.466537e-06	-3.728391e-09	-3.275880e+01	-2.589646e+02
9.600000e-07	-4.426670e-06	-3.704366e-09	-3.246640e+01	-2.583162e+02
9.700000e-07	-4.386600e-06	-3.682052e-09	-3.217252e+01	-2.576648e+02
9.800000e-07	-4.346173e-06	-3.680584e-09	-3.187602e+01	-2.570087e+02
9.900000e-07	-4.305299e-06	-3.677889e-09	-3.157624e+01	-2.563462e+02
1.000000e-06	-4.263978e-06	-3.662981e-09	-3.127318e+01	-2.556756e+02
1.010000e-06	-4.222253e-06	-3.639690e-09	-3.096715e+01	-2.549949e+02
1.020000e-06	-4.180123e-06	-3.633030e-09	-3.065817e+01	-2.543023e+02
1.030000e-06	-4.137560e-06	-3.633358e-09	-3.034600e+01	-2.535955e+02
1.040000e-06	-4.094652e-06	-3.626083e-09	-3.003130e+01	-2.528728e+02
1.050000e-06	-4.051424e-06	-3.605000e-09	-2.971425e+01	-2.521319e+02
1.060000e-06	-4.007866e-06	-3.587076e-09	-2.939478e+01	-2.513709e+02
1.070000e-06	-3.964099e-06	-3.577679e-09	-2.907378e+01	-2.505879e+02
1.080000e-06	-3.920069e-06	-3.570792e-09	-2.875086e+01	-2.497808e+02
1.090000e-06	-3.875739e-06	-3.556618e-09	-2.842573e+01	-2.489479e+02
1.100000e-06	-3.831236e-06	-3.539639e-09	-2.809933e+01	-2.480876e+02
1.110000e-06	-3.786557e-06	-3.523859e-09	-2.777165e+01	-2.471982e+02
1.120000e-06	-3.741611e-06	-3.514332e-09	-2.744200e+01	-2.462784e+02
1.130000e-06	-3.696355e-06	-3.504107e-09	-2.711008e+01	-2.453268e+02
1.140000e-06	-3.650768e-06	-3.489446e-09	-2.677573e+01	-2.443426e+02
1.150000e-06	-3.604919e-06	-3.472237e-09	-2.643946e+01	-2.433247e+02
1.160000e-06	-3.558889e-06	-3.455915e-09	-2.610187e+01	-2.422727e+02
1.170000e-06	-3.512667e-06	-3.443123e-09	-2.576286e+01	-2.411860e+02
1.180000e-06	-3.466215e-06	-3.428541e-09	-2.542217e+01	-2.400645e+02
1.190000e-06	-3.419457e-06	-3.409440e-09	-2.507923e+01	-2.389082e+02
1.200000e-06	-3.372459e-06	-3.390752e-09	-2.473454e+01	-2.377174e+02
1.210000e-06	-3.325297e-06	-3.378179e-09	-2.438864e+01	-2.364926e+02
1.220000e-06	-3.277903e-06	-3.365165e-09	-2.404104e+01	-2.352344e+02
1.230000e-06	-3.230290e-06	-3.348619e-09	-2.369183e+01	-2.339438e+02
1.240000e-06	-3.182470e-06	-3.329415e-09	-2.334110e+01	-2.326218e+02
1.250000e-06	-3.134407e-06	-3.314615e-09	-2.298860e+01	-2.312697e+02
1.260000e-06	-3.086114e-06	-3.299346e-09	-2.263440e+01	-2.298890e+02
1.270000e-06	-3.037671e-06	-3.280272e-09	-2.227911e+01	-2.284811e+02
1.280000e-06	-2.989086e-06	-3.258353e-09	-2.192277e+01	-2.270478e+02
1.290000e-06	-2.940214e-06	-3.239306e-09	-2.156433e+01	-2.255906e+02
1.300000e-06	-2.890965e-06	-3.220119e-09	-2.120313e+01	-2.241115e+02
1.310000e-06	-2.841365e-06	-3.197567e-09	-2.083935e+01	-2.226121e+02
1.320000e-06	-2.791484e-06	-3.175192e-09	-2.047351e+01	-2.210942e+02
1.330000e-06	-2.741372e-06	-3.157988e-09	-2.010597e+01	-2.195595e+02
1.340000e-06	-2.690856e-06	-3.141605e-09	-1.973547e+01	-2.180096e+02
1.350000e-06	-2.639997e-06	-3.120517e-09	-1.936246e+01	-2.164460e+02
1.360000e-06	-2.588971e-06	-3.095892e-09	-1.898822e+01	-2.148699e+02
1.370000e-06	-2.537719e-06	-3.074429e-09	-1.861233e+01	-2.132824e+02
1.380000e-06	-2.486202e-06	-3.054396e-09	-1.823448e+01	-2.116844e+02
1.390000e-06	-2.434489e-06	-3.032372e-09	-1.785521e+01	-2.100765e+02
1.400000e-06	-2.382675e-06	-3.006258e-09	-1.747519e+01	-2.084589e+02
1.410000e-06	-2.330658e-06	-2.981827e-09	-1.709369e+01	-2.068316e+02
1.420000e-06	-2.278434e-06	-2.961998e-09	-1.671066e+01	-2.051941e+02
1.430000e-06	-2.226078e-06	-2.941704e-09	-1.632666e+01	-2.035457e+02
1.440000e-06	-2.173584e-06	-2.916757e-09	-1.594166e+01	-2.018851e+02
1.450000e-06	-2.120988e-06	-2.890846e-09	-1.555591e+01	-2.002107e+02
1.460000e-06	-2.068269e-06	-2.867329e-09	-1.516925e+01	-1.985203e+02
1.470000e-06	-2.015334e-06	-2.843927e-09	-1.478101e+01	-1.968115e+02
1.480000e-06	-1.962172e-06	-2.817103e-09	-1.439111e+01	-1.950813e+02
1.490000e-06	-1.908888e-06	-2.787071e-09	-1.400030e+01	-1.933262e+02
1.500000e-06	-1.855486e-06	-2.758292e-09	-1.360864e+01	-1.915424e+02
1.510000e-06	-1.801951e-06	-2.733352e-09	-1.321600e+01	-1.897255e+02
1.520000e-06	-1.748300e-06	-2.707889e-09	-1.282251e+01	-1.878709e+02
1.530000e-06	-1.694461e-06	-2.675147e-09	-1.242764e+01	-1.859733e+02
1.540000e-06	-1.640491e-06	-2.639308e-09	-1.203181e+01	-1.840273e+02
1.550000e-06	-1.586498e-06	-2.606257e-09	-1.163581e+01	-1.820270e+02
1.560000e-06	-1.532401e-06	-2.573941e-09	-1.123905e+01	-1.799662e+02
1.570000e-06	-1.478104e-06	-2.537371e-09	-1.084082e+01	-1.778386e+02
1.580000e-06	-1.423705e-06	-2.499701e-09	-1.044184e+01	-1.756375e+02
1.590000e-06	-1.369226e-06	-2.464542e-09	-1.004228e+01	-1.733560e+02
1.600000e-06	-1.314703e-06	-2.429177e-09	-9.642395e+00	-1.709872e+02
1.610000e-06	-1.260175e-06	-2.389732e-09	-9.242467e+00	-1.685241e+02
1.620000e-06	-1.205507e-06	-2.343367e-09	-8.841515e+00	-1.659596e+02
1.630000e-06	-1.150670e-06	-2.299343e-09	-8.439327e+00	-1.632867e+02
1.640000e-06	-1.095769e-06	-2.261609e-09	-8.036669e+00	-1.604986e+02
1.650000e-06	-1.040840e-06	-2.221411e-09	-7.633802e+00	-1.575885e+02
1.660000e-06	-9.858580e-07	-2.173935e-09	-7.230552e+00	-1.545500e+02
1.670000e-06	-9.307645e-07	-2.124029e-09	-6.826481e+00	-1.513769e+02
1.680000e-06	-8.755591e-07	-2.080308e-09	-6.421590e+00	-1.480633e+02
1.690000e-06	-8.203598e-07	-2.035030e-09	-6.016743e+00	-1.446039e+02
1.700000e-06	-7.651746e-07	-1.981325e-09	-5.611999e+00	-1.409936e+02
1.710000e-06	-7.099985e-07	-1.924622e-09	-5.207323e+00	-1.372283e+02
1.720000e-06	-6.548586e-07	-1.872442e-09	-4.802912e+00	-1.333039e+02
1.730000e-06	-5.996329e-07	-1.818648e-09	-4.397872e+00	-1.292175e+02
1.740000e-06	-5.442778e-07	-1.758452e-09	-3.991882e+00	-1.249665e+02
1.750000e-06	-4.888298e-07	-1.695710e-09	-3.585211e+00	-1.205492e+02
1.760000e-06	-4.333680e-07	-1.636414e-09	-3.178439e+00	-1.159647e+02
1.770000e-06	-3.779126e-07	-1.574536e-09	-2.771714e+00	-1.112128e+02
1.780000e-06	-3.224047e-07	-1.504834e-09	-2.364605e+00	-1.062942e+02
1.790000e-06	-2.669361e-07	-1.432119e-09	-1.957782e+00	-1.012104e+02
1.800000e-06	-2.114616e-07	-1.359676e-09	-1.550917e+00	-9.596379e+01
1.810000e-06	-1.559189e-07	-1.284835e-09	-1.143552e+00	-9.055770e+01
1.820000e-06	-1.003558e-07	-1.202772e-09	-7.360369e-01	-8.499623e+01
1.830000e-06	-4.478697e-08	-1.115824e-09	-3.284799e-01	-7.928438e+01
1.840000e-06	1.073476e-08	-1.030957e-09	7.873164e-02	-7.342801e+01
1.850000e-06	6.623892e-08	-9.485417e-10	4.858143e-01	-6.743381e+01
1.860000e-06	1.217817e-07	-8.623906e-10	8.931801e-01	-6.130928e+01
1.870000e-06	1.773284e-07	-7.702362e-10	1.300575e+00	-5.506268e+01
1.880000e-06	2.328652e-07	-6.758510e-10	1.707897e+00	-4.870301e+01
1.890000e-06	2.883868e-07	-5.827209e-10	2.115108e+00	-4.223997e+01
1.900000e-06	3.438801e-07	-4.869392e-10	2.522111e+00	-3.568389e+01
1.910000e-06	3.993573e-07	-3.846127e-10	2.928995e+00	-2.904567e+01
1.920000e-06	4.547818e-07	-2.790042e-10	3.335494e+00	-2.233674e+01
1.930000e-06	5.101610e-07	-1.761305e-10	3.741660e+00	-1.556897e+01
1.940000e-06	5.655717e-07	-7.295341e-11	4.148057e+00	-8.754625e+00
1.950000e-06	6.209520e-07	3.300383e-11	4.554232e+00	-1.906278e+00
1.960000e-06	6.762427e-07	1.383426e-10	4.959749e+00	4.963271e+00
1.970000e-06	7.315018e-07	2.422969e-10	5.365034e+00	1.184106e+01
1.980000e-06	7.867758e-07	3.471094e-10	5.770428e+00	1.871406e+01
1.990000e-06	8.419250e-07	4.536976e-10	6.174908e+00	2.556924e+01
2.000000e-06	8.969490e-07	5.598484e-10	6.578469e+00	3.239365e+01
2.010000e-06	9.520642e-07	6.635453e-10	6.982699e+00	3.917451e+01
2.020000e-06	1.007146e-06	7.674734e-10	7.386686e+00	4.589928e+01
2.030000e-06	1.062111e-06	8.727825e-10	7.789811e+00	5.255573e+01
2.040000e-06	1.116980e-06	9.749204e-10	8.192236e+00	5.913203e+01
2.050000e-06	1.171684e-06	1.070669e-09	8.593453e+00	6.561681e+01
2.060000e-06	1.226326e-06	1.164777e-09	8.994212e+00	7.199922e+01
2.070000e-06	1.280989e-06	1.258194e-09	9.395120e+00	7.826903e+01
2.080000e-06	1.335516e-06	1.347936e-09	9.795037e+00	8.441661e+01
2.090000e-06	1.389851e-06	1.434033e-09	1.019355e+01	9.043308e+01
2.100000e-06	1.444074e-06	1.517853e-09	1.059123e+01	9.631027e+01
2.110000e-06	1.498173e-06	1.601822e-09	1.098801e+01	1.020408e+02
2.120000e-06	1.552144e-06	1.685658e-09	1.138385e+01	1.076181e+02
2.130000e-06	1.606048e-06	1.763871e-09	1.177919e+01	1.130366e+02
2.140000e-06	1.659887e-06	1.834413e-09	1.217406e+01	1.182913e+02
2.150000e-06	1.713567e-06	1.903097e-09	1.256777e+01	1.233783e+02
2.160000e-06	1.767127e-06	1.971426e-09	1.296060e+01	1.282946e+02
2.170000e-06	1.820625e-06	2.033870e-09	1.335296e+01	1.330379e+02
2.180000e-06	1.873977e-06	2.091832e-09	1.374426e+01	1.376070e+02
2.190000e-06	1.927157e-06	2.152110e-09	1.413430e+01	1.420015e+02
2.200000e-06	1.980220e-06	2.212570e-09	1.452348e+01	1.462218e+02
2.210000e-06	2.033127e-06	2.268233e-09	1.491151e+01	1.502690e+02
2.220000e-06	2.085837e-06	2.319342e-09	1.529810e+01	1.541453e+02
2.230000e-06	2.138417e-06	2.367068e-09	1.568374e+01	1.578534e+02
2.240000e-06	2.190958e-06	2.411676e-09	1.606908e+01	1.613967e+02
2.250000e-06	2.243337e-06	2.455138e-09	1.645325e+01	1.647795e+02
2.260000e-06	2.295455e-06	2.495625e-09	1.683550e+01	1.680065e+02
2.270000e-06	2.347443e-06	2.533322e-09	1.721679e+01	1.710829e+02
2.280000e-06	2.399251e-06	2.572675e-09	1.759676e+01	1.740146e+02
2.290000e-06	2.450815e-06	2.610648e-09	1.797494e+01	1.768077e+02
2.300000e-06	2.502274e-06	2.644533e-09	1.835236e+01	1.794688e+02
2.310000e-06	2.553588e-06	2.676377e-09	1.872871e+01	1.820048e+02
2.320000e-06	2.604657e-06	2.709794e-09	1.910326e+01	1.844229e+02
2.330000e-06	2.655507e-06	2.744765e-09	1.947621e+01	1.867303e+02
2.340000e-06	2.706022e-06	2.776466e-09	1.984670e+01	1.889345e+02
2.350000e-06	2.756100e-06	2.805389e-09	2.021399e+01	1.910427e+02
2.360000e-06	2.805851e-06	2.834256e-09	2.057888e+01	1.930626e+02
2.370000e-06	2.855251e-06	2.864855e-09	2.094119e+01	1.950014e+02
2.380000e-06	2.904218e-06	2.893280e-09	2.130033e+01	1.968663e+02
2.390000e-06	2.952931e-06	2.915735e-09	2.165760e+01	1.986644e+02
2.400000e-06	3.001443e-06	2.938580e-09	2.201340e+01	2.004025e+02
2.410000e-06	3.049657e-06	2.964299e-09	2.236702e+01	2.020869e+02
2.420000e-06	3.097680e-06	2.987312e-09	2.271923e+01	2.037240e+02
2.430000e-06	3.145608e-06	3.007425e-09	2.307075e+01	2.053195e+02
2.440000e-06	3.193359e-06	3.031267e-09	2.342097e+01	2.068789e+02
2.450000e-06	3.240947e-06	3.057629e-09	2.376999e+01	2.084070e+02
2.460000e-06	3.288406e-06	3.081059e-09	2.411807e+01	2.099086e+02
2.470000e-06	3.335677e-06	3.099602e-09	2.446476e+01	2.113876e+02
2.480000e-06	3.382697e-06	3.119081e-09	2.480963e+01	2.128477e+02
2.490000e-06	3.429486e-06	3.144487e-09	2.515278e+01	2.142920e+02
2.500000e-06	3.475947e-06	3.167075e-09	2.549355e+01	2.157232e+02
2.510000e-06	3.522080e-06	3.182868e-09	2.583190e+01	2.171435e+02
2.520000e-06	3.568004e-06	3.199870e-09	2.616872e+01	2.185545e+02
2.530000e-06	3.613674e-06	3.222133e-09	2.650367e+01	2.199576e+02
2.540000e-06	3.659081e-06	3.240563e-09	2.683670e+01	2.213535e+02
2.550000e-06	3.704204e-06	3.251923e-09	2.716764e+01	2.227428e+02
2.560000e-06	3.749112e-06	3.264423e-09	2.749701e+01	2.241254e+02
2.570000e-06	3.793830e-06	3.282756e-09	2.782499e+01	2.255010e+02
2.580000e-06	3.838320e-06	3.301603e-09	2.815129e+01	2.268689e+02
2.590000e-06	3.882613e-06	3.315468e-09	2.847614e+01	2.282282e+02
2.600000e-06	3.926736e-06	3.328241e-09	2.879975e+01	2.295777e+02
2.610000e-06	3.970729e-06	3.344840e-09	2.912241e+01	2.309159e+02
2.620000e-06	4.014574e-06	3.362830e-09	2.944398e+01	2.322413e+02
2.630000e-06	4.058196e-06	3.378050e-09	2.976392e+01	2.335520e+02
2.640000e-06	4.101510e-06	3.390604e-09	3.008160e+01	2.348463e+02
2.650000e-06	4.144362e-06	3.405707e-09	3.039588e+01	2.361221e+02
2.660000e-06	4.186677e-06	3.421687e-09	3.070624e+01	2.373776e+02
2.670000e-06	4.228569e-06	3.433414e-09	3.101348e+01	2.386107e+02
2.680000e-06	4.270069e-06	3.445281e-09	3.131786e+01	2.398195e+02
2.690000e-06	4.311065e-06	3.458816e-09	3.161853e+01	2.410023e+02
2.700000e-06	4.351571e-06	3.474840e-09	3.191561e+01	2.421573e+02
2.710000e-06	4.391723e-06	3.490617e-09	3.221010e+01	2.432828e+02
2.720000e-06	4.431644e-06	3.501658e-09	3.250289e+01	2.443775e+02
2.730000e-06	4.471406e-06	3.509208e-09	3.279452e+01	2.454401e+02
2.740000e-06	4.510997e-06	3.521350e-09	3.308488e+01	2.464695e+02
2.750000e-06	4.550421e-06	3.534586e-09	3.337403e+01	2.474649e+02
2.760000e-06	4.589526e-06	3.543286e-09	3.366084e+01	2.484257e+02
2.770000e-06	4.628196e-06	3.551621e-09	3.394445e+01	2.493516e+02
2.780000e-06	4.666544e-06	3.565356e-09	3.422571e+01	2.502422e+02
2.790000e-06	4.704616e-06	3.580158e-09	3.450494e+01	2.510979e+02
2.800000e-06	4.742405e-06	3.590307e-09	3.478209e+01	2.519189e+02
2.810000e-06	4.779878e-06	3.596702e-09	3.505693e+01	2.527059e+02
2.820000e-06	4.816942e-06	3.604688e-09	3.532877e+01	2.534596e+02
2.830000e-06	4.853582e-06	3.617882e-09	3.559750e+01	2.541810e+02
2.840000e-06	4.889892e-06	3.627156e-09	3.586380e+01	2.548715e+02
2.850000e-06	4.925967e-06	3.630968e-09	3.612839e+01	2.555325e+02
2.860000e-06	4.961861e-06	3.637479e-09	3.639165e+01	2.561655e+02
2.870000e-06	4.997621e-06	3.650846e-09	3.665392e+01	2.567723e+02
2.880000e-06	5.033236e-06	3.660151e-09	3.691513e+01	2.573548e+02
2.890000e-06	5.068499e-06	3.665214e-09	3.717376e+01	2.579149e+02
2.900000e-06	5.103231e-06	3.672448e-09	3.742849e+01	2.584547e+02
