# Temperatura_=_20.0
# Concentracion g/m^3_=_9000.0
# C_Vs_to_Am_M_A/Vsm_=_65563218390.804596
# pendiente_HvsI_1/m_=_3716.3
# ordenada_HvsI_A/m_=_1297.0
# frecuencia_Hz_=_135295.77576877075

Tiempo_(s)	Campo_(V.s)	Magnetizacion_(V.s)	Campo_(kA/m)	Magnetizacion_(A/m)
0.000000e+00	-6.521720e-06	-4.489147e-09	-4.763576e+01	-2.790104e+02
1.000000e-08	-6.522106e-06	-4.493017e-09	-4.763858e+01	-2.790156e+02
2.000000e-08	-6.522176e-06	-4.494530e-09	-4.763910e+01	-2.790144e+02
3.000000e-08	-6.521823e-06	-4.495464e-09	-4.763652e+01	-2.790063e+02
4.000000e-08	-6.520853e-06	-4.496594e-09	-4.762943e+01	-2.789906e+02
5.000000e-08	-6.519271e-06	-4.500030e-09	-4.761788e+01	-2.789670e+02
6.000000e-08	-6.517019e-06	-4.502008e-09	-4.760143e+01	-2.789350e+02
7.000000e-08	-6.514126e-06	-4.500822e-09	-4.758030e+01	-2.788943e+02
8.000000e-08	-6.510786e-06	-4.506789e-09	-4.755590e+01	-2.788444e+02
9.000000e-08	-6.507047e-06	-4.526360e-09	-4.752859e+01	-2.787854e+02
1.000000e-07	-6.502815e-06	-4.514847e-09	-4.749768e+01	-2.787170e+02
1.100000e-07	-6.498012e-06	-4.446605e-09	-4.746260e+01	-2.786392e+02
1.200000e-07	-6.492695e-06	-4.401483e-09	-4.742376e+01	-2.785521e+02
1.300000e-07	-6.486936e-06	-4.498112e-09	-4.738169e+01	-2.784559e+02
1.400000e-07	-6.480789e-06	-4.600761e-09	-4.733680e+01	-2.783508e+02
1.500000e-07	-6.474295e-06	-4.521052e-09	-4.728936e+01	-2.782372e+02
1.600000e-07	-6.467457e-06	-4.347425e-09	-4.723942e+01	-2.781155e+02
1.700000e-07	-6.460212e-06	-4.415430e-09	-4.718650e+01	-2.779864e+02
1.800000e-07	-6.452546e-06	-4.553204e-09	-4.713051e+01	-2.778502e+02
1.900000e-07	-6.444570e-06	-4.528661e-09	-4.707225e+01	-2.777079e+02
2.000000e-07	-6.436346e-06	-4.382468e-09	-4.701217e+01	-2.775600e+02
2.100000e-07	-6.427703e-06	-4.321955e-09	-4.694905e+01	-2.774073e+02
2.200000e-07	-6.418286e-06	-4.378842e-09	-4.688027e+01	-2.772507e+02
2.300000e-07	-6.408027e-06	-4.464913e-09	-4.680533e+01	-2.770909e+02
2.400000e-07	-6.397226e-06	-4.454716e-09	-4.672644e+01	-2.769288e+02
2.500000e-07	-6.385921e-06	-4.289372e-09	-4.664387e+01	-2.767652e+02
2.600000e-07	-6.374015e-06	-4.251621e-09	-4.655690e+01	-2.766010e+02
2.700000e-07	-6.361650e-06	-4.384301e-09	-4.646658e+01	-2.764369e+02
2.800000e-07	-6.348825e-06	-4.429143e-09	-4.637291e+01	-2.762736e+02
2.900000e-07	-6.335417e-06	-4.237206e-09	-4.627497e+01	-2.761118e+02
3.000000e-07	-6.321380e-06	-4.145077e-09	-4.617245e+01	-2.759521e+02
3.100000e-07	-6.306808e-06	-4.251527e-09	-4.606601e+01	-2.757949e+02
3.200000e-07	-6.291597e-06	-4.266206e-09	-4.595491e+01	-2.756408e+02
3.300000e-07	-6.275659e-06	-4.082978e-09	-4.583850e+01	-2.754899e+02
3.400000e-07	-6.259150e-06	-4.027704e-09	-4.571791e+01	-2.753425e+02
3.500000e-07	-6.242201e-06	-4.066571e-09	-4.559411e+01	-2.751987e+02
3.600000e-07	-6.225005e-06	-4.021425e-09	-4.546851e+01	-2.750583e+02
3.700000e-07	-6.207545e-06	-3.986349e-09	-4.534097e+01	-2.749211e+02
3.800000e-07	-6.189738e-06	-4.023102e-09	-4.521091e+01	-2.747869e+02
3.900000e-07	-6.171504e-06	-3.962068e-09	-4.507772e+01	-2.746552e+02
4.000000e-07	-6.152762e-06	-3.961070e-09	-4.494083e+01	-2.745254e+02
4.100000e-07	-6.133545e-06	-4.093174e-09	-4.480047e+01	-2.743967e+02
4.200000e-07	-6.113949e-06	-4.089475e-09	-4.465734e+01	-2.742683e+02
4.300000e-07	-6.094055e-06	-3.940678e-09	-4.451203e+01	-2.741393e+02
4.400000e-07	-6.073840e-06	-3.979257e-09	-4.436437e+01	-2.740085e+02
4.500000e-07	-6.053207e-06	-4.122388e-09	-4.421366e+01	-2.738748e+02
4.600000e-07	-6.032200e-06	-4.045473e-09	-4.406022e+01	-2.737370e+02
4.700000e-07	-6.010862e-06	-3.895162e-09	-4.390437e+01	-2.735938e+02
4.800000e-07	-5.989157e-06	-3.940030e-09	-4.374583e+01	-2.734438e+02
4.900000e-07	-5.967048e-06	-4.062860e-09	-4.358434e+01	-2.732855e+02
5.000000e-07	-5.944436e-06	-3.999217e-09	-4.341918e+01	-2.731176e+02
5.100000e-07	-5.921338e-06	-3.894208e-09	-4.325047e+01	-2.729387e+02
5.200000e-07	-5.897887e-06	-3.935874e-09	-4.307918e+01	-2.727473e+02
5.300000e-07	-5.874169e-06	-4.013935e-09	-4.290594e+01	-2.725420e+02
5.400000e-07	-5.850164e-06	-3.952132e-09	-4.273061e+01	-2.723215e+02
5.500000e-07	-5.825760e-06	-3.904994e-09	-4.255235e+01	-2.720846e+02
5.600000e-07	-5.800744e-06	-3.930070e-09	-4.236963e+01	-2.718300e+02
5.700000e-07	-5.775083e-06	-3.938482e-09	-4.218220e+01	-2.715568e+02
5.800000e-07	-5.748765e-06	-3.920340e-09	-4.198997e+01	-2.712639e+02
5.900000e-07	-5.721841e-06	-3.937672e-09	-4.179331e+01	-2.709505e+02
6.000000e-07	-5.694520e-06	-3.910370e-09	-4.159375e+01	-2.706160e+02
6.100000e-07	-5.666935e-06	-3.879758e-09	-4.139227e+01	-2.702597e+02
6.200000e-07	-5.639146e-06	-3.915110e-09	-4.118929e+01	-2.698814e+02
6.300000e-07	-5.611110e-06	-3.937432e-09	-4.098451e+01	-2.694808e+02
6.400000e-07	-5.582711e-06	-3.877371e-09	-4.077708e+01	-2.690579e+02
6.500000e-07	-5.553859e-06	-3.850043e-09	-4.056634e+01	-2.686128e+02
6.600000e-07	-5.524526e-06	-3.896452e-09	-4.035209e+01	-2.681459e+02
6.700000e-07	-5.494784e-06	-3.908986e-09	-4.013485e+01	-2.676576e+02
6.800000e-07	-5.464703e-06	-3.856115e-09	-3.991513e+01	-2.671486e+02
6.900000e-07	-5.434268e-06	-3.832500e-09	-3.969283e+01	-2.666198e+02
7.000000e-07	-5.403459e-06	-3.867500e-09	-3.946779e+01	-2.660721e+02
7.100000e-07	-5.372241e-06	-3.877657e-09	-3.923977e+01	-2.655067e+02
7.200000e-07	-5.340709e-06	-3.843658e-09	-3.900945e+01	-2.649247e+02
7.300000e-07	-5.308973e-06	-3.824722e-09	-3.877765e+01	-2.643275e+02
7.400000e-07	-5.277031e-06	-3.840098e-09	-3.854434e+01	-2.637167e+02
7.500000e-07	-5.244768e-06	-3.837657e-09	-3.830869e+01	-2.630936e+02
7.600000e-07	-5.212093e-06	-3.827020e-09	-3.807002e+01	-2.624600e+02
7.700000e-07	-5.178834e-06	-3.818805e-09	-3.782710e+01	-2.618174e+02
7.800000e-07	-5.144886e-06	-3.807539e-09	-3.757913e+01	-2.611674e+02
7.900000e-07	-5.110340e-06	-3.800113e-09	-3.732680e+01	-2.605118e+02
8.000000e-07	-5.075304e-06	-3.813978e-09	-3.707090e+01	-2.598520e+02
8.100000e-07	-5.039963e-06	-3.801389e-09	-3.681275e+01	-2.591896e+02
8.200000e-07	-5.004362e-06	-3.768993e-09	-3.655272e+01	-2.585261e+02
8.300000e-07	-4.968506e-06	-3.766680e-09	-3.629082e+01	-2.578629e+02
8.400000e-07	-4.932412e-06	-3.788717e-09	-3.602718e+01	-2.572011e+02
8.500000e-07	-4.895947e-06	-3.773921e-09	-3.576084e+01	-2.565419e+02
8.600000e-07	-4.859098e-06	-3.742884e-09	-3.549169e+01	-2.558863e+02
8.700000e-07	-4.821908e-06	-3.739843e-09	-3.522005e+01	-2.552350e+02
8.800000e-07	-4.784412e-06	-3.754118e-09	-3.494617e+01	-2.545885e+02
8.900000e-07	-4.746621e-06	-3.741357e-09	-3.467014e+01	-2.539474e+02
9.000000e-07	-4.708572e-06	-3.711675e-09	-3.439222e+01	-2.533117e+02
9.100000e-07	-4.670207e-06	-3.698082e-09	-3.411199e+01	-2.526813e+02
9.200000e-07	-4.631478e-06	-3.701225e-09	-3.382911e+01	-2.520561e+02
9.300000e-07	-4.592433e-06	-3.696269e-09	-3.354392e+01	-2.514356e+02
9.400000e-07	-4.553100e-06	-3.682126e-09	-3.325662e+01	-2.508189e+02
9.500000e-07	-4.513550e-06	-3.671718e-09	-3.296775e+01	-2.502053e+02
9.600000e-07	-4.473818e-06	-3.665005e-09	-3.267754e+01	-2.495934e+02
9.700000e-07	-4.433872e-06	-3.658210e-09	-3.238577e+01	-2.489821e+02
9.800000e-07	-4.393620e-06	-3.649088e-09	-3.209175e+01	-2.483696e+02
9.900000e-07	-4.352924e-06	-3.633625e-09	-3.179451e+01	-2.477544e+02
1.000000e-06	-4.311745e-06	-3.613923e-09	-3.149373e+01	-2.471344e+02
1.010000e-06	-4.270034e-06	-3.606806e-09	-3.118906e+01	-2.465078e+02
1.020000e-06	-4.227864e-06	-3.604577e-09	-3.088105e+01	-2.458724e+02
1.030000e-06	-4.185309e-06	-3.592456e-09	-3.057022e+01	-2.452259e+02
1.040000e-06	-4.142311e-06	-3.575359e-09	-3.025615e+01	-2.445660e+02
1.050000e-06	-4.098994e-06	-3.568696e-09	-2.993976e+01	-2.438904e+02
1.060000e-06	-4.055434e-06	-3.559552e-09	-2.962159e+01	-2.431969e+02
1.070000e-06	-4.011671e-06	-3.541080e-09	-2.930194e+01	-2.424829e+02
1.080000e-06	-3.967731e-06	-3.521823e-09	-2.898099e+01	-2.417463e+02
1.090000e-06	-3.923639e-06	-3.509915e-09	-2.865893e+01	-2.409847e+02
1.100000e-06	-3.879365e-06	-3.495824e-09	-2.833555e+01	-2.401962e+02
1.110000e-06	-3.834739e-06	-3.479084e-09	-2.800959e+01	-2.393787e+02
1.120000e-06	-3.789742e-06	-3.463777e-09	-2.768093e+01	-2.385304e+02
1.130000e-06	-3.744443e-06	-3.452631e-09	-2.735005e+01	-2.376495e+02
1.140000e-06	-3.698863e-06	-3.439241e-09	-2.701713e+01	-2.367346e+02
1.150000e-06	-3.653103e-06	-3.424386e-09	-2.668289e+01	-2.357845e+02
1.160000e-06	-3.607138e-06	-3.408901e-09	-2.634716e+01	-2.347981e+02
1.170000e-06	-3.560836e-06	-3.393550e-09	-2.600896e+01	-2.337747e+02
1.180000e-06	-3.514240e-06	-3.377660e-09	-2.566861e+01	-2.327137e+02
1.190000e-06	-3.467474e-06	-3.360970e-09	-2.532703e+01	-2.316149e+02
1.200000e-06	-3.420521e-06	-3.341020e-09	-2.498407e+01	-2.304782e+02
1.210000e-06	-3.373372e-06	-3.323084e-09	-2.463969e+01	-2.293040e+02
1.220000e-06	-3.326001e-06	-3.310922e-09	-2.429368e+01	-2.280928e+02
1.230000e-06	-3.278382e-06	-3.296941e-09	-2.394586e+01	-2.268453e+02
1.240000e-06	-3.230575e-06	-3.278505e-09	-2.359667e+01	-2.255626e+02
1.250000e-06	-3.182554e-06	-3.261007e-09	-2.324592e+01	-2.242461e+02
1.260000e-06	-3.134318e-06	-3.245948e-09	-2.289359e+01	-2.228971e+02
1.270000e-06	-3.085841e-06	-3.226532e-09	-2.253951e+01	-2.215173e+02
1.280000e-06	-3.037104e-06	-3.201710e-09	-2.218353e+01	-2.201085e+02
1.290000e-06	-2.988085e-06	-3.178329e-09	-2.182549e+01	-2.186727e+02
1.300000e-06	-2.938623e-06	-3.161638e-09	-2.146421e+01	-2.172120e+02
1.310000e-06	-2.888709e-06	-3.143214e-09	-2.109962e+01	-2.157284e+02
1.320000e-06	-2.838451e-06	-3.118436e-09	-2.073254e+01	-2.142241e+02
1.330000e-06	-2.787925e-06	-3.094768e-09	-2.036348e+01	-2.127013e+02
1.340000e-06	-2.737162e-06	-3.076778e-09	-1.999271e+01	-2.111619e+02
1.350000e-06	-2.686170e-06	-3.058553e-09	-1.962025e+01	-2.096080e+02
1.360000e-06	-2.634940e-06	-3.036881e-09	-1.924605e+01	-2.080415e+02
1.370000e-06	-2.583473e-06	-3.013000e-09	-1.887013e+01	-2.064640e+02
1.380000e-06	-2.531811e-06	-2.991332e-09	-1.849278e+01	-2.048770e+02
1.390000e-06	-2.480027e-06	-2.970659e-09	-1.811455e+01	-2.032817e+02
1.400000e-06	-2.428103e-06	-2.950355e-09	-1.773528e+01	-2.016789e+02
1.410000e-06	-2.376004e-06	-2.927141e-09	-1.735474e+01	-2.000693e+02
1.420000e-06	-2.323785e-06	-2.901096e-09	-1.697333e+01	-1.984531e+02
1.430000e-06	-2.271378e-06	-2.876917e-09	-1.659053e+01	-1.968301e+02
1.440000e-06	-2.218757e-06	-2.857030e-09	-1.620619e+01	-1.951996e+02
1.450000e-06	-2.165988e-06	-2.834791e-09	-1.582075e+01	-1.935606e+02
1.460000e-06	-2.113044e-06	-2.809233e-09	-1.543404e+01	-1.919116e+02
1.470000e-06	-2.059904e-06	-2.785031e-09	-1.504589e+01	-1.902505e+02
1.480000e-06	-2.006671e-06	-2.759957e-09	-1.465707e+01	-1.885749e+02
1.490000e-06	-1.953299e-06	-2.733000e-09	-1.426723e+01	-1.868818e+02
1.500000e-06	-1.899732e-06	-2.706752e-09	-1.387597e+01	-1.851675e+02
1.510000e-06	-1.846058e-06	-2.679623e-09	-1.348393e+01	-1.834283e+02
1.520000e-06	-1.792272e-06	-2.650364e-09	-1.309107e+01	-1.816595e+02
1.530000e-06	-1.738357e-06	-2.621396e-09	-1.269726e+01	-1.798563e+02
1.540000e-06	-1.684384e-06	-2.593042e-09	-1.230303e+01	-1.780133e+02
1.550000e-06	-1.630309e-06	-2.564297e-09	-1.190806e+01	-1.761246e+02
1.560000e-06	-1.576088e-06	-2.533683e-09	-1.151202e+01	-1.741842e+02
1.570000e-06	-1.521756e-06	-2.499538e-09	-1.111517e+01	-1.721855e+02
1.580000e-06	-1.467261e-06	-2.464530e-09	-1.071713e+01	-1.701218e+02
1.590000e-06	-1.412684e-06	-2.429866e-09	-1.031849e+01	-1.679860e+02
1.600000e-06	-1.358099e-06	-2.393072e-09	-9.919790e+00	-1.657708e+02
1.610000e-06	-1.303337e-06	-2.352907e-09	-9.519796e+00	-1.634690e+02
1.620000e-06	-1.248363e-06	-2.313313e-09	-9.118255e+00	-1.610730e+02
1.630000e-06	-1.193309e-06	-2.275003e-09	-8.716133e+00	-1.585754e+02
1.640000e-06	-1.138265e-06	-2.237399e-09	-8.314086e+00	-1.559689e+02
1.650000e-06	-1.083157e-06	-2.196958e-09	-7.911562e+00	-1.532460e+02
1.660000e-06	-1.027924e-06	-2.151987e-09	-7.508132e+00	-1.503998e+02
1.670000e-06	-9.725618e-07	-2.107874e-09	-7.103758e+00	-1.474234e+02
1.680000e-06	-9.171147e-07	-2.064707e-09	-6.698763e+00	-1.443102e+02
1.690000e-06	-8.617112e-07	-2.019005e-09	-6.294087e+00	-1.410541e+02
1.700000e-06	-8.063586e-07	-1.969139e-09	-5.889782e+00	-1.376495e+02
1.710000e-06	-7.510440e-07	-1.919156e-09	-5.485755e+00	-1.340912e+02
1.720000e-06	-6.956911e-07	-1.867870e-09	-5.081447e+00	-1.303746e+02
1.730000e-06	-6.402636e-07	-1.812446e-09	-4.676596e+00	-1.264958e+02
1.740000e-06	-5.848180e-07	-1.754137e-09	-4.271611e+00	-1.224516e+02
1.750000e-06	-5.293462e-07	-1.695703e-09	-3.866436e+00	-1.182394e+02
1.760000e-06	-4.738280e-07	-1.636665e-09	-3.460921e+00	-1.138575e+02
1.770000e-06	-4.182652e-07	-1.574295e-09	-3.055081e+00	-1.093050e+02
1.780000e-06	-3.626683e-07	-1.506031e-09	-2.648992e+00	-1.045820e+02
1.790000e-06	-3.071017e-07	-1.433952e-09	-2.243124e+00	-9.968914e+01
1.800000e-06	-2.515380e-07	-1.361271e-09	-1.837277e+00	-9.462827e+01
1.810000e-06	-1.959523e-07	-1.288573e-09	-1.431269e+00	-8.940201e+01
1.820000e-06	-1.403806e-07	-1.211950e-09	-1.025364e+00	-8.401392e+01
1.830000e-06	-8.483139e-08	-1.129396e-09	-6.196231e-01	-7.846849e+01
1.840000e-06	-2.932913e-08	-1.044234e-09	-2.142250e-01	-7.277109e+01
1.850000e-06	2.616045e-08	-9.613815e-10	1.910804e-01	-6.692798e+01
1.860000e-06	8.169392e-08	-8.770634e-10	5.967064e-01	-6.094631e+01
1.870000e-06	1.372389e-07	-7.865708e-10	1.002416e+00	-5.483402e+01
1.880000e-06	1.927935e-07	-6.937640e-10	1.408197e+00	-4.859987e+01
1.890000e-06	2.483806e-07	-6.026283e-10	1.814215e+00	-4.225334e+01
1.900000e-06	3.039319e-07	-5.102169e-10	2.219971e+00	-3.580463e+01
1.910000e-06	3.594041e-07	-4.114616e-10	2.625150e+00	-2.926457e+01
1.920000e-06	4.148749e-07	-3.096872e-10	3.030318e+00	-2.264455e+01
1.930000e-06	4.703777e-07	-2.099706e-10	3.435720e+00	-1.595648e+01
1.940000e-06	5.258858e-07	-1.099642e-10	3.841160e+00	-9.212704e+00
1.950000e-06	5.813648e-07	-4.314595e-12	4.246389e+00	-2.425919e+00
1.960000e-06	6.367869e-07	1.028722e-10	4.651201e+00	4.390896e+00
1.970000e-06	6.921666e-07	2.053018e-10	5.055704e+00	1.122456e+01
1.980000e-06	7.475105e-07	3.081639e-10	5.459946e+00	1.806179e+01
1.990000e-06	8.028767e-07	4.141185e-10	5.864350e+00	2.488924e+01
2.000000e-06	8.582459e-07	5.201816e-10	6.268776e+00	3.169365e+01
2.010000e-06	9.135478e-07	6.225441e-10	6.672710e+00	3.846189e+01
2.020000e-06	9.687526e-07	7.222483e-10	7.075935e+00	4.518102e+01
2.030000e-06	1.023846e-06	8.243137e-10	7.478345e+00	5.183843e+01
2.040000e-06	1.078859e-06	9.265254e-10	7.880173e+00	5.842187e+01
2.050000e-06	1.133879e-06	1.025014e-09	8.282048e+00	6.491956e+01
2.060000e-06	1.188857e-06	1.119962e-09	8.683612e+00	7.132021e+01
2.070000e-06	1.243704e-06	1.215047e-09	9.084231e+00	7.761314e+01
2.080000e-06	1.298460e-06	1.308552e-09	9.484174e+00	8.378831e+01
2.090000e-06	1.353102e-06	1.398317e-09	9.883290e+00	8.983641e+01
2.100000e-06	1.407631e-06	1.483328e-09	1.028158e+01	9.574884e+01
2.110000e-06	1.462020e-06	1.566316e-09	1.067885e+01	1.015178e+02
2.120000e-06	1.516275e-06	1.649212e-09	1.107513e+01	1.071364e+02
2.130000e-06	1.570489e-06	1.728398e-09	1.147112e+01	1.125986e+02
2.140000e-06	1.624620e-06	1.802713e-09	1.186650e+01	1.178990e+02
2.150000e-06	1.678691e-06	1.873465e-09	1.226145e+01	1.230336e+02
2.160000e-06	1.732680e-06	1.943139e-09	1.265579e+01	1.279987e+02
2.170000e-06	1.786451e-06	2.011846e-09	1.304854e+01	1.327921e+02
2.180000e-06	1.840108e-06	2.076059e-09	1.344046e+01	1.374121e+02
2.190000e-06	1.893725e-06	2.135259e-09	1.383210e+01	1.418580e+02
2.200000e-06	1.947197e-06	2.193879e-09	1.422266e+01	1.461301e+02
2.210000e-06	2.000437e-06	2.249941e-09	1.461153e+01	1.502293e+02
2.220000e-06	2.053519e-06	2.300803e-09	1.499926e+01	1.541576e+02
2.230000e-06	2.106470e-06	2.349490e-09	1.538602e+01	1.579174e+02
2.240000e-06	2.159328e-06	2.397675e-09	1.577210e+01	1.615122e+02
2.250000e-06	2.212054e-06	2.442882e-09	1.615722e+01	1.649460e+02
2.260000e-06	2.264537e-06	2.484929e-09	1.654057e+01	1.682233e+02
2.270000e-06	2.316888e-06	2.527127e-09	1.692295e+01	1.713495e+02
2.280000e-06	2.369096e-06	2.570920e-09	1.730429e+01	1.743302e+02
2.290000e-06	2.421102e-06	2.612857e-09	1.768414e+01	1.771716e+02
2.300000e-06	2.472914e-06	2.648685e-09	1.806259e+01	1.798802e+02
2.310000e-06	2.524478e-06	2.681986e-09	1.843922e+01	1.824627e+02
2.320000e-06	2.575798e-06	2.715287e-09	1.881407e+01	1.849265e+02
2.330000e-06	2.626939e-06	2.748030e-09	1.918761e+01	1.872785e+02
2.340000e-06	2.677929e-06	2.780185e-09	1.956006e+01	1.895264e+02
2.350000e-06	2.728628e-06	2.811662e-09	1.993037e+01	1.916773e+02
2.360000e-06	2.778890e-06	2.844943e-09	2.029749e+01	1.937388e+02
2.370000e-06	2.828889e-06	2.877770e-09	2.066269e+01	1.957182e+02
2.380000e-06	2.878646e-06	2.908620e-09	2.102613e+01	1.976226e+02
2.390000e-06	2.928104e-06	2.936044e-09	2.138738e+01	1.994590e+02
2.400000e-06	2.977340e-06	2.960551e-09	2.174700e+01	2.012342e+02
2.410000e-06	3.026253e-06	2.985686e-09	2.210427e+01	2.029546e+02
2.420000e-06	3.074758e-06	3.010341e-09	2.245856e+01	2.046263e+02
2.430000e-06	3.122957e-06	3.032590e-09	2.281061e+01	2.062551e+02
2.440000e-06	3.170998e-06	3.053812e-09	2.316151e+01	2.078464e+02
2.450000e-06	3.218889e-06	3.080825e-09	2.351132e+01	2.094050e+02
2.460000e-06	3.266556e-06	3.109081e-09	2.385949e+01	2.109354e+02
2.470000e-06	3.314027e-06	3.133805e-09	2.420622e+01	2.124417e+02
2.480000e-06	3.361336e-06	3.156618e-09	2.455177e+01	2.139274e+02
2.490000e-06	3.408387e-06	3.180083e-09	2.489545e+01	2.153956e+02
2.500000e-06	3.455164e-06	3.201943e-09	2.523711e+01	2.168488e+02
2.510000e-06	3.501712e-06	3.219210e-09	2.557710e+01	2.182891e+02
2.520000e-06	3.548022e-06	3.235889e-09	2.591536e+01	2.197181e+02
2.530000e-06	3.594142e-06	3.256380e-09	2.625223e+01	2.211372e+02
2.540000e-06	3.640018e-06	3.278391e-09	2.658732e+01	2.225469e+02
2.550000e-06	3.685596e-06	3.295423e-09	2.692022e+01	2.239478e+02
2.560000e-06	3.730968e-06	3.310426e-09	2.725163e+01	2.253397e+02
2.570000e-06	3.776072e-06	3.328999e-09	2.758108e+01	2.267223e+02
2.580000e-06	3.820831e-06	3.347786e-09	2.790800e+01	2.280948e+02
2.590000e-06	3.865359e-06	3.361711e-09	2.823324e+01	2.294564e+02
2.600000e-06	3.909673e-06	3.373229e-09	2.855693e+01	2.308057e+02
2.610000e-06	3.953813e-06	3.388485e-09	2.887933e+01	2.321414e+02
2.620000e-06	3.997789e-06	3.405469e-09	2.920054e+01	2.334619e+02
2.630000e-06	4.041538e-06	3.419044e-09	2.952009e+01	2.347653e+02
2.640000e-06	4.085022e-06	3.431936e-09	2.983770e+01	2.360500e+02
2.650000e-06	4.128226e-06	3.447109e-09	3.015327e+01	2.373140e+02
2.660000e-06	4.171140e-06	3.464332e-09	3.046672e+01	2.385554e+02
2.670000e-06	4.213686e-06	3.479992e-09	3.077748e+01	2.397724e+02
2.680000e-06	4.255839e-06	3.493052e-09	3.108538e+01	2.409631e+02
2.690000e-06	4.297544e-06	3.504755e-09	3.139000e+01	2.421259e+02
2.700000e-06	4.338788e-06	3.516673e-09	3.169125e+01	2.432591e+02
2.710000e-06	4.379632e-06	3.529901e-09	3.198958e+01	2.443612e+02
2.720000e-06	4.420069e-06	3.543671e-09	3.228494e+01	2.454310e+02
2.730000e-06	4.460160e-06	3.554044e-09	3.257777e+01	2.464673e+02
2.740000e-06	4.500051e-06	3.564421e-09	3.286915e+01	2.474694e+02
2.750000e-06	4.539732e-06	3.576988e-09	3.315899e+01	2.484363e+02
2.760000e-06	4.579132e-06	3.589107e-09	3.344677e+01	2.493679e+02
2.770000e-06	4.618139e-06	3.598933e-09	3.373168e+01	2.502637e+02
2.780000e-06	4.656839e-06	3.608667e-09	3.401435e+01	2.511239e+02
2.790000e-06	4.695287e-06	3.619452e-09	3.429519e+01	2.519487e+02
2.800000e-06	4.733357e-06	3.628542e-09	3.457325e+01	2.527386e+02
2.810000e-06	4.771132e-06	3.637166e-09	3.484917e+01	2.534943e+02
2.820000e-06	4.808541e-06	3.645429e-09	3.512241e+01	2.542169e+02
2.830000e-06	4.845546e-06	3.656537e-09	3.539270e+01	2.549074e+02
2.840000e-06	4.882279e-06	3.670483e-09	3.566101e+01	2.555673e+02
2.850000e-06	4.918726e-06	3.678628e-09	3.592722e+01	2.561979e+02
2.860000e-06	4.954942e-06	3.685420e-09	3.619175e+01	2.568011e+02
2.870000e-06	4.990911e-06	3.697535e-09	3.645448e+01	2.573786e+02
2.880000e-06	5.026576e-06	3.710206e-09	3.671497e+01	2.579324e+02
2.890000e-06	5.061973e-06	3.716298e-09	3.697352e+01	2.584644e+02
2.900000e-06	5.097102e-06	3.723277e-09	3.723011e+01	2.589767e+02
