# Temperatura_=_20.0
# Concentracion g/m^3_=_9000.0
# C_Vs_to_Am_M_A/Vsm_=_65563218390.804596
# pendiente_HvsI_1/m_=_3716.3
# ordenada_HvsI_A/m_=_1297.0
# frecuencia_Hz_=_135296.15284489098

Tiempo_(s)	Campo_(V.s)	Magnetizacion_(V.s)	Campo_(kA/m)	Magnetizacion_(A/m)
0.000000e+00	-6.515658e-06	-4.550605e-09	-4.763300e+01	-2.803555e+02
1.000000e-08	-6.515804e-06	-4.548473e-09	-4.763406e+01	-2.804736e+02
2.000000e-08	-6.515661e-06	-4.551499e-09	-4.763302e+01	-2.805986e+02
3.000000e-08	-6.515085e-06	-4.559161e-09	-4.762881e+01	-2.807300e+02
4.000000e-08	-6.514000e-06	-4.564270e-09	-4.762088e+01	-2.808672e+02
5.000000e-08	-6.512271e-06	-4.566986e-09	-4.760824e+01	-2.810096e+02
6.000000e-08	-6.509757e-06	-4.569435e-09	-4.758986e+01	-2.811565e+02
7.000000e-08	-6.506663e-06	-4.563214e-09	-4.756725e+01	-2.813072e+02
8.000000e-08	-6.503152e-06	-4.545421e-09	-4.754158e+01	-2.814611e+02
9.000000e-08	-6.499276e-06	-4.561029e-09	-4.751324e+01	-2.816175e+02
1.000000e-07	-6.494942e-06	-4.638331e-09	-4.748155e+01	-2.817757e+02
1.100000e-07	-6.489886e-06	-4.667013e-09	-4.744459e+01	-2.819351e+02
1.200000e-07	-6.484189e-06	-4.544476e-09	-4.740295e+01	-2.820949e+02
1.300000e-07	-6.478232e-06	-4.423530e-09	-4.735939e+01	-2.822545e+02
1.400000e-07	-6.472038e-06	-4.540889e-09	-4.731411e+01	-2.824133e+02
1.500000e-07	-6.465330e-06	-4.721420e-09	-4.726507e+01	-2.825708e+02
1.600000e-07	-6.458110e-06	-4.667468e-09	-4.721230e+01	-2.827264e+02
1.700000e-07	-6.450603e-06	-4.494349e-09	-4.715741e+01	-2.828795e+02
1.800000e-07	-6.442793e-06	-4.518876e-09	-4.710031e+01	-2.830297e+02
1.900000e-07	-6.434631e-06	-4.626456e-09	-4.704065e+01	-2.831765e+02
2.000000e-07	-6.426237e-06	-4.697728e-09	-4.697929e+01	-2.833195e+02
2.100000e-07	-6.417454e-06	-4.622283e-09	-4.691507e+01	-2.834583e+02
2.200000e-07	-6.407874e-06	-4.514733e-09	-4.684504e+01	-2.835925e+02
2.300000e-07	-6.397410e-06	-4.483370e-09	-4.676855e+01	-2.837217e+02
2.400000e-07	-6.386478e-06	-4.624786e-09	-4.668862e+01	-2.838456e+02
2.500000e-07	-6.375087e-06	-4.647106e-09	-4.660535e+01	-2.839640e+02
2.600000e-07	-6.362929e-06	-4.414823e-09	-4.651647e+01	-2.840764e+02
2.700000e-07	-6.350159e-06	-4.288372e-09	-4.642312e+01	-2.841825e+02
2.800000e-07	-6.337037e-06	-4.463909e-09	-4.632718e+01	-2.842821e+02
2.900000e-07	-6.323505e-06	-4.531831e-09	-4.622826e+01	-2.843747e+02
3.000000e-07	-6.309358e-06	-4.269418e-09	-4.612484e+01	-2.844600e+02
3.100000e-07	-6.294671e-06	-4.120515e-09	-4.601747e+01	-2.845377e+02
3.200000e-07	-6.279357e-06	-4.235529e-09	-4.590551e+01	-2.846073e+02
3.300000e-07	-6.263266e-06	-4.218270e-09	-4.578788e+01	-2.846684e+02
3.400000e-07	-6.246679e-06	-4.070048e-09	-4.566662e+01	-2.847206e+02
3.500000e-07	-6.229713e-06	-4.059888e-09	-4.554258e+01	-2.847632e+02
3.600000e-07	-6.212291e-06	-3.994105e-09	-4.541522e+01	-2.847959e+02
3.700000e-07	-6.194597e-06	-3.969456e-09	-4.528587e+01	-2.848179e+02
3.800000e-07	-6.176724e-06	-4.094951e-09	-4.515521e+01	-2.848288e+02
3.900000e-07	-6.158343e-06	-4.135816e-09	-4.502083e+01	-2.848278e+02
4.000000e-07	-6.139301e-06	-3.934253e-09	-4.488163e+01	-2.848142e+02
4.100000e-07	-6.119798e-06	-3.991312e-09	-4.473905e+01	-2.847873e+02
4.200000e-07	-6.100030e-06	-4.198711e-09	-4.459454e+01	-2.847464e+02
4.300000e-07	-6.080001e-06	-4.141631e-09	-4.444811e+01	-2.846906e+02
4.400000e-07	-6.059569e-06	-3.959434e-09	-4.429874e+01	-2.846193e+02
4.500000e-07	-6.038752e-06	-4.044385e-09	-4.414655e+01	-2.845315e+02
4.600000e-07	-6.017587e-06	-4.168609e-09	-4.399183e+01	-2.844266e+02
4.700000e-07	-5.996047e-06	-4.083474e-09	-4.383436e+01	-2.843036e+02
4.800000e-07	-5.974127e-06	-3.974610e-09	-4.367411e+01	-2.841619e+02
4.900000e-07	-5.951847e-06	-4.027437e-09	-4.351124e+01	-2.840006e+02
5.000000e-07	-5.929167e-06	-4.069787e-09	-4.334543e+01	-2.838191e+02
5.100000e-07	-5.905973e-06	-4.032252e-09	-4.317587e+01	-2.836166e+02
5.200000e-07	-5.882418e-06	-4.020041e-09	-4.300367e+01	-2.833927e+02
5.300000e-07	-5.858609e-06	-4.014534e-09	-4.282961e+01	-2.831466e+02
5.400000e-07	-5.834453e-06	-3.981512e-09	-4.265302e+01	-2.828781e+02
5.500000e-07	-5.809835e-06	-4.015257e-09	-4.247305e+01	-2.825866e+02
5.600000e-07	-5.784628e-06	-4.069377e-09	-4.228877e+01	-2.822720e+02
5.700000e-07	-5.758689e-06	-3.991634e-09	-4.209915e+01	-2.819340e+02
5.800000e-07	-5.732043e-06	-3.937009e-09	-4.190435e+01	-2.815725e+02
5.900000e-07	-5.704924e-06	-4.018351e-09	-4.170610e+01	-2.811877e+02
6.000000e-07	-5.677481e-06	-4.057994e-09	-4.150547e+01	-2.807796e+02
6.100000e-07	-5.649767e-06	-3.968571e-09	-4.130287e+01	-2.803487e+02
6.200000e-07	-5.621774e-06	-3.945416e-09	-4.109822e+01	-2.798952e+02
6.300000e-07	-5.593482e-06	-3.992575e-09	-4.089139e+01	-2.794197e+02
6.400000e-07	-5.564867e-06	-4.005834e-09	-4.068220e+01	-2.789230e+02
6.500000e-07	-5.535821e-06	-3.969996e-09	-4.046986e+01	-2.784058e+02
6.600000e-07	-5.506297e-06	-3.951913e-09	-4.025402e+01	-2.778690e+02
6.700000e-07	-5.476434e-06	-3.952134e-09	-4.003571e+01	-2.773137e+02
6.800000e-07	-5.446238e-06	-3.972221e-09	-3.981496e+01	-2.767410e+02
6.900000e-07	-5.415595e-06	-3.965509e-09	-3.959094e+01	-2.761520e+02
7.000000e-07	-5.384478e-06	-3.942113e-09	-3.936346e+01	-2.755482e+02
7.100000e-07	-5.353029e-06	-3.924691e-09	-3.913355e+01	-2.749309e+02
7.200000e-07	-5.321374e-06	-3.931302e-09	-3.890214e+01	-2.743015e+02
7.300000e-07	-5.289496e-06	-3.935815e-09	-3.866909e+01	-2.736615e+02
7.400000e-07	-5.257428e-06	-3.923960e-09	-3.843466e+01	-2.730124e+02
7.500000e-07	-5.225116e-06	-3.889477e-09	-3.819844e+01	-2.723558e+02
7.600000e-07	-5.192349e-06	-3.886216e-09	-3.795889e+01	-2.716931e+02
7.700000e-07	-5.158985e-06	-3.914572e-09	-3.771498e+01	-2.710258e+02
7.800000e-07	-5.124993e-06	-3.908606e-09	-3.746648e+01	-2.703554e+02
7.900000e-07	-5.090303e-06	-3.865856e-09	-3.721288e+01	-2.696833e+02
8.000000e-07	-5.055048e-06	-3.861716e-09	-3.695515e+01	-2.690108e+02
8.100000e-07	-5.019481e-06	-3.886277e-09	-3.669514e+01	-2.683389e+02
8.200000e-07	-4.983695e-06	-3.872982e-09	-3.643352e+01	-2.676690e+02
8.300000e-07	-4.947700e-06	-3.837987e-09	-3.617038e+01	-2.670018e+02
8.400000e-07	-4.911511e-06	-3.828219e-09	-3.590581e+01	-2.663383e+02
8.500000e-07	-4.874974e-06	-3.840049e-09	-3.563871e+01	-2.656791e+02
8.600000e-07	-4.838000e-06	-3.836511e-09	-3.536841e+01	-2.650246e+02
8.700000e-07	-4.800729e-06	-3.817246e-09	-3.509593e+01	-2.643752e+02
8.800000e-07	-4.763170e-06	-3.795402e-09	-3.482136e+01	-2.637309e+02
8.900000e-07	-4.725233e-06	-3.795172e-09	-3.454402e+01	-2.630918e+02
9.000000e-07	-4.686943e-06	-3.800514e-09	-3.426410e+01	-2.624576e+02
9.100000e-07	-4.648346e-06	-3.792424e-09	-3.398193e+01	-2.618276e+02
9.200000e-07	-4.609427e-06	-3.767249e-09	-3.369742e+01	-2.612014e+02
9.300000e-07	-4.570248e-06	-3.756691e-09	-3.341099e+01	-2.605780e+02
9.400000e-07	-4.530810e-06	-3.760407e-09	-3.312268e+01	-2.599563e+02
9.500000e-07	-4.491117e-06	-3.758977e-09	-3.283250e+01	-2.593352e+02
9.600000e-07	-4.451252e-06	-3.732606e-09	-3.254107e+01	-2.587131e+02
9.700000e-07	-4.411231e-06	-3.706941e-09	-3.224850e+01	-2.580885e+02
9.800000e-07	-4.370897e-06	-3.703654e-09	-3.195363e+01	-2.574597e+02
9.900000e-07	-4.330089e-06	-3.711326e-09	-3.165530e+01	-2.568247e+02
1.000000e-06	-4.288828e-06	-3.697708e-09	-3.135366e+01	-2.561818e+02
1.010000e-06	-4.247162e-06	-3.676985e-09	-3.104906e+01	-2.555287e+02
1.020000e-06	-4.205047e-06	-3.670258e-09	-3.074117e+01	-2.548634e+02
1.030000e-06	-4.162485e-06	-3.670134e-09	-3.043003e+01	-2.541836e+02
1.040000e-06	-4.119545e-06	-3.657693e-09	-3.011611e+01	-2.534873e+02
1.050000e-06	-4.076229e-06	-3.638004e-09	-2.979945e+01	-2.527722e+02
1.060000e-06	-4.032632e-06	-3.620146e-09	-2.948073e+01	-2.520361e+02
1.070000e-06	-3.988859e-06	-3.609892e-09	-2.916072e+01	-2.512770e+02
1.080000e-06	-3.944870e-06	-3.604085e-09	-2.883914e+01	-2.504927e+02
1.090000e-06	-3.900662e-06	-3.591751e-09	-2.851596e+01	-2.496815e+02
1.100000e-06	-3.856208e-06	-3.575393e-09	-2.819097e+01	-2.488415e+02
1.110000e-06	-3.811452e-06	-3.562073e-09	-2.786379e+01	-2.479710e+02
1.120000e-06	-3.766392e-06	-3.553208e-09	-2.753437e+01	-2.470685e+02
1.130000e-06	-3.720977e-06	-3.539169e-09	-2.720236e+01	-2.461328e+02
1.140000e-06	-3.675259e-06	-3.522024e-09	-2.686814e+01	-2.451628e+02
1.150000e-06	-3.629370e-06	-3.505224e-09	-2.653267e+01	-2.441575e+02
1.160000e-06	-3.583280e-06	-3.490539e-09	-2.619573e+01	-2.431164e+02
1.170000e-06	-3.536987e-06	-3.475036e-09	-2.585730e+01	-2.420390e+02
1.180000e-06	-3.490505e-06	-3.459460e-09	-2.551749e+01	-2.409251e+02
1.190000e-06	-3.443722e-06	-3.442595e-09	-2.517548e+01	-2.397749e+02
1.200000e-06	-3.396530e-06	-3.428024e-09	-2.483048e+01	-2.385886e+02
1.210000e-06	-3.349091e-06	-3.411032e-09	-2.448368e+01	-2.373668e+02
1.220000e-06	-3.301567e-06	-3.393693e-09	-2.413625e+01	-2.361102e+02
1.230000e-06	-3.253897e-06	-3.375653e-09	-2.378775e+01	-2.348200e+02
1.240000e-06	-3.206010e-06	-3.359590e-09	-2.343768e+01	-2.334972e+02
1.250000e-06	-3.157925e-06	-3.341806e-09	-2.308614e+01	-2.321433e+02
1.260000e-06	-3.109711e-06	-3.321615e-09	-2.273367e+01	-2.307599e+02
1.270000e-06	-3.061250e-06	-3.301713e-09	-2.237940e+01	-2.293486e+02
1.280000e-06	-3.012437e-06	-3.284263e-09	-2.202255e+01	-2.279113e+02
1.290000e-06	-2.963371e-06	-3.267126e-09	-2.166385e+01	-2.264498e+02
1.300000e-06	-2.914114e-06	-3.249464e-09	-2.130375e+01	-2.249660e+02
1.310000e-06	-2.864593e-06	-3.230344e-09	-2.094173e+01	-2.234621e+02
1.320000e-06	-2.814701e-06	-3.209682e-09	-2.057699e+01	-2.219398e+02
1.330000e-06	-2.764332e-06	-3.189118e-09	-2.020877e+01	-2.204010e+02
1.340000e-06	-2.713583e-06	-3.167346e-09	-1.983777e+01	-2.188477e+02
1.350000e-06	-2.662606e-06	-3.144181e-09	-1.946509e+01	-2.172813e+02
1.360000e-06	-2.611345e-06	-3.121030e-09	-1.909035e+01	-2.157034e+02
1.370000e-06	-2.559813e-06	-3.101074e-09	-1.871363e+01	-2.141152e+02
1.380000e-06	-2.508115e-06	-3.082372e-09	-1.833568e+01	-2.125178e+02
1.390000e-06	-2.456214e-06	-3.061492e-09	-1.795626e+01	-2.109119e+02
1.400000e-06	-2.404146e-06	-3.040091e-09	-1.757562e+01	-2.092979e+02
1.410000e-06	-2.351989e-06	-3.018224e-09	-1.719432e+01	-2.076759e+02
1.420000e-06	-2.299751e-06	-2.993763e-09	-1.681243e+01	-2.060456e+02
1.430000e-06	-2.247344e-06	-2.969902e-09	-1.642931e+01	-2.044062e+02
1.440000e-06	-2.194797e-06	-2.948328e-09	-1.604516e+01	-2.027567e+02
1.450000e-06	-2.142218e-06	-2.924361e-09	-1.566078e+01	-2.010955e+02
1.460000e-06	-2.089369e-06	-2.897314e-09	-1.527442e+01	-1.994205e+02
1.470000e-06	-2.036216e-06	-2.873329e-09	-1.488584e+01	-1.977292e+02
1.480000e-06	-1.982950e-06	-2.849822e-09	-1.449644e+01	-1.960187e+02
1.490000e-06	-1.929603e-06	-2.823497e-09	-1.410645e+01	-1.942855e+02
1.500000e-06	-1.876085e-06	-2.795320e-09	-1.371520e+01	-1.925257e+02
1.510000e-06	-1.822322e-06	-2.766563e-09	-1.332217e+01	-1.907349e+02
1.520000e-06	-1.768492e-06	-2.738687e-09	-1.292864e+01	-1.889084e+02
1.530000e-06	-1.714621e-06	-2.709890e-09	-1.253481e+01	-1.870409e+02
1.540000e-06	-1.660592e-06	-2.676055e-09	-1.213983e+01	-1.851268e+02
1.550000e-06	-1.606443e-06	-2.641328e-09	-1.174397e+01	-1.831601e+02
1.560000e-06	-1.552197e-06	-2.606996e-09	-1.134740e+01	-1.811345e+02
1.570000e-06	-1.497860e-06	-2.572112e-09	-1.095017e+01	-1.790435e+02
1.580000e-06	-1.443512e-06	-2.535085e-09	-1.055286e+01	-1.768801e+02
1.590000e-06	-1.389060e-06	-2.496254e-09	-1.015478e+01	-1.746375e+02
1.600000e-06	-1.334390e-06	-2.457741e-09	-9.755119e+00	-1.723083e+02
1.610000e-06	-1.279623e-06	-2.418879e-09	-9.354742e+00	-1.698856e+02
1.620000e-06	-1.224756e-06	-2.378512e-09	-8.953635e+00	-1.673618e+02
1.630000e-06	-1.169762e-06	-2.335627e-09	-8.551595e+00	-1.647300e+02
1.640000e-06	-1.114698e-06	-2.295448e-09	-8.149048e+00	-1.619828e+02
1.650000e-06	-1.059572e-06	-2.258590e-09	-7.746045e+00	-1.591135e+02
1.660000e-06	-1.004404e-06	-2.214522e-09	-7.342739e+00	-1.561153e+02
1.670000e-06	-9.491826e-07	-2.165103e-09	-6.939041e+00	-1.529819e+02
1.680000e-06	-8.938623e-07	-2.118368e-09	-6.534619e+00	-1.497071e+02
1.690000e-06	-8.384822e-07	-2.072659e-09	-6.129760e+00	-1.462854e+02
1.700000e-06	-7.831251e-07	-2.021593e-09	-5.725070e+00	-1.427116e+02
1.710000e-06	-7.277624e-07	-1.967714e-09	-5.320338e+00	-1.389812e+02
1.720000e-06	-6.723759e-07	-1.915676e-09	-4.915433e+00	-1.350902e+02
1.730000e-06	-6.169821e-07	-1.861354e-09	-4.510474e+00	-1.310353e+02
1.740000e-06	-5.615489e-07	-1.804369e-09	-4.105227e+00	-1.268139e+02
1.750000e-06	-5.060779e-07	-1.743436e-09	-3.699704e+00	-1.224241e+02
1.760000e-06	-4.505575e-07	-1.678559e-09	-3.293820e+00	-1.178648e+02
1.770000e-06	-3.949844e-07	-1.613279e-09	-2.887550e+00	-1.131359e+02
1.780000e-06	-3.393698e-07	-1.545186e-09	-2.480978e+00	-1.082378e+02
1.790000e-06	-2.837152e-07	-1.471809e-09	-2.074112e+00	-1.031721e+02
1.800000e-06	-2.280568e-07	-1.397324e-09	-1.667219e+00	-9.794102e+01
1.810000e-06	-1.724167e-07	-1.323798e-09	-1.260459e+00	-9.254791e+01
1.820000e-06	-1.167709e-07	-1.245705e-09	-8.536589e-01	-8.699685e+01
1.830000e-06	-6.107609e-08	-1.159137e-09	-4.464994e-01	-8.129284e+01
1.840000e-06	-5.370363e-09	-1.072882e-09	-3.926027e-02	-7.544176e+01
1.850000e-06	5.031488e-08	-9.898121e-10	3.678291e-01	-6.945035e+01
1.860000e-06	1.059514e-07	-9.041830e-10	7.745626e-01	-6.332613e+01
1.870000e-06	1.615450e-07	-8.122870e-10	1.180982e+00	-5.707747e+01
1.880000e-06	2.171111e-07	-7.166606e-10	1.587200e+00	-5.071343e+01
1.890000e-06	2.726932e-07	-6.230565e-10	1.993536e+00	-4.424379e+01
1.900000e-06	3.283060e-07	-5.309668e-10	2.400095e+00	-3.767900e+01
1.910000e-06	3.838768e-07	-4.328391e-10	2.806348e+00	-3.103008e+01
1.920000e-06	4.394164e-07	-3.292820e-10	3.212373e+00	-2.430856e+01
1.930000e-06	4.949384e-07	-2.269530e-10	3.618269e+00	-1.752645e+01
1.940000e-06	5.504148e-07	-1.264207e-10	4.023831e+00	-1.069615e+01
1.950000e-06	6.058632e-07	-2.127496e-11	4.429189e+00	-3.830360e+00
1.960000e-06	6.613195e-07	8.766549e-11	4.834605e+00	3.057979e+00
1.970000e-06	7.168055e-07	1.950057e-10	5.240237e+00	9.955774e+00
1.980000e-06	7.722781e-07	2.999484e-10	5.645773e+00	1.684986e+01
1.990000e-06	8.276481e-07	4.068891e-10	6.050557e+00	2.372706e+01
2.000000e-06	8.829144e-07	5.158543e-10	6.454584e+00	3.057432e+01
2.010000e-06	9.381340e-07	6.216427e-10	6.858269e+00	3.737873e+01
2.020000e-06	9.933166e-07	7.242647e-10	7.261684e+00	4.412764e+01
2.030000e-06	1.048411e-06	8.271043e-10	7.664453e+00	5.080871e+01
2.040000e-06	1.103431e-06	9.309672e-10	8.066680e+00	5.741003e+01
2.050000e-06	1.158406e-06	1.032231e-09	8.468574e+00	6.392014e+01
2.060000e-06	1.213288e-06	1.129609e-09	8.869796e+00	7.032811e+01
2.070000e-06	1.268022e-06	1.223528e-09	9.269933e+00	7.662365e+01
2.080000e-06	1.322737e-06	1.315705e-09	9.669923e+00	8.279710e+01
2.090000e-06	1.377407e-06	1.404939e-09	1.006959e+01	8.883951e+01
2.100000e-06	1.431879e-06	1.491041e-09	1.046781e+01	9.474272e+01
2.110000e-06	1.486190e-06	1.573056e-09	1.086485e+01	1.004993e+02
2.120000e-06	1.540414e-06	1.656037e-09	1.126126e+01	1.061028e+02
2.130000e-06	1.594574e-06	1.738371e-09	1.165721e+01	1.115474e+02
2.140000e-06	1.648558e-06	1.812116e-09	1.205185e+01	1.168284e+02
2.150000e-06	1.702435e-06	1.879611e-09	1.244572e+01	1.219418e+02
2.160000e-06	1.756243e-06	1.947002e-09	1.283909e+01	1.268847e+02
2.170000e-06	1.809926e-06	2.013925e-09	1.323154e+01	1.316548e+02
2.180000e-06	1.863534e-06	2.075479e-09	1.362345e+01	1.362510e+02
2.190000e-06	1.916999e-06	2.133465e-09	1.401431e+01	1.406728e+02
2.200000e-06	1.970341e-06	2.190968e-09	1.440426e+01	1.449209e+02
2.210000e-06	2.023604e-06	2.246923e-09	1.479365e+01	1.489964e+02
2.220000e-06	2.076673e-06	2.300696e-09	1.518161e+01	1.529015e+02
2.230000e-06	2.129545e-06	2.349130e-09	1.556813e+01	1.566390e+02
2.240000e-06	2.182266e-06	2.392244e-09	1.595355e+01	1.602125e+02
2.250000e-06	2.234811e-06	2.434415e-09	1.633769e+01	1.636263e+02
2.260000e-06	2.287210e-06	2.476719e-09	1.672075e+01	1.668850e+02
2.270000e-06	2.339413e-06	2.516306e-09	1.710238e+01	1.699940e+02
2.280000e-06	2.391412e-06	2.555016e-09	1.748252e+01	1.729593e+02
2.290000e-06	2.443251e-06	2.593429e-09	1.786149e+01	1.757870e+02
2.300000e-06	2.494878e-06	2.628241e-09	1.823891e+01	1.784839e+02
2.310000e-06	2.546364e-06	2.661562e-09	1.861530e+01	1.810567e+02
2.320000e-06	2.597685e-06	2.694649e-09	1.899049e+01	1.835126e+02
2.330000e-06	2.648785e-06	2.726735e-09	1.936406e+01	1.858590e+02
2.340000e-06	2.699677e-06	2.757186e-09	1.973610e+01	1.881032e+02
2.350000e-06	2.750219e-06	2.786682e-09	2.010559e+01	1.902526e+02
2.360000e-06	2.800479e-06	2.815297e-09	2.047302e+01	1.923147e+02
2.370000e-06	2.850444e-06	2.843919e-09	2.083829e+01	1.942967e+02
2.380000e-06	2.899982e-06	2.872958e-09	2.120044e+01	1.962059e+02
2.390000e-06	2.949060e-06	2.899035e-09	2.155923e+01	1.980491e+02
2.400000e-06	2.997756e-06	2.922495e-09	2.191523e+01	1.998330e+02
2.410000e-06	3.046237e-06	2.947859e-09	2.226965e+01	2.015642e+02
2.420000e-06	3.094454e-06	2.975222e-09	2.262214e+01	2.032485e+02
2.430000e-06	3.142421e-06	2.999639e-09	2.297280e+01	2.048919e+02
2.440000e-06	3.190299e-06	3.021510e-09	2.332282e+01	2.064994e+02
2.450000e-06	3.238029e-06	3.044632e-09	2.367175e+01	2.080761e+02
2.460000e-06	3.285593e-06	3.069602e-09	2.401947e+01	2.096262e+02
2.470000e-06	3.333039e-06	3.094280e-09	2.436633e+01	2.111538e+02
2.480000e-06	3.380301e-06	3.116791e-09	2.471183e+01	2.126623e+02
2.490000e-06	3.427329e-06	3.139561e-09	2.505563e+01	2.141547e+02
2.500000e-06	3.474112e-06	3.161989e-09	2.539765e+01	2.156335e+02
2.510000e-06	3.520578e-06	3.182989e-09	2.573734e+01	2.171007e+02
2.520000e-06	3.566699e-06	3.204556e-09	2.607450e+01	2.185579e+02
2.530000e-06	3.612547e-06	3.226661e-09	2.640968e+01	2.200063e+02
2.540000e-06	3.658154e-06	3.246687e-09	2.674310e+01	2.214464e+02
2.550000e-06	3.703517e-06	3.264529e-09	2.707472e+01	2.228786e+02
2.560000e-06	3.748667e-06	3.282791e-09	2.740480e+01	2.243028e+02
2.570000e-06	3.793570e-06	3.300124e-09	2.773306e+01	2.257184e+02
2.580000e-06	3.838214e-06	3.316172e-09	2.805943e+01	2.271248e+02
2.590000e-06	3.882619e-06	3.332827e-09	2.838406e+01	2.285209e+02
2.600000e-06	3.926765e-06	3.349344e-09	2.870679e+01	2.299053e+02
2.610000e-06	3.970743e-06	3.368288e-09	2.902829e+01	2.312766e+02
2.620000e-06	4.014595e-06	3.386443e-09	2.934887e+01	2.326330e+02
2.630000e-06	4.058255e-06	3.401735e-09	2.966805e+01	2.339728e+02
2.640000e-06	4.101682e-06	3.416498e-09	2.998553e+01	2.352941e+02
2.650000e-06	4.144889e-06	3.432575e-09	3.030139e+01	2.365949e+02
2.660000e-06	4.187665e-06	3.448137e-09	3.061410e+01	2.378732e+02
2.670000e-06	4.229920e-06	3.462802e-09	3.092302e+01	2.391270e+02
2.680000e-06	4.271743e-06	3.477920e-09	3.122876e+01	2.403546e+02
2.690000e-06	4.313090e-06	3.491592e-09	3.153103e+01	2.415541e+02
2.700000e-06	4.353949e-06	3.505151e-09	3.182973e+01	2.427237e+02
2.710000e-06	4.394384e-06	3.520348e-09	3.212534e+01	2.438621e+02
2.720000e-06	4.434501e-06	3.532434e-09	3.241861e+01	2.449678e+02
2.730000e-06	4.474419e-06	3.540831e-09	3.271044e+01	2.460396e+02
2.740000e-06	4.514178e-06	3.550435e-09	3.300109e+01	2.470766e+02
2.750000e-06	4.553708e-06	3.562743e-09	3.329008e+01	2.480781e+02
2.760000e-06	4.592936e-06	3.574763e-09	3.357686e+01	2.490436e+02
2.770000e-06	4.631802e-06	3.584186e-09	3.386099e+01	2.499729e+02
2.780000e-06	4.670284e-06	3.596445e-09	3.414232e+01	2.508658e+02
2.790000e-06	4.708438e-06	3.608642e-09	3.442124e+01	2.517228e+02
2.800000e-06	4.746296e-06	3.618291e-09	3.469800e+01	2.525442e+02
2.810000e-06	4.783891e-06	3.623372e-09	3.497284e+01	2.533309e+02
2.820000e-06	4.821176e-06	3.629269e-09	3.524541e+01	2.540838e+02
2.830000e-06	4.858072e-06	3.640830e-09	3.551515e+01	2.548040e+02
2.840000e-06	4.894651e-06	3.652868e-09	3.578255e+01	2.554930e+02
2.850000e-06	4.930915e-06	3.659224e-09	3.604766e+01	2.561523e+02
2.860000e-06	4.966932e-06	3.665584e-09	3.631097e+01	2.567837e+02
2.870000e-06	5.002787e-06	3.678983e-09	3.657309e+01	2.573889e+02
2.880000e-06	5.038483e-06	3.690389e-09	3.683405e+01	2.579701e+02
2.890000e-06	5.074008e-06	3.695773e-09	3.709375e+01	2.585293e+02
2.900000e-06	5.109171e-06	3.700243e-09	3.735081e+01	2.590687e+02
