# Temperatura_=_20.0
# Concentracion g/m^3_=_9000.0
# C_Vs_to_Am_M_A/Vsm_=_65563218390.804596
# pendiente_HvsI_1/m_=_3716.3
# ordenada_HvsI_A/m_=_1297.0
# frecuencia_Hz_=_135294.39661644932

Tiempo_(s)	Campo_(V.s)	Magnetizacion_(V.s)	Campo_(kA/m)	Magnetizacion_(A/m)
0.000000e+00	-6.508139e-06	-4.488198e-09	-4.763018e+01	-2.811348e+02
1.000000e-08	-6.508220e-06	-4.489228e-09	-4.763078e+01	-2.811811e+02
2.000000e-08	-6.507993e-06	-4.490454e-09	-4.762912e+01	-2.812247e+02
3.000000e-08	-6.507411e-06	-4.490522e-09	-4.762486e+01	-2.812650e+02
4.000000e-08	-6.506371e-06	-4.489630e-09	-4.761724e+01	-2.813015e+02
5.000000e-08	-6.504588e-06	-4.488861e-09	-4.760420e+01	-2.813335e+02
6.000000e-08	-6.501918e-06	-4.485857e-09	-4.758466e+01	-2.813607e+02
7.000000e-08	-6.498611e-06	-4.476925e-09	-4.756046e+01	-2.813825e+02
8.000000e-08	-6.494952e-06	-4.468216e-09	-4.753368e+01	-2.813985e+02
9.000000e-08	-6.490957e-06	-4.491834e-09	-4.750443e+01	-2.814083e+02
1.000000e-07	-6.486388e-06	-4.546988e-09	-4.747100e+01	-2.814118e+02
1.100000e-07	-6.481179e-06	-4.548642e-09	-4.743288e+01	-2.814087e+02
1.200000e-07	-6.475477e-06	-4.438521e-09	-4.739115e+01	-2.813989e+02
1.300000e-07	-6.469538e-06	-4.356369e-09	-4.734768e+01	-2.813823e+02
1.400000e-07	-6.463418e-06	-4.442534e-09	-4.730289e+01	-2.813589e+02
1.500000e-07	-6.456785e-06	-4.561479e-09	-4.725434e+01	-2.813289e+02
1.600000e-07	-6.449519e-06	-4.530872e-09	-4.720117e+01	-2.812924e+02
1.700000e-07	-6.441860e-06	-4.398650e-09	-4.714511e+01	-2.812497e+02
1.800000e-07	-6.433954e-06	-4.381507e-09	-4.708725e+01	-2.812010e+02
1.900000e-07	-6.425793e-06	-4.474904e-09	-4.702753e+01	-2.811467e+02
2.000000e-07	-6.417382e-06	-4.541189e-09	-4.696597e+01	-2.810872e+02
2.100000e-07	-6.408475e-06	-4.485834e-09	-4.690079e+01	-2.810229e+02
2.200000e-07	-6.398634e-06	-4.360348e-09	-4.682876e+01	-2.809544e+02
2.300000e-07	-6.387985e-06	-4.355791e-09	-4.675083e+01	-2.808820e+02
2.400000e-07	-6.376936e-06	-4.471836e-09	-4.666997e+01	-2.808064e+02
2.500000e-07	-6.365412e-06	-4.527245e-09	-4.658563e+01	-2.807279e+02
2.600000e-07	-6.353164e-06	-4.353056e-09	-4.649599e+01	-2.806471e+02
2.700000e-07	-6.340287e-06	-4.253094e-09	-4.640175e+01	-2.805645e+02
2.800000e-07	-6.327036e-06	-4.362533e-09	-4.630477e+01	-2.804803e+02
2.900000e-07	-6.313256e-06	-4.420874e-09	-4.620392e+01	-2.803950e+02
3.000000e-07	-6.298937e-06	-4.240803e-09	-4.609913e+01	-2.803089e+02
3.100000e-07	-6.284161e-06	-4.130590e-09	-4.599099e+01	-2.802222e+02
3.200000e-07	-6.268710e-06	-4.185216e-09	-4.587791e+01	-2.801350e+02
3.300000e-07	-6.252560e-06	-4.175556e-09	-4.575972e+01	-2.800475e+02
3.400000e-07	-6.235949e-06	-4.100602e-09	-4.563815e+01	-2.799595e+02
3.500000e-07	-6.218988e-06	-4.053686e-09	-4.551402e+01	-2.798710e+02
3.600000e-07	-6.201589e-06	-4.011781e-09	-4.538668e+01	-2.797817e+02
3.700000e-07	-6.183815e-06	-4.012006e-09	-4.525660e+01	-2.796913e+02
3.800000e-07	-6.165735e-06	-4.117379e-09	-4.512428e+01	-2.795993e+02
3.900000e-07	-6.147154e-06	-4.113699e-09	-4.498829e+01	-2.795052e+02
4.000000e-07	-6.127927e-06	-3.992847e-09	-4.484758e+01	-2.794083e+02
4.100000e-07	-6.108289e-06	-4.027531e-09	-4.470386e+01	-2.793079e+02
4.200000e-07	-6.088440e-06	-4.169855e-09	-4.455859e+01	-2.792032e+02
4.300000e-07	-6.068313e-06	-4.127781e-09	-4.441129e+01	-2.790931e+02
4.400000e-07	-6.047869e-06	-4.018507e-09	-4.426167e+01	-2.789767e+02
4.500000e-07	-6.027089e-06	-4.059177e-09	-4.410959e+01	-2.788529e+02
4.600000e-07	-6.005907e-06	-4.142999e-09	-4.395457e+01	-2.787206e+02
4.700000e-07	-5.984270e-06	-4.090158e-09	-4.379622e+01	-2.785786e+02
4.800000e-07	-5.962206e-06	-4.027996e-09	-4.363474e+01	-2.784256e+02
4.900000e-07	-5.939756e-06	-4.037032e-09	-4.347044e+01	-2.782606e+02
5.000000e-07	-5.916848e-06	-4.066947e-09	-4.330279e+01	-2.780822e+02
5.100000e-07	-5.893545e-06	-4.059815e-09	-4.313224e+01	-2.778893e+02
5.200000e-07	-5.869981e-06	-4.047497e-09	-4.295979e+01	-2.776806e+02
5.300000e-07	-5.846110e-06	-4.016424e-09	-4.278509e+01	-2.774551e+02
5.400000e-07	-5.821862e-06	-4.009166e-09	-4.260763e+01	-2.772116e+02
5.500000e-07	-5.797176e-06	-4.039451e-09	-4.242696e+01	-2.769493e+02
5.600000e-07	-5.771928e-06	-4.050392e-09	-4.224218e+01	-2.766672e+02
5.700000e-07	-5.745955e-06	-3.997692e-09	-4.205210e+01	-2.763645e+02
5.800000e-07	-5.719259e-06	-3.975181e-09	-4.185672e+01	-2.760405e+02
5.900000e-07	-5.692085e-06	-4.017804e-09	-4.165785e+01	-2.756947e+02
6.000000e-07	-5.664559e-06	-4.035448e-09	-4.145640e+01	-2.753267e+02
6.100000e-07	-5.636724e-06	-3.987415e-09	-4.125268e+01	-2.749363e+02
6.200000e-07	-5.608684e-06	-3.961253e-09	-4.104747e+01	-2.745233e+02
6.300000e-07	-5.580428e-06	-3.989015e-09	-4.084068e+01	-2.740877e+02
6.400000e-07	-5.551807e-06	-4.000496e-09	-4.063121e+01	-2.736298e+02
6.500000e-07	-5.522655e-06	-3.973783e-09	-4.041786e+01	-2.731500e+02
6.600000e-07	-5.493054e-06	-3.946978e-09	-4.020123e+01	-2.726487e+02
6.700000e-07	-5.463166e-06	-3.952508e-09	-3.998249e+01	-2.721267e+02
6.800000e-07	-5.432891e-06	-3.962167e-09	-3.976092e+01	-2.715848e+02
6.900000e-07	-5.402160e-06	-3.957852e-09	-3.953601e+01	-2.710239e+02
7.000000e-07	-5.371056e-06	-3.935096e-09	-3.930838e+01	-2.704451e+02
7.100000e-07	-5.339645e-06	-3.927064e-09	-3.907849e+01	-2.698496e+02
7.200000e-07	-5.307944e-06	-3.933067e-09	-3.884649e+01	-2.692389e+02
7.300000e-07	-5.276003e-06	-3.937644e-09	-3.861273e+01	-2.686141e+02
7.400000e-07	-5.243866e-06	-3.917571e-09	-3.837753e+01	-2.679769e+02
7.500000e-07	-5.211396e-06	-3.898767e-09	-3.813989e+01	-2.673288e+02
7.600000e-07	-5.178445e-06	-3.899856e-09	-3.789874e+01	-2.666712e+02
7.700000e-07	-5.144880e-06	-3.912751e-09	-3.765309e+01	-2.660058e+02
7.800000e-07	-5.110657e-06	-3.896992e-09	-3.740263e+01	-2.653341e+02
7.900000e-07	-5.075869e-06	-3.868949e-09	-3.714804e+01	-2.646577e+02
8.000000e-07	-5.040659e-06	-3.862485e-09	-3.689035e+01	-2.639781e+02
8.100000e-07	-5.005108e-06	-3.877768e-09	-3.663016e+01	-2.632966e+02
8.200000e-07	-4.969266e-06	-3.869318e-09	-3.636785e+01	-2.626145e+02
8.300000e-07	-4.933230e-06	-3.842419e-09	-3.610412e+01	-2.619331e+02
8.400000e-07	-4.896949e-06	-3.834356e-09	-3.583860e+01	-2.612535e+02
8.500000e-07	-4.860313e-06	-3.846480e-09	-3.557048e+01	-2.605766e+02
8.600000e-07	-4.823312e-06	-3.843875e-09	-3.529968e+01	-2.599031e+02
8.700000e-07	-4.785977e-06	-3.820260e-09	-3.502645e+01	-2.592337e+02
8.800000e-07	-4.748376e-06	-3.799247e-09	-3.475126e+01	-2.585687e+02
8.900000e-07	-4.710492e-06	-3.795128e-09	-3.447400e+01	-2.579083e+02
9.000000e-07	-4.672317e-06	-3.795576e-09	-3.419461e+01	-2.572526e+02
9.100000e-07	-4.633841e-06	-3.783347e-09	-3.391303e+01	-2.566013e+02
9.200000e-07	-4.595000e-06	-3.767560e-09	-3.362877e+01	-2.559541e+02
9.300000e-07	-4.555838e-06	-3.759666e-09	-3.334215e+01	-2.553102e+02
9.400000e-07	-4.516382e-06	-3.763921e-09	-3.305340e+01	-2.546688e+02
9.500000e-07	-4.476669e-06	-3.760502e-09	-3.276275e+01	-2.540290e+02
9.600000e-07	-4.436746e-06	-3.739130e-09	-3.247057e+01	-2.533894e+02
9.700000e-07	-4.396595e-06	-3.714837e-09	-3.217673e+01	-2.527486e+02
9.800000e-07	-4.356177e-06	-3.709687e-09	-3.188093e+01	-2.521050e+02
9.900000e-07	-4.315402e-06	-3.706582e-09	-3.158251e+01	-2.514569e+02
1.000000e-06	-4.274117e-06	-3.692687e-09	-3.128037e+01	-2.508024e+02
1.010000e-06	-4.232322e-06	-3.675379e-09	-3.097449e+01	-2.501394e+02
1.020000e-06	-4.190150e-06	-3.670745e-09	-3.066585e+01	-2.494660e+02
1.030000e-06	-4.147517e-06	-3.666948e-09	-3.035384e+01	-2.487799e+02
1.040000e-06	-4.104465e-06	-3.655943e-09	-3.003876e+01	-2.480789e+02
1.050000e-06	-4.061126e-06	-3.637785e-09	-2.972158e+01	-2.473608e+02
1.060000e-06	-4.017519e-06	-3.618897e-09	-2.940244e+01	-2.466234e+02
1.070000e-06	-3.973633e-06	-3.603989e-09	-2.908126e+01	-2.458646e+02
1.080000e-06	-3.929494e-06	-3.592155e-09	-2.875823e+01	-2.450820e+02
1.090000e-06	-3.885240e-06	-3.576914e-09	-2.843435e+01	-2.442739e+02
1.100000e-06	-3.840865e-06	-3.558967e-09	-2.810959e+01	-2.434381e+02
1.110000e-06	-3.796162e-06	-3.542820e-09	-2.778243e+01	-2.425730e+02
1.120000e-06	-3.751126e-06	-3.531456e-09	-2.745283e+01	-2.416769e+02
1.130000e-06	-3.705837e-06	-3.520258e-09	-2.712138e+01	-2.407484e+02
1.140000e-06	-3.660261e-06	-3.504832e-09	-2.678783e+01	-2.397862e+02
1.150000e-06	-3.614416e-06	-3.486587e-09	-2.645231e+01	-2.387892e+02
1.160000e-06	-3.568284e-06	-3.471540e-09	-2.611469e+01	-2.377568e+02
1.170000e-06	-3.521934e-06	-3.459616e-09	-2.577547e+01	-2.366882e+02
1.180000e-06	-3.475416e-06	-3.444367e-09	-2.543503e+01	-2.355833e+02
1.190000e-06	-3.428681e-06	-3.424881e-09	-2.509300e+01	-2.344419e+02
1.200000e-06	-3.381646e-06	-3.405752e-09	-2.474877e+01	-2.332642e+02
1.210000e-06	-3.334363e-06	-3.390490e-09	-2.440272e+01	-2.320508e+02
1.220000e-06	-3.286899e-06	-3.375077e-09	-2.405536e+01	-2.308021e+02
1.230000e-06	-3.239204e-06	-3.357110e-09	-2.370630e+01	-2.295192e+02
1.240000e-06	-3.191348e-06	-3.337617e-09	-2.335606e+01	-2.282032e+02
1.250000e-06	-3.143320e-06	-3.322005e-09	-2.300457e+01	-2.268554e+02
1.260000e-06	-3.095065e-06	-3.307614e-09	-2.265141e+01	-2.254773e+02
1.270000e-06	-3.046530e-06	-3.289153e-09	-2.229620e+01	-2.240707e+02
1.280000e-06	-2.997595e-06	-3.265815e-09	-2.193807e+01	-2.226372e+02
1.290000e-06	-2.948423e-06	-3.245141e-09	-2.157820e+01	-2.211787e+02
1.300000e-06	-2.899076e-06	-3.225297e-09	-2.121705e+01	-2.196973e+02
1.310000e-06	-2.849385e-06	-3.201704e-09	-2.085338e+01	-2.181949e+02
1.320000e-06	-2.799314e-06	-3.177101e-09	-2.048694e+01	-2.166734e+02
1.330000e-06	-2.748909e-06	-3.157314e-09	-2.011805e+01	-2.151349e+02
1.340000e-06	-2.698167e-06	-3.138812e-09	-1.974669e+01	-2.135811e+02
1.350000e-06	-2.647110e-06	-3.116989e-09	-1.937302e+01	-2.120138e+02
1.360000e-06	-2.595780e-06	-3.092400e-09	-1.899736e+01	-2.104345e+02
1.370000e-06	-2.544214e-06	-3.069360e-09	-1.861998e+01	-2.088446e+02
1.380000e-06	-2.492441e-06	-3.047370e-09	-1.824107e+01	-2.072451e+02
1.390000e-06	-2.440514e-06	-3.025131e-09	-1.786104e+01	-2.056370e+02
1.400000e-06	-2.388487e-06	-3.002288e-09	-1.748028e+01	-2.040207e+02
1.410000e-06	-2.336329e-06	-2.979638e-09	-1.709856e+01	-2.023963e+02
1.420000e-06	-2.284016e-06	-2.955037e-09	-1.671570e+01	-2.007637e+02
1.430000e-06	-2.231532e-06	-2.927999e-09	-1.633159e+01	-1.991223e+02
1.440000e-06	-2.178902e-06	-2.902205e-09	-1.594642e+01	-1.974709e+02
1.450000e-06	-2.126120e-06	-2.877435e-09	-1.556013e+01	-1.958081e+02
1.460000e-06	-2.073198e-06	-2.850832e-09	-1.517282e+01	-1.941319e+02
1.470000e-06	-2.020096e-06	-2.822423e-09	-1.478418e+01	-1.924398e+02
1.480000e-06	-1.966793e-06	-2.796042e-09	-1.439408e+01	-1.907290e+02
1.490000e-06	-1.913321e-06	-2.770580e-09	-1.400275e+01	-1.889959e+02
1.500000e-06	-1.859744e-06	-2.743887e-09	-1.361064e+01	-1.872368e+02
1.510000e-06	-1.806052e-06	-2.717248e-09	-1.321769e+01	-1.854472e+02
1.520000e-06	-1.752155e-06	-2.689145e-09	-1.282325e+01	-1.836224e+02
1.530000e-06	-1.698136e-06	-2.656736e-09	-1.242790e+01	-1.817571e+02
1.540000e-06	-1.644085e-06	-2.622287e-09	-1.203233e+01	-1.798456e+02
1.550000e-06	-1.589969e-06	-2.587033e-09	-1.163628e+01	-1.778820e+02
1.560000e-06	-1.535717e-06	-2.549162e-09	-1.123923e+01	-1.758599e+02
1.570000e-06	-1.481354e-06	-2.509722e-09	-1.084138e+01	-1.737725e+02
1.580000e-06	-1.426946e-06	-2.473098e-09	-1.044318e+01	-1.716132e+02
1.590000e-06	-1.372446e-06	-2.438030e-09	-1.004432e+01	-1.693747e+02
1.600000e-06	-1.317866e-06	-2.402353e-09	-9.644876e+00	-1.670497e+02
1.610000e-06	-1.263247e-06	-2.366514e-09	-9.245142e+00	-1.646311e+02
1.620000e-06	-1.208529e-06	-2.324762e-09	-8.844689e+00	-1.621114e+02
1.630000e-06	-1.153619e-06	-2.281097e-09	-8.442829e+00	-1.594834e+02
1.640000e-06	-1.098561e-06	-2.241177e-09	-8.039878e+00	-1.567398e+02
1.650000e-06	-1.043455e-06	-2.201103e-09	-7.636581e+00	-1.538737e+02
1.660000e-06	-9.883506e-07	-2.154163e-09	-7.233300e+00	-1.508781e+02
1.670000e-06	-9.332196e-07	-2.105622e-09	-6.829821e+00	-1.477467e+02
1.680000e-06	-8.779826e-07	-2.061330e-09	-6.425565e+00	-1.444734e+02
1.690000e-06	-8.226992e-07	-2.015644e-09	-6.020970e+00	-1.410524e+02
1.700000e-06	-7.673913e-07	-1.967450e-09	-5.616197e+00	-1.374785e+02
1.710000e-06	-7.120531e-07	-1.916379e-09	-5.211201e+00	-1.337473e+02
1.720000e-06	-6.566334e-07	-1.860545e-09	-4.805609e+00	-1.298546e+02
1.730000e-06	-6.011681e-07	-1.802747e-09	-4.399683e+00	-1.257971e+02
1.740000e-06	-5.457202e-07	-1.745345e-09	-3.993884e+00	-1.215722e+02
1.750000e-06	-4.902442e-07	-1.683415e-09	-3.587880e+00	-1.171782e+02
1.760000e-06	-4.347722e-07	-1.616257e-09	-3.181905e+00	-1.126138e+02
1.770000e-06	-3.792671e-07	-1.545313e-09	-2.775688e+00	-1.078791e+02
1.780000e-06	-3.237505e-07	-1.472765e-09	-2.369386e+00	-1.029745e+02
1.790000e-06	-2.682364e-07	-1.400604e-09	-1.963103e+00	-9.790170e+01
1.800000e-06	-2.126799e-07	-1.326864e-09	-1.556510e+00	-9.266312e+01
1.810000e-06	-1.570674e-07	-1.248937e-09	-1.149507e+00	-8.726211e+01
1.820000e-06	-1.014670e-07	-1.167185e-09	-7.425917e-01	-8.170295e+01
1.830000e-06	-4.585970e-08	-1.082287e-09	-3.356268e-01	-7.599079e+01
1.840000e-06	9.723231e-09	-9.963077e-10	7.116002e-02	-7.013168e+01
1.850000e-06	6.527179e-08	-9.080087e-10	4.776953e-01	-6.413254e+01
1.860000e-06	1.208466e-07	-8.160263e-10	8.844229e-01	-5.800110e+01
1.870000e-06	1.764606e-07	-7.222407e-10	1.291437e+00	-5.174591e+01
1.880000e-06	2.321440e-07	-6.275833e-10	1.698959e+00	-4.537626e+01
1.890000e-06	2.877546e-07	-5.323982e-10	2.105948e+00	-3.890216e+01
1.900000e-06	3.432447e-07	-4.348590e-10	2.512056e+00	-3.233425e+01
1.910000e-06	3.987519e-07	-3.344700e-10	2.918288e+00	-2.568377e+01
1.920000e-06	4.543017e-07	-2.324559e-10	3.324833e+00	-1.896250e+01
1.930000e-06	5.097858e-07	-1.295235e-10	3.730896e+00	-1.218265e+01
1.940000e-06	5.651949e-07	-2.371440e-11	4.136411e+00	-5.356822e+00
1.950000e-06	6.205716e-07	8.517211e-11	4.541689e+00	1.502081e+00
1.960000e-06	6.759004e-07	1.933203e-10	4.946616e+00	8.380930e+00
1.970000e-06	7.311380e-07	2.999345e-10	5.350875e+00	1.526646e+01
1.980000e-06	7.863645e-07	4.060195e-10	5.755053e+00	2.214533e+01
1.990000e-06	8.415925e-07	5.119108e-10	6.159243e+00	2.900425e+01
2.000000e-06	8.967729e-07	6.166071e-10	6.563083e+00	3.583002e+01
2.010000e-06	9.518974e-07	7.200838e-10	6.966515e+00	4.260964e+01
2.020000e-06	1.006903e-06	8.221931e-10	7.369075e+00	4.933036e+01
2.030000e-06	1.061835e-06	9.259949e-10	7.771099e+00	5.597982e+01
2.040000e-06	1.116785e-06	1.029325e-09	8.173253e+00	6.254605e+01
2.050000e-06	1.171692e-06	1.127901e-09	8.575094e+00	6.901759e+01
2.060000e-06	1.226489e-06	1.224041e-09	8.976131e+00	7.538355e+01
2.070000e-06	1.281189e-06	1.316995e-09	9.376453e+00	8.163367e+01
2.080000e-06	1.335777e-06	1.406512e-09	9.775959e+00	8.775835e+01
2.090000e-06	1.390275e-06	1.493518e-09	1.017481e+01	9.374877e+01
2.100000e-06	1.444661e-06	1.580616e-09	1.057283e+01	9.959687e+01
2.110000e-06	1.498961e-06	1.667408e-09	1.097023e+01	1.052954e+02
2.120000e-06	1.553125e-06	1.750467e-09	1.136663e+01	1.108380e+02
2.130000e-06	1.607103e-06	1.828631e-09	1.176167e+01	1.162192e+02
2.140000e-06	1.661041e-06	1.902020e-09	1.215642e+01	1.214343e+02
2.150000e-06	1.714917e-06	1.971765e-09	1.255072e+01	1.264797e+02
2.160000e-06	1.768622e-06	2.037575e-09	1.294376e+01	1.313526e+02
2.170000e-06	1.822178e-06	2.098190e-09	1.333571e+01	1.360511e+02
2.180000e-06	1.875648e-06	2.156046e-09	1.372704e+01	1.405744e+02
2.190000e-06	1.929004e-06	2.214322e-09	1.411753e+01	1.449222e+02
2.200000e-06	1.982215e-06	2.270642e-09	1.450695e+01	1.490954e+02
2.210000e-06	2.035317e-06	2.324263e-09	1.489558e+01	1.530956e+02
2.220000e-06	2.088278e-06	2.376270e-09	1.528318e+01	1.569252e+02
2.230000e-06	2.141088e-06	2.425352e-09	1.566968e+01	1.605873e+02
2.240000e-06	2.193708e-06	2.471540e-09	1.605477e+01	1.640857e+02
2.250000e-06	2.246069e-06	2.514972e-09	1.643798e+01	1.674251e+02
2.260000e-06	2.298323e-06	2.554754e-09	1.682041e+01	1.706104e+02
2.270000e-06	2.350550e-06	2.593875e-09	1.720263e+01	1.736473e+02
2.280000e-06	2.402589e-06	2.634853e-09	1.758349e+01	1.765418e+02
2.290000e-06	2.454363e-06	2.671499e-09	1.796239e+01	1.793006e+02
2.300000e-06	2.505964e-06	2.703868e-09	1.834004e+01	1.819304e+02
2.310000e-06	2.557376e-06	2.738807e-09	1.871630e+01	1.844383e+02
2.320000e-06	2.608554e-06	2.775236e-09	1.909085e+01	1.868317e+02
2.330000e-06	2.659547e-06	2.808516e-09	1.946404e+01	1.891181e+02
2.340000e-06	2.710281e-06	2.837281e-09	1.983535e+01	1.913049e+02
2.350000e-06	2.760653e-06	2.866726e-09	2.020400e+01	1.933998e+02
2.360000e-06	2.810676e-06	2.898051e-09	2.057009e+01	1.954102e+02
2.370000e-06	2.860290e-06	2.927478e-09	2.093320e+01	1.973435e+02
2.380000e-06	2.909546e-06	2.952591e-09	2.129368e+01	1.992069e+02
2.390000e-06	2.958523e-06	2.975692e-09	2.165212e+01	2.010074e+02
2.400000e-06	3.007169e-06	3.001298e-09	2.200814e+01	2.027518e+02
2.410000e-06	3.055551e-06	3.030006e-09	2.236222e+01	2.044463e+02
2.420000e-06	3.103740e-06	3.056036e-09	2.271490e+01	2.060970e+02
2.430000e-06	3.151755e-06	3.078145e-09	2.306630e+01	2.077097e+02
2.440000e-06	3.199571e-06	3.103940e-09	2.341624e+01	2.092894e+02
2.450000e-06	3.247227e-06	3.132634e-09	2.376501e+01	2.108410e+02
2.460000e-06	3.294758e-06	3.158514e-09	2.411287e+01	2.123687e+02
2.470000e-06	3.342135e-06	3.179787e-09	2.445960e+01	2.138764e+02
2.480000e-06	3.389229e-06	3.200289e-09	2.480426e+01	2.153674e+02
2.490000e-06	3.436041e-06	3.224183e-09	2.514686e+01	2.168446e+02
2.500000e-06	3.482624e-06	3.247230e-09	2.548778e+01	2.183102e+02
2.510000e-06	3.528957e-06	3.267424e-09	2.582687e+01	2.197662e+02
2.520000e-06	3.574996e-06	3.289776e-09	2.616381e+01	2.212140e+02
2.530000e-06	3.620740e-06	3.314392e-09	2.649859e+01	2.226546e+02
2.540000e-06	3.666297e-06	3.334978e-09	2.683201e+01	2.240883e+02
2.550000e-06	3.711627e-06	3.350603e-09	2.716376e+01	2.255154e+02
2.560000e-06	3.756668e-06	3.364279e-09	2.749338e+01	2.269355e+02
2.570000e-06	3.801420e-06	3.377965e-09	2.782091e+01	2.283481e+02
2.580000e-06	3.845945e-06	3.392914e-09	2.814676e+01	2.297523e+02
2.590000e-06	3.890267e-06	3.407820e-09	2.847114e+01	2.311467e+02
2.600000e-06	3.934437e-06	3.424521e-09	2.879440e+01	2.325301e+02
2.610000e-06	3.978429e-06	3.444847e-09	2.911636e+01	2.339006e+02
2.620000e-06	4.022218e-06	3.465400e-09	2.943683e+01	2.352567e+02
2.630000e-06	4.065813e-06	3.483483e-09	2.975589e+01	2.365962e+02
2.640000e-06	4.109129e-06	3.499882e-09	3.007290e+01	2.379172e+02
2.650000e-06	4.152135e-06	3.516148e-09	3.038764e+01	2.392178e+02
2.660000e-06	4.194736e-06	3.531467e-09	3.069941e+01	2.404957e+02
2.670000e-06	4.236825e-06	3.545437e-09	3.100745e+01	2.417491e+02
2.680000e-06	4.278359e-06	3.558059e-09	3.131142e+01	2.429759e+02
2.690000e-06	4.319425e-06	3.571251e-09	3.161196e+01	2.441743e+02
2.700000e-06	4.360044e-06	3.587796e-09	3.190923e+01	2.453427e+02
2.710000e-06	4.400279e-06	3.606065e-09	3.220369e+01	2.464793e+02
2.720000e-06	4.440330e-06	3.620843e-09	3.249681e+01	2.475829e+02
2.730000e-06	4.480166e-06	3.632087e-09	3.278835e+01	2.486523e+02
2.740000e-06	4.519805e-06	3.644368e-09	3.307845e+01	2.496865e+02
2.750000e-06	4.559240e-06	3.656679e-09	3.336706e+01	2.506848e+02
2.760000e-06	4.598324e-06	3.665586e-09	3.365309e+01	2.516466e+02
2.770000e-06	4.637071e-06	3.672830e-09	3.393667e+01	2.525717e+02
2.780000e-06	4.675490e-06	3.682423e-09	3.421784e+01	2.534601e+02
2.790000e-06	4.713586e-06	3.694431e-09	3.449664e+01	2.543121e+02
2.800000e-06	4.751444e-06	3.706458e-09	3.477371e+01	2.551280e+02
2.810000e-06	4.789009e-06	3.715947e-09	3.504863e+01	2.559087e+02
2.820000e-06	4.826222e-06	3.725998e-09	3.532098e+01	2.566551e+02
2.830000e-06	4.863031e-06	3.739098e-09	3.559037e+01	2.573683e+02
2.840000e-06	4.899401e-06	3.749386e-09	3.585654e+01	2.580497e+02
2.850000e-06	4.935483e-06	3.756465e-09	3.612062e+01	2.587008e+02
2.860000e-06	4.971438e-06	3.765237e-09	3.638375e+01	2.593232e+02
2.870000e-06	5.007228e-06	3.776797e-09	3.664568e+01	2.599188e+02
2.880000e-06	5.042758e-06	3.784804e-09	3.690571e+01	2.604896e+02
2.890000e-06	5.077933e-06	3.792250e-09	3.716314e+01	2.610375e+02
2.900000e-06	5.112650e-06	3.801156e-09	3.741722e+01	2.615645e+02
