# Temperatura_=_20.0
# Concentracion g/m^3_=_9000.0
# C_Vs_to_Am_M_A/Vsm_=_65563218390.804596
# pendiente_HvsI_1/m_=_3716.3
# ordenada_HvsI_A/m_=_1297.0
# frecuencia_Hz_=_135292.90645581292

Tiempo_(s)	Campo_(V.s)	Magnetizacion_(V.s)	Campo_(kA/m)	Magnetizacion_(A/m)
0.000000e+00	-6.495075e-06	-4.508158e-09	-4.763416e+01	-2.761535e+02
1.000000e-08	-6.495257e-06	-4.507495e-09	-4.763550e+01	-2.763042e+02
2.000000e-08	-6.495191e-06	-4.508357e-09	-4.763502e+01	-2.764668e+02
3.000000e-08	-6.494789e-06	-4.511760e-09	-4.763207e+01	-2.766407e+02
4.000000e-08	-6.493874e-06	-4.515632e-09	-4.762536e+01	-2.768253e+02
5.000000e-08	-6.492316e-06	-4.518837e-09	-4.761393e+01	-2.770199e+02
6.000000e-08	-6.490112e-06	-4.518386e-09	-4.759777e+01	-2.772235e+02
7.000000e-08	-6.487190e-06	-4.513866e-09	-4.757634e+01	-2.774354e+02
8.000000e-08	-6.483660e-06	-4.511626e-09	-4.755045e+01	-2.776545e+02
9.000000e-08	-6.479787e-06	-4.523406e-09	-4.752204e+01	-2.778799e+02
1.000000e-07	-6.475450e-06	-4.544852e-09	-4.749024e+01	-2.781106e+02
1.100000e-07	-6.470478e-06	-4.534546e-09	-4.745377e+01	-2.783455e+02
1.200000e-07	-6.464893e-06	-4.485371e-09	-4.741281e+01	-2.785836e+02
1.300000e-07	-6.458905e-06	-4.468400e-09	-4.736890e+01	-2.788238e+02
1.400000e-07	-6.452698e-06	-4.538174e-09	-4.732338e+01	-2.790650e+02
1.500000e-07	-6.446174e-06	-4.573262e-09	-4.727553e+01	-2.793063e+02
1.600000e-07	-6.439208e-06	-4.535610e-09	-4.722445e+01	-2.795466e+02
1.700000e-07	-6.431834e-06	-4.490343e-09	-4.717036e+01	-2.797849e+02
1.800000e-07	-6.424139e-06	-4.524879e-09	-4.711393e+01	-2.800202e+02
1.900000e-07	-6.416167e-06	-4.564277e-09	-4.705546e+01	-2.802516e+02
2.000000e-07	-6.407940e-06	-4.572535e-09	-4.699513e+01	-2.804781e+02
2.100000e-07	-6.399254e-06	-4.524718e-09	-4.693143e+01	-2.806989e+02
2.200000e-07	-6.389791e-06	-4.491557e-09	-4.686203e+01	-2.809132e+02
2.300000e-07	-6.379482e-06	-4.517368e-09	-4.678642e+01	-2.811201e+02
2.400000e-07	-6.368596e-06	-4.574637e-09	-4.670658e+01	-2.813189e+02
2.500000e-07	-6.357231e-06	-4.545623e-09	-4.662324e+01	-2.815089e+02
2.600000e-07	-6.345219e-06	-4.425340e-09	-4.653514e+01	-2.816893e+02
2.700000e-07	-6.332593e-06	-4.387534e-09	-4.644255e+01	-2.818596e+02
2.800000e-07	-6.319583e-06	-4.454207e-09	-4.634713e+01	-2.820190e+02
2.900000e-07	-6.306136e-06	-4.439359e-09	-4.624851e+01	-2.821671e+02
3.000000e-07	-6.292098e-06	-4.308497e-09	-4.614555e+01	-2.823032e+02
3.100000e-07	-6.277548e-06	-4.245106e-09	-4.603885e+01	-2.824268e+02
3.200000e-07	-6.262457e-06	-4.242772e-09	-4.592818e+01	-2.825374e+02
3.300000e-07	-6.246722e-06	-4.173402e-09	-4.581277e+01	-2.826344e+02
3.400000e-07	-6.230376e-06	-4.087290e-09	-4.569289e+01	-2.827173e+02
3.500000e-07	-6.213534e-06	-4.054604e-09	-4.556938e+01	-2.827858e+02
3.600000e-07	-6.196207e-06	-4.010022e-09	-4.544230e+01	-2.828392e+02
3.700000e-07	-6.178585e-06	-4.019290e-09	-4.531306e+01	-2.828772e+02
3.800000e-07	-6.160688e-06	-4.049452e-09	-4.518181e+01	-2.828992e+02
3.900000e-07	-6.142337e-06	-4.030037e-09	-4.504723e+01	-2.829049e+02
4.000000e-07	-6.123440e-06	-3.964000e-09	-4.490863e+01	-2.828936e+02
4.100000e-07	-6.103999e-06	-4.022941e-09	-4.476605e+01	-2.828651e+02
4.200000e-07	-6.084204e-06	-4.075583e-09	-4.462089e+01	-2.828188e+02
4.300000e-07	-6.064169e-06	-4.029143e-09	-4.447395e+01	-2.827544e+02
4.400000e-07	-6.043895e-06	-3.996067e-09	-4.432526e+01	-2.826714e+02
4.500000e-07	-6.023325e-06	-4.064874e-09	-4.417440e+01	-2.825694e+02
4.600000e-07	-6.002460e-06	-4.095972e-09	-4.402138e+01	-2.824480e+02
4.700000e-07	-5.981156e-06	-4.039500e-09	-4.386514e+01	-2.823068e+02
4.800000e-07	-5.959276e-06	-4.011340e-09	-4.370468e+01	-2.821456e+02
4.900000e-07	-5.937016e-06	-4.041466e-09	-4.354142e+01	-2.819640e+02
5.000000e-07	-5.914424e-06	-4.038211e-09	-4.337574e+01	-2.817617e+02
5.100000e-07	-5.891336e-06	-4.017768e-09	-4.320641e+01	-2.815386e+02
5.200000e-07	-5.867823e-06	-4.026572e-09	-4.303397e+01	-2.812944e+02
5.300000e-07	-5.844002e-06	-4.009174e-09	-4.285927e+01	-2.810291e+02
5.400000e-07	-5.819934e-06	-3.986281e-09	-4.268276e+01	-2.807426e+02
5.500000e-07	-5.795585e-06	-4.014181e-09	-4.250418e+01	-2.804349e+02
5.600000e-07	-5.770689e-06	-4.033549e-09	-4.232160e+01	-2.801061e+02
5.700000e-07	-5.745123e-06	-3.984281e-09	-4.213410e+01	-2.797563e+02
5.800000e-07	-5.718855e-06	-3.972173e-09	-4.194146e+01	-2.793858e+02
5.900000e-07	-5.691939e-06	-4.007562e-09	-4.174405e+01	-2.789949e+02
6.000000e-07	-5.664602e-06	-4.009360e-09	-4.154357e+01	-2.785841e+02
6.100000e-07	-5.636930e-06	-3.971821e-09	-4.134063e+01	-2.781537e+02
6.200000e-07	-5.608973e-06	-3.967969e-09	-4.113559e+01	-2.777044e+02
6.300000e-07	-5.580806e-06	-3.975748e-09	-4.092902e+01	-2.772369e+02
6.400000e-07	-5.552374e-06	-3.973658e-09	-4.072050e+01	-2.767518e+02
6.500000e-07	-5.523555e-06	-3.962949e-09	-4.050915e+01	-2.762500e+02
6.600000e-07	-5.494280e-06	-3.960209e-09	-4.029445e+01	-2.757325e+02
6.700000e-07	-5.464575e-06	-3.951871e-09	-4.007659e+01	-2.752001e+02
6.800000e-07	-5.434463e-06	-3.947085e-09	-3.985575e+01	-2.746540e+02
6.900000e-07	-5.403974e-06	-3.945128e-09	-3.963215e+01	-2.740951e+02
7.000000e-07	-5.373120e-06	-3.945856e-09	-3.940587e+01	-2.735247e+02
7.100000e-07	-5.341878e-06	-3.934964e-09	-3.917675e+01	-2.729440e+02
7.200000e-07	-5.310316e-06	-3.925895e-09	-3.894527e+01	-2.723540e+02
7.300000e-07	-5.278480e-06	-3.927183e-09	-3.871179e+01	-2.717561e+02
7.400000e-07	-5.246431e-06	-3.925317e-09	-3.847675e+01	-2.711514e+02
7.500000e-07	-5.214190e-06	-3.910124e-09	-3.824030e+01	-2.705412e+02
7.600000e-07	-5.181623e-06	-3.904383e-09	-3.800145e+01	-2.699266e+02
7.700000e-07	-5.148582e-06	-3.907027e-09	-3.775914e+01	-2.693088e+02
7.800000e-07	-5.114948e-06	-3.896175e-09	-3.751247e+01	-2.686888e+02
7.900000e-07	-5.080694e-06	-3.884282e-09	-3.726125e+01	-2.680677e+02
8.000000e-07	-5.045927e-06	-3.884315e-09	-3.700627e+01	-2.674463e+02
8.100000e-07	-5.010707e-06	-3.879940e-09	-3.674797e+01	-2.668256e+02
8.200000e-07	-4.975101e-06	-3.862847e-09	-3.648685e+01	-2.662063e+02
8.300000e-07	-4.939204e-06	-3.855415e-09	-3.622358e+01	-2.655889e+02
8.400000e-07	-4.903049e-06	-3.855101e-09	-3.595842e+01	-2.649740e+02
8.500000e-07	-4.866663e-06	-3.848797e-09	-3.569157e+01	-2.643619e+02
8.600000e-07	-4.829906e-06	-3.833686e-09	-3.542200e+01	-2.637527e+02
8.700000e-07	-4.792705e-06	-3.823349e-09	-3.514917e+01	-2.631466e+02
8.800000e-07	-4.755195e-06	-3.816284e-09	-3.487408e+01	-2.625433e+02
8.900000e-07	-4.717409e-06	-3.809156e-09	-3.459696e+01	-2.619426e+02
9.000000e-07	-4.679313e-06	-3.796074e-09	-3.431757e+01	-2.613441e+02
9.100000e-07	-4.640952e-06	-3.783065e-09	-3.403623e+01	-2.607470e+02
9.200000e-07	-4.602297e-06	-3.769604e-09	-3.375274e+01	-2.601506e+02
9.300000e-07	-4.563215e-06	-3.761179e-09	-3.346611e+01	-2.595539e+02
9.400000e-07	-4.523803e-06	-3.755053e-09	-3.317708e+01	-2.589558e+02
9.500000e-07	-4.484162e-06	-3.747251e-09	-3.288635e+01	-2.583551e+02
9.600000e-07	-4.444320e-06	-3.731376e-09	-3.259415e+01	-2.577503e+02
9.700000e-07	-4.404309e-06	-3.718145e-09	-3.230072e+01	-2.571399e+02
9.800000e-07	-4.364051e-06	-3.710489e-09	-3.200547e+01	-2.565223e+02
9.900000e-07	-4.323488e-06	-3.701616e-09	-3.170798e+01	-2.558957e+02
1.000000e-06	-4.282630e-06	-3.686068e-09	-3.140833e+01	-2.552583e+02
1.010000e-06	-4.241342e-06	-3.672554e-09	-3.110553e+01	-2.546083e+02
1.020000e-06	-4.199490e-06	-3.666340e-09	-3.079860e+01	-2.539436e+02
1.030000e-06	-4.157201e-06	-3.659478e-09	-3.048846e+01	-2.532624e+02
1.040000e-06	-4.114473e-06	-3.647003e-09	-3.017509e+01	-2.525627e+02
1.050000e-06	-4.071300e-06	-3.633245e-09	-2.985847e+01	-2.518426e+02
1.060000e-06	-4.027841e-06	-3.618600e-09	-2.953974e+01	-2.511002e+02
1.070000e-06	-3.984152e-06	-3.603850e-09	-2.921933e+01	-2.503336e+02
1.080000e-06	-3.940262e-06	-3.593323e-09	-2.889745e+01	-2.495411e+02
1.090000e-06	-3.896145e-06	-3.580702e-09	-2.857390e+01	-2.487212e+02
1.100000e-06	-3.851728e-06	-3.565367e-09	-2.824815e+01	-2.478722e+02
1.110000e-06	-3.807039e-06	-3.554070e-09	-2.792041e+01	-2.469929e+02
1.120000e-06	-3.762094e-06	-3.546504e-09	-2.759078e+01	-2.460819e+02
1.130000e-06	-3.716905e-06	-3.534248e-09	-2.725938e+01	-2.451384e+02
1.140000e-06	-3.671514e-06	-3.517155e-09	-2.692648e+01	-2.441614e+02
1.150000e-06	-3.625924e-06	-3.500713e-09	-2.659213e+01	-2.431504e+02
1.160000e-06	-3.580099e-06	-3.488565e-09	-2.625605e+01	-2.421048e+02
1.170000e-06	-3.534012e-06	-3.473885e-09	-2.591805e+01	-2.410245e+02
1.180000e-06	-3.487708e-06	-3.457830e-09	-2.557846e+01	-2.399096e+02
1.190000e-06	-3.441246e-06	-3.441807e-09	-2.523772e+01	-2.387601e+02
1.200000e-06	-3.394459e-06	-3.426616e-09	-2.489459e+01	-2.375767e+02
1.210000e-06	-3.347267e-06	-3.412007e-09	-2.454849e+01	-2.363599e+02
1.220000e-06	-3.299789e-06	-3.398032e-09	-2.420029e+01	-2.351107e+02
1.230000e-06	-3.252148e-06	-3.381457e-09	-2.385089e+01	-2.338300e+02
1.240000e-06	-3.204384e-06	-3.363060e-09	-2.350060e+01	-2.325191e+02
1.250000e-06	-3.156428e-06	-3.344151e-09	-2.314890e+01	-2.311795e+02
1.260000e-06	-3.108284e-06	-3.326712e-09	-2.279581e+01	-2.298126e+02
1.270000e-06	-3.059972e-06	-3.309045e-09	-2.244150e+01	-2.284202e+02
1.280000e-06	-3.011390e-06	-3.288232e-09	-2.208520e+01	-2.270039e+02
1.290000e-06	-2.962464e-06	-3.267380e-09	-2.172638e+01	-2.255655e+02
1.300000e-06	-2.913257e-06	-3.249068e-09	-2.136551e+01	-2.241070e+02
1.310000e-06	-2.863847e-06	-3.227658e-09	-2.100314e+01	-2.226301e+02
1.320000e-06	-2.814193e-06	-3.203708e-09	-2.063898e+01	-2.211365e+02
1.330000e-06	-2.764177e-06	-3.182856e-09	-2.027217e+01	-2.196282e+02
1.340000e-06	-2.713847e-06	-3.164587e-09	-1.990306e+01	-2.181066e+02
1.350000e-06	-2.663197e-06	-3.144265e-09	-1.953159e+01	-2.165733e+02
1.360000e-06	-2.612149e-06	-3.121238e-09	-1.915721e+01	-2.150295e+02
1.370000e-06	-2.560768e-06	-3.100028e-09	-1.878039e+01	-2.134764e+02
1.380000e-06	-2.509201e-06	-3.080123e-09	-1.840220e+01	-2.119148e+02
1.390000e-06	-2.457553e-06	-3.058885e-09	-1.802343e+01	-2.103453e+02
1.400000e-06	-2.405799e-06	-3.035108e-09	-1.764387e+01	-2.087681e+02
1.410000e-06	-2.353875e-06	-3.011836e-09	-1.726306e+01	-2.071832e+02
1.420000e-06	-2.301811e-06	-2.988843e-09	-1.688123e+01	-2.055902e+02
1.430000e-06	-2.249605e-06	-2.964567e-09	-1.649835e+01	-2.039881e+02
1.440000e-06	-2.197224e-06	-2.941056e-09	-1.611420e+01	-2.023757e+02
1.450000e-06	-2.144644e-06	-2.917772e-09	-1.572858e+01	-2.007515e+02
1.460000e-06	-2.091908e-06	-2.894031e-09	-1.534183e+01	-1.991132e+02
1.470000e-06	-2.039002e-06	-2.870056e-09	-1.495382e+01	-1.974583e+02
1.480000e-06	-1.985908e-06	-2.844040e-09	-1.456443e+01	-1.957839e+02
1.490000e-06	-1.932751e-06	-2.818030e-09	-1.417458e+01	-1.940864e+02
1.500000e-06	-1.879440e-06	-2.791637e-09	-1.378361e+01	-1.923620e+02
1.510000e-06	-1.825874e-06	-2.764043e-09	-1.339076e+01	-1.906064e+02
1.520000e-06	-1.772193e-06	-2.736202e-09	-1.299707e+01	-1.888148e+02
1.530000e-06	-1.718475e-06	-2.706840e-09	-1.260311e+01	-1.869820e+02
1.540000e-06	-1.664657e-06	-2.673962e-09	-1.220841e+01	-1.851025e+02
1.550000e-06	-1.610775e-06	-2.637615e-09	-1.181325e+01	-1.831705e+02
1.560000e-06	-1.556789e-06	-2.597504e-09	-1.141732e+01	-1.811798e+02
1.570000e-06	-1.502640e-06	-2.559497e-09	-1.102020e+01	-1.791239e+02
1.580000e-06	-1.448377e-06	-2.526199e-09	-1.062224e+01	-1.769962e+02
1.590000e-06	-1.394068e-06	-2.493659e-09	-1.022394e+01	-1.747898e+02
1.600000e-06	-1.339667e-06	-2.458566e-09	-9.824968e+00	-1.724978e+02
1.610000e-06	-1.285074e-06	-2.421596e-09	-9.424589e+00	-1.701130e+02
1.620000e-06	-1.230394e-06	-2.382407e-09	-9.023574e+00	-1.676285e+02
1.630000e-06	-1.175721e-06	-2.342050e-09	-8.622609e+00	-1.650371e+02
1.640000e-06	-1.120968e-06	-2.301791e-09	-8.221055e+00	-1.623320e+02
1.650000e-06	-1.066075e-06	-2.257868e-09	-7.818479e+00	-1.595063e+02
1.660000e-06	-1.011041e-06	-2.210996e-09	-7.414863e+00	-1.565536e+02
1.670000e-06	-9.559059e-07	-2.164994e-09	-7.010509e+00	-1.534676e+02
1.680000e-06	-9.007247e-07	-2.119957e-09	-6.605816e+00	-1.502423e+02
1.690000e-06	-8.455059e-07	-2.073820e-09	-6.200847e+00	-1.468722e+02
1.700000e-06	-7.902558e-07	-2.026319e-09	-5.795649e+00	-1.433524e+02
1.710000e-06	-7.349822e-07	-1.977354e-09	-5.390279e+00	-1.396783e+02
1.720000e-06	-6.796365e-07	-1.925401e-09	-4.984380e+00	-1.358460e+02
1.730000e-06	-6.242187e-07	-1.869480e-09	-4.577951e+00	-1.318522e+02
1.740000e-06	-5.687691e-07	-1.810706e-09	-4.171290e+00	-1.276943e+02
1.750000e-06	-5.133094e-07	-1.748604e-09	-3.764555e+00	-1.233704e+02
1.760000e-06	-4.578413e-07	-1.684034e-09	-3.357758e+00	-1.188794e+02
1.770000e-06	-4.023084e-07	-1.618635e-09	-2.950485e+00	-1.142209e+02
1.780000e-06	-3.467621e-07	-1.552374e-09	-2.543115e+00	-1.093954e+02
1.790000e-06	-2.911970e-07	-1.483423e-09	-2.135607e+00	-1.044042e+02
1.800000e-06	-2.355853e-07	-1.412486e-09	-1.727757e+00	-9.924959e+01
1.810000e-06	-1.800032e-07	-1.340907e-09	-1.320124e+00	-9.393447e+01
1.820000e-06	-1.244271e-07	-1.265730e-09	-9.125350e-01	-8.846281e+01
1.830000e-06	-6.884062e-08	-1.183584e-09	-5.048695e-01	-8.283938e+01
1.840000e-06	-1.322951e-08	-1.097657e-09	-9.702381e-02	-7.706979e+01
1.850000e-06	4.236588e-08	-1.012492e-09	3.107067e-01	-7.116050e+01
1.860000e-06	9.788446e-08	-9.265016e-10	7.178739e-01	-6.511876e+01
1.870000e-06	1.534273e-07	-8.362575e-10	1.125219e+00	-5.895260e+01
1.880000e-06	2.090017e-07	-7.420296e-10	1.532795e+00	-5.267081e+01
1.890000e-06	2.645474e-07	-6.482119e-10	1.940162e+00	-4.628284e+01
1.900000e-06	3.200547e-07	-5.547796e-10	2.347246e+00	-3.979881e+01
1.910000e-06	3.755426e-07	-4.593292e-10	2.754188e+00	-3.322940e+01
1.920000e-06	4.310231e-07	-3.588942e-10	3.161076e+00	-2.658585e+01
1.930000e-06	4.865156e-07	-2.560585e-10	3.568052e+00	-1.987986e+01
1.940000e-06	5.420180e-07	-1.529826e-10	3.975100e+00	-1.312351e+01
1.950000e-06	5.974722e-07	-4.735047e-11	4.381796e+00	-6.329205e+00
1.960000e-06	6.528633e-07	5.884761e-11	4.788028e+00	4.903773e-01
1.970000e-06	7.081724e-07	1.659475e-10	5.193659e+00	7.322404e+00
1.980000e-06	7.633710e-07	2.729809e-10	5.598479e+00	1.415394e+01
1.990000e-06	8.185334e-07	3.788073e-10	6.003034e+00	2.097204e+01
2.000000e-06	8.736640e-07	4.835914e-10	6.407356e+00	2.776381e+01
2.010000e-06	9.286845e-07	5.876774e-10	6.810870e+00	3.451651e+01
2.020000e-06	9.836080e-07	6.909557e-10	7.213673e+00	4.121761e+01
2.030000e-06	1.038427e-06	7.953207e-10	7.615712e+00	4.785489e+01
2.040000e-06	1.093209e-06	8.983432e-10	8.017475e+00	5.441648e+01
2.050000e-06	1.148003e-06	9.987317e-10	8.419329e+00	6.089096e+01
2.060000e-06	1.202769e-06	1.096707e-09	8.820976e+00	6.726742e+01
2.070000e-06	1.257499e-06	1.191810e-09	9.222361e+00	7.353551e+01
2.080000e-06	1.312091e-06	1.280982e-09	9.622731e+00	7.968552e+01
2.090000e-06	1.366465e-06	1.366577e-09	1.002150e+01	8.570840e+01
2.100000e-06	1.420731e-06	1.450678e-09	1.041949e+01	9.159585e+01
2.110000e-06	1.474930e-06	1.533825e-09	1.081697e+01	9.734034e+01
2.120000e-06	1.529043e-06	1.615378e-09	1.121383e+01	1.029351e+02
2.130000e-06	1.583093e-06	1.694749e-09	1.161023e+01	1.083743e+02
2.140000e-06	1.637020e-06	1.773095e-09	1.200573e+01	1.136529e+02
2.150000e-06	1.690840e-06	1.847337e-09	1.240043e+01	1.187666e+02
2.160000e-06	1.744601e-06	1.915231e-09	1.279472e+01	1.237122e+02
2.170000e-06	1.798228e-06	1.979040e-09	1.318800e+01	1.284873e+02
2.180000e-06	1.851711e-06	2.041835e-09	1.358025e+01	1.330903e+02
2.190000e-06	1.905073e-06	2.102403e-09	1.397160e+01	1.375206e+02
2.200000e-06	1.958239e-06	2.159621e-09	1.436151e+01	1.417784e+02
2.210000e-06	2.011254e-06	2.213215e-09	1.475032e+01	1.458646e+02
2.220000e-06	2.064186e-06	2.266202e-09	1.513851e+01	1.497810e+02
2.230000e-06	2.116872e-06	2.318990e-09	1.552491e+01	1.535302e+02
2.240000e-06	2.169334e-06	2.367603e-09	1.590965e+01	1.571154e+02
2.250000e-06	2.221660e-06	2.409008e-09	1.629341e+01	1.605405e+02
2.260000e-06	2.273793e-06	2.448665e-09	1.667575e+01	1.638100e+02
2.270000e-06	2.325745e-06	2.489763e-09	1.705676e+01	1.669292e+02
2.280000e-06	2.377625e-06	2.529770e-09	1.743724e+01	1.699035e+02
2.290000e-06	2.429462e-06	2.564294e-09	1.781741e+01	1.727389e+02
2.300000e-06	2.481141e-06	2.596736e-09	1.819642e+01	1.754420e+02
2.310000e-06	2.532583e-06	2.630723e-09	1.857369e+01	1.780194e+02
2.320000e-06	2.583739e-06	2.666042e-09	1.894886e+01	1.804781e+02
2.330000e-06	2.634681e-06	2.700700e-09	1.932246e+01	1.828253e+02
2.340000e-06	2.685342e-06	2.732845e-09	1.969401e+01	1.850683e+02
2.350000e-06	2.735641e-06	2.763256e-09	2.006289e+01	1.872145e+02
2.360000e-06	2.785510e-06	2.794132e-09	2.042863e+01	1.892712e+02
2.370000e-06	2.834935e-06	2.823956e-09	2.079110e+01	1.912457e+02
2.380000e-06	2.884047e-06	2.849103e-09	2.115128e+01	1.931451e+02
2.390000e-06	2.932852e-06	2.872100e-09	2.150922e+01	1.949766e+02
2.400000e-06	2.981394e-06	2.896814e-09	2.186522e+01	1.967467e+02
2.410000e-06	3.029804e-06	2.921678e-09	2.222025e+01	1.984622e+02
2.420000e-06	3.078069e-06	2.945632e-09	2.257422e+01	2.001290e+02
2.430000e-06	3.126127e-06	2.969898e-09	2.292667e+01	2.017531e+02
2.440000e-06	3.173994e-06	2.994678e-09	2.327772e+01	2.033400e+02
2.450000e-06	3.221715e-06	3.018527e-09	2.362770e+01	2.048945e+02
2.460000e-06	3.269300e-06	3.041134e-09	2.397669e+01	2.064214e+02
2.470000e-06	3.316649e-06	3.063458e-09	2.432394e+01	2.079248e+02
2.480000e-06	3.363780e-06	3.085569e-09	2.466959e+01	2.094084e+02
2.490000e-06	3.410651e-06	3.107510e-09	2.501334e+01	2.108753e+02
2.500000e-06	3.457217e-06	3.129116e-09	2.535485e+01	2.123282e+02
2.510000e-06	3.503490e-06	3.149974e-09	2.569421e+01	2.137694e+02
2.520000e-06	3.549501e-06	3.171284e-09	2.603165e+01	2.152008e+02
2.530000e-06	3.595306e-06	3.193112e-09	2.636758e+01	2.166235e+02
2.540000e-06	3.640929e-06	3.211864e-09	2.670217e+01	2.180384e+02
2.550000e-06	3.686315e-06	3.226779e-09	2.703503e+01	2.194462e+02
2.560000e-06	3.731382e-06	3.240578e-09	2.736554e+01	2.208467e+02
2.570000e-06	3.776148e-06	3.255673e-09	2.769385e+01	2.222397e+02
2.580000e-06	3.820645e-06	3.271475e-09	2.802019e+01	2.236246e+02
2.590000e-06	3.864977e-06	3.288360e-09	2.834532e+01	2.250004e+02
2.600000e-06	3.909185e-06	3.305650e-09	2.866953e+01	2.263660e+02
2.610000e-06	3.953191e-06	3.323870e-09	2.899227e+01	2.277199e+02
2.620000e-06	3.996993e-06	3.342669e-09	2.931351e+01	2.290605e+02
2.630000e-06	4.040651e-06	3.358967e-09	2.963369e+01	2.303860e+02
2.640000e-06	4.083974e-06	3.370951e-09	2.995142e+01	2.316946e+02
2.650000e-06	4.126856e-06	3.382196e-09	3.026591e+01	2.329843e+02
2.660000e-06	4.169372e-06	3.394863e-09	3.057772e+01	2.342530e+02
2.670000e-06	4.211463e-06	3.408503e-09	3.088640e+01	2.354989e+02
2.680000e-06	4.253011e-06	3.423967e-09	3.119111e+01	2.367200e+02
2.690000e-06	4.294038e-06	3.440779e-09	3.149201e+01	2.379143e+02
2.700000e-06	4.334687e-06	3.458112e-09	3.179012e+01	2.390802e+02
2.710000e-06	4.374984e-06	3.474766e-09	3.208565e+01	2.402159e+02
2.720000e-06	4.415089e-06	3.488172e-09	3.237978e+01	2.413201e+02
2.730000e-06	4.455046e-06	3.498192e-09	3.267282e+01	2.423913e+02
2.740000e-06	4.494786e-06	3.507441e-09	3.296426e+01	2.434286e+02
2.750000e-06	4.534306e-06	3.517087e-09	3.325410e+01	2.444310e+02
2.760000e-06	4.573537e-06	3.527008e-09	3.354182e+01	2.453978e+02
2.770000e-06	4.612367e-06	3.537073e-09	3.382659e+01	2.463288e+02
2.780000e-06	4.650811e-06	3.548358e-09	3.410854e+01	2.472236e+02
2.790000e-06	4.688954e-06	3.562749e-09	3.438828e+01	2.480825e+02
2.800000e-06	4.726736e-06	3.578055e-09	3.466536e+01	2.489058e+02
2.810000e-06	4.764159e-06	3.588044e-09	3.493982e+01	2.496941e+02
2.820000e-06	4.801283e-06	3.595264e-09	3.521208e+01	2.504482e+02
2.830000e-06	4.838086e-06	3.604882e-09	3.548199e+01	2.511691e+02
2.840000e-06	4.874614e-06	3.615404e-09	3.574988e+01	2.518582e+02
2.850000e-06	4.910937e-06	3.623279e-09	3.601628e+01	2.525169e+02
2.860000e-06	4.947055e-06	3.629294e-09	3.628116e+01	2.531469e+02
2.870000e-06	4.982977e-06	3.639334e-09	3.654461e+01	2.537500e+02
2.880000e-06	5.018665e-06	3.651914e-09	3.680634e+01	2.543280e+02
2.890000e-06	5.054031e-06	3.663103e-09	3.706571e+01	2.548832e+02
2.900000e-06	5.088831e-06	3.674207e-09	3.732093e+01	2.554176e+02
