# Temperatura_=_20.0
# Concentracion g/m^3_=_9000.0
# C_Vs_to_Am_M_A/Vsm_=_65563218390.804596
# pendiente_HvsI_1/m_=_3716.3
# ordenada_HvsI_A/m_=_1297.0
# frecuencia_Hz_=_135295.6669007973

Tiempo_(s)	Campo_(V.s)	Magnetizacion_(V.s)	Campo_(kA/m)	Magnetizacion_(A/m)
0.000000e+00	-6.454198e-06	-4.326855e-09	-4.763274e+01	-2.726929e+02
1.000000e-08	-6.454360e-06	-4.325956e-09	-4.763394e+01	-2.728648e+02
2.000000e-08	-6.454269e-06	-4.324311e-09	-4.763327e+01	-2.730472e+02
3.000000e-08	-6.453816e-06	-4.326732e-09	-4.762992e+01	-2.732395e+02
4.000000e-08	-6.452710e-06	-4.332014e-09	-4.762176e+01	-2.734410e+02
5.000000e-08	-6.450857e-06	-4.333579e-09	-4.760809e+01	-2.736508e+02
6.000000e-08	-6.448321e-06	-4.331623e-09	-4.758937e+01	-2.738680e+02
7.000000e-08	-6.445179e-06	-4.327900e-09	-4.756618e+01	-2.740918e+02
8.000000e-08	-6.441600e-06	-4.320718e-09	-4.753977e+01	-2.743212e+02
9.000000e-08	-6.437673e-06	-4.310547e-09	-4.751079e+01	-2.745551e+02
1.000000e-07	-6.433294e-06	-4.345246e-09	-4.747846e+01	-2.747927e+02
1.100000e-07	-6.428231e-06	-4.386999e-09	-4.744110e+01	-2.750330e+02
1.200000e-07	-6.422588e-06	-4.364668e-09	-4.739946e+01	-2.752748e+02
1.300000e-07	-6.416716e-06	-4.244665e-09	-4.735612e+01	-2.755173e+02
1.400000e-07	-6.410633e-06	-4.269679e-09	-4.731123e+01	-2.757595e+02
1.500000e-07	-6.404093e-06	-4.386791e-09	-4.726296e+01	-2.760004e+02
1.600000e-07	-6.396973e-06	-4.470842e-09	-4.721041e+01	-2.762391e+02
1.700000e-07	-6.389447e-06	-4.330959e-09	-4.715487e+01	-2.764748e+02
1.800000e-07	-6.381687e-06	-4.316010e-09	-4.709760e+01	-2.767065e+02
1.900000e-07	-6.373642e-06	-4.365622e-09	-4.703823e+01	-2.769336e+02
2.000000e-07	-6.365345e-06	-4.441108e-09	-4.697700e+01	-2.771552e+02
2.100000e-07	-6.356744e-06	-4.437797e-09	-4.691352e+01	-2.773707e+02
2.200000e-07	-6.347417e-06	-4.378617e-09	-4.684469e+01	-2.775793e+02
2.300000e-07	-6.337045e-06	-4.316671e-09	-4.676814e+01	-2.777804e+02
2.400000e-07	-6.326106e-06	-4.315603e-09	-4.668741e+01	-2.779735e+02
2.500000e-07	-6.314776e-06	-4.415876e-09	-4.660379e+01	-2.781580e+02
2.600000e-07	-6.302741e-06	-4.330071e-09	-4.651497e+01	-2.783333e+02
2.700000e-07	-6.290104e-06	-4.184707e-09	-4.642170e+01	-2.784991e+02
2.800000e-07	-6.277084e-06	-4.214722e-09	-4.632562e+01	-2.786548e+02
2.900000e-07	-6.263687e-06	-4.384533e-09	-4.622675e+01	-2.787999e+02
3.000000e-07	-6.249661e-06	-4.286151e-09	-4.612324e+01	-2.789342e+02
3.100000e-07	-6.235035e-06	-4.076306e-09	-4.601529e+01	-2.790571e+02
3.200000e-07	-6.219796e-06	-4.095026e-09	-4.590283e+01	-2.791683e+02
3.300000e-07	-6.203785e-06	-4.210312e-09	-4.578466e+01	-2.792674e+02
3.400000e-07	-6.187141e-06	-4.086367e-09	-4.566183e+01	-2.793540e+02
3.500000e-07	-6.170126e-06	-4.038574e-09	-4.553626e+01	-2.794277e+02
3.600000e-07	-6.152816e-06	-4.022997e-09	-4.540851e+01	-2.794881e+02
3.700000e-07	-6.135207e-06	-4.008675e-09	-4.527855e+01	-2.795347e+02
3.800000e-07	-6.117388e-06	-4.026101e-09	-4.514704e+01	-2.795673e+02
3.900000e-07	-6.099144e-06	-4.148085e-09	-4.501240e+01	-2.795853e+02
4.000000e-07	-6.080218e-06	-4.020415e-09	-4.487272e+01	-2.795882e+02
4.100000e-07	-6.060798e-06	-3.945932e-09	-4.472940e+01	-2.795757e+02
4.200000e-07	-6.041121e-06	-4.114843e-09	-4.458419e+01	-2.795473e+02
4.300000e-07	-6.021179e-06	-4.202931e-09	-4.443701e+01	-2.795025e+02
4.400000e-07	-6.000929e-06	-4.051292e-09	-4.428756e+01	-2.794407e+02
4.500000e-07	-5.980388e-06	-4.028213e-09	-4.413597e+01	-2.793617e+02
4.600000e-07	-5.959426e-06	-4.182340e-09	-4.398126e+01	-2.792647e+02
4.700000e-07	-5.938071e-06	-4.197118e-09	-4.382367e+01	-2.791495e+02
4.800000e-07	-5.916293e-06	-4.080264e-09	-4.366294e+01	-2.790155e+02
4.900000e-07	-5.894087e-06	-4.044508e-09	-4.349906e+01	-2.788623e+02
5.000000e-07	-5.871531e-06	-4.117040e-09	-4.333259e+01	-2.786894e+02
5.100000e-07	-5.848600e-06	-4.124882e-09	-4.316335e+01	-2.784966e+02
5.200000e-07	-5.825275e-06	-4.106510e-09	-4.299122e+01	-2.782834e+02
5.300000e-07	-5.801567e-06	-4.071719e-09	-4.281625e+01	-2.780496e+02
5.400000e-07	-5.777559e-06	-4.068511e-09	-4.263906e+01	-2.777949e+02
5.500000e-07	-5.753272e-06	-4.078779e-09	-4.245983e+01	-2.775192e+02
5.600000e-07	-5.728543e-06	-4.134494e-09	-4.227732e+01	-2.772223e+02
5.700000e-07	-5.703199e-06	-4.091816e-09	-4.209028e+01	-2.769042e+02
5.800000e-07	-5.677029e-06	-4.027732e-09	-4.189715e+01	-2.765650e+02
5.900000e-07	-5.650143e-06	-4.041712e-09	-4.169872e+01	-2.762047e+02
6.000000e-07	-5.622835e-06	-4.117783e-09	-4.149718e+01	-2.758237e+02
6.100000e-07	-5.595143e-06	-4.072914e-09	-4.129281e+01	-2.754222e+02
6.200000e-07	-5.567236e-06	-4.013340e-09	-4.108685e+01	-2.750006e+02
6.300000e-07	-5.539120e-06	-4.025515e-09	-4.087936e+01	-2.745595e+02
6.400000e-07	-5.510701e-06	-4.074436e-09	-4.066963e+01	-2.740994e+02
6.500000e-07	-5.481829e-06	-4.060684e-09	-4.045654e+01	-2.736209e+02
6.600000e-07	-5.452456e-06	-4.027085e-09	-4.023977e+01	-2.731250e+02
6.700000e-07	-5.422790e-06	-4.010200e-09	-4.002083e+01	-2.726123e+02
6.800000e-07	-5.392881e-06	-4.028943e-09	-3.980010e+01	-2.720840e+02
6.900000e-07	-5.362623e-06	-4.036199e-09	-3.957679e+01	-2.715409e+02
7.000000e-07	-5.331917e-06	-4.013623e-09	-3.935018e+01	-2.709842e+02
7.100000e-07	-5.300815e-06	-3.990991e-09	-3.912064e+01	-2.704149e+02
7.200000e-07	-5.269373e-06	-3.991942e-09	-3.888859e+01	-2.698343e+02
7.300000e-07	-5.237627e-06	-3.999558e-09	-3.865430e+01	-2.692436e+02
7.400000e-07	-5.205677e-06	-3.990767e-09	-3.841851e+01	-2.686440e+02
7.500000e-07	-5.173547e-06	-3.971064e-09	-3.818138e+01	-2.680366e+02
7.600000e-07	-5.141106e-06	-3.950758e-09	-3.794197e+01	-2.674229e+02
7.700000e-07	-5.108210e-06	-3.961557e-09	-3.769919e+01	-2.668038e+02
7.800000e-07	-5.074803e-06	-3.963732e-09	-3.745264e+01	-2.661807e+02
7.900000e-07	-5.040793e-06	-3.938749e-09	-3.720165e+01	-2.655546e+02
8.000000e-07	-5.006129e-06	-3.911214e-09	-3.694582e+01	-2.649267e+02
8.100000e-07	-4.970910e-06	-3.926994e-09	-3.668590e+01	-2.642977e+02
8.200000e-07	-4.935307e-06	-3.928453e-09	-3.642315e+01	-2.636688e+02
8.300000e-07	-4.899452e-06	-3.906061e-09	-3.615853e+01	-2.630405e+02
8.400000e-07	-4.863394e-06	-3.884844e-09	-3.589242e+01	-2.624137e+02
8.500000e-07	-4.827140e-06	-3.893777e-09	-3.562486e+01	-2.617887e+02
8.600000e-07	-4.790543e-06	-3.891373e-09	-3.535477e+01	-2.611660e+02
8.700000e-07	-4.753554e-06	-3.875955e-09	-3.508179e+01	-2.605458e+02
8.800000e-07	-4.716285e-06	-3.851588e-09	-3.480674e+01	-2.599283e+02
8.900000e-07	-4.678702e-06	-3.844149e-09	-3.452937e+01	-2.593132e+02
9.000000e-07	-4.640811e-06	-3.841409e-09	-3.424973e+01	-2.587005e+02
9.100000e-07	-4.602632e-06	-3.836701e-09	-3.396797e+01	-2.580895e+02
9.200000e-07	-4.564087e-06	-3.815760e-09	-3.368350e+01	-2.574799e+02
9.300000e-07	-4.525183e-06	-3.803863e-09	-3.339638e+01	-2.568707e+02
9.400000e-07	-4.485981e-06	-3.805755e-09	-3.310707e+01	-2.562612e+02
9.500000e-07	-4.446514e-06	-3.807510e-09	-3.281580e+01	-2.556503e+02
9.600000e-07	-4.406824e-06	-3.787482e-09	-3.252288e+01	-2.550366e+02
9.700000e-07	-4.366923e-06	-3.761593e-09	-3.222840e+01	-2.544190e+02
9.800000e-07	-4.326793e-06	-3.752655e-09	-3.193224e+01	-2.537959e+02
9.900000e-07	-4.286416e-06	-3.755370e-09	-3.163425e+01	-2.531658e+02
1.000000e-06	-4.245786e-06	-3.746192e-09	-3.133440e+01	-2.525269e+02
1.010000e-06	-4.204798e-06	-3.722563e-09	-3.103190e+01	-2.518775e+02
1.020000e-06	-4.163243e-06	-3.711732e-09	-3.072522e+01	-2.512158e+02
1.030000e-06	-4.121146e-06	-3.713104e-09	-3.041455e+01	-2.505400e+02
1.040000e-06	-4.078646e-06	-3.709566e-09	-3.010089e+01	-2.498482e+02
1.050000e-06	-4.035722e-06	-3.690211e-09	-2.978410e+01	-2.491385e+02
1.060000e-06	-3.992505e-06	-3.671935e-09	-2.946516e+01	-2.484090e+02
1.070000e-06	-3.949052e-06	-3.658828e-09	-2.914447e+01	-2.476581e+02
1.080000e-06	-3.905301e-06	-3.652320e-09	-2.882158e+01	-2.468838e+02
1.090000e-06	-3.861350e-06	-3.638841e-09	-2.849722e+01	-2.460846e+02
1.100000e-06	-3.817240e-06	-3.621540e-09	-2.817168e+01	-2.452590e+02
1.110000e-06	-3.772896e-06	-3.604726e-09	-2.784442e+01	-2.444055e+02
1.120000e-06	-3.728297e-06	-3.599040e-09	-2.751527e+01	-2.435228e+02
1.130000e-06	-3.683376e-06	-3.589314e-09	-2.718375e+01	-2.426098e+02
1.140000e-06	-3.638137e-06	-3.574020e-09	-2.684988e+01	-2.416656e+02
1.150000e-06	-3.592666e-06	-3.554924e-09	-2.651429e+01	-2.406894e+02
1.160000e-06	-3.546945e-06	-3.542192e-09	-2.617687e+01	-2.396806e+02
1.170000e-06	-3.500984e-06	-3.528627e-09	-2.583768e+01	-2.386390e+02
1.180000e-06	-3.454819e-06	-3.511617e-09	-2.549697e+01	-2.375642e+02
1.190000e-06	-3.408438e-06	-3.489096e-09	-2.515467e+01	-2.364564e+02
1.200000e-06	-3.361893e-06	-3.470671e-09	-2.481116e+01	-2.353159e+02
1.210000e-06	-3.315052e-06	-3.456645e-09	-2.446547e+01	-2.341431e+02
1.220000e-06	-3.267888e-06	-3.442933e-09	-2.411740e+01	-2.329386e+02
1.230000e-06	-3.220548e-06	-3.424332e-09	-2.376802e+01	-2.317033e+02
1.240000e-06	-3.173045e-06	-3.404973e-09	-2.341745e+01	-2.304383e+02
1.250000e-06	-3.125399e-06	-3.391293e-09	-2.306581e+01	-2.291447e+02
1.260000e-06	-3.077558e-06	-3.376728e-09	-2.271274e+01	-2.278239e+02
1.270000e-06	-3.029548e-06	-3.357869e-09	-2.235842e+01	-2.264772e+02
1.280000e-06	-2.981331e-06	-3.335768e-09	-2.200257e+01	-2.251063e+02
1.290000e-06	-2.932861e-06	-3.314947e-09	-2.164486e+01	-2.237126e+02
1.300000e-06	-2.884123e-06	-3.295094e-09	-2.128516e+01	-2.222979e+02
1.310000e-06	-2.835110e-06	-3.272766e-09	-2.092345e+01	-2.208637e+02
1.320000e-06	-2.785875e-06	-3.248632e-09	-2.056008e+01	-2.194117e+02
1.330000e-06	-2.736355e-06	-3.230183e-09	-2.019462e+01	-2.179435e+02
1.340000e-06	-2.686423e-06	-3.213534e-09	-1.982612e+01	-2.164604e+02
1.350000e-06	-2.636018e-06	-3.193624e-09	-1.945412e+01	-2.149639e+02
1.360000e-06	-2.585156e-06	-3.169006e-09	-1.907875e+01	-2.134551e+02
1.370000e-06	-2.534001e-06	-3.145600e-09	-1.870123e+01	-2.119350e+02
1.380000e-06	-2.482732e-06	-3.123729e-09	-1.832285e+01	-2.104042e+02
1.390000e-06	-2.431329e-06	-3.100836e-09	-1.794350e+01	-2.088634e+02
1.400000e-06	-2.379724e-06	-3.073580e-09	-1.756264e+01	-2.073127e+02
1.410000e-06	-2.327972e-06	-3.047601e-09	-1.718071e+01	-2.057519e+02
1.420000e-06	-2.276081e-06	-3.024488e-09	-1.679774e+01	-2.041806e+02
1.430000e-06	-2.224033e-06	-3.001616e-09	-1.641362e+01	-2.025980e+02
1.440000e-06	-2.171891e-06	-2.977670e-09	-1.602881e+01	-2.010027e+02
1.450000e-06	-2.119639e-06	-2.954464e-09	-1.564318e+01	-1.993931e+02
1.460000e-06	-2.067229e-06	-2.928687e-09	-1.525640e+01	-1.977673e+02
1.470000e-06	-2.014650e-06	-2.900910e-09	-1.486836e+01	-1.961226e+02
1.480000e-06	-1.961896e-06	-2.871824e-09	-1.447902e+01	-1.944561e+02
1.490000e-06	-1.908947e-06	-2.843592e-09	-1.408826e+01	-1.927645e+02
1.500000e-06	-1.855845e-06	-2.815819e-09	-1.369636e+01	-1.910439e+02
1.510000e-06	-1.802566e-06	-2.787357e-09	-1.330315e+01	-1.892903e+02
1.520000e-06	-1.749091e-06	-2.759706e-09	-1.290850e+01	-1.874988e+02
1.530000e-06	-1.695542e-06	-2.731072e-09	-1.251330e+01	-1.856646e+02
1.540000e-06	-1.641956e-06	-2.699711e-09	-1.211783e+01	-1.837822e+02
1.550000e-06	-1.588286e-06	-2.667959e-09	-1.172173e+01	-1.818460e+02
1.560000e-06	-1.534512e-06	-2.632820e-09	-1.132488e+01	-1.798499e+02
1.570000e-06	-1.480689e-06	-2.596297e-09	-1.092766e+01	-1.777877e+02
1.580000e-06	-1.426790e-06	-2.559149e-09	-1.052987e+01	-1.756529e+02
1.590000e-06	-1.372805e-06	-2.520574e-09	-1.013147e+01	-1.734388e+02
1.600000e-06	-1.318758e-06	-2.479347e-09	-9.732589e+00	-1.711386e+02
1.610000e-06	-1.264609e-06	-2.440745e-09	-9.332961e+00	-1.687456e+02
1.620000e-06	-1.210395e-06	-2.402093e-09	-8.932860e+00	-1.662527e+02
1.630000e-06	-1.156073e-06	-2.359280e-09	-8.531958e+00	-1.636532e+02
1.640000e-06	-1.101504e-06	-2.317096e-09	-8.129233e+00	-1.609404e+02
1.650000e-06	-1.046832e-06	-2.275938e-09	-7.725740e+00	-1.581076e+02
1.660000e-06	-9.921875e-07	-2.233950e-09	-7.322461e+00	-1.551484e+02
1.670000e-06	-9.374467e-07	-2.186333e-09	-6.918467e+00	-1.520569e+02
1.680000e-06	-8.825693e-07	-2.138397e-09	-6.513465e+00	-1.488273e+02
1.690000e-06	-8.276266e-07	-2.091516e-09	-6.107982e+00	-1.454541e+02
1.700000e-06	-7.727125e-07	-2.044568e-09	-5.702710e+00	-1.419326e+02
1.710000e-06	-7.177984e-07	-1.993370e-09	-5.297436e+00	-1.382584e+02
1.720000e-06	-6.628023e-07	-1.937670e-09	-4.891559e+00	-1.344278e+02
1.730000e-06	-6.077531e-07	-1.879780e-09	-4.485290e+00	-1.304374e+02
1.740000e-06	-5.526266e-07	-1.822172e-09	-4.078449e+00	-1.262849e+02
1.750000e-06	-4.974588e-07	-1.762239e-09	-3.671304e+00	-1.219684e+02
1.760000e-06	-4.423127e-07	-1.700705e-09	-3.264320e+00	-1.174868e+02
1.770000e-06	-3.871248e-07	-1.636348e-09	-2.857026e+00	-1.128401e+02
1.780000e-06	-3.318484e-07	-1.568637e-09	-2.449081e+00	-1.080285e+02
1.790000e-06	-2.765153e-07	-1.498209e-09	-2.040715e+00	-1.030536e+02
1.800000e-06	-2.212368e-07	-1.426171e-09	-1.632753e+00	-9.791745e+01
1.810000e-06	-1.660411e-07	-1.349655e-09	-1.225403e+00	-9.262321e+01
1.820000e-06	-1.108418e-07	-1.266642e-09	-8.180253e-01	-8.717475e+01
1.830000e-06	-5.557651e-08	-1.182119e-09	-4.101612e-01	-8.157682e+01
1.840000e-06	-2.835333e-10	-1.098367e-09	-2.092509e-03	-7.583502e+01
1.850000e-06	5.503828e-08	-1.014838e-09	4.061890e-01	-6.995575e+01
1.860000e-06	1.103403e-07	-9.284369e-10	8.143246e-01	-6.394622e+01
1.870000e-06	1.655266e-07	-8.403213e-10	1.221606e+00	-5.781441e+01
1.880000e-06	2.206875e-07	-7.510718e-10	1.628700e+00	-5.156900e+01
1.890000e-06	2.759292e-07	-6.585975e-10	2.036390e+00	-4.521937e+01
1.900000e-06	3.312626e-07	-5.628729e-10	2.444757e+00	-3.877554e+01
1.910000e-06	3.865859e-07	-4.625192e-10	2.853049e+00	-3.224809e+01
1.920000e-06	4.417981e-07	-3.582261e-10	3.260522e+00	-2.564815e+01
1.930000e-06	4.970109e-07	-2.534456e-10	3.667999e+00	-1.898729e+01
1.940000e-06	5.522290e-07	-1.495895e-10	4.075515e+00	-1.227747e+01
1.950000e-06	6.073804e-07	-4.516227e-11	4.482539e+00	-5.530969e+00
1.960000e-06	6.624679e-07	5.813788e-11	4.889091e+00	1.239677e+00
1.970000e-06	7.174684e-07	1.609607e-10	5.295001e+00	8.021767e+00
1.980000e-06	7.723850e-07	2.678934e-10	5.700292e+00	1.480251e+01
1.990000e-06	8.272659e-07	3.763587e-10	6.105320e+00	2.156909e+01
2.000000e-06	8.820296e-07	4.823269e-10	6.509482e+00	2.830876e+01
2.010000e-06	9.366468e-07	5.851725e-10	6.912564e+00	3.500891e+01
2.020000e-06	9.912212e-07	6.905795e-10	7.315329e+00	4.165715e+01
2.030000e-06	1.045792e-06	7.975466e-10	7.718072e+00	4.824139e+01
2.040000e-06	1.100279e-06	9.001788e-10	8.120186e+00	5.474989e+01
2.050000e-06	1.154674e-06	9.974910e-10	8.521633e+00	6.117135e+01
2.060000e-06	1.209050e-06	1.093857e-09	8.922933e+00	6.749497e+01
2.070000e-06	1.263303e-06	1.188948e-09	9.323326e+00	7.371051e+01
2.080000e-06	1.317438e-06	1.278504e-09	9.722845e+00	7.980837e+01
2.090000e-06	1.371500e-06	1.364333e-09	1.012183e+01	8.577960e+01
2.100000e-06	1.425460e-06	1.450115e-09	1.052006e+01	9.161598e+01
2.110000e-06	1.479355e-06	1.536149e-09	1.091781e+01	9.731004e+01
2.120000e-06	1.533148e-06	1.619209e-09	1.131482e+01	1.028551e+02
2.130000e-06	1.586883e-06	1.696506e-09	1.171138e+01	1.082454e+02
2.140000e-06	1.640547e-06	1.771647e-09	1.210743e+01	1.134758e+02
2.150000e-06	1.694043e-06	1.844619e-09	1.250223e+01	1.185423e+02
2.160000e-06	1.747401e-06	1.911424e-09	1.289602e+01	1.234416e+02
2.170000e-06	1.800630e-06	1.974188e-09	1.328886e+01	1.281713e+02
2.180000e-06	1.853674e-06	2.035603e-09	1.368033e+01	1.327298e+02
2.190000e-06	1.906555e-06	2.095656e-09	1.407060e+01	1.371165e+02
2.200000e-06	1.959338e-06	2.154175e-09	1.446014e+01	1.413316e+02
2.210000e-06	2.011982e-06	2.210696e-09	1.484867e+01	1.453760e+02
2.220000e-06	2.064434e-06	2.264077e-09	1.523576e+01	1.492515e+02
2.230000e-06	2.116747e-06	2.315604e-09	1.562184e+01	1.529606e+02
2.240000e-06	2.168882e-06	2.363732e-09	1.600661e+01	1.565065e+02
2.250000e-06	2.220844e-06	2.406439e-09	1.639009e+01	1.598930e+02
2.260000e-06	2.272721e-06	2.446112e-09	1.677295e+01	1.631247e+02
2.270000e-06	2.324431e-06	2.487390e-09	1.715457e+01	1.662065e+02
2.280000e-06	2.375890e-06	2.529278e-09	1.753435e+01	1.691440e+02
2.290000e-06	2.427101e-06	2.566616e-09	1.791229e+01	1.719431e+02
2.300000e-06	2.478183e-06	2.601529e-09	1.828928e+01	1.746103e+02
2.310000e-06	2.529148e-06	2.637607e-09	1.866541e+01	1.771521e+02
2.320000e-06	2.579886e-06	2.673038e-09	1.903986e+01	1.795754e+02
2.330000e-06	2.630301e-06	2.706682e-09	1.941193e+01	1.818875e+02
2.340000e-06	2.680337e-06	2.738291e-09	1.978121e+01	1.840953e+02
2.350000e-06	2.729966e-06	2.768789e-09	2.014747e+01	1.862063e+02
2.360000e-06	2.779135e-06	2.798923e-09	2.051034e+01	1.882278e+02
2.370000e-06	2.827897e-06	2.827775e-09	2.087021e+01	1.901669e+02
2.380000e-06	2.876385e-06	2.855145e-09	2.122806e+01	1.920307e+02
2.390000e-06	2.924723e-06	2.879916e-09	2.158480e+01	1.938261e+02
2.400000e-06	2.972895e-06	2.905190e-09	2.194032e+01	1.955600e+02
2.410000e-06	3.020881e-06	2.931036e-09	2.229446e+01	1.972386e+02
2.420000e-06	3.068786e-06	2.954132e-09	2.264801e+01	1.988683e+02
2.430000e-06	3.116596e-06	2.976489e-09	2.300085e+01	2.004546e+02
2.440000e-06	3.164287e-06	2.999924e-09	2.335281e+01	2.020031e+02
2.450000e-06	3.211841e-06	3.026033e-09	2.370377e+01	2.035187e+02
2.460000e-06	3.259152e-06	3.050747e-09	2.405292e+01	2.050060e+02
2.470000e-06	3.306162e-06	3.073001e-09	2.439987e+01	2.064692e+02
2.480000e-06	3.352931e-06	3.094635e-09	2.474503e+01	2.079118e+02
2.490000e-06	3.399426e-06	3.117546e-09	2.508816e+01	2.093371e+02
2.500000e-06	3.445595e-06	3.139375e-09	2.542890e+01	2.107479e+02
2.510000e-06	3.491497e-06	3.159587e-09	2.576766e+01	2.121463e+02
2.520000e-06	3.537193e-06	3.179224e-09	2.610490e+01	2.135342e+02
2.530000e-06	3.582708e-06	3.200374e-09	2.644081e+01	2.149128e+02
2.540000e-06	3.627950e-06	3.220329e-09	2.677470e+01	2.162833e+02
2.550000e-06	3.672913e-06	3.235904e-09	2.710653e+01	2.176460e+02
2.560000e-06	3.717598e-06	3.251450e-09	2.743631e+01	2.190010e+02
2.570000e-06	3.761972e-06	3.268091e-09	2.776379e+01	2.203482e+02
2.580000e-06	3.806154e-06	3.285477e-09	2.808986e+01	2.216869e+02
2.590000e-06	3.850173e-06	3.301937e-09	2.841473e+01	2.230164e+02
2.600000e-06	3.894046e-06	3.319164e-09	2.873852e+01	2.243354e+02
2.610000e-06	3.937817e-06	3.338053e-09	2.906155e+01	2.256427e+02
2.620000e-06	3.981417e-06	3.354969e-09	2.938333e+01	2.269367e+02
2.630000e-06	4.024760e-06	3.368728e-09	2.970320e+01	2.282157e+02
2.640000e-06	4.067850e-06	3.381667e-09	3.002121e+01	2.294780e+02
2.650000e-06	4.110613e-06	3.396762e-09	3.033681e+01	2.307217e+02
2.660000e-06	4.152811e-06	3.414159e-09	3.064823e+01	2.319448e+02
2.670000e-06	4.194365e-06	3.431262e-09	3.095491e+01	2.331455e+02
2.680000e-06	4.235409e-06	3.447314e-09	3.125782e+01	2.343219e+02
2.690000e-06	4.276008e-06	3.463499e-09	3.155744e+01	2.354722e+02
2.700000e-06	4.316256e-06	3.480487e-09	3.185447e+01	2.365948e+02
2.710000e-06	4.356295e-06	3.495175e-09	3.214997e+01	2.376880e+02
2.720000e-06	4.396127e-06	3.508138e-09	3.244393e+01	2.387505e+02
2.730000e-06	4.435755e-06	3.519603e-09	3.273640e+01	2.397811e+02
2.740000e-06	4.475187e-06	3.531474e-09	3.302740e+01	2.407786e+02
2.750000e-06	4.514368e-06	3.542818e-09	3.331657e+01	2.417423e+02
2.760000e-06	4.553263e-06	3.554096e-09	3.360362e+01	2.426717e+02
2.770000e-06	4.591784e-06	3.565470e-09	3.388791e+01	2.435662e+02
2.780000e-06	4.629888e-06	3.577325e-09	3.416912e+01	2.444258e+02
2.790000e-06	4.667715e-06	3.591510e-09	3.444829e+01	2.452507e+02
2.800000e-06	4.705281e-06	3.604747e-09	3.472553e+01	2.460412e+02
2.810000e-06	4.742490e-06	3.613983e-09	3.500014e+01	2.467978e+02
2.820000e-06	4.779368e-06	3.623664e-09	3.527230e+01	2.475215e+02
2.830000e-06	4.815902e-06	3.636371e-09	3.554192e+01	2.482133e+02
2.840000e-06	4.852139e-06	3.647102e-09	3.580936e+01	2.488744e+02
2.850000e-06	4.888154e-06	3.654459e-09	3.607515e+01	2.495062e+02
2.860000e-06	4.923971e-06	3.662330e-09	3.633949e+01	2.501104e+02
2.870000e-06	4.959613e-06	3.674387e-09	3.660252e+01	2.506888e+02
2.880000e-06	4.995031e-06	3.686497e-09	3.686392e+01	2.512432e+02
2.890000e-06	5.030055e-06	3.698490e-09	3.712240e+01	2.517757e+02
2.900000e-06	5.064498e-06	3.710108e-09	3.737659e+01	2.522883e+02
