# Temperatura_=_20.0
# Concentracion g/m^3_=_9000.0
# C_Vs_to_Am_M_A/Vsm_=_65563218390.804596
# pendiente_HvsI_1/m_=_3716.3
# ordenada_HvsI_A/m_=_1297.0
# frecuencia_Hz_=_135294.63672677596

Tiempo_(s)	Campo_(V.s)	Magnetizacion_(V.s)	Campo_(kA/m)	Magnetizacion_(A/m)
0.000000e+00	-6.499720e-06	-4.558186e-09	-4.764538e+01	-2.792560e+02
1.000000e-08	-6.499760e-06	-4.559934e-09	-4.764567e+01	-2.793974e+02
2.000000e-08	-6.499429e-06	-4.562600e-09	-4.764325e+01	-2.795431e+02
3.000000e-08	-6.498648e-06	-4.563834e-09	-4.763752e+01	-2.796924e+02
4.000000e-08	-6.497271e-06	-4.565554e-09	-4.762743e+01	-2.798443e+02
5.000000e-08	-6.495177e-06	-4.568048e-09	-4.761208e+01	-2.799980e+02
6.000000e-08	-6.492371e-06	-4.569283e-09	-4.759151e+01	-2.801526e+02
7.000000e-08	-6.489084e-06	-4.570573e-09	-4.756742e+01	-2.803071e+02
8.000000e-08	-6.485440e-06	-4.592360e-09	-4.754071e+01	-2.804607e+02
9.000000e-08	-6.481313e-06	-4.614954e-09	-4.751045e+01	-2.806125e+02
1.000000e-07	-6.476542e-06	-4.576893e-09	-4.747548e+01	-2.807616e+02
1.100000e-07	-6.471165e-06	-4.475234e-09	-4.743606e+01	-2.809072e+02
1.200000e-07	-6.465432e-06	-4.477936e-09	-4.739404e+01	-2.810487e+02
1.300000e-07	-6.459427e-06	-4.649296e-09	-4.735002e+01	-2.811851e+02
1.400000e-07	-6.453033e-06	-4.754519e-09	-4.730315e+01	-2.813161e+02
1.500000e-07	-6.446161e-06	-4.577566e-09	-4.725278e+01	-2.814409e+02
1.600000e-07	-6.438891e-06	-4.445233e-09	-4.719948e+01	-2.815590e+02
1.700000e-07	-6.431265e-06	-4.572042e-09	-4.714358e+01	-2.816701e+02
1.800000e-07	-6.423306e-06	-4.733677e-09	-4.708524e+01	-2.817737e+02
1.900000e-07	-6.415131e-06	-4.702181e-09	-4.702531e+01	-2.818695e+02
2.000000e-07	-6.406668e-06	-4.554152e-09	-4.696327e+01	-2.819573e+02
2.100000e-07	-6.397528e-06	-4.520545e-09	-4.689628e+01	-2.820369e+02
2.200000e-07	-6.387398e-06	-4.593172e-09	-4.682202e+01	-2.821081e+02
2.300000e-07	-6.376615e-06	-4.699998e-09	-4.674297e+01	-2.821710e+02
2.400000e-07	-6.365451e-06	-4.591674e-09	-4.666114e+01	-2.822254e+02
2.500000e-07	-6.353665e-06	-4.403786e-09	-4.657474e+01	-2.822713e+02
2.600000e-07	-6.341224e-06	-4.378525e-09	-4.648355e+01	-2.823089e+02
2.700000e-07	-6.328395e-06	-4.520678e-09	-4.638951e+01	-2.823381e+02
2.800000e-07	-6.315199e-06	-4.455907e-09	-4.629278e+01	-2.823590e+02
2.900000e-07	-6.301447e-06	-4.239631e-09	-4.619197e+01	-2.823716e+02
3.000000e-07	-6.287102e-06	-4.190639e-09	-4.608681e+01	-2.823761e+02
3.100000e-07	-6.272126e-06	-4.283714e-09	-4.597704e+01	-2.823725e+02
3.200000e-07	-6.256459e-06	-4.185093e-09	-4.586219e+01	-2.823607e+02
3.300000e-07	-6.240274e-06	-4.022149e-09	-4.574355e+01	-2.823408e+02
3.400000e-07	-6.223650e-06	-4.015038e-09	-4.562169e+01	-2.823128e+02
3.500000e-07	-6.206584e-06	-4.013117e-09	-4.549658e+01	-2.822765e+02
3.600000e-07	-6.189186e-06	-3.979163e-09	-4.536905e+01	-2.822319e+02
3.700000e-07	-6.171495e-06	-4.020877e-09	-4.523937e+01	-2.821787e+02
3.800000e-07	-6.153358e-06	-4.007586e-09	-4.510642e+01	-2.821167e+02
3.900000e-07	-6.134615e-06	-3.887958e-09	-4.496903e+01	-2.820456e+02
4.000000e-07	-6.115422e-06	-3.971991e-09	-4.482834e+01	-2.819650e+02
4.100000e-07	-6.095924e-06	-4.121935e-09	-4.468541e+01	-2.818746e+02
4.200000e-07	-6.076095e-06	-4.022696e-09	-4.454006e+01	-2.817739e+02
4.300000e-07	-6.055867e-06	-3.875726e-09	-4.439178e+01	-2.816623e+02
4.400000e-07	-6.035257e-06	-4.026218e-09	-4.424070e+01	-2.815393e+02
4.500000e-07	-6.014426e-06	-4.142385e-09	-4.408799e+01	-2.814044e+02
4.600000e-07	-5.993322e-06	-3.999933e-09	-4.393329e+01	-2.812567e+02
4.700000e-07	-5.971656e-06	-3.890212e-09	-4.377447e+01	-2.810958e+02
4.800000e-07	-5.949484e-06	-4.023667e-09	-4.361195e+01	-2.809208e+02
4.900000e-07	-5.926980e-06	-4.074276e-09	-4.344699e+01	-2.807312e+02
5.000000e-07	-5.904010e-06	-3.973117e-09	-4.327860e+01	-2.805261e+02
5.100000e-07	-5.880637e-06	-3.926226e-09	-4.310727e+01	-2.803050e+02
5.200000e-07	-5.857015e-06	-3.988725e-09	-4.293412e+01	-2.800671e+02
5.300000e-07	-5.833098e-06	-3.987458e-09	-4.275879e+01	-2.798118e+02
5.400000e-07	-5.808795e-06	-3.970491e-09	-4.258065e+01	-2.795386e+02
5.500000e-07	-5.783992e-06	-3.965454e-09	-4.239883e+01	-2.792469e+02
5.600000e-07	-5.758492e-06	-3.938470e-09	-4.221190e+01	-2.789362e+02
5.700000e-07	-5.732264e-06	-3.931362e-09	-4.201964e+01	-2.786062e+02
5.800000e-07	-5.705489e-06	-3.986052e-09	-4.182337e+01	-2.782565e+02
5.900000e-07	-5.678321e-06	-3.976535e-09	-4.162422e+01	-2.778870e+02
6.000000e-07	-5.650810e-06	-3.906322e-09	-4.142255e+01	-2.774975e+02
6.100000e-07	-5.622992e-06	-3.911711e-09	-4.121864e+01	-2.770880e+02
6.200000e-07	-5.594923e-06	-3.969673e-09	-4.101288e+01	-2.766586e+02
6.300000e-07	-5.566526e-06	-3.958113e-09	-4.080472e+01	-2.762096e+02
6.400000e-07	-5.537731e-06	-3.896075e-09	-4.059364e+01	-2.757413e+02
6.500000e-07	-5.508530e-06	-3.897697e-09	-4.037959e+01	-2.752540e+02
6.600000e-07	-5.478998e-06	-3.938313e-09	-4.016311e+01	-2.747485e+02
6.700000e-07	-5.449099e-06	-3.939305e-09	-3.994394e+01	-2.742254e+02
6.800000e-07	-5.418734e-06	-3.892645e-09	-3.972135e+01	-2.736854e+02
6.900000e-07	-5.387958e-06	-3.885136e-09	-3.949575e+01	-2.731295e+02
7.000000e-07	-5.356891e-06	-3.903470e-09	-3.926802e+01	-2.725586e+02
7.100000e-07	-5.325541e-06	-3.908066e-09	-3.903821e+01	-2.719738e+02
7.200000e-07	-5.293893e-06	-3.886351e-09	-3.880622e+01	-2.713762e+02
7.300000e-07	-5.261969e-06	-3.877687e-09	-3.857221e+01	-2.707670e+02
7.400000e-07	-5.229774e-06	-3.864213e-09	-3.833620e+01	-2.701475e+02
7.500000e-07	-5.197210e-06	-3.868953e-09	-3.809749e+01	-2.695189e+02
7.600000e-07	-5.164098e-06	-3.872592e-09	-3.785477e+01	-2.688826e+02
7.700000e-07	-5.130374e-06	-3.854555e-09	-3.760756e+01	-2.682397e+02
7.800000e-07	-5.096071e-06	-3.824431e-09	-3.735611e+01	-2.675915e+02
7.900000e-07	-5.061364e-06	-3.835133e-09	-3.710169e+01	-2.669394e+02
8.000000e-07	-5.026312e-06	-3.847175e-09	-3.684475e+01	-2.662844e+02
8.100000e-07	-4.990896e-06	-3.823473e-09	-3.658514e+01	-2.656276e+02
8.200000e-07	-4.955146e-06	-3.794711e-09	-3.632307e+01	-2.649701e+02
8.300000e-07	-4.919057e-06	-3.804041e-09	-3.605853e+01	-2.643128e+02
8.400000e-07	-4.882672e-06	-3.817236e-09	-3.579182e+01	-2.636565e+02
8.500000e-07	-4.845977e-06	-3.799167e-09	-3.552283e+01	-2.630018e+02
8.600000e-07	-4.808969e-06	-3.772469e-09	-3.525154e+01	-2.623492e+02
8.700000e-07	-4.771662e-06	-3.768331e-09	-3.497807e+01	-2.616992e+02
8.800000e-07	-4.734012e-06	-3.772933e-09	-3.470208e+01	-2.610519e+02
8.900000e-07	-4.696018e-06	-3.761684e-09	-3.442357e+01	-2.604073e+02
9.000000e-07	-4.657758e-06	-3.740786e-09	-3.414311e+01	-2.597653e+02
9.100000e-07	-4.619229e-06	-3.727634e-09	-3.386068e+01	-2.591255e+02
9.200000e-07	-4.580307e-06	-3.730340e-09	-3.357536e+01	-2.584874e+02
9.300000e-07	-4.541007e-06	-3.729831e-09	-3.328728e+01	-2.578504e+02
9.400000e-07	-4.501442e-06	-3.720059e-09	-3.299726e+01	-2.572134e+02
9.500000e-07	-4.461658e-06	-3.702472e-09	-3.270562e+01	-2.565755e+02
9.600000e-07	-4.421646e-06	-3.692451e-09	-3.241232e+01	-2.559355e+02
9.700000e-07	-4.381352e-06	-3.688239e-09	-3.211695e+01	-2.552918e+02
9.800000e-07	-4.340720e-06	-3.680303e-09	-3.181910e+01	-2.546431e+02
9.900000e-07	-4.299672e-06	-3.657360e-09	-3.151821e+01	-2.539877e+02
1.000000e-06	-4.258286e-06	-3.643459e-09	-3.121483e+01	-2.533238e+02
1.010000e-06	-4.216594e-06	-3.641988e-09	-3.090921e+01	-2.526495e+02
1.020000e-06	-4.174447e-06	-3.638807e-09	-3.060026e+01	-2.519629e+02
1.030000e-06	-4.131787e-06	-3.620995e-09	-3.028755e+01	-2.512620e+02
1.040000e-06	-4.088661e-06	-3.608611e-09	-2.997142e+01	-2.505449e+02
1.050000e-06	-4.045285e-06	-3.601389e-09	-2.965346e+01	-2.498095e+02
1.060000e-06	-4.001811e-06	-3.587251e-09	-2.933477e+01	-2.490537e+02
1.070000e-06	-3.958094e-06	-3.566872e-09	-2.901431e+01	-2.482757e+02
1.080000e-06	-3.914035e-06	-3.552106e-09	-2.869135e+01	-2.474735e+02
1.090000e-06	-3.869681e-06	-3.540198e-09	-2.836621e+01	-2.466453e+02
1.100000e-06	-3.825097e-06	-3.528293e-09	-2.803939e+01	-2.457894e+02
1.110000e-06	-3.780293e-06	-3.515692e-09	-2.771096e+01	-2.449042e+02
1.120000e-06	-3.735209e-06	-3.504010e-09	-2.738048e+01	-2.439884e+02
1.130000e-06	-3.689856e-06	-3.490635e-09	-2.704803e+01	-2.430406e+02
1.140000e-06	-3.644243e-06	-3.477437e-09	-2.671367e+01	-2.420599e+02
1.150000e-06	-3.598360e-06	-3.463441e-09	-2.637733e+01	-2.410452e+02
1.160000e-06	-3.552266e-06	-3.444602e-09	-2.603944e+01	-2.399961e+02
1.170000e-06	-3.505994e-06	-3.427028e-09	-2.570025e+01	-2.389119e+02
1.180000e-06	-3.459495e-06	-3.413248e-09	-2.535939e+01	-2.377927e+02
1.190000e-06	-3.412689e-06	-3.398193e-09	-2.501629e+01	-2.366383e+02
1.200000e-06	-3.365591e-06	-3.379602e-09	-2.467105e+01	-2.354490e+02
1.210000e-06	-3.318263e-06	-3.363183e-09	-2.432411e+01	-2.342253e+02
1.220000e-06	-3.270736e-06	-3.348922e-09	-2.397572e+01	-2.329679e+02
1.230000e-06	-3.223029e-06	-3.334588e-09	-2.362601e+01	-2.316777e+02
1.240000e-06	-3.175184e-06	-3.314683e-09	-2.327529e+01	-2.303559e+02
1.250000e-06	-3.127083e-06	-3.296749e-09	-2.292269e+01	-2.290036e+02
1.260000e-06	-3.078675e-06	-3.280784e-09	-2.256784e+01	-2.276224e+02
1.270000e-06	-3.030125e-06	-3.262095e-09	-2.221195e+01	-2.262137e+02
1.280000e-06	-2.981364e-06	-3.240477e-09	-2.185451e+01	-2.247794e+02
1.290000e-06	-2.932294e-06	-3.220857e-09	-2.149481e+01	-2.233211e+02
1.300000e-06	-2.882955e-06	-3.198567e-09	-2.113314e+01	-2.218406e+02
1.310000e-06	-2.833245e-06	-3.174243e-09	-2.076875e+01	-2.203398e+02
1.320000e-06	-2.783221e-06	-3.153189e-09	-2.040205e+01	-2.188206e+02
1.330000e-06	-2.732911e-06	-3.135919e-09	-2.003326e+01	-2.172846e+02
1.340000e-06	-2.682248e-06	-3.115338e-09	-1.966188e+01	-2.157334e+02
1.350000e-06	-2.631403e-06	-3.092606e-09	-1.928917e+01	-2.141688e+02
1.360000e-06	-2.580270e-06	-3.071905e-09	-1.891435e+01	-2.125919e+02
1.370000e-06	-2.528826e-06	-3.051132e-09	-1.853724e+01	-2.110040e+02
1.380000e-06	-2.477203e-06	-3.026416e-09	-1.815882e+01	-2.094060e+02
1.390000e-06	-2.425343e-06	-3.002010e-09	-1.777868e+01	-2.077986e+02
1.400000e-06	-2.373272e-06	-2.981065e-09	-1.739697e+01	-2.061820e+02
1.410000e-06	-2.321097e-06	-2.959440e-09	-1.701451e+01	-2.045563e+02
1.420000e-06	-2.268816e-06	-2.935708e-09	-1.663127e+01	-2.029211e+02
1.430000e-06	-2.216401e-06	-2.912886e-09	-1.624705e+01	-2.012757e+02
1.440000e-06	-2.163813e-06	-2.890926e-09	-1.586156e+01	-1.996188e+02
1.450000e-06	-2.111021e-06	-2.867815e-09	-1.547457e+01	-1.979490e+02
1.460000e-06	-2.058081e-06	-2.843650e-09	-1.508651e+01	-1.962640e+02
1.470000e-06	-2.005064e-06	-2.818606e-09	-1.469787e+01	-1.945615e+02
1.480000e-06	-1.951965e-06	-2.791764e-09	-1.430863e+01	-1.928383e+02
1.490000e-06	-1.898697e-06	-2.763238e-09	-1.391816e+01	-1.910912e+02
1.500000e-06	-1.845321e-06	-2.736093e-09	-1.352690e+01	-1.893162e+02
1.510000e-06	-1.791745e-06	-2.711312e-09	-1.313416e+01	-1.875089e+02
1.520000e-06	-1.737922e-06	-2.683724e-09	-1.273962e+01	-1.856646e+02
1.530000e-06	-1.683996e-06	-2.651643e-09	-1.234432e+01	-1.837781e+02
1.540000e-06	-1.629963e-06	-2.619487e-09	-1.194824e+01	-1.818438e+02
1.550000e-06	-1.575867e-06	-2.587423e-09	-1.155170e+01	-1.798558e+02
1.560000e-06	-1.521755e-06	-2.552605e-09	-1.115504e+01	-1.778079e+02
1.570000e-06	-1.467553e-06	-2.516834e-09	-1.075771e+01	-1.756936e+02
1.580000e-06	-1.413212e-06	-2.483108e-09	-1.035937e+01	-1.735060e+02
1.590000e-06	-1.358826e-06	-2.448785e-09	-9.960701e+00	-1.712384e+02
1.600000e-06	-1.304374e-06	-2.410922e-09	-9.561550e+00	-1.688835e+02
1.610000e-06	-1.249750e-06	-2.371359e-09	-9.161137e+00	-1.664342e+02
1.620000e-06	-1.195095e-06	-2.329440e-09	-8.760493e+00	-1.638835e+02
1.630000e-06	-1.140379e-06	-2.289085e-09	-8.359404e+00	-1.612242e+02
1.640000e-06	-1.085537e-06	-2.250744e-09	-7.957390e+00	-1.584492e+02
1.650000e-06	-1.030596e-06	-2.207905e-09	-7.554656e+00	-1.555517e+02
1.660000e-06	-9.754644e-07	-2.160809e-09	-7.150519e+00	-1.525252e+02
1.670000e-06	-9.202817e-07	-2.114259e-09	-6.746010e+00	-1.493634e+02
1.680000e-06	-8.651634e-07	-2.070547e-09	-6.341972e+00	-1.460602e+02
1.690000e-06	-8.099946e-07	-2.023254e-09	-5.937564e+00	-1.426102e+02
1.700000e-06	-7.547011e-07	-1.971219e-09	-5.532242e+00	-1.390085e+02
1.710000e-06	-6.993624e-07	-1.918203e-09	-5.126588e+00	-1.352504e+02
1.720000e-06	-6.440441e-07	-1.864679e-09	-4.721085e+00	-1.313323e+02
1.730000e-06	-5.887061e-07	-1.808676e-09	-4.315436e+00	-1.272507e+02
1.740000e-06	-5.332848e-07	-1.749446e-09	-3.909177e+00	-1.230034e+02
1.750000e-06	-4.778275e-07	-1.687509e-09	-3.502655e+00	-1.185885e+02
1.760000e-06	-4.223126e-07	-1.625500e-09	-3.095710e+00	-1.140051e+02
1.770000e-06	-3.667286e-07	-1.560188e-09	-2.688258e+00	-1.092529e+02
1.780000e-06	-3.111712e-07	-1.488988e-09	-2.281002e+00	-1.043329e+02
1.790000e-06	-2.556325e-07	-1.415184e-09	-1.873882e+00	-9.924642e+01
1.800000e-06	-2.001252e-07	-1.342182e-09	-1.466993e+00	-9.399605e+01
1.810000e-06	-1.446374e-07	-1.266705e-09	-1.060246e+00	-8.858511e+01
1.820000e-06	-8.916667e-08	-1.183906e-09	-6.536251e-01	-8.301785e+01
1.830000e-06	-3.366879e-08	-1.098096e-09	-2.468048e-01	-7.729939e+01
1.840000e-06	2.180585e-08	-1.015280e-09	1.598451e-01	-7.143571e+01
1.850000e-06	7.726603e-08	-9.317644e-10	5.663890e-01	-6.543368e+01
1.860000e-06	1.327959e-07	-8.424413e-10	9.734440e-01	-5.930094e+01
1.870000e-06	1.882797e-07	-7.493321e-10	1.380161e+00	-5.304594e+01
1.880000e-06	2.436909e-07	-6.578714e-10	1.786346e+00	-4.667789e+01
1.890000e-06	2.991017e-07	-5.671454e-10	2.192527e+00	-4.020667e+01
1.900000e-06	3.545620e-07	-4.697703e-10	2.599072e+00	-3.364282e+01
1.910000e-06	4.100702e-07	-3.648611e-10	3.005968e+00	-2.699745e+01
1.920000e-06	4.655479e-07	-2.609816e-10	3.412641e+00	-2.028222e+01
1.930000e-06	5.210068e-07	-1.588752e-10	3.819175e+00	-1.350921e+01
1.940000e-06	5.764644e-07	-5.294368e-11	4.225700e+00	-6.690902e+00
1.950000e-06	6.318549e-07	5.499863e-11	4.631733e+00	1.599190e-01
1.960000e-06	6.871483e-07	1.608501e-10	5.037055e+00	7.030245e+00
1.970000e-06	7.424030e-07	2.654741e-10	5.442092e+00	1.390692e+01
1.980000e-06	7.976364e-07	3.721885e-10	5.846974e+00	2.077672e+01
1.990000e-06	8.527296e-07	4.822937e-10	6.250827e+00	2.762645e+01
2.000000e-06	9.076984e-07	5.880586e-10	6.653770e+00	3.444298e+01
2.010000e-06	9.627106e-07	6.891595e-10	7.057030e+00	4.121341e+01
2.020000e-06	1.017758e-06	7.915996e-10	7.460545e+00	4.792506e+01
2.030000e-06	1.072703e-06	8.960819e-10	7.863319e+00	5.456561e+01
2.040000e-06	1.127530e-06	9.982314e-10	8.265220e+00	6.112314e+01
2.050000e-06	1.182288e-06	1.095614e-09	8.666611e+00	6.758623e+01
2.060000e-06	1.236996e-06	1.191515e-09	9.067642e+00	7.394399e+01
2.070000e-06	1.291624e-06	1.285088e-09	9.468086e+00	8.018616e+01
2.080000e-06	1.346130e-06	1.374210e-09	9.867634e+00	8.630317e+01
2.090000e-06	1.400499e-06	1.459109e-09	1.026619e+01	9.228614e+01
2.100000e-06	1.454755e-06	1.541519e-09	1.066390e+01	9.812699e+01
2.110000e-06	1.508942e-06	1.625285e-09	1.106111e+01	1.038184e+02
2.120000e-06	1.563034e-06	1.706984e-09	1.145762e+01	1.093541e+02
2.130000e-06	1.616983e-06	1.783014e-09	1.185309e+01	1.147283e+02
2.140000e-06	1.670817e-06	1.855885e-09	1.224772e+01	1.199365e+02
2.150000e-06	1.724506e-06	1.927655e-09	1.264128e+01	1.249748e+02
2.160000e-06	1.778092e-06	1.997694e-09	1.303408e+01	1.298405e+02
2.170000e-06	1.831655e-06	2.061196e-09	1.342672e+01	1.345315e+02
2.180000e-06	1.885119e-06	2.120185e-09	1.381863e+01	1.390469e+02
2.190000e-06	1.938401e-06	2.178415e-09	1.420920e+01	1.433864e+02
2.200000e-06	1.991548e-06	2.236183e-09	1.459879e+01	1.475507e+02
2.210000e-06	2.044556e-06	2.290187e-09	1.498736e+01	1.515414e+02
2.220000e-06	2.097310e-06	2.340618e-09	1.537407e+01	1.553607e+02
2.230000e-06	2.149905e-06	2.387071e-09	1.575961e+01	1.590117e+02
2.240000e-06	2.202372e-06	2.429341e-09	1.614421e+01	1.624982e+02
2.250000e-06	2.254619e-06	2.470648e-09	1.652720e+01	1.658246e+02
2.260000e-06	2.306710e-06	2.510864e-09	1.690905e+01	1.689959e+02
2.270000e-06	2.358709e-06	2.551816e-09	1.729022e+01	1.720177e+02
2.280000e-06	2.410567e-06	2.594256e-09	1.767036e+01	1.748961e+02
2.290000e-06	2.462215e-06	2.630969e-09	1.804896e+01	1.776374e+02
2.300000e-06	2.513679e-06	2.663288e-09	1.842621e+01	1.802486e+02
2.310000e-06	2.564871e-06	2.695793e-09	1.880147e+01	1.827367e+02
2.320000e-06	2.615764e-06	2.729628e-09	1.917453e+01	1.851091e+02
2.330000e-06	2.666505e-06	2.761294e-09	1.954648e+01	1.873731e+02
2.340000e-06	2.717047e-06	2.788940e-09	1.991698e+01	1.895365e+02
2.350000e-06	2.767166e-06	2.817450e-09	2.028436e+01	1.916066e+02
2.360000e-06	2.816769e-06	2.847101e-09	2.064797e+01	1.935912e+02
2.370000e-06	2.865941e-06	2.876886e-09	2.100842e+01	1.954975e+02
2.380000e-06	2.914820e-06	2.905081e-09	2.136673e+01	1.973329e+02
2.390000e-06	2.963491e-06	2.931495e-09	2.172350e+01	1.991044e+02
2.400000e-06	3.011950e-06	2.957513e-09	2.207872e+01	2.008188e+02
2.410000e-06	3.060172e-06	2.983756e-09	2.243221e+01	2.024825e+02
2.420000e-06	3.108210e-06	3.007226e-09	2.278434e+01	2.041017e+02
2.430000e-06	3.156109e-06	3.027202e-09	2.313546e+01	2.056822e+02
2.440000e-06	3.203860e-06	3.050404e-09	2.348550e+01	2.072291e+02
2.450000e-06	3.251462e-06	3.075082e-09	2.383443e+01	2.087474e+02
2.460000e-06	3.298900e-06	3.097915e-09	2.418217e+01	2.102416e+02
2.470000e-06	3.346152e-06	3.120747e-09	2.452855e+01	2.117154e+02
2.480000e-06	3.393083e-06	3.143819e-09	2.487257e+01	2.131723e+02
2.490000e-06	3.439712e-06	3.167055e-09	2.521438e+01	2.146153e+02
2.500000e-06	3.486154e-06	3.187236e-09	2.555481e+01	2.160469e+02
2.510000e-06	3.532352e-06	3.205283e-09	2.589346e+01	2.174689e+02
2.520000e-06	3.578300e-06	3.224777e-09	2.623028e+01	2.188828e+02
2.530000e-06	3.624069e-06	3.244536e-09	2.656579e+01	2.202897e+02
2.540000e-06	3.669570e-06	3.261248e-09	2.689932e+01	2.216902e+02
2.550000e-06	3.714708e-06	3.275944e-09	2.723020e+01	2.230845e+02
2.560000e-06	3.759534e-06	3.291467e-09	2.755879e+01	2.244722e+02
2.570000e-06	3.804171e-06	3.309013e-09	2.788600e+01	2.258530e+02
2.580000e-06	3.848610e-06	3.325399e-09	2.821175e+01	2.272258e+02
2.590000e-06	3.892800e-06	3.338784e-09	2.853568e+01	2.285896e+02
2.600000e-06	3.936823e-06	3.354444e-09	2.885839e+01	2.299429e+02
2.610000e-06	3.980688e-06	3.373215e-09	2.917994e+01	2.312840e+02
2.620000e-06	4.024427e-06	3.389099e-09	2.950056e+01	2.326113e+02
2.630000e-06	4.068027e-06	3.401025e-09	2.982016e+01	2.339228e+02
2.640000e-06	4.111342e-06	3.413699e-09	3.013768e+01	2.352165e+02
2.650000e-06	4.154197e-06	3.429839e-09	3.045182e+01	2.364904e+02
2.660000e-06	4.196507e-06	3.446231e-09	3.076197e+01	2.377424e+02
2.670000e-06	4.238262e-06	3.461232e-09	3.106805e+01	2.389704e+02
2.680000e-06	4.279592e-06	3.476094e-09	3.137101e+01	2.401727e+02
2.690000e-06	4.320582e-06	3.492170e-09	3.167148e+01	2.413472e+02
2.700000e-06	4.361082e-06	3.509612e-09	3.196837e+01	2.424923e+02
2.710000e-06	4.401221e-06	3.526097e-09	3.226260e+01	2.436064e+02
2.720000e-06	4.441192e-06	3.536151e-09	3.255560e+01	2.446881e+02
2.730000e-06	4.480990e-06	3.542637e-09	3.284734e+01	2.457363e+02
2.740000e-06	4.520602e-06	3.552851e-09	3.313771e+01	2.467498e+02
2.750000e-06	4.559932e-06	3.563030e-09	3.342601e+01	2.477282e+02
2.760000e-06	4.598959e-06	3.570807e-09	3.371209e+01	2.486707e+02
2.770000e-06	4.637643e-06	3.580835e-09	3.399566e+01	2.495773e+02
2.780000e-06	4.675945e-06	3.595283e-09	3.427643e+01	2.504479e+02
2.790000e-06	4.713955e-06	3.608430e-09	3.455506e+01	2.512828e+02
2.800000e-06	4.751653e-06	3.618454e-09	3.483140e+01	2.520825e+02
2.810000e-06	4.789063e-06	3.626921e-09	3.510562e+01	2.528478e+02
2.820000e-06	4.826131e-06	3.636415e-09	3.537735e+01	2.535797e+02
2.830000e-06	4.862785e-06	3.645445e-09	3.564604e+01	2.542793e+02
2.840000e-06	4.899128e-06	3.650330e-09	3.591244e+01	2.549482e+02
2.850000e-06	4.935206e-06	3.654859e-09	3.617691e+01	2.555879e+02
2.860000e-06	4.971102e-06	3.662792e-09	3.644004e+01	2.562002e+02
2.870000e-06	5.006799e-06	3.673845e-09	3.670172e+01	2.567869e+02
2.880000e-06	5.042251e-06	3.681324e-09	3.696159e+01	2.573502e+02
2.890000e-06	5.077411e-06	3.689056e-09	3.721932e+01	2.578920e+02
2.900000e-06	5.112063e-06	3.699981e-09	3.747334e+01	2.584146e+02
