# Temperatura_=_20.0
# Concentracion g/m^3_=_9000.0
# C_Vs_to_Am_M_A/Vsm_=_65563218390.804596
# pendiente_HvsI_1/m_=_3716.3
# ordenada_HvsI_A/m_=_1297.0
# frecuencia_Hz_=_135296.63171023305

Tiempo_(s)	Campo_(V.s)	Magnetizacion_(V.s)	Campo_(kA/m)	Magnetizacion_(A/m)
0.000000e+00	-6.531549e-06	-4.568895e-09	-4.763929e+01	-2.793519e+02
1.000000e-08	-6.531841e-06	-4.570027e-09	-4.764142e+01	-2.794645e+02
2.000000e-08	-6.531871e-06	-4.571774e-09	-4.764164e+01	-2.795857e+02
3.000000e-08	-6.531519e-06	-4.573776e-09	-4.763907e+01	-2.797152e+02
4.000000e-08	-6.530593e-06	-4.576215e-09	-4.763232e+01	-2.798525e+02
5.000000e-08	-6.528954e-06	-4.578246e-09	-4.762036e+01	-2.799971e+02
6.000000e-08	-6.526738e-06	-4.580586e-09	-4.760420e+01	-2.801484e+02
7.000000e-08	-6.523936e-06	-4.586666e-09	-4.758376e+01	-2.803058e+02
8.000000e-08	-6.520528e-06	-4.593220e-09	-4.755890e+01	-2.804687e+02
9.000000e-08	-6.516716e-06	-4.585441e-09	-4.753110e+01	-2.806365e+02
1.000000e-07	-6.512488e-06	-4.565718e-09	-4.750027e+01	-2.808083e+02
1.100000e-07	-6.507674e-06	-4.572618e-09	-4.746515e+01	-2.809836e+02
1.200000e-07	-6.502280e-06	-4.605863e-09	-4.742581e+01	-2.811616e+02
1.300000e-07	-6.496498e-06	-4.618134e-09	-4.738364e+01	-2.813416e+02
1.400000e-07	-6.490448e-06	-4.585016e-09	-4.733951e+01	-2.815230e+02
1.500000e-07	-6.484026e-06	-4.574942e-09	-4.729267e+01	-2.817049e+02
1.600000e-07	-6.477111e-06	-4.594765e-09	-4.724223e+01	-2.818868e+02
1.700000e-07	-6.469742e-06	-4.636639e-09	-4.718849e+01	-2.820680e+02
1.800000e-07	-6.462035e-06	-4.629337e-09	-4.713227e+01	-2.822477e+02
1.900000e-07	-6.453974e-06	-4.600804e-09	-4.707348e+01	-2.824254e+02
2.000000e-07	-6.445570e-06	-4.570796e-09	-4.701218e+01	-2.826005e+02
2.100000e-07	-6.436793e-06	-4.584940e-09	-4.694817e+01	-2.827723e+02
2.200000e-07	-6.427331e-06	-4.607645e-09	-4.687915e+01	-2.829403e+02
2.300000e-07	-6.417068e-06	-4.567510e-09	-4.680430e+01	-2.831039e+02
2.400000e-07	-6.406267e-06	-4.495999e-09	-4.672552e+01	-2.832625e+02
2.500000e-07	-6.395050e-06	-4.451810e-09	-4.664370e+01	-2.834155e+02
2.600000e-07	-6.383239e-06	-4.482767e-09	-4.655756e+01	-2.835625e+02
2.700000e-07	-6.370702e-06	-4.444103e-09	-4.646611e+01	-2.837028e+02
2.800000e-07	-6.357628e-06	-4.352237e-09	-4.637076e+01	-2.838359e+02
2.900000e-07	-6.344167e-06	-4.305373e-09	-4.627258e+01	-2.839614e+02
3.000000e-07	-6.330167e-06	-4.324509e-09	-4.617047e+01	-2.840785e+02
3.100000e-07	-6.315605e-06	-4.252357e-09	-4.606426e+01	-2.841867e+02
3.200000e-07	-6.300351e-06	-4.134411e-09	-4.595300e+01	-2.842856e+02
3.300000e-07	-6.284417e-06	-4.077275e-09	-4.583678e+01	-2.843743e+02
3.400000e-07	-6.267959e-06	-4.058309e-09	-4.571674e+01	-2.844525e+02
3.500000e-07	-6.250983e-06	-4.021189e-09	-4.559292e+01	-2.845193e+02
3.600000e-07	-6.233684e-06	-3.986383e-09	-4.546675e+01	-2.845741e+02
3.700000e-07	-6.216044e-06	-3.956237e-09	-4.533809e+01	-2.846163e+02
3.800000e-07	-6.198010e-06	-3.953713e-09	-4.520655e+01	-2.846452e+02
3.900000e-07	-6.179624e-06	-3.988755e-09	-4.507244e+01	-2.846601e+02
4.000000e-07	-6.160779e-06	-4.023902e-09	-4.493500e+01	-2.846602e+02
4.100000e-07	-6.141434e-06	-4.000361e-09	-4.479390e+01	-2.846448e+02
4.200000e-07	-6.121741e-06	-3.989756e-09	-4.465027e+01	-2.846131e+02
4.300000e-07	-6.101792e-06	-4.028280e-09	-4.450476e+01	-2.845644e+02
4.400000e-07	-6.081453e-06	-4.055252e-09	-4.435642e+01	-2.844980e+02
4.500000e-07	-6.060737e-06	-4.028012e-09	-4.420532e+01	-2.844131e+02
4.600000e-07	-6.039714e-06	-3.993690e-09	-4.405199e+01	-2.843089e+02
4.700000e-07	-6.018287e-06	-4.018955e-09	-4.389570e+01	-2.841848e+02
4.800000e-07	-5.996405e-06	-4.044345e-09	-4.373610e+01	-2.840402e+02
4.900000e-07	-5.974111e-06	-4.017402e-09	-4.357349e+01	-2.838743e+02
5.000000e-07	-5.951440e-06	-3.973423e-09	-4.340814e+01	-2.836866e+02
5.100000e-07	-5.928358e-06	-3.993916e-09	-4.323978e+01	-2.834766e+02
5.200000e-07	-5.904886e-06	-4.011353e-09	-4.306859e+01	-2.832438e+02
5.300000e-07	-5.881052e-06	-3.996462e-09	-4.289475e+01	-2.829878e+02
5.400000e-07	-5.856851e-06	-3.970850e-09	-4.271823e+01	-2.827083e+02
5.500000e-07	-5.832345e-06	-3.974898e-09	-4.253949e+01	-2.824051e+02
5.600000e-07	-5.807297e-06	-3.980477e-09	-4.235680e+01	-2.820782e+02
5.700000e-07	-5.781503e-06	-3.990728e-09	-4.216866e+01	-2.817273e+02
5.800000e-07	-5.755045e-06	-3.975097e-09	-4.197569e+01	-2.813527e+02
5.900000e-07	-5.728052e-06	-3.951195e-09	-4.177881e+01	-2.809546e+02
6.000000e-07	-5.700639e-06	-3.953990e-09	-4.157887e+01	-2.805332e+02
6.100000e-07	-5.672949e-06	-3.981183e-09	-4.137690e+01	-2.800890e+02
6.200000e-07	-5.645025e-06	-3.967999e-09	-4.117323e+01	-2.796226e+02
6.300000e-07	-5.616802e-06	-3.936481e-09	-4.096738e+01	-2.791345e+02
6.400000e-07	-5.588234e-06	-3.933790e-09	-4.075902e+01	-2.786256e+02
6.500000e-07	-5.559216e-06	-3.954769e-09	-4.054736e+01	-2.780968e+02
6.600000e-07	-5.529745e-06	-3.956439e-09	-4.033241e+01	-2.775490e+02
6.700000e-07	-5.499909e-06	-3.932742e-09	-4.011480e+01	-2.769834e+02
6.800000e-07	-5.469754e-06	-3.918120e-09	-3.989485e+01	-2.764011e+02
6.900000e-07	-5.439207e-06	-3.928168e-09	-3.967206e+01	-2.758035e+02
7.000000e-07	-5.408267e-06	-3.934309e-09	-3.944639e+01	-2.751917e+02
7.100000e-07	-5.376929e-06	-3.915291e-09	-3.921781e+01	-2.745673e+02
7.200000e-07	-5.345283e-06	-3.900176e-09	-3.898700e+01	-2.739317e+02
7.300000e-07	-5.313469e-06	-3.895690e-09	-3.875496e+01	-2.732864e+02
7.400000e-07	-5.281469e-06	-3.896316e-09	-3.852155e+01	-2.726328e+02
7.500000e-07	-5.249107e-06	-3.888131e-09	-3.828552e+01	-2.719724e+02
7.600000e-07	-5.216210e-06	-3.877729e-09	-3.804558e+01	-2.713066e+02
7.700000e-07	-5.182824e-06	-3.867484e-09	-3.780207e+01	-2.706371e+02
7.800000e-07	-5.148960e-06	-3.869625e-09	-3.755507e+01	-2.699650e+02
7.900000e-07	-5.114494e-06	-3.867535e-09	-3.730368e+01	-2.692918e+02
8.000000e-07	-5.079466e-06	-3.853125e-09	-3.704820e+01	-2.686187e+02
8.100000e-07	-5.044160e-06	-3.832722e-09	-3.679069e+01	-2.679467e+02
8.200000e-07	-5.008595e-06	-3.828609e-09	-3.653129e+01	-2.672770e+02
8.300000e-07	-4.972667e-06	-3.825489e-09	-3.626924e+01	-2.666105e+02
8.400000e-07	-4.936389e-06	-3.813623e-09	-3.600464e+01	-2.659478e+02
8.500000e-07	-4.899830e-06	-3.800450e-09	-3.573799e+01	-2.652895e+02
8.600000e-07	-4.862924e-06	-3.799401e-09	-3.546880e+01	-2.646361e+02
8.700000e-07	-4.825649e-06	-3.800791e-09	-3.519694e+01	-2.639879e+02
8.800000e-07	-4.787998e-06	-3.791682e-09	-3.492232e+01	-2.633448e+02
8.900000e-07	-4.750033e-06	-3.773455e-09	-3.464541e+01	-2.627068e+02
9.000000e-07	-4.711838e-06	-3.762591e-09	-3.436683e+01	-2.620736e+02
9.100000e-07	-4.673311e-06	-3.756231e-09	-3.408582e+01	-2.614446e+02
9.200000e-07	-4.634442e-06	-3.745143e-09	-3.380232e+01	-2.608191e+02
9.300000e-07	-4.595254e-06	-3.730260e-09	-3.351649e+01	-2.601963e+02
9.400000e-07	-4.555820e-06	-3.723030e-09	-3.322888e+01	-2.595750e+02
9.500000e-07	-4.516188e-06	-3.722369e-09	-3.293981e+01	-2.589540e+02
9.600000e-07	-4.476300e-06	-3.717941e-09	-3.264888e+01	-2.583320e+02
9.700000e-07	-4.436170e-06	-3.704033e-09	-3.235618e+01	-2.577072e+02
9.800000e-07	-4.395745e-06	-3.686650e-09	-3.206133e+01	-2.570781e+02
9.900000e-07	-4.354824e-06	-3.676807e-09	-3.176287e+01	-2.564428e+02
1.000000e-06	-4.313433e-06	-3.669621e-09	-3.146098e+01	-2.557994e+02
1.010000e-06	-4.271706e-06	-3.656629e-09	-3.115663e+01	-2.551458e+02
1.020000e-06	-4.229551e-06	-3.639377e-09	-3.084916e+01	-2.544800e+02
1.030000e-06	-4.186911e-06	-3.629367e-09	-3.053816e+01	-2.537998e+02
1.040000e-06	-4.143903e-06	-3.624110e-09	-3.022447e+01	-2.531032e+02
1.050000e-06	-4.100611e-06	-3.615690e-09	-2.990871e+01	-2.523879e+02
1.060000e-06	-4.057051e-06	-3.597831e-09	-2.959099e+01	-2.516519e+02
1.070000e-06	-4.013239e-06	-3.581090e-09	-2.927144e+01	-2.508932e+02
1.080000e-06	-3.969213e-06	-3.572505e-09	-2.895033e+01	-2.501097e+02
1.090000e-06	-3.924923e-06	-3.565609e-09	-2.862729e+01	-2.492995e+02
1.100000e-06	-3.880350e-06	-3.551802e-09	-2.830219e+01	-2.484610e+02
1.110000e-06	-3.835589e-06	-3.536899e-09	-2.797572e+01	-2.475925e+02
1.120000e-06	-3.790564e-06	-3.525388e-09	-2.764731e+01	-2.466926e+02
1.130000e-06	-3.745113e-06	-3.515283e-09	-2.731581e+01	-2.457600e+02
1.140000e-06	-3.699429e-06	-3.502855e-09	-2.698260e+01	-2.447937e+02
1.150000e-06	-3.653601e-06	-3.486698e-09	-2.664834e+01	-2.437927e+02
1.160000e-06	-3.607469e-06	-3.467264e-09	-2.631187e+01	-2.427565e+02
1.170000e-06	-3.561032e-06	-3.451267e-09	-2.597317e+01	-2.416847e+02
1.180000e-06	-3.514373e-06	-3.439823e-09	-2.563285e+01	-2.405770e+02
1.190000e-06	-3.467521e-06	-3.427022e-09	-2.529113e+01	-2.394336e+02
1.200000e-06	-3.420359e-06	-3.408530e-09	-2.494714e+01	-2.382547e+02
1.210000e-06	-3.373050e-06	-3.391636e-09	-2.460208e+01	-2.370409e+02
1.220000e-06	-3.325626e-06	-3.378570e-09	-2.425618e+01	-2.357929e+02
1.230000e-06	-3.277926e-06	-3.364853e-09	-2.390828e+01	-2.345117e+02
1.240000e-06	-3.229997e-06	-3.347975e-09	-2.355869e+01	-2.331984e+02
1.250000e-06	-3.181853e-06	-3.329456e-09	-2.320754e+01	-2.318545e+02
1.260000e-06	-3.133550e-06	-3.311229e-09	-2.285524e+01	-2.304813e+02
1.270000e-06	-3.084972e-06	-3.294142e-09	-2.250092e+01	-2.290807e+02
1.280000e-06	-3.036020e-06	-3.276992e-09	-2.214388e+01	-2.276542e+02
1.290000e-06	-2.986831e-06	-3.256520e-09	-2.178511e+01	-2.262038e+02
1.300000e-06	-2.937276e-06	-3.234939e-09	-2.142367e+01	-2.247313e+02
1.310000e-06	-2.887264e-06	-3.213870e-09	-2.105889e+01	-2.232386e+02
1.320000e-06	-2.836950e-06	-3.193942e-09	-2.069192e+01	-2.217277e+02
1.330000e-06	-2.786393e-06	-3.175506e-09	-2.032317e+01	-2.202003e+02
1.340000e-06	-2.735621e-06	-3.155232e-09	-1.995285e+01	-2.186582e+02
1.350000e-06	-2.684589e-06	-3.133556e-09	-1.958064e+01	-2.171031e+02
1.360000e-06	-2.633179e-06	-3.113241e-09	-1.920567e+01	-2.155363e+02
1.370000e-06	-2.581493e-06	-3.093052e-09	-1.882869e+01	-2.139591e+02
1.380000e-06	-2.529750e-06	-3.070940e-09	-1.845129e+01	-2.123726e+02
1.390000e-06	-2.477880e-06	-3.046948e-09	-1.807296e+01	-2.107775e+02
1.400000e-06	-2.425828e-06	-3.022889e-09	-1.769331e+01	-2.091741e+02
1.410000e-06	-2.373700e-06	-2.999605e-09	-1.731310e+01	-2.075627e+02
1.420000e-06	-2.321380e-06	-2.977053e-09	-1.693150e+01	-2.059430e+02
1.430000e-06	-2.268835e-06	-2.953418e-09	-1.654825e+01	-2.043142e+02
1.440000e-06	-2.216154e-06	-2.928141e-09	-1.616401e+01	-2.026754e+02
1.450000e-06	-2.163320e-06	-2.903810e-09	-1.577865e+01	-2.010251e+02
1.460000e-06	-2.110353e-06	-2.879495e-09	-1.539232e+01	-1.993612e+02
1.470000e-06	-2.057231e-06	-2.852803e-09	-1.500486e+01	-1.976815e+02
1.480000e-06	-2.003892e-06	-2.825801e-09	-1.461583e+01	-1.959829e+02
1.490000e-06	-1.950359e-06	-2.800351e-09	-1.422537e+01	-1.942624e+02
1.500000e-06	-1.896768e-06	-2.774821e-09	-1.383449e+01	-1.925159e+02
1.510000e-06	-1.843104e-06	-2.747238e-09	-1.344308e+01	-1.907394e+02
1.520000e-06	-1.789260e-06	-2.719920e-09	-1.305036e+01	-1.889282e+02
1.530000e-06	-1.735217e-06	-2.689679e-09	-1.265619e+01	-1.870772e+02
1.540000e-06	-1.681071e-06	-2.656958e-09	-1.226126e+01	-1.851809e+02
1.550000e-06	-1.626847e-06	-2.622034e-09	-1.186577e+01	-1.832335e+02
1.560000e-06	-1.572496e-06	-2.586640e-09	-1.146934e+01	-1.812288e+02
1.570000e-06	-1.518066e-06	-2.550531e-09	-1.107235e+01	-1.791605e+02
1.580000e-06	-1.463552e-06	-2.516795e-09	-1.067474e+01	-1.770218e+02
1.590000e-06	-1.408898e-06	-2.484936e-09	-1.027611e+01	-1.748058e+02
1.600000e-06	-1.354175e-06	-2.451075e-09	-9.876975e+00	-1.725055e+02
1.610000e-06	-1.299353e-06	-2.411567e-09	-9.477117e+00	-1.701138e+02
1.620000e-06	-1.244374e-06	-2.371085e-09	-9.076115e+00	-1.676236e+02
1.630000e-06	-1.189262e-06	-2.329791e-09	-8.674145e+00	-1.650276e+02
1.640000e-06	-1.134050e-06	-2.286090e-09	-8.271440e+00	-1.623189e+02
1.650000e-06	-1.078798e-06	-2.243965e-09	-7.868453e+00	-1.594905e+02
1.660000e-06	-1.023494e-06	-2.203206e-09	-7.465077e+00	-1.565357e+02
1.670000e-06	-9.681560e-07	-2.161807e-09	-7.061459e+00	-1.534482e+02
1.680000e-06	-9.127780e-07	-2.118233e-09	-6.657548e+00	-1.502219e+02
1.690000e-06	-8.573051e-07	-2.072293e-09	-6.252943e+00	-1.468510e+02
1.700000e-06	-8.018174e-07	-2.022649e-09	-5.848232e+00	-1.433304e+02
1.710000e-06	-7.463682e-07	-1.971500e-09	-5.443801e+00	-1.396554e+02
1.720000e-06	-6.908782e-07	-1.917891e-09	-5.039072e+00	-1.358219e+02
1.730000e-06	-6.353632e-07	-1.860872e-09	-4.634162e+00	-1.318263e+02
1.740000e-06	-5.798458e-07	-1.801331e-09	-4.229233e+00	-1.276659e+02
1.750000e-06	-5.243030e-07	-1.742283e-09	-3.824119e+00	-1.233386e+02
1.760000e-06	-4.687116e-07	-1.681005e-09	-3.418652e+00	-1.188430e+02
1.770000e-06	-4.130928e-07	-1.617055e-09	-3.012983e+00	-1.141786e+02
1.780000e-06	-3.574476e-07	-1.550312e-09	-2.607123e+00	-1.093458e+02
1.790000e-06	-3.017217e-07	-1.480598e-09	-2.200674e+00	-1.043456e+02
1.800000e-06	-2.459844e-07	-1.409525e-09	-1.794142e+00	-9.918017e+01
1.810000e-06	-1.903092e-07	-1.337016e-09	-1.388062e+00	-9.385225e+01
1.820000e-06	-1.346364e-07	-1.260537e-09	-9.820000e-01	-8.836565e+01
1.830000e-06	-7.897719e-08	-1.178819e-09	-5.760375e-01	-8.272500e+01
1.840000e-06	-2.331888e-08	-1.093243e-09	-1.700814e-01	-7.693581e+01
1.850000e-06	3.240304e-08	-1.008529e-09	2.363387e-01	-7.100442e+01
1.860000e-06	8.811310e-08	-9.227700e-10	6.426723e-01	-6.493798e+01
1.870000e-06	1.437741e-07	-8.310306e-10	1.048648e+00	-5.874447e+01
1.880000e-06	1.994309e-07	-7.374964e-10	1.454594e+00	-5.243259e+01
1.890000e-06	2.550914e-07	-6.471472e-10	1.860565e+00	-4.601175e+01
1.900000e-06	3.107295e-07	-5.541899e-10	2.266374e+00	-3.949205e+01
1.910000e-06	3.663736e-07	-4.549566e-10	2.672226e+00	-3.288417e+01
1.920000e-06	4.220262e-07	-3.520806e-10	3.078141e+00	-2.619935e+01
1.930000e-06	4.776849e-07	-2.470735e-10	3.484100e+00	-1.944930e+01
1.940000e-06	5.333602e-07	-1.420450e-10	3.890180e+00	-1.264615e+01
1.950000e-06	5.889955e-07	-3.658243e-11	4.295969e+00	-5.802377e+00
1.960000e-06	6.445782e-07	7.043265e-11	4.701373e+00	1.069277e+00
1.970000e-06	7.001245e-07	1.776614e-10	5.106512e+00	7.955885e+00
1.980000e-06	7.555670e-07	2.825418e-10	5.510894e+00	1.484441e+01
1.990000e-06	8.109269e-07	3.875592e-10	5.914674e+00	2.172177e+01
2.000000e-06	8.662306e-07	4.966164e-10	6.318043e+00	2.857495e+01
2.010000e-06	9.214728e-07	6.026234e-10	6.720965e+00	3.539106e+01
2.020000e-06	9.767062e-07	7.057094e-10	7.123822e+00	4.215741e+01
2.030000e-06	1.031926e-06	8.121108e-10	7.526580e+00	4.886160e+01
2.040000e-06	1.087065e-06	9.193174e-10	7.928745e+00	5.549158e+01
2.050000e-06	1.142139e-06	1.021808e-09	8.330441e+00	6.203575e+01
2.060000e-06	1.197151e-06	1.118117e-09	8.731685e+00	6.848299e+01
2.070000e-06	1.252048e-06	1.212103e-09	9.132085e+00	7.482276e+01
2.080000e-06	1.306845e-06	1.303391e-09	9.531759e+00	8.104512e+01
2.090000e-06	1.361540e-06	1.390739e-09	9.930692e+00	8.714083e+01
2.100000e-06	1.416164e-06	1.475637e-09	1.032910e+01	9.310136e+01
2.110000e-06	1.470777e-06	1.559766e-09	1.072744e+01	9.891896e+01
2.120000e-06	1.525272e-06	1.642445e-09	1.112491e+01	1.045867e+02
2.130000e-06	1.579541e-06	1.723115e-09	1.152073e+01	1.100984e+02
2.140000e-06	1.633634e-06	1.800046e-09	1.191527e+01	1.154488e+02
2.150000e-06	1.687611e-06	1.872034e-09	1.230896e+01	1.206337e+02
2.160000e-06	1.741487e-06	1.938511e-09	1.270192e+01	1.256494e+02
2.170000e-06	1.795324e-06	2.001527e-09	1.309459e+01	1.304933e+02
2.180000e-06	1.849073e-06	2.064109e-09	1.348662e+01	1.351637e+02
2.190000e-06	1.902633e-06	2.126053e-09	1.387728e+01	1.396599e+02
2.200000e-06	1.956059e-06	2.185757e-09	1.426695e+01	1.439817e+02
2.210000e-06	2.009405e-06	2.240410e-09	1.465604e+01	1.481300e+02
2.220000e-06	2.062683e-06	2.293664e-09	1.504463e+01	1.521064e+02
2.230000e-06	2.115778e-06	2.345917e-09	1.543189e+01	1.559134e+02
2.240000e-06	2.168690e-06	2.395173e-09	1.581782e+01	1.595540e+02
2.250000e-06	2.221428e-06	2.439568e-09	1.620247e+01	1.630320e+02
2.260000e-06	2.273937e-06	2.481704e-09	1.658546e+01	1.663519e+02
2.270000e-06	2.326249e-06	2.522518e-09	1.696701e+01	1.695188e+02
2.280000e-06	2.378399e-06	2.563094e-09	1.734737e+01	1.725380e+02
2.290000e-06	2.430433e-06	2.602020e-09	1.772690e+01	1.754156e+02
2.300000e-06	2.482287e-06	2.635205e-09	1.810511e+01	1.781579e+02
2.310000e-06	2.533881e-06	2.666056e-09	1.848142e+01	1.807718e+02
2.320000e-06	2.585268e-06	2.699576e-09	1.885622e+01	1.832641e+02
2.330000e-06	2.636551e-06	2.733960e-09	1.923026e+01	1.856420e+02
2.340000e-06	2.687694e-06	2.765605e-09	1.960329e+01	1.879128e+02
2.350000e-06	2.738499e-06	2.796599e-09	1.997384e+01	1.900840e+02
2.360000e-06	2.788924e-06	2.828209e-09	2.034163e+01	1.921629e+02
2.370000e-06	2.839000e-06	2.859002e-09	2.070687e+01	1.941570e+02
2.380000e-06	2.888706e-06	2.887312e-09	2.106941e+01	1.960733e+02
2.390000e-06	2.938034e-06	2.913123e-09	2.142920e+01	1.979192e+02
2.400000e-06	2.987037e-06	2.936244e-09	2.178661e+01	1.997013e+02
2.410000e-06	3.035709e-06	2.959568e-09	2.214161e+01	2.014263e+02
2.420000e-06	3.084065e-06	2.984616e-09	2.249431e+01	2.031006e+02
2.430000e-06	3.132235e-06	3.008951e-09	2.284564e+01	2.047302e+02
2.440000e-06	3.180268e-06	3.031573e-09	2.319598e+01	2.063205e+02
2.450000e-06	3.228149e-06	3.056049e-09	2.354522e+01	2.078768e+02
2.460000e-06	3.275866e-06	3.081996e-09	2.389325e+01	2.094039e+02
2.470000e-06	3.323459e-06	3.106348e-09	2.424038e+01	2.109061e+02
2.480000e-06	3.370912e-06	3.127870e-09	2.458649e+01	2.123872e+02
2.490000e-06	3.418147e-06	3.147956e-09	2.493101e+01	2.138505e+02
2.500000e-06	3.465058e-06	3.168581e-09	2.527316e+01	2.152991e+02
2.510000e-06	3.511667e-06	3.190133e-09	2.561312e+01	2.167352e+02
2.520000e-06	3.558045e-06	3.209941e-09	2.595138e+01	2.181609e+02
2.530000e-06	3.604180e-06	3.228691e-09	2.628788e+01	2.195777e+02
2.540000e-06	3.650085e-06	3.247752e-09	2.662270e+01	2.209866e+02
2.550000e-06	3.695759e-06	3.265715e-09	2.695583e+01	2.223882e+02
2.560000e-06	3.741169e-06	3.281289e-09	2.728704e+01	2.237829e+02
2.570000e-06	3.786304e-06	3.295974e-09	2.761624e+01	2.251704e+02
2.580000e-06	3.831202e-06	3.310950e-09	2.794372e+01	2.265503e+02
2.590000e-06	3.875845e-06	3.325899e-09	2.826933e+01	2.279217e+02
2.600000e-06	3.920226e-06	3.340703e-09	2.859303e+01	2.292838e+02
2.610000e-06	3.964392e-06	3.357572e-09	2.891516e+01	2.306350e+02
2.620000e-06	4.008336e-06	3.374775e-09	2.923568e+01	2.319740e+02
2.630000e-06	4.052116e-06	3.389317e-09	2.955500e+01	2.332990e+02
2.640000e-06	4.095761e-06	3.403275e-09	2.987333e+01	2.346083e+02
2.650000e-06	4.139168e-06	3.418761e-09	3.018993e+01	2.359000e+02
2.660000e-06	4.182190e-06	3.435408e-09	3.050373e+01	2.371722e+02
2.670000e-06	4.224856e-06	3.449996e-09	3.081492e+01	2.384229e+02
2.680000e-06	4.267049e-06	3.462864e-09	3.112266e+01	2.396501e+02
2.690000e-06	4.308661e-06	3.476528e-09	3.142617e+01	2.408521e+02
2.700000e-06	4.349798e-06	3.492161e-09	3.172621e+01	2.420270e+02
2.710000e-06	4.390493e-06	3.508490e-09	3.202303e+01	2.431732e+02
2.720000e-06	4.430807e-06	3.522753e-09	3.231707e+01	2.442892e+02
2.730000e-06	4.470852e-06	3.533320e-09	3.260915e+01	2.453736e+02
2.740000e-06	4.510771e-06	3.543184e-09	3.290030e+01	2.464253e+02
2.750000e-06	4.550517e-06	3.556210e-09	3.319020e+01	2.474432e+02
2.760000e-06	4.590003e-06	3.570082e-09	3.347819e+01	2.484268e+02
2.770000e-06	4.629180e-06	3.581354e-09	3.376394e+01	2.493753e+02
2.780000e-06	4.668057e-06	3.591053e-09	3.404750e+01	2.502887e+02
2.790000e-06	4.706527e-06	3.601124e-09	3.432809e+01	2.511667e+02
2.800000e-06	4.744570e-06	3.612848e-09	3.460557e+01	2.520098e+02
2.810000e-06	4.782345e-06	3.622144e-09	3.488109e+01	2.528182e+02
2.820000e-06	4.819876e-06	3.629875e-09	3.515483e+01	2.535927e+02
2.830000e-06	4.857083e-06	3.639735e-09	3.542620e+01	2.543342e+02
2.840000e-06	4.893827e-06	3.652299e-09	3.569421e+01	2.550437e+02
2.850000e-06	4.930208e-06	3.662941e-09	3.595956e+01	2.557226e+02
2.860000e-06	4.966349e-06	3.672728e-09	3.622316e+01	2.563724e+02
2.870000e-06	5.002306e-06	3.683233e-09	3.648542e+01	2.569947e+02
2.880000e-06	5.038073e-06	3.693124e-09	3.674630e+01	2.575912e+02
2.890000e-06	5.073563e-06	3.700050e-09	3.700515e+01	2.581639e+02
2.900000e-06	5.108681e-06	3.708147e-09	3.726129e+01	2.587147e+02
