# Temperatura_=_20.0
# Concentracion g/m^3_=_12600.0
# C_Vs_to_Am_M_A/Vsm_=_65563218390.804596
# pendiente_HvsI_1/m_=_3716.3
# ordenada_HvsI_A/m_=_1297.0
# frecuencia_Hz_=_301667.111998832

Tiempo_(s)	Campo_(V.s)	Magnetizacion_(V.s)	Campo_(kA/m)	Magnetizacion_(A/m)
0.000000e+00	-4.044805e-06	-2.290172e-09	-2.906965e+01	-1.500564e+02
1.000000e-08	-4.042966e-06	-2.288964e-09	-2.905643e+01	-1.499103e+02
2.000000e-08	-4.039642e-06	-2.289580e-09	-2.903254e+01	-1.497297e+02
3.000000e-08	-4.035206e-06	-2.289920e-09	-2.900066e+01	-1.495195e+02
4.000000e-08	-4.029455e-06	-2.286828e-09	-2.895933e+01	-1.492832e+02
5.000000e-08	-4.022440e-06	-2.280069e-09	-2.890891e+01	-1.490231e+02
6.000000e-08	-4.014326e-06	-2.272265e-09	-2.885060e+01	-1.487402e+02
7.000000e-08	-4.004713e-06	-2.262834e-09	-2.878151e+01	-1.484349e+02
8.000000e-08	-3.993355e-06	-2.260231e-09	-2.869988e+01	-1.481072e+02
9.000000e-08	-3.980259e-06	-2.289876e-09	-2.860576e+01	-1.477578e+02
1.000000e-07	-3.964996e-06	-2.296946e-09	-2.849606e+01	-1.473879e+02
1.100000e-07	-3.947797e-06	-2.275755e-09	-2.837246e+01	-1.469995e+02
1.200000e-07	-3.929366e-06	-2.198710e-09	-2.824000e+01	-1.465957e+02
1.300000e-07	-3.910083e-06	-2.147241e-09	-2.810141e+01	-1.461801e+02
1.400000e-07	-3.889956e-06	-2.253929e-09	-2.795676e+01	-1.457565e+02
1.500000e-07	-3.868809e-06	-2.275464e-09	-2.780478e+01	-1.453279e+02
1.600000e-07	-3.846726e-06	-2.191621e-09	-2.764607e+01	-1.448960e+02
1.700000e-07	-3.823264e-06	-2.183513e-09	-2.747745e+01	-1.444606e+02
1.800000e-07	-3.797777e-06	-2.134075e-09	-2.729428e+01	-1.440190e+02
1.900000e-07	-3.770806e-06	-2.138611e-09	-2.710044e+01	-1.435655e+02
2.000000e-07	-3.742970e-06	-2.262449e-09	-2.690038e+01	-1.430921e+02
2.100000e-07	-3.713847e-06	-2.185783e-09	-2.669108e+01	-1.425881e+02
2.200000e-07	-3.683253e-06	-2.065398e-09	-2.647120e+01	-1.420418e+02
2.300000e-07	-3.651510e-06	-2.155679e-09	-2.624307e+01	-1.414406e+02
2.400000e-07	-3.618554e-06	-2.184323e-09	-2.600622e+01	-1.407728e+02
2.500000e-07	-3.584110e-06	-2.136126e-09	-2.575867e+01	-1.400283e+02
2.600000e-07	-3.548180e-06	-2.093020e-09	-2.550044e+01	-1.391998e+02
2.700000e-07	-3.510925e-06	-2.013244e-09	-2.523270e+01	-1.382835e+02
2.800000e-07	-3.472475e-06	-2.081928e-09	-2.495636e+01	-1.372793e+02
2.900000e-07	-3.432976e-06	-2.130623e-09	-2.467249e+01	-1.361909e+02
3.000000e-07	-3.392240e-06	-1.987195e-09	-2.437972e+01	-1.350253e+02
3.100000e-07	-3.349904e-06	-1.955697e-09	-2.407545e+01	-1.337920e+02
3.200000e-07	-3.306209e-06	-2.025171e-09	-2.376142e+01	-1.325021e+02
3.300000e-07	-3.261471e-06	-2.002733e-09	-2.343990e+01	-1.311669e+02
3.400000e-07	-3.215607e-06	-1.953997e-09	-2.311027e+01	-1.297969e+02
3.500000e-07	-3.168606e-06	-1.922842e-09	-2.277248e+01	-1.284007e+02
3.600000e-07	-3.120435e-06	-1.892789e-09	-2.242628e+01	-1.269846e+02
3.700000e-07	-3.070705e-06	-1.905879e-09	-2.206888e+01	-1.255518e+02
3.800000e-07	-3.019507e-06	-1.912516e-09	-2.170092e+01	-1.241027e+02
3.900000e-07	-2.967194e-06	-1.838470e-09	-2.132495e+01	-1.226349e+02
4.000000e-07	-2.913783e-06	-1.787285e-09	-2.094109e+01	-1.211441e+02
4.100000e-07	-2.859302e-06	-1.816695e-09	-2.054954e+01	-1.196249e+02
4.200000e-07	-2.804038e-06	-1.814177e-09	-2.015236e+01	-1.180713e+02
4.300000e-07	-2.748062e-06	-1.753108e-09	-1.975007e+01	-1.164780e+02
4.400000e-07	-2.690800e-06	-1.706041e-09	-1.933853e+01	-1.148406e+02
4.500000e-07	-2.632154e-06	-1.697719e-09	-1.891705e+01	-1.131563e+02
4.600000e-07	-2.572683e-06	-1.712085e-09	-1.848964e+01	-1.114239e+02
4.700000e-07	-2.512548e-06	-1.669745e-09	-1.805745e+01	-1.096438e+02
4.800000e-07	-2.451540e-06	-1.594002e-09	-1.761900e+01	-1.078179e+02
4.900000e-07	-2.389613e-06	-1.576619e-09	-1.717393e+01	-1.059485e+02
5.000000e-07	-2.326847e-06	-1.591910e-09	-1.672284e+01	-1.040387e+02
5.100000e-07	-2.263450e-06	-1.569878e-09	-1.626721e+01	-1.020911e+02
5.200000e-07	-2.199413e-06	-1.503667e-09	-1.580698e+01	-1.001077e+02
5.300000e-07	-2.134263e-06	-1.452068e-09	-1.533876e+01	-9.809000e+01
5.400000e-07	-2.067840e-06	-1.444475e-09	-1.486138e+01	-9.603844e+01
5.500000e-07	-2.000658e-06	-1.449433e-09	-1.437854e+01	-9.395282e+01
5.600000e-07	-1.933082e-06	-1.410211e-09	-1.389288e+01	-9.183247e+01
5.700000e-07	-1.864925e-06	-1.339345e-09	-1.340304e+01	-8.967661e+01
5.800000e-07	-1.796028e-06	-1.302046e-09	-1.290789e+01	-8.748468e+01
5.900000e-07	-1.726465e-06	-1.300589e-09	-1.240795e+01	-8.525659e+01
6.000000e-07	-1.656288e-06	-1.279825e-09	-1.190359e+01	-8.299290e+01
6.100000e-07	-1.585513e-06	-1.221246e-09	-1.139494e+01	-8.069481e+01
6.200000e-07	-1.514257e-06	-1.164457e-09	-1.088283e+01	-7.836403e+01
6.300000e-07	-1.442633e-06	-1.141748e-09	-1.036807e+01	-7.600249e+01
6.400000e-07	-1.370543e-06	-1.131932e-09	-9.849970e+00	-7.361197e+01
6.500000e-07	-1.297852e-06	-1.096862e-09	-9.327547e+00	-7.119375e+01
6.600000e-07	-1.224514e-06	-1.042478e-09	-8.800468e+00	-6.874827e+01
6.700000e-07	-1.150484e-06	-9.961381e-10	-8.268427e+00	-6.627493e+01
6.800000e-07	-1.075812e-06	-9.695740e-10	-7.731766e+00	-6.377204e+01
6.900000e-07	-1.000669e-06	-9.442833e-10	-7.191719e+00	-6.123695e+01
7.000000e-07	-9.252335e-07	-9.014584e-10	-6.649569e+00	-5.866634e+01
7.100000e-07	-8.495661e-07	-8.472790e-10	-6.105754e+00	-5.605669e+01
7.200000e-07	-7.736202e-07	-8.006150e-10	-5.559938e+00	-5.340473e+01
7.300000e-07	-6.974158e-07	-7.696330e-10	-5.012264e+00	-5.070802e+01
7.400000e-07	-6.209689e-07	-7.372163e-10	-4.462847e+00	-4.796533e+01
7.500000e-07	-5.442996e-07	-6.948810e-10	-3.911832e+00	-4.517697e+01
7.600000e-07	-4.674399e-07	-6.450166e-10	-3.359448e+00	-4.234486e+01
7.700000e-07	-3.903383e-07	-5.977000e-10	-2.805326e+00	-3.947242e+01
7.800000e-07	-3.130808e-07	-5.581861e-10	-2.250083e+00	-3.656432e+01
7.900000e-07	-2.357829e-07	-5.199383e-10	-1.694550e+00	-3.362593e+01
8.000000e-07	-1.584679e-07	-4.732127e-10	-1.138894e+00	-3.066281e+01
8.100000e-07	-8.109278e-08	-4.162941e-10	-5.828065e-01	-2.768008e+01
8.200000e-07	-3.583225e-09	-3.656740e-10	-2.575231e-02	-2.468191e+01
8.300000e-07	7.401389e-08	-3.295951e-10	5.319311e-01	-2.167111e+01
8.400000e-07	1.515560e-07	-2.957607e-10	1.089219e+00	-1.864891e+01
8.500000e-07	2.290124e-07	-2.472605e-10	1.645891e+00	-1.561493e+01
8.600000e-07	3.064923e-07	-1.902106e-10	2.202732e+00	-1.256736e+01
8.700000e-07	3.840191e-07	-1.434401e-10	2.759910e+00	-9.503359e+00
8.800000e-07	4.613533e-07	-1.083497e-10	3.315704e+00	-6.419479e+00
8.900000e-07	5.384062e-07	-6.610222e-11	3.869476e+00	-3.312239e+00
9.000000e-07	6.153161e-07	-7.192976e-12	4.422221e+00	-1.786107e-01
9.100000e-07	6.920000e-07	5.249759e-11	4.973341e+00	2.983549e+00
9.200000e-07	7.683880e-07	9.707654e-11	5.522335e+00	6.175217e+00
9.300000e-07	8.444487e-07	1.340996e-10	6.068976e+00	9.396075e+00
9.400000e-07	9.201598e-07	1.828462e-10	6.613105e+00	1.264455e+01
9.500000e-07	9.956170e-07	2.425483e-10	7.155409e+00	1.591799e+01
9.600000e-07	1.070809e-06	2.949717e-10	7.695806e+00	1.921295e+01
9.700000e-07	1.145559e-06	3.332119e-10	8.233025e+00	2.252552e+01
9.800000e-07	1.219624e-06	3.748902e-10	8.765324e+00	2.585162e+01
9.900000e-07	1.292886e-06	4.346057e-10	9.291856e+00	2.918726e+01
1.000000e-06	1.365398e-06	4.983326e-10	9.812993e+00	3.252870e+01
1.010000e-06	1.437367e-06	5.466427e-10	1.033023e+01	3.587253e+01
1.020000e-06	1.508928e-06	5.855073e-10	1.084453e+01	3.921553e+01
1.030000e-06	1.580031e-06	6.364071e-10	1.135554e+01	4.255462e+01
1.040000e-06	1.650597e-06	7.015913e-10	1.186269e+01	4.588660e+01
1.050000e-06	1.720601e-06	7.604921e-10	1.236580e+01	4.920805e+01
1.060000e-06	1.790031e-06	7.999413e-10	1.286479e+01	5.251510e+01
1.070000e-06	1.858788e-06	8.377129e-10	1.335894e+01	5.580343e+01
1.080000e-06	1.926893e-06	8.922480e-10	1.384841e+01	5.906831e+01
1.090000e-06	1.994466e-06	9.554445e-10	1.433405e+01	6.230468e+01
1.100000e-06	2.061564e-06	1.005193e-09	1.481628e+01	6.550741e+01
1.110000e-06	2.127942e-06	1.040289e-09	1.529333e+01	6.867151e+01
1.120000e-06	2.193153e-06	1.082136e-09	1.576199e+01	7.179243e+01
1.130000e-06	2.257267e-06	1.140841e-09	1.622277e+01	7.486625e+01
1.140000e-06	2.320747e-06	1.197689e-09	1.667900e+01	7.788982e+01
1.150000e-06	2.383687e-06	1.235209e-09	1.713134e+01	8.086080e+01
1.160000e-06	2.445913e-06	1.265972e-09	1.757856e+01	8.377760e+01
1.170000e-06	2.507241e-06	1.310548e-09	1.801931e+01	8.663921e+01
1.180000e-06	2.567666e-06	1.366182e-09	1.845359e+01	8.944496e+01
1.190000e-06	2.627413e-06	1.411274e-09	1.888298e+01	9.219427e+01
1.200000e-06	2.686449e-06	1.442700e-09	1.930726e+01	9.488640e+01
1.210000e-06	2.744308e-06	1.476714e-09	1.972309e+01	9.752028e+01
1.220000e-06	2.800809e-06	1.523121e-09	2.012916e+01	1.000944e+02
1.230000e-06	2.856241e-06	1.572090e-09	2.052755e+01	1.026070e+02
1.240000e-06	2.910788e-06	1.608313e-09	2.091957e+01	1.050558e+02
1.250000e-06	2.964367e-06	1.633635e-09	2.130463e+01	1.074387e+02
1.260000e-06	3.016876e-06	1.664603e-09	2.168201e+01	1.097538e+02
1.270000e-06	3.068107e-06	1.705004e-09	2.205021e+01	1.119994e+02
1.280000e-06	3.117782e-06	1.744993e-09	2.240722e+01	1.141748e+02
1.290000e-06	3.166019e-06	1.774166e-09	2.275389e+01	1.162798e+02
1.300000e-06	3.213149e-06	1.797542e-09	2.309261e+01	1.183153e+02
1.310000e-06	3.259177e-06	1.827851e-09	2.342341e+01	1.202825e+02
1.320000e-06	3.304037e-06	1.864694e-09	2.374582e+01	1.221830e+02
1.330000e-06	3.347923e-06	1.895855e-09	2.406122e+01	1.240187e+02
1.340000e-06	3.390661e-06	1.917353e-09	2.436837e+01	1.257911e+02
1.350000e-06	3.431880e-06	1.937981e-09	2.466461e+01	1.275010e+02
1.360000e-06	3.471757e-06	1.964521e-09	2.495120e+01	1.291485e+02
1.370000e-06	3.510536e-06	1.994767e-09	2.522990e+01	1.307329e+02
1.380000e-06	3.548152e-06	2.020218e-09	2.550024e+01	1.322528e+02
1.390000e-06	3.584591e-06	2.038479e-09	2.576213e+01	1.337059e+02
1.400000e-06	3.619938e-06	2.055793e-09	2.601616e+01	1.350903e+02
1.410000e-06	3.653971e-06	2.080224e-09	2.626076e+01	1.364040e+02
1.420000e-06	3.686443e-06	2.106904e-09	2.649413e+01	1.376459e+02
1.430000e-06	3.717636e-06	2.126198e-09	2.671831e+01	1.388159e+02
1.440000e-06	3.747755e-06	2.137333e-09	2.693478e+01	1.399156e+02
1.450000e-06	3.776643e-06	2.148452e-09	2.714239e+01	1.409476e+02
1.460000e-06	3.804358e-06	2.165046e-09	2.734158e+01	1.419162e+02
1.470000e-06	3.830654e-06	2.183415e-09	2.753056e+01	1.428265e+02
1.480000e-06	3.855218e-06	2.197113e-09	2.770710e+01	1.436839e+02
1.490000e-06	3.878392e-06	2.205644e-09	2.787365e+01	1.444937e+02
1.500000e-06	3.900372e-06	2.216170e-09	2.803162e+01	1.452604e+02
1.510000e-06	3.921049e-06	2.232923e-09	2.818022e+01	1.459870e+02
1.520000e-06	3.940547e-06	2.250091e-09	2.832035e+01	1.466746e+02
1.530000e-06	3.958780e-06	2.258942e-09	2.845139e+01	1.473226e+02
1.540000e-06	3.975468e-06	2.261123e-09	2.857133e+01	1.479280e+02
1.550000e-06	3.990632e-06	2.266189e-09	2.868031e+01	1.484865e+02
1.560000e-06	4.004298e-06	2.276377e-09	2.877852e+01	1.489926e+02
1.570000e-06	4.016490e-06	2.286138e-09	2.886615e+01	1.494405e+02
1.580000e-06	4.027004e-06	2.291664e-09	2.894171e+01	1.498249e+02
1.590000e-06	4.035740e-06	2.293596e-09	2.900449e+01	1.501413e+02
1.600000e-06	4.043002e-06	2.298091e-09	2.905669e+01	1.503875e+02
1.610000e-06	4.048925e-06	2.306552e-09	2.909925e+01	1.505629e+02
1.620000e-06	4.053514e-06	2.312382e-09	2.913224e+01	1.506693e+02
1.630000e-06	4.056834e-06	2.310796e-09	2.915610e+01	1.507108e+02
1.640000e-06	4.058567e-06	2.307767e-09	2.916855e+01	1.506928e+02
1.650000e-06	4.058664e-06	2.309114e-09	2.916925e+01	1.506220e+02
1.660000e-06	4.057420e-06	2.309929e-09	2.916031e+01	1.505054e+02
1.670000e-06	4.054864e-06	2.307622e-09	2.914194e+01	1.503498e+02
1.680000e-06	4.051143e-06	2.301682e-09	2.911519e+01	1.501610e+02
1.690000e-06	4.046331e-06	2.295016e-09	2.908061e+01	1.499437e+02
1.700000e-06	4.040044e-06	2.293349e-09	2.903543e+01	1.497010e+02
1.710000e-06	4.032249e-06	2.292250e-09	2.897941e+01	1.494347e+02
1.720000e-06	4.023285e-06	2.291162e-09	2.891498e+01	1.491458e+02
1.730000e-06	4.013218e-06	2.299503e-09	2.884264e+01	1.488345e+02
1.740000e-06	4.001851e-06	2.250833e-09	2.876094e+01	1.485010e+02
1.750000e-06	3.988395e-06	2.214593e-09	2.866424e+01	1.481460e+02
1.760000e-06	3.972448e-06	2.207146e-09	2.854962e+01	1.477708e+02
1.770000e-06	3.954677e-06	2.276266e-09	2.842191e+01	1.473779e+02
1.780000e-06	3.936183e-06	2.351050e-09	2.828899e+01	1.469705e+02
1.790000e-06	3.917412e-06	2.241197e-09	2.815408e+01	1.465522e+02
1.800000e-06	3.897290e-06	2.199680e-09	2.800947e+01	1.461267e+02
1.810000e-06	3.875011e-06	2.271011e-09	2.784935e+01	1.456968e+02
1.820000e-06	3.851601e-06	2.242555e-09	2.768111e+01	1.452639e+02
1.830000e-06	3.827291e-06	2.287233e-09	2.750640e+01	1.448269e+02
1.840000e-06	3.801265e-06	2.311298e-09	2.731934e+01	1.443826e+02
1.850000e-06	3.773888e-06	2.136892e-09	2.712259e+01	1.439247e+02
1.860000e-06	3.745490e-06	2.151092e-09	2.691850e+01	1.434443e+02
1.870000e-06	3.715739e-06	2.278777e-09	2.670468e+01	1.429305e+02
1.880000e-06	3.684524e-06	2.164030e-09	2.648034e+01	1.423713e+02
1.890000e-06	3.651670e-06	2.118501e-09	2.624422e+01	1.417542e+02
1.900000e-06	3.617487e-06	2.173804e-09	2.599855e+01	1.410677e+02
1.910000e-06	3.582400e-06	2.144298e-09	2.574638e+01	1.403024e+02
1.920000e-06	3.546085e-06	2.202098e-09	2.548539e+01	1.394518e+02
1.930000e-06	3.508242e-06	2.111599e-09	2.521342e+01	1.385131e+02
1.940000e-06	3.468892e-06	2.041240e-09	2.493061e+01	1.374870e+02
1.950000e-06	3.428202e-06	2.186335e-09	2.463818e+01	1.363781e+02
1.960000e-06	3.386426e-06	2.100736e-09	2.433794e+01	1.351943e+02
1.970000e-06	3.343549e-06	1.980875e-09	2.402978e+01	1.339454e+02
1.980000e-06	3.299629e-06	2.031339e-09	2.371414e+01	1.326428e+02
1.990000e-06	3.254801e-06	2.015846e-09	2.339196e+01	1.312976e+02
2.000000e-06	3.208649e-06	2.018165e-09	2.306027e+01	1.299199e+02
2.010000e-06	3.161311e-06	1.977454e-09	2.272005e+01	1.285180e+02
2.020000e-06	3.112954e-06	1.901320e-09	2.237252e+01	1.270972e+02
2.030000e-06	3.063265e-06	1.918403e-09	2.201541e+01	1.256600e+02
2.040000e-06	3.012341e-06	1.924128e-09	2.164942e+01	1.242061e+02
2.050000e-06	2.960350e-06	1.917644e-09	2.127577e+01	1.227327e+02
2.060000e-06	2.907313e-06	1.838658e-09	2.089460e+01	1.212350e+02
2.070000e-06	2.852891e-06	1.779955e-09	2.050347e+01	1.197074e+02
2.080000e-06	2.797081e-06	1.824305e-09	2.010237e+01	1.181440e+02
2.090000e-06	2.740423e-06	1.815707e-09	1.969517e+01	1.165397e+02
2.100000e-06	2.682949e-06	1.770274e-09	1.928211e+01	1.148904e+02
2.110000e-06	2.624454e-06	1.691244e-09	1.886171e+01	1.131938e+02
2.120000e-06	2.565051e-06	1.677452e-09	1.843479e+01	1.114490e+02
2.130000e-06	2.505009e-06	1.730100e-09	1.800327e+01	1.096569e+02
2.140000e-06	2.444257e-06	1.673722e-09	1.756665e+01	1.078195e+02
2.150000e-06	2.382249e-06	1.597399e-09	1.712101e+01	1.059394e+02
2.160000e-06	2.318940e-06	1.555412e-09	1.666601e+01	1.040195e+02
2.170000e-06	2.254870e-06	1.554969e-09	1.620555e+01	1.020624e+02
2.180000e-06	2.190147e-06	1.564263e-09	1.574039e+01	1.000701e+02
2.190000e-06	2.124647e-06	1.502773e-09	1.526964e+01	9.804352e+01
2.200000e-06	2.058375e-06	1.440369e-09	1.479336e+01	9.598313e+01
2.210000e-06	1.991394e-06	1.414965e-09	1.431196e+01	9.388855e+01
2.220000e-06	1.923719e-06	1.415501e-09	1.382559e+01	9.175904e+01
2.230000e-06	1.855469e-06	1.392642e-09	1.333509e+01	8.959385e+01
2.240000e-06	1.786732e-06	1.323083e-09	1.284108e+01	8.739251e+01
2.250000e-06	1.717170e-06	1.276277e-09	1.234114e+01	8.515508e+01
2.260000e-06	1.646581e-06	1.253479e-09	1.183383e+01	8.288230e+01
2.270000e-06	1.575129e-06	1.232893e-09	1.132031e+01	8.057551e+01
2.280000e-06	1.503098e-06	1.191027e-09	1.080263e+01	7.823651e+01
2.290000e-06	1.430715e-06	1.136667e-09	1.028242e+01	7.586721e+01
2.300000e-06	1.357991e-06	1.104292e-09	9.759756e+00	7.346932e+01
2.310000e-06	1.284870e-06	1.077162e-09	9.234242e+00	7.104393e+01
2.320000e-06	1.211283e-06	1.048782e-09	8.705384e+00	6.859123e+01
2.330000e-06	1.137276e-06	1.004244e-09	8.173500e+00	6.611035e+01
2.340000e-06	1.062932e-06	9.530643e-10	7.639193e+00	6.359934e+01
2.350000e-06	9.882290e-07	9.151656e-10	7.102312e+00	6.105534e+01
2.360000e-06	9.131830e-07	8.831536e-10	6.562963e+00	5.847495e+01
2.370000e-06	8.378390e-07	8.475423e-10	6.021472e+00	5.585464e+01
2.380000e-06	7.622712e-07	7.977802e-10	5.478374e+00	5.319133e+01
2.390000e-06	6.864856e-07	7.506953e-10	4.933709e+00	5.048283e+01
2.400000e-06	6.104050e-07	7.137266e-10	4.386925e+00	4.772828e+01
2.410000e-06	5.340649e-07	6.798232e-10	3.838276e+00	4.492839e+01
2.420000e-06	4.575392e-07	6.417273e-10	3.288293e+00	4.208546e+01
2.430000e-06	3.809117e-07	5.905208e-10	2.737578e+00	3.920329e+01
2.440000e-06	3.041282e-07	5.356273e-10	2.185741e+00	3.628674e+01
2.450000e-06	2.271690e-07	4.924919e-10	1.632643e+00	3.334130e+01
2.460000e-06	1.500149e-07	4.597459e-10	1.078143e+00	3.037246e+01
2.470000e-06	7.268024e-08	4.183196e-10	5.223463e-01	2.738517e+01
2.480000e-06	-4.662586e-09	3.574072e-10	-3.350958e-02	2.438329e+01
2.490000e-06	-8.198540e-08	2.986423e-10	-5.892216e-01	2.136924e+01
2.500000e-06	-1.592785e-07	2.634456e-10	-1.144720e+00	1.834384e+01
2.510000e-06	-2.365004e-07	2.333946e-10	-1.699707e+00	1.530632e+01
2.520000e-06	-3.136225e-07	1.822900e-10	-2.253976e+00	1.225459e+01
2.530000e-06	-3.905524e-07	1.170200e-10	-2.806865e+00	9.185598e+00
2.540000e-06	-4.673066e-07	6.638449e-11	-3.358490e+00	6.095842e+00
2.550000e-06	-5.439209e-07	3.545182e-11	-3.909110e+00	2.981906e+00
2.560000e-06	-6.203496e-07	-2.162977e-12	-4.458396e+00	-1.590495e-01
2.570000e-06	-6.965393e-07	-6.397861e-11	-5.005964e+00	-3.328899e+00
2.580000e-06	-7.724330e-07	-1.323497e-10	-5.551406e+00	-6.528299e+00
2.590000e-06	-8.480342e-07	-1.780590e-10	-6.094745e+00	-9.756607e+00
2.600000e-06	-9.233455e-07	-2.075988e-10	-6.636000e+00	-1.301196e+01
2.610000e-06	-9.982221e-07	-2.526517e-10	-7.174131e+00	-1.629148e+01
2.620000e-06	-1.072654e-06	-3.208676e-10	-7.709066e+00	-1.959158e+01
2.630000e-06	-1.146735e-06	-3.837035e-10	-8.241479e+00	-2.290827e+01
2.640000e-06	-1.220395e-06	-4.218084e-10	-8.770868e+00	-2.623747e+01
2.650000e-06	-1.293629e-06	-4.558952e-10	-9.297194e+00	-2.957525e+01
2.660000e-06	-1.366430e-06	-5.119357e-10	-9.820407e+00	-3.291796e+01
2.670000e-06	-1.438810e-06	-5.823179e-10	-1.034059e+01	-3.626222e+01
2.680000e-06	-1.510834e-06	-6.373613e-10	-1.085823e+01	-3.960489e+01
2.690000e-06	-1.582367e-06	-6.710066e-10	-1.137233e+01	-4.294286e+01
2.700000e-06	-1.653143e-06	-7.100510e-10	-1.188099e+01	-4.627290e+01
2.710000e-06	-1.722957e-06	-7.719554e-10	-1.238274e+01	-4.959148e+01
2.720000e-06	-1.791858e-06	-8.362799e-10	-1.287792e+01	-5.289463e+01
2.730000e-06	-1.860173e-06	-8.787338e-10	-1.336890e+01	-5.617791e+01
2.740000e-06	-1.928035e-06	-9.104032e-10	-1.385661e+01	-5.943650e+01
2.750000e-06	-1.995275e-06	-9.583767e-10	-1.433986e+01	-6.266529e+01
2.760000e-06	-2.061770e-06	-1.024580e-09	-1.481775e+01	-6.585917e+01
2.770000e-06	-2.127564e-06	-1.082822e-09	-1.529061e+01	-6.901324e+01
2.780000e-06	-2.192692e-06	-1.120617e-09	-1.575868e+01	-7.212308e+01
2.790000e-06	-2.257197e-06	-1.155934e-09	-1.622227e+01	-7.518495e+01
2.800000e-06	-2.321045e-06	-1.206934e-09	-1.668114e+01	-7.819591e+01
2.810000e-06	-2.383895e-06	-1.264378e-09	-1.713284e+01	-8.115383e+01
2.820000e-06	-2.445551e-06	-1.307784e-09	-1.757596e+01	-8.405726e+01
2.830000e-06	-2.506252e-06	-1.338820e-09	-1.801221e+01	-8.690532e+01
2.840000e-06	-2.566240e-06	-1.374930e-09	-1.844333e+01	-8.969736e+01
2.850000e-06	-2.625461e-06	-1.423526e-09	-1.886895e+01	-9.243281e+01
2.860000e-06	-2.683735e-06	-1.473580e-09	-1.928776e+01	-9.511085e+01
2.870000e-06	-2.741043e-06	-1.511200e-09	-1.969963e+01	-9.773031e+01
2.880000e-06	-2.797509e-06	-1.540675e-09	-2.010544e+01	-1.002896e+02
2.890000e-06	-2.853052e-06	-1.576207e-09	-2.050463e+01	-1.027868e+02
2.900000e-06	-2.907272e-06	-1.620137e-09	-2.089430e+01	-1.052197e+02
2.910000e-06	-2.960043e-06	-1.662000e-09	-2.127356e+01	-1.075862e+02
2.920000e-06	-3.011620e-06	-1.692223e-09	-2.164424e+01	-1.098843e+02
2.930000e-06	-3.062059e-06	-1.716880e-09	-2.200674e+01	-1.121128e+02
2.940000e-06	-3.111173e-06	-1.749812e-09	-2.235971e+01	-1.142709e+02
