# Temperatura_=_20.0
# Concentracion g/m^3_=_12600.0
# C_Vs_to_Am_M_A/Vsm_=_65563218390.804596
# pendiente_HvsI_1/m_=_3716.3
# ordenada_HvsI_A/m_=_1297.0
# frecuencia_Hz_=_301667.96434493165

Tiempo_(s)	Campo_(V.s)	Magnetizacion_(V.s)	Campo_(kA/m)	Magnetizacion_(A/m)
0.000000e+00	-4.055111e-06	-2.301802e-09	-2.907078e+01	-1.506366e+02
1.000000e-08	-4.053152e-06	-2.295269e-09	-2.905673e+01	-1.505114e+02
2.000000e-08	-4.049705e-06	-2.295764e-09	-2.903202e+01	-1.503590e+02
3.000000e-08	-4.045070e-06	-2.298251e-09	-2.899879e+01	-1.501817e+02
4.000000e-08	-4.039190e-06	-2.295613e-09	-2.895664e+01	-1.499797e+02
5.000000e-08	-4.032083e-06	-2.288374e-09	-2.890569e+01	-1.497509e+02
6.000000e-08	-4.023772e-06	-2.281638e-09	-2.884611e+01	-1.494921e+02
7.000000e-08	-4.013933e-06	-2.282872e-09	-2.877558e+01	-1.492002e+02
8.000000e-08	-4.002413e-06	-2.298321e-09	-2.869299e+01	-1.488726e+02
9.000000e-08	-3.989065e-06	-2.281174e-09	-2.859730e+01	-1.485092e+02
1.000000e-07	-3.973548e-06	-2.259211e-09	-2.848606e+01	-1.481121e+02
1.100000e-07	-3.956266e-06	-2.241349e-09	-2.836217e+01	-1.476865e+02
1.200000e-07	-3.937798e-06	-2.231819e-09	-2.822977e+01	-1.472403e+02
1.300000e-07	-3.918398e-06	-2.286816e-09	-2.809069e+01	-1.467831e+02
1.400000e-07	-3.898120e-06	-2.241349e-09	-2.794532e+01	-1.463255e+02
1.500000e-07	-3.876852e-06	-2.178776e-09	-2.779285e+01	-1.458774e+02
1.600000e-07	-3.854542e-06	-2.251742e-09	-2.763291e+01	-1.454462e+02
1.700000e-07	-3.830671e-06	-2.179878e-09	-2.746178e+01	-1.450361e+02
1.800000e-07	-3.804930e-06	-2.152545e-09	-2.727725e+01	-1.446463e+02
1.900000e-07	-3.777855e-06	-2.282273e-09	-2.708315e+01	-1.442707e+02
2.000000e-07	-3.749785e-06	-2.176379e-09	-2.688192e+01	-1.438979e+02
2.100000e-07	-3.720432e-06	-2.095722e-09	-2.667149e+01	-1.435122e+02
2.200000e-07	-3.689714e-06	-2.234322e-09	-2.645128e+01	-1.430942e+02
2.300000e-07	-3.657826e-06	-2.217537e-09	-2.622267e+01	-1.426229e+02
2.400000e-07	-3.624654e-06	-2.154291e-09	-2.598487e+01	-1.420778e+02
2.500000e-07	-3.589946e-06	-2.162322e-09	-2.573604e+01	-1.414408e+02
2.600000e-07	-3.553710e-06	-2.091003e-09	-2.547627e+01	-1.406977e+02
2.700000e-07	-3.516195e-06	-2.110974e-09	-2.520733e+01	-1.398401e+02
2.800000e-07	-3.477561e-06	-2.144447e-09	-2.493037e+01	-1.388656e+02
2.900000e-07	-3.437820e-06	-2.078525e-09	-2.464547e+01	-1.377781e+02
3.000000e-07	-3.396804e-06	-2.051541e-09	-2.435142e+01	-1.365876e+02
3.100000e-07	-3.354297e-06	-2.033768e-09	-2.404670e+01	-1.353080e+02
3.200000e-07	-3.310424e-06	-2.011336e-09	-2.373217e+01	-1.339563e+02
3.300000e-07	-3.265427e-06	-2.032354e-09	-2.340959e+01	-1.325505e+02
3.400000e-07	-3.219337e-06	-2.011879e-09	-2.307917e+01	-1.311073e+02
3.500000e-07	-3.172121e-06	-1.939248e-09	-2.274069e+01	-1.296408e+02
3.600000e-07	-3.123602e-06	-1.906428e-09	-2.239286e+01	-1.281612e+02
3.700000e-07	-3.073532e-06	-1.928516e-09	-2.203391e+01	-1.266743e+02
3.800000e-07	-3.022057e-06	-1.932799e-09	-2.166489e+01	-1.251808e+02
3.900000e-07	-2.969494e-06	-1.881634e-09	-2.128807e+01	-1.236776e+02
4.000000e-07	-2.915888e-06	-1.831366e-09	-2.090377e+01	-1.221582e+02
4.100000e-07	-2.861253e-06	-1.800730e-09	-2.051210e+01	-1.206141e+02
4.200000e-07	-2.805839e-06	-1.806760e-09	-2.011485e+01	-1.190367e+02
4.300000e-07	-2.749539e-06	-1.814978e-09	-1.971123e+01	-1.174178e+02
4.400000e-07	-2.691918e-06	-1.763463e-09	-1.929815e+01	-1.157514e+02
4.500000e-07	-2.633067e-06	-1.702177e-09	-1.887626e+01	-1.140342e+02
4.600000e-07	-2.573397e-06	-1.674519e-09	-1.844848e+01	-1.122655e+02
4.700000e-07	-2.512977e-06	-1.683102e-09	-1.801534e+01	-1.104476e+02
4.800000e-07	-2.451772e-06	-1.679442e-09	-1.757657e+01	-1.085846e+02
4.900000e-07	-2.389676e-06	-1.621845e-09	-1.713140e+01	-1.066822e+02
5.000000e-07	-2.326731e-06	-1.556605e-09	-1.668016e+01	-1.047459e+02
5.100000e-07	-2.263141e-06	-1.538368e-09	-1.622428e+01	-1.027809e+02
5.200000e-07	-2.198706e-06	-1.547338e-09	-1.576236e+01	-1.007907e+02
5.300000e-07	-2.133117e-06	-1.523123e-09	-1.529215e+01	-9.877692e+01
5.400000e-07	-2.066452e-06	-1.459292e-09	-1.481423e+01	-9.673904e+01
5.500000e-07	-1.999085e-06	-1.404456e-09	-1.433128e+01	-9.467476e+01
5.600000e-07	-1.931251e-06	-1.391048e-09	-1.384499e+01	-9.258037e+01
5.700000e-07	-1.862800e-06	-1.394006e-09	-1.335427e+01	-9.045152e+01
5.800000e-07	-1.793634e-06	-1.365378e-09	-1.285842e+01	-8.828396e+01
5.900000e-07	-1.723841e-06	-1.297524e-09	-1.235808e+01	-8.607435e+01
6.000000e-07	-1.653383e-06	-1.244305e-09	-1.185297e+01	-8.382071e+01
6.100000e-07	-1.582340e-06	-1.228537e-09	-1.134367e+01	-8.152283e+01
6.200000e-07	-1.510910e-06	-1.218984e-09	-1.083160e+01	-7.918222e+01
6.300000e-07	-1.439102e-06	-1.180244e-09	-1.031681e+01	-7.680185e+01
6.400000e-07	-1.366731e-06	-1.118793e-09	-9.797985e+00	-7.438567e+01
6.500000e-07	-1.293612e-06	-1.071867e-09	-9.273804e+00	-7.193789e+01
6.600000e-07	-1.219822e-06	-1.051695e-09	-8.744807e+00	-6.946232e+01
6.700000e-07	-1.145480e-06	-1.036383e-09	-8.211859e+00	-6.696176e+01
6.800000e-07	-1.070608e-06	-9.954180e-10	-7.675103e+00	-6.443751e+01
6.900000e-07	-9.952465e-07	-9.340031e-10	-7.134845e+00	-6.188914e+01
7.000000e-07	-9.195565e-07	-8.851485e-10	-6.592230e+00	-5.931461e+01
7.100000e-07	-8.436450e-07	-8.627926e-10	-6.048026e+00	-5.671051e+01
7.200000e-07	-7.674920e-07	-8.399381e-10	-5.502091e+00	-5.407261e+01
7.300000e-07	-6.911061e-07	-7.909755e-10	-4.954486e+00	-5.139650e+01
7.400000e-07	-6.144751e-07	-7.283574e-10	-4.405124e+00	-4.867823e+01
7.500000e-07	-5.375812e-07	-6.803835e-10	-3.853878e+00	-4.591494e+01
7.600000e-07	-4.604611e-07	-6.549517e-10	-3.301010e+00	-4.310524e+01
7.700000e-07	-3.831705e-07	-6.275278e-10	-2.746920e+00	-4.024945e+01
7.800000e-07	-3.057729e-07	-5.771354e-10	-2.192062e+00	-3.734955e+01
7.900000e-07	-2.282835e-07	-5.127610e-10	-1.636547e+00	-3.440896e+01
8.000000e-07	-1.507627e-07	-4.636489e-10	-1.080806e+00	-3.143202e+01
8.100000e-07	-7.318529e-08	-4.369171e-10	-5.246597e-01	-2.842354e+01
8.200000e-07	4.480165e-09	-4.076717e-10	3.211795e-02	-2.538815e+01
8.300000e-07	8.215735e-08	-3.523223e-10	5.889797e-01	-2.232982e+01
8.400000e-07	1.598226e-07	-2.836907e-10	1.145756e+00	-1.925148e+01
8.500000e-07	2.374720e-07	-2.359086e-10	1.702418e+00	-1.615480e+01
8.600000e-07	3.150634e-07	-2.085975e-10	2.258665e+00	-1.304021e+01
8.700000e-07	3.925659e-07	-1.730898e-10	2.814275e+00	-9.907073e+00
8.800000e-07	4.700030e-07	-1.134761e-10	3.369415e+00	-6.753969e+00
8.900000e-07	5.473062e-07	-4.805726e-11	3.923596e+00	-3.579124e+00
9.000000e-07	6.244250e-07	-6.249733e-13	4.476454e+00	-3.808048e-01
9.100000e-07	7.012658e-07	3.036647e-11	5.027320e+00	2.842312e+00
9.200000e-07	7.777903e-07	7.167309e-11	5.575919e+00	6.090882e+00
9.300000e-07	8.540251e-07	1.357230e-10	6.122440e+00	9.364755e+00
9.400000e-07	9.299184e-07	2.020167e-10	6.666513e+00	1.266297e+01
9.500000e-07	1.005524e-06	2.472575e-10	7.208520e+00	1.598385e+01
9.600000e-07	1.080873e-06	2.773849e-10	7.748694e+00	1.932520e+01
9.700000e-07	1.155779e-06	3.196217e-10	8.285689e+00	2.268449e+01
9.800000e-07	1.229996e-06	3.854165e-10	8.817745e+00	2.605900e+01
9.900000e-07	1.303435e-06	4.545305e-10	9.344225e+00	2.944597e+01
1.000000e-06	1.376102e-06	5.009610e-10	9.865168e+00	3.284261e+01
1.010000e-06	1.448167e-06	5.335086e-10	1.038180e+01	3.624598e+01
1.020000e-06	1.519821e-06	5.822806e-10	1.089548e+01	3.965287e+01
1.030000e-06	1.591049e-06	6.524652e-10	1.140611e+01	4.305960e+01
1.040000e-06	1.661739e-06	7.180172e-10	1.191288e+01	4.646187e+01
1.050000e-06	1.731838e-06	7.602976e-10	1.241541e+01	4.985459e+01
1.060000e-06	1.801342e-06	7.933591e-10	1.291368e+01	5.323189e+01
1.070000e-06	1.870210e-06	8.428998e-10	1.340739e+01	5.658722e+01
1.080000e-06	1.938447e-06	9.110441e-10	1.389658e+01	5.991359e+01
1.090000e-06	2.006142e-06	9.711026e-10	1.438188e+01	6.320389e+01
1.100000e-06	2.073339e-06	1.009036e-09	1.486360e+01	6.645133e+01
1.110000e-06	2.139731e-06	1.041569e-09	1.533956e+01	6.964982e+01
1.120000e-06	2.204937e-06	1.094315e-09	1.580703e+01	7.279437e+01
1.130000e-06	2.269105e-06	1.162516e-09	1.626704e+01	7.588130e+01
1.140000e-06	2.332619e-06	1.216095e-09	1.672236e+01	7.890838e+01
1.150000e-06	2.395625e-06	1.245125e-09	1.717405e+01	8.187473e+01
1.160000e-06	2.457916e-06	1.274450e-09	1.762061e+01	8.478059e+01
1.170000e-06	2.519285e-06	1.323496e-09	1.806056e+01	8.762698e+01
1.180000e-06	2.579769e-06	1.380470e-09	1.849417e+01	9.041516e+01
1.190000e-06	2.639566e-06	1.421780e-09	1.892284e+01	9.314628e+01
1.200000e-06	2.698671e-06	1.447964e-09	1.934656e+01	9.582089e+01
1.210000e-06	2.756598e-06	1.481396e-09	1.976184e+01	9.843871e+01
1.220000e-06	2.813143e-06	1.533344e-09	2.016720e+01	1.009985e+02
1.230000e-06	2.868597e-06	1.588090e-09	2.056475e+01	1.034982e+02
1.240000e-06	2.923180e-06	1.622663e-09	2.095605e+01	1.059350e+02
1.250000e-06	2.976869e-06	1.643341e-09	2.134095e+01	1.083059e+02
1.260000e-06	3.029468e-06	1.671532e-09	2.171803e+01	1.106079e+02
1.270000e-06	3.080746e-06	1.713944e-09	2.208563e+01	1.128389e+02
1.280000e-06	3.130489e-06	1.755800e-09	2.244223e+01	1.149972e+02
1.290000e-06	3.178764e-06	1.782983e-09	2.278831e+01	1.170827e+02
1.300000e-06	3.225859e-06	1.800927e-09	2.312593e+01	1.190961e+02
1.310000e-06	3.271863e-06	1.829696e-09	2.345573e+01	1.210390e+02
1.320000e-06	3.316778e-06	1.870856e-09	2.377772e+01	1.229138e+02
1.330000e-06	3.360639e-06	1.906517e-09	2.409216e+01	1.247227e+02
1.340000e-06	3.403348e-06	1.925926e-09	2.439834e+01	1.264681e+02
1.350000e-06	3.444644e-06	1.938898e-09	2.469439e+01	1.281511e+02
1.360000e-06	3.484583e-06	1.960800e-09	2.498070e+01	1.297723e+02
1.370000e-06	3.523350e-06	1.993367e-09	2.525863e+01	1.313310e+02
1.380000e-06	3.560923e-06	2.021711e-09	2.552798e+01	1.328255e+02
1.390000e-06	3.597369e-06	2.036406e-09	2.578926e+01	1.342537e+02
1.400000e-06	3.632666e-06	2.047387e-09	2.604230e+01	1.356133e+02
1.410000e-06	3.666619e-06	2.069569e-09	2.628571e+01	1.369024e+02
1.420000e-06	3.699140e-06	2.099822e-09	2.651885e+01	1.381201e+02
1.430000e-06	3.730354e-06	2.122726e-09	2.674262e+01	1.392671e+02
1.440000e-06	3.760358e-06	2.132011e-09	2.695771e+01	1.403458e+02
1.450000e-06	3.789187e-06	2.138550e-09	2.716439e+01	1.413602e+02
1.460000e-06	3.816862e-06	2.154656e-09	2.736279e+01	1.423159e+02
1.470000e-06	3.843089e-06	2.176500e-09	2.755081e+01	1.432192e+02
1.480000e-06	3.867705e-06	2.192277e-09	2.772728e+01	1.440766e+02
1.490000e-06	3.890892e-06	2.197868e-09	2.789351e+01	1.448938e+02
1.500000e-06	3.912737e-06	2.203970e-09	2.805011e+01	1.456753e+02
1.510000e-06	3.933338e-06	2.220300e-09	2.819780e+01	1.464231e+02
1.520000e-06	3.952804e-06	2.240885e-09	2.833735e+01	1.471368e+02
1.530000e-06	3.970951e-06	2.252284e-09	2.846744e+01	1.478134e+02
1.540000e-06	3.987579e-06	2.254057e-09	2.858664e+01	1.484477e+02
1.550000e-06	4.002630e-06	2.258357e-09	2.869454e+01	1.490325e+02
1.560000e-06	4.016104e-06	2.270297e-09	2.879114e+01	1.495602e+02
1.570000e-06	4.028043e-06	2.283634e-09	2.887673e+01	1.500234e+02
1.580000e-06	4.038278e-06	2.289234e-09	2.895010e+01	1.504157e+02
1.590000e-06	4.046887e-06	2.287017e-09	2.901182e+01	1.507332e+02
1.600000e-06	4.054099e-06	2.288582e-09	2.906352e+01	1.509746e+02
1.610000e-06	4.059869e-06	2.297667e-09	2.910489e+01	1.511418e+02
1.620000e-06	4.064261e-06	2.305620e-09	2.913637e+01	1.512394e+02
1.630000e-06	4.067322e-06	2.305666e-09	2.915832e+01	1.512743e+02
1.640000e-06	4.068847e-06	2.299908e-09	2.916925e+01	1.512550e+02
1.650000e-06	4.068828e-06	2.296697e-09	2.916911e+01	1.511902e+02
1.660000e-06	4.067486e-06	2.298795e-09	2.915949e+01	1.510882e+02
1.670000e-06	4.064874e-06	2.301357e-09	2.914076e+01	1.509555e+02
1.680000e-06	4.061108e-06	2.296715e-09	2.911377e+01	1.507964e+02
1.690000e-06	4.056141e-06	2.287896e-09	2.907816e+01	1.506128e+02
1.700000e-06	4.049638e-06	2.283168e-09	2.903154e+01	1.504040e+02
1.710000e-06	4.041670e-06	2.282865e-09	2.897442e+01	1.501677e+02
1.720000e-06	4.032553e-06	2.281246e-09	2.890906e+01	1.499006e+02
1.730000e-06	4.022313e-06	2.255705e-09	2.883565e+01	1.495996e+02
1.740000e-06	4.010662e-06	2.250781e-09	2.875212e+01	1.492627e+02
1.750000e-06	3.996845e-06	2.255030e-09	2.865308e+01	1.488902e+02
1.760000e-06	3.980628e-06	2.257081e-09	2.853682e+01	1.484851e+02
1.770000e-06	3.962773e-06	2.260870e-09	2.840881e+01	1.480532e+02
1.780000e-06	3.944277e-06	2.207911e-09	2.827622e+01	1.476030e+02
1.790000e-06	3.925335e-06	2.241502e-09	2.814042e+01	1.471444e+02
1.800000e-06	3.904796e-06	2.281783e-09	2.799318e+01	1.466880e+02
1.810000e-06	3.882295e-06	2.179273e-09	2.783187e+01	1.462432e+02
1.820000e-06	3.858715e-06	2.254877e-09	2.766283e+01	1.458168e+02
1.830000e-06	3.834032e-06	2.277198e-09	2.748588e+01	1.454117e+02
1.840000e-06	3.807777e-06	2.113714e-09	2.729766e+01	1.450259e+02
1.850000e-06	3.780318e-06	2.201594e-09	2.710080e+01	1.446520e+02
1.860000e-06	3.751737e-06	2.262967e-09	2.689591e+01	1.442773e+02
1.870000e-06	3.721668e-06	2.110877e-09	2.668035e+01	1.438851e+02
1.880000e-06	3.690104e-06	2.158705e-09	2.645407e+01	1.434554e+02
1.890000e-06	3.657029e-06	2.215394e-09	2.621696e+01	1.429673e+02
1.900000e-06	3.622715e-06	2.139674e-09	2.597097e+01	1.424005e+02
1.910000e-06	3.587478e-06	2.206055e-09	2.571835e+01	1.417378e+02
1.920000e-06	3.550962e-06	2.169799e-09	2.545657e+01	1.409663e+02
1.930000e-06	3.512875e-06	2.111623e-09	2.518353e+01	1.400791e+02
1.940000e-06	3.473299e-06	2.178972e-09	2.489981e+01	1.390754e+02
1.950000e-06	3.432425e-06	2.106833e-09	2.460679e+01	1.379608e+02
1.960000e-06	3.390492e-06	2.099770e-09	2.430617e+01	1.367462e+02
1.970000e-06	3.347482e-06	2.142760e-09	2.399784e+01	1.354466e+02
1.980000e-06	3.303452e-06	2.029023e-09	2.368219e+01	1.340795e+02
1.990000e-06	3.258348e-06	2.022656e-09	2.335884e+01	1.326625e+02
2.000000e-06	3.211945e-06	2.032014e-09	2.302619e+01	1.312119e+02
2.010000e-06	3.164478e-06	2.003157e-09	2.268590e+01	1.297411e+02
2.020000e-06	3.115897e-06	1.993986e-09	2.233762e+01	1.282590e+02
2.030000e-06	3.065962e-06	1.921838e-09	2.197964e+01	1.267702e+02
2.040000e-06	3.014819e-06	1.926296e-09	2.161301e+01	1.252745e+02
2.050000e-06	2.962583e-06	1.923569e-09	2.123853e+01	1.237676e+02
2.060000e-06	2.909242e-06	1.893966e-09	2.085613e+01	1.222425e+02
2.070000e-06	2.854558e-06	1.881144e-09	2.046411e+01	1.206906e+02
2.080000e-06	2.798584e-06	1.805172e-09	2.006284e+01	1.191032e+02
2.090000e-06	2.741631e-06	1.796489e-09	1.965454e+01	1.174726e+02
2.100000e-06	2.683792e-06	1.797648e-09	1.923990e+01	1.157934e+02
2.110000e-06	2.625093e-06	1.769100e-09	1.881909e+01	1.140629e+02
2.120000e-06	2.565596e-06	1.743960e-09	1.839256e+01	1.122813e+02
2.130000e-06	2.505397e-06	1.669102e-09	1.796100e+01	1.104514e+02
2.140000e-06	2.444256e-06	1.663524e-09	1.752268e+01	1.085777e+02
2.150000e-06	2.381839e-06	1.666856e-09	1.707522e+01	1.066660e+02
2.160000e-06	2.318382e-06	1.621787e-09	1.662030e+01	1.047218e+02
2.170000e-06	2.254230e-06	1.579071e-09	1.616040e+01	1.027499e+02
2.180000e-06	2.189297e-06	1.525319e-09	1.569490e+01	1.007535e+02
2.190000e-06	2.123578e-06	1.519120e-09	1.522377e+01	9.873344e+01
2.200000e-06	2.057218e-06	1.509126e-09	1.474803e+01	9.668894e+01
2.210000e-06	1.990098e-06	1.468411e-09	1.426686e+01	9.461721e+01
2.220000e-06	1.922263e-06	1.417496e-09	1.378056e+01	9.251431e+01
2.230000e-06	1.853843e-06	1.366754e-09	1.329005e+01	9.037584e+01
2.240000e-06	1.784682e-06	1.361103e-09	1.279424e+01	8.819773e+01
2.250000e-06	1.714623e-06	1.341454e-09	1.229200e+01	8.597692e+01
2.260000e-06	1.643685e-06	1.294376e-09	1.178345e+01	8.371186e+01
2.270000e-06	1.572061e-06	1.237628e-09	1.126999e+01	8.140278e+01
2.280000e-06	1.499950e-06	1.192539e-09	1.075302e+01	7.905159e+01
2.290000e-06	1.427438e-06	1.178260e-09	1.023319e+01	7.666157e+01
2.300000e-06	1.354514e-06	1.154122e-09	9.710405e+00	7.423679e+01
2.310000e-06	1.281184e-06	1.110995e-09	9.184710e+00	7.178142e+01
2.320000e-06	1.207441e-06	1.051541e-09	8.656054e+00	6.929909e+01
2.330000e-06	1.133274e-06	1.006037e-09	8.124356e+00	6.679224e+01
2.340000e-06	1.058738e-06	9.905465e-10	7.590012e+00	6.426175e+01
2.350000e-06	9.838191e-07	9.666244e-10	7.052923e+00	6.170679e+01
2.360000e-06	9.084875e-07	9.153997e-10	6.512877e+00	5.912492e+01
2.370000e-06	8.328441e-07	8.513792e-10	5.970595e+00	5.651247e+01
2.380000e-06	7.570260e-07	8.101807e-10	5.427061e+00	5.386512e+01
2.390000e-06	6.810562e-07	7.901057e-10	4.882439e+00	5.117849e+01
2.400000e-06	6.048549e-07	7.595259e-10	4.336158e+00	4.844888e+01
2.410000e-06	5.283660e-07	7.071308e-10	3.787815e+00	4.567374e+01
2.420000e-06	4.516136e-07	6.445583e-10	3.237583e+00	4.285211e+01
2.430000e-06	3.747126e-07	6.009632e-10	2.686286e+00	3.998474e+01
2.440000e-06	2.976509e-07	5.793069e-10	2.133837e+00	3.707399e+01
2.450000e-06	2.203551e-07	5.478760e-10	1.579708e+00	3.412356e+01
2.460000e-06	1.428990e-07	4.880352e-10	1.024432e+00	3.113798e+01
2.470000e-06	6.530429e-08	4.198741e-10	4.681614e-01	2.812204e+01
2.480000e-06	-1.240301e-08	3.757422e-10	-8.891625e-02	2.508027e+01
2.490000e-06	-9.011686e-08	3.503439e-10	-6.460408e-01	2.201640e+01
2.500000e-06	-1.677999e-07	3.095723e-10	-1.202945e+00	1.893305e+01
2.510000e-06	-2.453635e-07	2.427617e-10	-1.758992e+00	1.583159e+01
2.520000e-06	-3.227081e-07	1.762865e-10	-2.313470e+00	1.271216e+01
2.530000e-06	-3.998939e-07	1.347590e-10	-2.866808e+00	9.573872e+00
2.540000e-06	-4.769183e-07	1.083517e-10	-3.418991e+00	6.415194e+00
2.550000e-06	-5.536834e-07	6.718758e-11	-3.969314e+00	3.234322e+00
2.560000e-06	-6.301940e-07	4.130226e-13	-4.517812e+00	2.959526e-02
2.570000e-06	-7.064530e-07	-6.698333e-11	-5.064507e+00	-3.200164e+00
2.580000e-06	-7.824321e-07	-1.100283e-10	-5.609195e+00	-6.455416e+00
2.590000e-06	-8.581595e-07	-1.393603e-10	-6.152079e+00	-9.735805e+00
2.600000e-06	-9.335996e-07	-1.849589e-10	-6.692903e+00	-1.304018e+01
2.610000e-06	-1.008611e-06	-2.553845e-10	-7.230658e+00	-1.636671e+01
2.620000e-06	-1.083227e-06	-3.218459e-10	-7.765568e+00	-1.971310e+01
2.630000e-06	-1.157419e-06	-3.618848e-10	-8.297444e+00	-2.307676e+01
2.640000e-06	-1.231159e-06	-3.927660e-10	-8.826081e+00	-2.645495e+01
2.650000e-06	-1.304485e-06	-4.439661e-10	-9.351753e+00	-2.984492e+01
2.660000e-06	-1.377339e-06	-5.172096e-10	-9.874039e+00	-3.324383e+01
2.670000e-06	-1.449712e-06	-5.826720e-10	-1.039287e+01	-3.664871e+01
2.680000e-06	-1.521671e-06	-6.217282e-10	-1.090874e+01	-4.005623e+01
2.690000e-06	-1.593268e-06	-6.544361e-10	-1.142201e+01	-4.346260e+01
2.700000e-06	-1.664220e-06	-7.109968e-10	-1.193066e+01	-4.686330e+01
2.710000e-06	-1.734233e-06	-7.839266e-10	-1.243258e+01	-5.025305e+01
2.720000e-06	-1.803343e-06	-8.395243e-10	-1.292803e+01	-5.362580e+01
2.730000e-06	-1.871702e-06	-8.695314e-10	-1.341809e+01	-5.697487e+01
2.740000e-06	-1.939509e-06	-9.029592e-10	-1.390419e+01	-6.029319e+01
2.750000e-06	-2.006790e-06	-9.632702e-10	-1.438652e+01	-6.357370e+01
2.760000e-06	-2.073388e-06	-1.034231e-09	-1.486396e+01	-6.680975e+01
2.770000e-06	-2.139297e-06	-1.085210e-09	-1.533646e+01	-6.999549e+01
2.780000e-06	-2.204503e-06	-1.117212e-09	-1.580391e+01	-7.312623e+01
2.790000e-06	-2.268986e-06	-1.155641e-09	-1.626618e+01	-7.619866e+01
2.800000e-06	-2.332801e-06	-1.213440e-09	-1.672367e+01	-7.921090e+01
2.810000e-06	-2.395686e-06	-1.273814e-09	-1.717449e+01	-8.216238e+01
2.820000e-06	-2.457426e-06	-1.313892e-09	-1.761710e+01	-8.505357e+01
2.830000e-06	-2.518205e-06	-1.340615e-09	-1.805282e+01	-8.788559e+01
2.840000e-06	-2.578235e-06	-1.376511e-09	-1.848316e+01	-9.065973e+01
2.850000e-06	-2.637426e-06	-1.429359e-09	-1.890751e+01	-9.337701e+01
2.860000e-06	-2.695662e-06	-1.481492e-09	-1.932499e+01	-9.603779e+01
2.870000e-06	-2.752981e-06	-1.515227e-09	-1.973591e+01	-9.864158e+01
2.880000e-06	-2.809435e-06	-1.540120e-09	-2.014062e+01	-1.011869e+02
2.890000e-06	-2.865018e-06	-1.576208e-09	-2.053909e+01	-1.036714e+02
2.900000e-06	-2.919374e-06	-1.625413e-09	-2.092876e+01	-1.060923e+02
2.910000e-06	-2.972245e-06	-1.669746e-09	-2.130780e+01	-1.084466e+02
2.920000e-06	-3.023877e-06	-1.697926e-09	-2.167794e+01	-1.107314e+02
2.930000e-06	-3.074397e-06	-1.719793e-09	-2.204011e+01	-1.129446e+02
2.940000e-06	-3.123589e-06	-1.752002e-09	-2.239277e+01	-1.150850e+02
