# Temperatura_=_20.0
# Concentracion g/m^3_=_12600.0
# C_Vs_to_Am_M_A/Vsm_=_65563218390.804596
# pendiente_HvsI_1/m_=_3716.3
# ordenada_HvsI_A/m_=_1297.0
# frecuencia_Hz_=_301663.3735061611

Tiempo_(s)	Campo_(V.s)	Magnetizacion_(V.s)	Campo_(kA/m)	Magnetizacion_(A/m)
0.000000e+00	-4.071247e-06	-2.237525e-09	-2.907268e+01	-1.468103e+02
1.000000e-08	-4.070523e-06	-2.239982e-09	-2.906751e+01	-1.467464e+02
2.000000e-08	-4.068130e-06	-2.237992e-09	-2.905043e+01	-1.466487e+02
3.000000e-08	-4.064326e-06	-2.236653e-09	-2.902326e+01	-1.465148e+02
4.000000e-08	-4.059391e-06	-2.236381e-09	-2.898802e+01	-1.463414e+02
5.000000e-08	-4.053148e-06	-2.232663e-09	-2.894344e+01	-1.461248e+02
6.000000e-08	-4.045739e-06	-2.227686e-09	-2.889053e+01	-1.458619e+02
7.000000e-08	-4.037148e-06	-2.214813e-09	-2.882919e+01	-1.455518e+02
8.000000e-08	-4.026892e-06	-2.185298e-09	-2.875595e+01	-1.451963e+02
9.000000e-08	-4.014929e-06	-2.216314e-09	-2.867052e+01	-1.448001e+02
1.000000e-07	-4.001139e-06	-2.287118e-09	-2.857204e+01	-1.443715e+02
1.100000e-07	-3.985120e-06	-2.278954e-09	-2.845765e+01	-1.439211e+02
1.200000e-07	-3.967374e-06	-2.228530e-09	-2.833093e+01	-1.434616e+02
1.300000e-07	-3.948532e-06	-2.016785e-09	-2.819638e+01	-1.430056e+02
1.400000e-07	-3.928896e-06	-2.058490e-09	-2.805616e+01	-1.425647e+02
1.500000e-07	-3.908308e-06	-2.364560e-09	-2.790914e+01	-1.421476e+02
1.600000e-07	-3.886660e-06	-2.186379e-09	-2.775455e+01	-1.417587e+02
1.700000e-07	-3.864079e-06	-2.105253e-09	-2.759330e+01	-1.413973e+02
1.800000e-07	-3.839844e-06	-2.172929e-09	-2.742024e+01	-1.410568e+02
1.900000e-07	-3.813546e-06	-1.954458e-09	-2.723244e+01	-1.407254e+02
2.000000e-07	-3.786097e-06	-2.142507e-09	-2.703643e+01	-1.403867e+02
2.100000e-07	-3.757790e-06	-2.390520e-09	-2.683429e+01	-1.400211e+02
2.200000e-07	-3.728001e-06	-2.012642e-09	-2.662157e+01	-1.396074e+02
2.300000e-07	-3.696863e-06	-1.935808e-09	-2.639922e+01	-1.391254e+02
2.400000e-07	-3.664626e-06	-2.231343e-09	-2.616901e+01	-1.385571e+02
2.500000e-07	-3.630992e-06	-2.190101e-09	-2.592883e+01	-1.378892e+02
2.600000e-07	-3.595845e-06	-2.131370e-09	-2.567785e+01	-1.371134e+02
2.700000e-07	-3.559220e-06	-2.013224e-09	-2.541631e+01	-1.362278e+02
2.800000e-07	-3.521309e-06	-1.927031e-09	-2.514559e+01	-1.352362e+02
2.900000e-07	-3.482370e-06	-2.136801e-09	-2.486753e+01	-1.341479e+02
3.000000e-07	-3.442345e-06	-2.114208e-09	-2.458171e+01	-1.329762e+02
3.100000e-07	-3.400777e-06	-1.906915e-09	-2.428487e+01	-1.317368e+02
3.200000e-07	-3.357597e-06	-1.949531e-09	-2.397653e+01	-1.304459e+02
3.300000e-07	-3.313251e-06	-1.980014e-09	-2.365985e+01	-1.291187e+02
3.400000e-07	-3.267808e-06	-1.957978e-09	-2.333534e+01	-1.277679e+02
3.500000e-07	-3.221203e-06	-1.958623e-09	-2.300254e+01	-1.264024e+02
3.600000e-07	-3.173543e-06	-1.897277e-09	-2.266220e+01	-1.250273e+02
3.700000e-07	-3.124496e-06	-1.844290e-09	-2.231196e+01	-1.236433e+02
3.800000e-07	-3.073763e-06	-1.865464e-09	-2.194967e+01	-1.222478e+02
3.900000e-07	-3.021752e-06	-1.880250e-09	-2.157826e+01	-1.208353e+02
4.000000e-07	-2.968716e-06	-1.806117e-09	-2.119953e+01	-1.193991e+02
4.100000e-07	-2.914606e-06	-1.778267e-09	-2.081313e+01	-1.179320e+02
4.200000e-07	-2.859486e-06	-1.786725e-09	-2.041952e+01	-1.164274e+02
4.300000e-07	-2.803715e-06	-1.745644e-09	-2.002127e+01	-1.148806e+02
4.400000e-07	-2.747080e-06	-1.712123e-09	-1.961684e+01	-1.132889e+02
4.500000e-07	-2.689000e-06	-1.700158e-09	-1.920209e+01	-1.116516e+02
4.600000e-07	-2.629772e-06	-1.693961e-09	-1.877914e+01	-1.099701e+02
4.700000e-07	-2.569799e-06	-1.667603e-09	-1.835088e+01	-1.082471e+02
4.800000e-07	-2.508952e-06	-1.590542e-09	-1.791637e+01	-1.064862e+02
4.900000e-07	-2.447244e-06	-1.560354e-09	-1.747572e+01	-1.046908e+02
5.000000e-07	-2.384711e-06	-1.590848e-09	-1.702917e+01	-1.028636e+02
5.100000e-07	-2.321423e-06	-1.574024e-09	-1.657723e+01	-1.010062e+02
5.200000e-07	-2.257500e-06	-1.499255e-09	-1.612076e+01	-9.911904e+01
5.300000e-07	-2.192530e-06	-1.435620e-09	-1.565681e+01	-9.720110e+01
5.400000e-07	-2.126294e-06	-1.440977e-09	-1.518382e+01	-9.525047e+01
5.500000e-07	-2.059208e-06	-1.455049e-09	-1.470476e+01	-9.326480e+01
5.600000e-07	-1.991647e-06	-1.416019e-09	-1.422231e+01	-9.124181e+01
5.700000e-07	-1.923534e-06	-1.334800e-09	-1.373591e+01	-8.917988e+01
5.800000e-07	-1.854639e-06	-1.283304e-09	-1.324394e+01	-8.707844e+01
5.900000e-07	-1.785063e-06	-1.298185e-09	-1.274710e+01	-8.493815e+01
6.000000e-07	-1.714886e-06	-1.296852e-09	-1.224596e+01	-8.276095e+01
6.100000e-07	-1.644014e-06	-1.233301e-09	-1.173987e+01	-8.054973e+01
6.200000e-07	-1.572608e-06	-1.155262e-09	-1.122996e+01	-7.830791e+01
6.300000e-07	-1.500877e-06	-1.131205e-09	-1.071773e+01	-7.603889e+01
6.400000e-07	-1.428716e-06	-1.139312e-09	-1.020243e+01	-7.374539e+01
6.500000e-07	-1.355922e-06	-1.116516e-09	-9.682612e+00	-7.142903e+01
6.600000e-07	-1.282369e-06	-1.055433e-09	-9.157367e+00	-6.908986e+01
6.700000e-07	-1.208058e-06	-9.940204e-10	-8.626714e+00	-6.672635e+01
6.800000e-07	-1.133149e-06	-9.645373e-10	-8.091788e+00	-6.433537e+01
6.900000e-07	-1.057807e-06	-9.543108e-10	-7.553779e+00	-6.191267e+01
7.000000e-07	-9.821655e-07	-9.266223e-10	-7.013622e+00	-5.945329e+01
7.100000e-07	-9.062675e-07	-8.659434e-10	-6.471636e+00	-5.695229e+01
7.200000e-07	-8.300649e-07	-8.038743e-10	-5.927475e+00	-5.440535e+01
7.300000e-07	-7.535875e-07	-7.710654e-10	-5.381351e+00	-5.180935e+01
7.400000e-07	-6.768081e-07	-7.573451e-10	-4.833071e+00	-4.916282e+01
7.500000e-07	-5.997516e-07	-7.255457e-10	-4.282813e+00	-4.646610e+01
7.600000e-07	-5.224757e-07	-6.673251e-10	-3.730987e+00	-4.372131e+01
7.700000e-07	-4.450022e-07	-6.041826e-10	-3.177751e+00	-4.093211e+01
7.800000e-07	-3.674053e-07	-5.630253e-10	-2.623633e+00	-3.810329e+01
7.900000e-07	-2.897546e-07	-5.442062e-10	-2.069131e+00	-3.524017e+01
8.000000e-07	-2.120807e-07	-5.118825e-10	-1.514464e+00	-3.234812e+01
8.100000e-07	-1.342743e-07	-4.441277e-10	-9.588499e-01	-2.943198e+01
8.200000e-07	-5.623666e-08	-3.700570e-10	-4.015847e-01	-2.649576e+01
8.300000e-07	2.185848e-08	-3.388356e-10	1.560910e-01	-2.354231e+01
8.400000e-07	9.988420e-08	-3.338990e-10	7.132708e-01	-2.057340e+01
8.500000e-07	1.779117e-07	-2.953328e-10	1.270463e+00	-1.758971e+01
8.600000e-07	2.558843e-07	-2.147844e-10	1.827264e+00	-1.459114e+01
8.700000e-07	3.337737e-07	-1.501330e-10	2.383470e+00	-1.157708e+01
8.800000e-07	4.115562e-07	-1.333247e-10	2.938913e+00	-8.546679e+00
8.900000e-07	4.891897e-07	-1.186390e-10	3.493292e+00	-5.499089e+00
9.000000e-07	5.666720e-07	-5.617524e-11	4.046592e+00	-2.433596e+00
9.100000e-07	6.439554e-07	3.294928e-11	4.598471e+00	6.503576e-01
9.200000e-07	7.209924e-07	8.614668e-11	5.148590e+00	3.753253e+00
9.300000e-07	7.977782e-07	9.813661e-11	5.696916e+00	6.875635e+00
9.400000e-07	8.742025e-07	1.269307e-10	6.242660e+00	1.001827e+01
9.500000e-07	9.502454e-07	2.007234e-10	6.785681e+00	1.318228e+01
9.600000e-07	1.026049e-06	2.764783e-10	7.326994e+00	1.636911e+01
9.700000e-07	1.101582e-06	3.098381e-10	7.866373e+00	1.958049e+01
9.800000e-07	1.176722e-06	3.242279e-10	8.402948e+00	2.281813e+01
9.900000e-07	1.251205e-06	3.718936e-10	8.934825e+00	2.608333e+01
1.000000e-06	1.324860e-06	4.549486e-10	9.460795e+00	2.937658e+01
1.010000e-06	1.397777e-06	5.236571e-10	9.981492e+00	3.269697e+01
1.020000e-06	1.470038e-06	5.541224e-10	1.049751e+01	3.604188e+01
1.030000e-06	1.541802e-06	5.822655e-10	1.100997e+01	3.940659e+01
1.040000e-06	1.613184e-06	6.447559e-10	1.151971e+01	4.278426e+01
1.050000e-06	1.684067e-06	7.238745e-10	1.202588e+01	4.616608e+01
1.060000e-06	1.754309e-06	7.783202e-10	1.252748e+01	4.954162e+01
1.070000e-06	1.823944e-06	8.045205e-10	1.302474e+01	5.289952e+01
1.080000e-06	1.892947e-06	8.414494e-10	1.351749e+01	5.622817e+01
1.090000e-06	1.961245e-06	9.070213e-10	1.400521e+01	5.951664e+01
1.100000e-06	2.029007e-06	9.758850e-10	1.448909e+01	6.275537e+01
1.110000e-06	2.096370e-06	1.021915e-09	1.497013e+01	6.593689e+01
1.120000e-06	2.162944e-06	1.051359e-09	1.544553e+01	6.905620e+01
1.130000e-06	2.228262e-06	1.093507e-09	1.591197e+01	7.211093e+01
1.140000e-06	2.292486e-06	1.152950e-09	1.637059e+01	7.510114e+01
1.150000e-06	2.356097e-06	1.207989e-09	1.682483e+01	7.802894e+01
1.160000e-06	2.419227e-06	1.243753e-09	1.727565e+01	8.089779e+01
1.170000e-06	2.481564e-06	1.273852e-09	1.772079e+01	8.371172e+01
1.180000e-06	2.542939e-06	1.315719e-09	1.815907e+01	8.647458e+01
1.190000e-06	2.603434e-06	1.367256e-09	1.859106e+01	8.918929e+01
1.200000e-06	2.663271e-06	1.413269e-09	1.901836e+01	9.185736e+01
1.210000e-06	2.722454e-06	1.448215e-09	1.944098e+01	9.447857e+01
1.220000e-06	2.780408e-06	1.480479e-09	1.985483e+01	9.705103e+01
1.230000e-06	2.836871e-06	1.520384e-09	2.025803e+01	9.957137e+01
1.240000e-06	2.892326e-06	1.567011e-09	2.065404e+01	1.020352e+02
1.250000e-06	2.946919e-06	1.607480e-09	2.104388e+01	1.044378e+02
1.260000e-06	3.000470e-06	1.635995e-09	2.142629e+01	1.067745e+02
1.270000e-06	3.052978e-06	1.660081e-09	2.180125e+01	1.090415e+02
1.280000e-06	3.104224e-06	1.691676e-09	2.216719e+01	1.112359e+02
1.290000e-06	3.153852e-06	1.734470e-09	2.252159e+01	1.133561e+02
1.300000e-06	3.202004e-06	1.773471e-09	2.286544e+01	1.154018e+02
1.310000e-06	3.249026e-06	1.799296e-09	2.320122e+01	1.173735e+02
1.320000e-06	3.294964e-06	1.822670e-09	2.352927e+01	1.192726e+02
1.330000e-06	3.339767e-06	1.852754e-09	2.384920e+01	1.211003e+02
1.340000e-06	3.383511e-06	1.885411e-09	2.416158e+01	1.228575e+02
1.350000e-06	3.426043e-06	1.909668e-09	2.446530e+01	1.245447e+02
1.360000e-06	3.467043e-06	1.925657e-09	2.475808e+01	1.261616e+02
1.370000e-06	3.506823e-06	1.942212e-09	2.504215e+01	1.277071e+02
1.380000e-06	3.545501e-06	1.968469e-09	2.531834e+01	1.291798e+02
1.390000e-06	3.582936e-06	1.997463e-09	2.558567e+01	1.305784e+02
1.400000e-06	3.619264e-06	2.017834e-09	2.584508e+01	1.319019e+02
1.410000e-06	3.654577e-06	2.031628e-09	2.609725e+01	1.331506e+02
1.420000e-06	3.688475e-06	2.050191e-09	2.633932e+01	1.343261e+02
1.430000e-06	3.720752e-06	2.072762e-09	2.656980e+01	1.354315e+02
1.440000e-06	3.751760e-06	2.091494e-09	2.679123e+01	1.364716e+02
1.450000e-06	3.781581e-06	2.103817e-09	2.700418e+01	1.374526e+02
1.460000e-06	3.810174e-06	2.112287e-09	2.720837e+01	1.383810e+02
1.470000e-06	3.837660e-06	2.123506e-09	2.740465e+01	1.392637e+02
1.480000e-06	3.863621e-06	2.138493e-09	2.759003e+01	1.401067e+02
1.490000e-06	3.887878e-06	2.153059e-09	2.776325e+01	1.409143e+02
1.500000e-06	3.910844e-06	2.164732e-09	2.792725e+01	1.416890e+02
1.510000e-06	3.932515e-06	2.176626e-09	2.808200e+01	1.424306e+02
1.520000e-06	3.952938e-06	2.190308e-09	2.822784e+01	1.431367e+02
1.530000e-06	3.972171e-06	2.202845e-09	2.836518e+01	1.438028e+02
1.540000e-06	3.989980e-06	2.211240e-09	2.849236e+01	1.444227e+02
1.550000e-06	4.006277e-06	2.216917e-09	2.860873e+01	1.449900e+02
1.560000e-06	4.021106e-06	2.222778e-09	2.871463e+01	1.454984e+02
1.570000e-06	4.034364e-06	2.228056e-09	2.880931e+01	1.459429e+02
1.580000e-06	4.046132e-06	2.233425e-09	2.889334e+01	1.463204e+02
1.590000e-06	4.056138e-06	2.240201e-09	2.896479e+01	1.466302e+02
1.600000e-06	4.064370e-06	2.245781e-09	2.902358e+01	1.468743e+02
1.610000e-06	4.071215e-06	2.250553e-09	2.907245e+01	1.470567e+02
1.620000e-06	4.076655e-06	2.254995e-09	2.911130e+01	1.471832e+02
1.630000e-06	4.080830e-06	2.257126e-09	2.914111e+01	1.472600e+02
1.640000e-06	4.083643e-06	2.259306e-09	2.916120e+01	1.472936e+02
1.650000e-06	4.084770e-06	2.260815e-09	2.916925e+01	1.472892e+02
1.660000e-06	4.084415e-06	2.258488e-09	2.916671e+01	1.472501e+02
1.670000e-06	4.082805e-06	2.249810e-09	2.915522e+01	1.471777e+02
1.680000e-06	4.079934e-06	2.246346e-09	2.913472e+01	1.470711e+02
1.690000e-06	4.075958e-06	2.244652e-09	2.910632e+01	1.469276e+02
1.700000e-06	4.070694e-06	2.242844e-09	2.906874e+01	1.467437e+02
1.710000e-06	4.063778e-06	2.241972e-09	2.901935e+01	1.465155e+02
1.720000e-06	4.055540e-06	2.239969e-09	2.896052e+01	1.462407e+02
1.730000e-06	4.046232e-06	2.261482e-09	2.889405e+01	1.459189e+02
1.740000e-06	4.035742e-06	2.256591e-09	2.881915e+01	1.455525e+02
1.750000e-06	4.023728e-06	2.143238e-09	2.873335e+01	1.451472e+02
1.760000e-06	4.009370e-06	2.118111e-09	2.863082e+01	1.447119e+02
1.770000e-06	3.992573e-06	2.133358e-09	2.851087e+01	1.442579e+02
1.780000e-06	3.974300e-06	2.353978e-09	2.838039e+01	1.437980e+02
1.790000e-06	3.955651e-06	2.350151e-09	2.824721e+01	1.433447e+02
1.800000e-06	3.936601e-06	1.999334e-09	2.811118e+01	1.429090e+02
1.810000e-06	3.915648e-06	2.177353e-09	2.796155e+01	1.424986e+02
1.820000e-06	3.892584e-06	2.232133e-09	2.779686e+01	1.421167e+02
1.830000e-06	3.868762e-06	2.101158e-09	2.762674e+01	1.417612e+02
1.840000e-06	3.843817e-06	2.375372e-09	2.744861e+01	1.414242e+02
1.850000e-06	3.817089e-06	2.227698e-09	2.725775e+01	1.410926e+02
1.860000e-06	3.789253e-06	1.886336e-09	2.705897e+01	1.407489e+02
1.870000e-06	3.760348e-06	2.235817e-09	2.685256e+01	1.403731e+02
1.880000e-06	3.729878e-06	2.324338e-09	2.663497e+01	1.399441e+02
1.890000e-06	3.697906e-06	1.987108e-09	2.640666e+01	1.394419e+02
1.900000e-06	3.664366e-06	2.072328e-09	2.616715e+01	1.388498e+02
1.910000e-06	3.629651e-06	2.098509e-09	2.591926e+01	1.381553e+02
1.920000e-06	3.594090e-06	2.105742e-09	2.566531e+01	1.373518e+02
1.930000e-06	3.556988e-06	2.209466e-09	2.540037e+01	1.364390e+02
1.940000e-06	3.518235e-06	1.917723e-09	2.512364e+01	1.354221e+02
1.950000e-06	3.478177e-06	2.001874e-09	2.483758e+01	1.343115e+02
1.960000e-06	3.436932e-06	2.184662e-09	2.454305e+01	1.331212e+02
1.970000e-06	3.394627e-06	1.911783e-09	2.424096e+01	1.318673e+02
1.980000e-06	3.351227e-06	1.963563e-09	2.393104e+01	1.305658e+02
1.990000e-06	3.306843e-06	1.997887e-09	2.361409e+01	1.292316e+02
2.000000e-06	3.261347e-06	1.910854e-09	2.328920e+01	1.278763e+02
2.010000e-06	3.214441e-06	1.971843e-09	2.295425e+01	1.265080e+02
2.020000e-06	3.166441e-06	1.875727e-09	2.261149e+01	1.251306e+02
2.030000e-06	3.117309e-06	1.877764e-09	2.226063e+01	1.237440e+02
2.040000e-06	3.066857e-06	1.879658e-09	2.190035e+01	1.223447e+02
2.050000e-06	3.015305e-06	1.827525e-09	2.153222e+01	1.209269e+02
2.060000e-06	2.962665e-06	1.850786e-09	2.115632e+01	1.194835e+02
2.070000e-06	2.908720e-06	1.739683e-09	2.077111e+01	1.180074e+02
2.080000e-06	2.853400e-06	1.759015e-09	2.037606e+01	1.164925e+02
2.090000e-06	2.797004e-06	1.789251e-09	1.997334e+01	1.149346e+02
2.100000e-06	2.739739e-06	1.718255e-09	1.956441e+01	1.133313e+02
2.110000e-06	2.681508e-06	1.695138e-09	1.914859e+01	1.116826e+02
2.120000e-06	2.622408e-06	1.616085e-09	1.872655e+01	1.099903e+02
2.130000e-06	2.562604e-06	1.683313e-09	1.829950e+01	1.082574e+02
2.140000e-06	2.502052e-06	1.688591e-09	1.786710e+01	1.064875e+02
2.150000e-06	2.440410e-06	1.557320e-09	1.742692e+01	1.046837e+02
2.160000e-06	2.377454e-06	1.534695e-09	1.697734e+01	1.028488e+02
2.170000e-06	2.313591e-06	1.519802e-09	1.652130e+01	1.009839e+02
2.180000e-06	2.249088e-06	1.547769e-09	1.606069e+01	9.908902e+01
2.190000e-06	2.183783e-06	1.498863e-09	1.559434e+01	9.716299e+01
2.200000e-06	2.117698e-06	1.409520e-09	1.512243e+01	9.520372e+01
2.210000e-06	2.050888e-06	1.398551e-09	1.464534e+01	9.320879e+01
2.220000e-06	1.983384e-06	1.393845e-09	1.416330e+01	9.117607e+01
2.230000e-06	1.915247e-06	1.397526e-09	1.367673e+01	8.910415e+01
2.240000e-06	1.846416e-06	1.325948e-09	1.318521e+01	8.699276e+01
2.250000e-06	1.776705e-06	1.255990e-09	1.268741e+01	8.484290e+01
2.260000e-06	1.706091e-06	1.248185e-09	1.218316e+01	8.265678e+01
2.270000e-06	1.634708e-06	1.236614e-09	1.167341e+01	8.043746e+01
2.280000e-06	1.562749e-06	1.206444e-09	1.115956e+01	7.818842e+01
2.290000e-06	1.490372e-06	1.139366e-09	1.064271e+01	7.591294e+01
2.300000e-06	1.417486e-06	1.094556e-09	1.012223e+01	7.361352e+01
2.310000e-06	1.344142e-06	1.074423e-09	9.598491e+00	7.129139e+01
2.320000e-06	1.270476e-06	1.056584e-09	9.072439e+00	6.894623e+01
2.330000e-06	1.196376e-06	1.033808e-09	8.543296e+00	6.657607e+01
2.340000e-06	1.121818e-06	9.722422e-10	8.010879e+00	6.417749e+01
2.350000e-06	1.046854e-06	9.153293e-10	7.475564e+00	6.174597e+01
2.360000e-06	9.715397e-07	8.866921e-10	6.937743e+00	5.927652e+01
2.370000e-06	8.959867e-07	8.744146e-10	6.398221e+00	5.676428e+01
2.380000e-06	8.201734e-07	8.403813e-10	5.856840e+00	5.420519e+01
2.390000e-06	7.441146e-07	7.695923e-10	5.313706e+00	5.159652e+01
2.400000e-06	6.678619e-07	7.145339e-10	4.769187e+00	4.893722e+01
2.410000e-06	5.913076e-07	6.912269e-10	4.222515e+00	4.622809e+01
2.420000e-06	5.144079e-07	6.830796e-10	3.673375e+00	4.347168e+01
2.430000e-06	4.372260e-07	6.463132e-10	3.122221e+00	4.067198e+01
2.440000e-06	3.598602e-07	5.661095e-10	2.569754e+00	3.783396e+01
2.450000e-06	2.823215e-07	4.988037e-10	2.016052e+00	3.496300e+01
2.460000e-06	2.044650e-07	4.806643e-10	1.460080e+00	3.206438e+01
2.470000e-06	1.263941e-07	4.753050e-10	9.025775e-01	2.914277e+01
2.480000e-06	4.831950e-08	4.156680e-10	3.450485e-01	2.620190e+01
2.490000e-06	-2.978962e-08	3.170703e-10	-2.127270e-01	2.324435e+01
2.500000e-06	-1.079928e-07	2.633095e-10	-7.711742e-01	2.027159e+01
2.510000e-06	-1.861909e-07	2.684494e-10	-1.329585e+00	1.728410e+01
2.520000e-06	-2.642419e-07	2.521122e-10	-1.886946e+00	1.428161e+01
2.530000e-06	-3.420918e-07	1.694459e-10	-2.442870e+00	1.126343e+01
2.540000e-06	-4.197507e-07	8.128463e-11	-2.997430e+00	8.228692e+00
2.550000e-06	-4.972146e-07	5.077960e-11	-3.550598e+00	5.176568e+00
2.560000e-06	-5.744604e-07	5.108526e-11	-4.102209e+00	2.106390e+00
2.570000e-06	-6.513393e-07	8.807330e-12	-4.651199e+00	-9.823730e-01
2.580000e-06	-7.278153e-07	-8.296994e-11	-5.197313e+00	-4.090201e+00
2.590000e-06	-8.040003e-07	-1.563917e-10	-5.741348e+00	-7.217681e+00
2.600000e-06	-8.799356e-07	-1.724132e-10	-6.283601e+00	-1.036566e+01
2.610000e-06	-9.556087e-07	-1.798453e-10	-6.823981e+00	-1.353534e+01
2.620000e-06	-1.030886e-06	-2.392923e-10	-7.361531e+00	-1.672826e+01
2.630000e-06	-1.105626e-06	-3.297891e-10	-7.895248e+00	-1.994617e+01
2.640000e-06	-1.179847e-06	-3.871267e-10	-8.425262e+00	-2.319072e+01
2.650000e-06	-1.253710e-06	-4.023522e-10	-8.952716e+00	-2.646306e+01
2.660000e-06	-1.327209e-06	-4.312908e-10	-9.477571e+00	-2.976335e+01
2.670000e-06	-1.400131e-06	-5.056665e-10	-9.998302e+00	-3.309032e+01
2.680000e-06	-1.472525e-06	-5.881801e-10	-1.051526e+01	-3.644081e+01
2.690000e-06	-1.544607e-06	-6.328209e-10	-1.103000e+01	-3.980961e+01
2.700000e-06	-1.616349e-06	-6.533450e-10	-1.154231e+01	-4.318933e+01
2.710000e-06	-1.687471e-06	-6.963765e-10	-1.205019e+01	-4.657073e+01
2.720000e-06	-1.757660e-06	-7.691956e-10	-1.255141e+01	-4.994306e+01
2.730000e-06	-1.826821e-06	-8.350280e-10	-1.304529e+01	-5.329484e+01
2.740000e-06	-1.895214e-06	-8.710112e-10	-1.353368e+01	-5.661455e+01
2.750000e-06	-1.963115e-06	-9.003956e-10	-1.401856e+01	-5.989152e+01
2.760000e-06	-2.030467e-06	-9.531005e-10	-1.449952e+01	-6.311668e+01
2.770000e-06	-2.097068e-06	-1.022061e-09	-1.497512e+01	-6.628313e+01
2.780000e-06	-2.162995e-06	-1.077590e-09	-1.544590e+01	-6.938654e+01
2.790000e-06	-2.228290e-06	-1.112640e-09	-1.591217e+01	-7.242516e+01
2.800000e-06	-2.292818e-06	-1.146890e-09	-1.637296e+01	-7.539963e+01
2.810000e-06	-2.356707e-06	-1.193871e-09	-1.682919e+01	-7.831245e+01
2.820000e-06	-2.419761e-06	-1.247397e-09	-1.727946e+01	-8.116730e+01
2.830000e-06	-2.481579e-06	-1.293066e-09	-1.772090e+01	-8.396824e+01
2.840000e-06	-2.542298e-06	-1.327892e-09	-1.815449e+01	-8.671896e+01
2.850000e-06	-2.602327e-06	-1.361091e-09	-1.858316e+01	-8.942205e+01
2.860000e-06	-2.661607e-06	-1.404259e-09	-1.900647e+01	-9.207861e+01
2.870000e-06	-2.719885e-06	-1.455578e-09	-1.942264e+01	-9.468799e+01
2.880000e-06	-2.777219e-06	-1.499000e-09	-1.983206e+01	-9.724790e+01
2.890000e-06	-2.833687e-06	-1.528939e-09	-2.023529e+01	-9.975468e+01
2.900000e-06	-2.889349e-06	-1.557947e-09	-2.063277e+01	-1.022038e+02
2.910000e-06	-2.943743e-06	-1.597610e-09	-2.102120e+01	-1.045904e+02
2.920000e-06	-2.996541e-06	-1.641683e-09	-2.139823e+01	-1.069102e+02
2.930000e-06	-3.048066e-06	-1.674945e-09	-2.176617e+01	-1.091593e+02
2.940000e-06	-3.098452e-06	-1.697823e-09	-2.212598e+01	-1.113353e+02
