# Temperatura_=_20.0
# Concentracion g/m^3_=_12600.0
# C_Vs_to_Am_M_A/Vsm_=_65563218390.804596
# pendiente_HvsI_1/m_=_3716.3
# ordenada_HvsI_A/m_=_1297.0
# frecuencia_Hz_=_301664.1923070646

Tiempo_(s)	Campo_(V.s)	Magnetizacion_(V.s)	Campo_(kA/m)	Magnetizacion_(A/m)
0.000000e+00	-4.055861e-06	-2.203193e-09	-2.907425e+01	-1.449309e+02
1.000000e-08	-4.055080e-06	-2.200319e-09	-2.906865e+01	-1.448889e+02
2.000000e-08	-4.052746e-06	-2.198698e-09	-2.905192e+01	-1.448211e+02
3.000000e-08	-4.049015e-06	-2.201437e-09	-2.902518e+01	-1.447277e+02
4.000000e-08	-4.044143e-06	-2.204318e-09	-2.899025e+01	-1.446059e+02
5.000000e-08	-4.038036e-06	-2.201961e-09	-2.894647e+01	-1.444511e+02
6.000000e-08	-4.030726e-06	-2.194728e-09	-2.889407e+01	-1.442578e+02
7.000000e-08	-4.022146e-06	-2.183947e-09	-2.883256e+01	-1.440211e+02
8.000000e-08	-4.011949e-06	-2.171250e-09	-2.875947e+01	-1.437381e+02
9.000000e-08	-4.000081e-06	-2.195319e-09	-2.867439e+01	-1.434090e+02
1.000000e-07	-3.986259e-06	-2.225828e-09	-2.857531e+01	-1.430376e+02
1.100000e-07	-3.970237e-06	-2.213877e-09	-2.846046e+01	-1.426319e+02
1.200000e-07	-3.952629e-06	-2.166654e-09	-2.833423e+01	-1.422031e+02
1.300000e-07	-3.933922e-06	-2.066574e-09	-2.820013e+01	-1.417648e+02
1.400000e-07	-3.914332e-06	-2.109135e-09	-2.805970e+01	-1.413314e+02
1.500000e-07	-3.893835e-06	-2.237135e-09	-2.791277e+01	-1.409157e+02
1.600000e-07	-3.872348e-06	-2.156383e-09	-2.775875e+01	-1.405278e+02
1.700000e-07	-3.849855e-06	-2.106607e-09	-2.759751e+01	-1.401726e+02
1.800000e-07	-3.825736e-06	-2.100409e-09	-2.742461e+01	-1.398490e+02
1.900000e-07	-3.799756e-06	-2.019959e-09	-2.723837e+01	-1.395492e+02
2.000000e-07	-3.772561e-06	-2.140944e-09	-2.704343e+01	-1.392590e+02
2.100000e-07	-3.744356e-06	-2.218753e-09	-2.684124e+01	-1.389587e+02
2.200000e-07	-3.714728e-06	-2.027377e-09	-2.662885e+01	-1.386249e+02
2.300000e-07	-3.683734e-06	-2.020546e-09	-2.640667e+01	-1.382326e+02
2.400000e-07	-3.651615e-06	-2.162967e-09	-2.617643e+01	-1.377580e+02
2.500000e-07	-3.618170e-06	-2.148237e-09	-2.593668e+01	-1.371804e+02
2.600000e-07	-3.583217e-06	-2.086269e-09	-2.568612e+01	-1.364845e+02
2.700000e-07	-3.546775e-06	-1.982194e-09	-2.542489e+01	-1.356620e+02
2.800000e-07	-3.508989e-06	-1.970197e-09	-2.515402e+01	-1.347118e+02
2.900000e-07	-3.470172e-06	-2.103719e-09	-2.487576e+01	-1.336405e+02
3.000000e-07	-3.430353e-06	-2.074171e-09	-2.459033e+01	-1.324611e+02
3.100000e-07	-3.389046e-06	-1.925252e-09	-2.429422e+01	-1.311911e+02
3.200000e-07	-3.346141e-06	-1.899738e-09	-2.398665e+01	-1.298511e+02
3.300000e-07	-3.302010e-06	-1.954517e-09	-2.367031e+01	-1.284620e+02
3.400000e-07	-3.256806e-06	-1.999229e-09	-2.334626e+01	-1.270431e+02
3.500000e-07	-3.210419e-06	-1.962946e-09	-2.301374e+01	-1.256101e+02
3.600000e-07	-3.162888e-06	-1.843294e-09	-2.267302e+01	-1.241740e+02
3.700000e-07	-3.114070e-06	-1.788439e-09	-2.232306e+01	-1.227405e+02
3.800000e-07	-3.063661e-06	-1.866027e-09	-2.196171e+01	-1.213101e+02
3.900000e-07	-3.011878e-06	-1.914217e-09	-2.159051e+01	-1.198786e+02
4.000000e-07	-2.959035e-06	-1.810596e-09	-2.121170e+01	-1.184387e+02
4.100000e-07	-2.905188e-06	-1.704912e-09	-2.082570e+01	-1.169811e+02
4.200000e-07	-2.850428e-06	-1.717208e-09	-2.043316e+01	-1.154964e+02
4.300000e-07	-2.794853e-06	-1.778160e-09	-2.003477e+01	-1.139763e+02
4.400000e-07	-2.738320e-06	-1.770125e-09	-1.962952e+01	-1.124144e+02
4.500000e-07	-2.680498e-06	-1.664843e-09	-1.921502e+01	-1.108073e+02
4.600000e-07	-2.621515e-06	-1.594640e-09	-1.879221e+01	-1.091544e+02
4.700000e-07	-2.561757e-06	-1.629095e-09	-1.836384e+01	-1.074575e+02
4.800000e-07	-2.501241e-06	-1.662702e-09	-1.793003e+01	-1.057204e+02
4.900000e-07	-2.439910e-06	-1.610437e-09	-1.749038e+01	-1.039476e+02
5.000000e-07	-2.377704e-06	-1.516214e-09	-1.704446e+01	-1.021436e+02
5.100000e-07	-2.314661e-06	-1.480412e-09	-1.659254e+01	-1.003121e+02
5.200000e-07	-2.250919e-06	-1.513979e-09	-1.613561e+01	-9.845498e+01
5.300000e-07	-2.186327e-06	-1.521713e-09	-1.567258e+01	-9.657265e+01
5.400000e-07	-2.120575e-06	-1.449284e-09	-1.520124e+01	-9.466365e+01
5.500000e-07	-2.053796e-06	-1.364909e-09	-1.472254e+01	-9.272523e+01
5.600000e-07	-1.986374e-06	-1.353800e-09	-1.423923e+01	-9.075388e+01
5.700000e-07	-1.918402e-06	-1.380180e-09	-1.375198e+01	-8.874609e+01
5.800000e-07	-1.849816e-06	-1.355086e-09	-1.326032e+01	-8.669898e+01
5.900000e-07	-1.780530e-06	-1.278459e-09	-1.276364e+01	-8.461086e+01
6.000000e-07	-1.710595e-06	-1.220455e-09	-1.226232e+01	-8.248150e+01
6.100000e-07	-1.640082e-06	-1.215903e-09	-1.175685e+01	-8.031214e+01
6.200000e-07	-1.568991e-06	-1.216675e-09	-1.124724e+01	-7.810525e+01
6.300000e-07	-1.497454e-06	-1.174396e-09	-1.073443e+01	-7.586400e+01
6.400000e-07	-1.425474e-06	-1.108814e-09	-1.021844e+01	-7.359169e+01
6.500000e-07	-1.352895e-06	-1.068315e-09	-9.698168e+00	-7.129109e+01
6.600000e-07	-1.279668e-06	-1.058073e-09	-9.173240e+00	-6.896392e+01
6.700000e-07	-1.205848e-06	-1.036941e-09	-8.644063e+00	-6.661048e+01
6.800000e-07	-1.131439e-06	-9.871694e-10	-8.110670e+00	-6.422955e+01
6.900000e-07	-1.056438e-06	-9.351178e-10	-7.573028e+00	-6.181857e+01
7.000000e-07	-9.809862e-07	-9.010418e-10	-7.032153e+00	-5.937406e+01
7.100000e-07	-9.052339e-07	-8.728937e-10	-6.489127e+00	-5.689215e+01
7.200000e-07	-8.292585e-07	-8.354370e-10	-5.944500e+00	-5.436927e+01
7.300000e-07	-7.530494e-07	-7.929616e-10	-5.398199e+00	-5.180276e+01
7.400000e-07	-6.765619e-07	-7.533147e-10	-4.849902e+00	-4.919131e+01
7.500000e-07	-5.998466e-07	-7.128064e-10	-4.299972e+00	-4.653524e+01
7.600000e-07	-5.229346e-07	-6.707647e-10	-3.748632e+00	-4.383647e+01
7.700000e-07	-4.458203e-07	-6.309639e-10	-3.195842e+00	-4.109828e+01
7.800000e-07	-3.684997e-07	-5.941520e-10	-2.641573e+00	-3.832481e+01
7.900000e-07	-2.910940e-07	-5.539512e-10	-2.086693e+00	-3.552042e+01
8.000000e-07	-2.136223e-07	-5.040008e-10	-1.531341e+00	-3.268913e+01
8.100000e-07	-1.360378e-07	-4.526560e-10	-9.751806e-01	-2.983398e+01
8.200000e-07	-5.828932e-08	-4.133835e-10	-4.178443e-01	-2.695668e+01
8.300000e-07	1.956582e-08	-3.844877e-10	1.402566e-01	-2.405744e+01
8.400000e-07	9.737218e-08	-3.431529e-10	6.980079e-01	-2.113510e+01
8.500000e-07	1.751262e-07	-2.830446e-10	1.255384e+00	-1.818748e+01
8.600000e-07	2.528327e-07	-2.298144e-10	1.812419e+00	-1.521188e+01
8.700000e-07	3.304683e-07	-1.986382e-10	2.368946e+00	-1.220574e+01
8.800000e-07	4.079953e-07	-1.692451e-10	2.924695e+00	-9.167261e+00
8.900000e-07	4.853925e-07	-1.151276e-10	3.479513e+00	-6.095841e+00
9.000000e-07	5.626359e-07	-4.514001e-11	4.033229e+00	-2.992417e+00
9.100000e-07	6.396560e-07	8.374019e-12	4.585344e+00	1.405271e-01
9.200000e-07	7.163934e-07	3.724524e-11	5.135432e+00	3.299178e+00
9.300000e-07	7.929033e-07	7.152923e-11	5.683890e+00	6.478843e+00
9.400000e-07	8.690852e-07	1.337561e-10	6.229997e+00	9.674540e+00
9.500000e-07	9.448978e-07	2.019782e-10	6.773456e+00	1.288164e+01
9.600000e-07	1.020460e-06	2.442074e-10	7.315118e+00	1.609644e+01
9.700000e-07	1.095723e-06	2.668892e-10	7.854636e+00	1.931655e+01
9.800000e-07	1.170526e-06	3.049368e-10	8.390864e+00	2.254109e+01
9.900000e-07	1.244672e-06	3.740838e-10	8.922376e+00	2.577051e+01
1.000000e-06	1.318023e-06	4.460791e-10	9.448184e+00	2.900625e+01
1.010000e-06	1.390556e-06	4.873587e-10	9.968137e+00	3.225012e+01
1.020000e-06	1.462492e-06	5.107851e-10	1.048380e+01	3.550356e+01
1.030000e-06	1.534056e-06	5.574622e-10	1.099681e+01	3.876692e+01
1.040000e-06	1.605231e-06	6.342764e-10	1.150702e+01	4.203886e+01
1.050000e-06	1.675863e-06	7.038231e-10	1.201334e+01	4.531593e+01
1.060000e-06	1.745832e-06	7.401637e-10	1.251492e+01	4.859249e+01
1.070000e-06	1.815186e-06	7.642788e-10	1.301208e+01	5.186091e+01
1.080000e-06	1.883886e-06	8.135760e-10	1.350455e+01	5.511211e+01
1.090000e-06	1.951932e-06	8.885723e-10	1.399233e+01	5.833630e+01
1.100000e-06	2.019513e-06	9.504820e-10	1.447679e+01	6.152382e+01
1.110000e-06	2.086690e-06	9.806042e-10	1.495834e+01	6.466603e+01
1.120000e-06	2.153022e-06	1.006032e-09	1.543384e+01	6.775600e+01
1.130000e-06	2.218045e-06	1.059969e-09	1.589995e+01	7.078901e+01
1.140000e-06	2.282047e-06	1.131469e-09	1.635874e+01	7.376267e+01
1.150000e-06	2.345530e-06	1.182118e-09	1.681383e+01	7.667680e+01
1.160000e-06	2.408512e-06	1.202010e-09	1.726531e+01	7.953288e+01
1.170000e-06	2.470686e-06	1.227851e-09	1.771100e+01	8.233339e+01
1.180000e-06	2.531870e-06	1.284451e-09	1.814959e+01	8.508094e+01
1.190000e-06	2.592149e-06	1.349274e-09	1.858170e+01	8.777747e+01
1.200000e-06	2.651792e-06	1.388976e-09	1.900924e+01	9.042362e+01
1.210000e-06	2.710726e-06	1.407425e-09	1.943171e+01	9.301829e+01
1.220000e-06	2.768320e-06	1.437740e-09	1.984457e+01	9.555859e+01
1.230000e-06	2.824529e-06	1.492196e-09	2.024751e+01	9.804007e+01
1.240000e-06	2.879833e-06	1.546442e-09	2.064395e+01	1.004573e+02
1.250000e-06	2.934269e-06	1.573614e-09	2.103417e+01	1.028045e+02
1.260000e-06	2.987717e-06	1.586760e-09	2.141731e+01	1.050767e+02
1.270000e-06	3.040062e-06	1.615877e-09	2.179254e+01	1.072701e+02
1.280000e-06	3.091116e-06	1.664127e-09	2.215852e+01	1.093828e+02
1.290000e-06	3.140662e-06	1.707598e-09	2.251369e+01	1.114152e+02
1.300000e-06	3.188753e-06	1.729081e-09	2.285843e+01	1.133701e+02
1.310000e-06	3.235685e-06	1.742166e-09	2.319485e+01	1.152518e+02
1.320000e-06	3.281479e-06	1.771593e-09	2.352313e+01	1.170658e+02
1.330000e-06	3.326107e-06	1.813310e-09	2.384304e+01	1.188180e+02
1.340000e-06	3.369737e-06	1.844287e-09	2.415580e+01	1.205135e+02
1.350000e-06	3.412213e-06	1.856071e-09	2.446029e+01	1.221559e+02
1.360000e-06	3.453143e-06	1.867046e-09	2.475369e+01	1.237469e+02
1.370000e-06	3.492757e-06	1.894747e-09	2.503767e+01	1.252859e+02
1.380000e-06	3.531296e-06	1.932332e-09	2.531393e+01	1.267702e+02
1.390000e-06	3.568641e-06	1.958033e-09	2.558163e+01	1.281952e+02
1.400000e-06	3.604867e-06	1.968080e-09	2.584132e+01	1.295559e+02
1.410000e-06	3.639958e-06	1.980083e-09	2.609287e+01	1.308471e+02
1.420000e-06	3.673613e-06	2.005777e-09	2.633412e+01	1.320650e+02
1.430000e-06	3.705768e-06	2.034645e-09	2.656463e+01	1.332076e+02
1.440000e-06	3.736730e-06	2.051145e-09	2.678657e+01	1.342756e+02
1.450000e-06	3.766497e-06	2.056527e-09	2.699996e+01	1.352723e+02
1.460000e-06	3.795031e-06	2.064710e-09	2.720450e+01	1.362037e+02
1.470000e-06	3.822437e-06	2.083594e-09	2.740096e+01	1.370775e+02
1.480000e-06	3.848353e-06	2.104592e-09	2.758674e+01	1.379024e+02
1.490000e-06	3.872616e-06	2.116508e-09	2.776067e+01	1.386868e+02
1.500000e-06	3.895519e-06	2.120743e-09	2.792485e+01	1.394378e+02
1.510000e-06	3.917142e-06	2.129440e-09	2.807985e+01	1.401599e+02
1.520000e-06	3.937525e-06	2.147524e-09	2.822596e+01	1.408549e+02
1.530000e-06	3.956726e-06	2.165472e-09	2.836361e+01	1.415212e+02
1.540000e-06	3.974489e-06	2.171402e-09	2.849094e+01	1.421542e+02
1.550000e-06	3.990691e-06	2.169944e-09	2.860708e+01	1.427471e+02
1.560000e-06	4.005410e-06	2.174925e-09	2.871260e+01	1.432917e+02
1.570000e-06	4.018612e-06	2.187997e-09	2.880723e+01	1.437799e+02
1.580000e-06	4.030333e-06	2.200510e-09	2.889125e+01	1.442049e+02
1.590000e-06	4.040352e-06	2.204603e-09	2.896307e+01	1.445618e+02
1.600000e-06	4.048645e-06	2.203725e-09	2.902252e+01	1.448491e+02
1.610000e-06	4.055499e-06	2.208500e-09	2.907165e+01	1.450684e+02
1.620000e-06	4.060980e-06	2.219031e-09	2.911095e+01	1.452243e+02
1.630000e-06	4.065166e-06	2.225288e-09	2.914095e+01	1.453238e+02
1.640000e-06	4.067963e-06	2.223004e-09	2.916100e+01	1.453752e+02
1.650000e-06	4.069114e-06	2.217880e-09	2.916925e+01	1.453867e+02
1.660000e-06	4.068821e-06	2.217868e-09	2.916716e+01	1.453656e+02
1.670000e-06	4.067313e-06	2.219737e-09	2.915634e+01	1.453169e+02
1.680000e-06	4.064511e-06	2.219114e-09	2.913626e+01	1.452428e+02
1.690000e-06	4.060535e-06	2.213702e-09	2.910776e+01	1.451425e+02
1.700000e-06	4.055263e-06	2.208059e-09	2.906996e+01	1.450129e+02
1.710000e-06	4.048354e-06	2.207871e-09	2.902043e+01	1.448489e+02
1.720000e-06	4.040130e-06	2.210425e-09	2.896148e+01	1.446451e+02
1.730000e-06	4.030821e-06	2.222262e-09	2.889475e+01	1.443969e+02
1.740000e-06	4.020322e-06	2.197462e-09	2.881949e+01	1.441022e+02
1.750000e-06	4.008309e-06	2.140383e-09	2.873338e+01	1.437619e+02
1.760000e-06	3.994055e-06	2.123974e-09	2.863119e+01	1.433810e+02
1.770000e-06	3.977471e-06	2.150071e-09	2.851232e+01	1.429683e+02
1.780000e-06	3.959379e-06	2.254386e-09	2.838262e+01	1.425357e+02
1.790000e-06	3.940785e-06	2.229552e-09	2.824934e+01	1.420973e+02
1.800000e-06	3.921728e-06	2.087130e-09	2.811272e+01	1.416671e+02
1.810000e-06	3.900887e-06	2.145454e-09	2.796333e+01	1.412575e+02
1.820000e-06	3.878064e-06	2.160090e-09	2.779972e+01	1.408775e+02
1.830000e-06	3.854307e-06	2.147312e-09	2.762942e+01	1.405305e+02
1.840000e-06	3.829413e-06	2.245645e-09	2.745097e+01	1.402137e+02
1.850000e-06	3.802876e-06	2.109447e-09	2.726074e+01	1.399179e+02
1.860000e-06	3.775141e-06	1.985232e-09	2.706192e+01	1.396271e+02
1.870000e-06	3.746317e-06	2.175270e-09	2.685530e+01	1.393206e+02
1.880000e-06	3.716052e-06	2.186975e-09	2.663834e+01	1.389745e+02
1.890000e-06	3.684296e-06	2.045280e-09	2.641071e+01	1.385637e+02
1.900000e-06	3.650957e-06	2.077210e-09	2.617172e+01	1.380651e+02
1.910000e-06	3.616473e-06	2.096119e-09	2.592452e+01	1.374590e+02
1.920000e-06	3.581067e-06	2.168007e-09	2.567071e+01	1.367319e+02
1.930000e-06	3.544178e-06	2.163368e-09	2.540628e+01	1.358771e+02
1.940000e-06	3.505732e-06	1.975607e-09	2.513067e+01	1.348958e+02
1.950000e-06	3.465895e-06	2.012861e-09	2.484511e+01	1.337959e+02
1.960000e-06	3.424802e-06	2.102485e-09	2.455053e+01	1.325920e+02
1.970000e-06	3.382589e-06	2.045486e-09	2.424793e+01	1.313025e+02
1.980000e-06	3.339299e-06	2.018133e-09	2.393761e+01	1.299482e+02
1.990000e-06	3.295052e-06	1.906671e-09	2.362043e+01	1.285499e+02
2.000000e-06	3.249714e-06	1.874875e-09	2.329542e+01	1.271260e+02
2.010000e-06	3.203073e-06	1.989248e-09	2.296108e+01	1.256914e+02
2.020000e-06	3.155366e-06	1.985974e-09	2.261909e+01	1.242555e+02
2.030000e-06	3.106522e-06	1.885363e-09	2.226896e+01	1.228229e+02
2.040000e-06	3.056301e-06	1.773557e-09	2.190895e+01	1.213927e+02
2.050000e-06	3.004872e-06	1.806894e-09	2.154029e+01	1.199598e+02
2.060000e-06	2.952414e-06	1.903293e-09	2.116424e+01	1.185163e+02
2.070000e-06	2.898818e-06	1.838676e-09	2.078004e+01	1.170528e+02
2.080000e-06	2.843902e-06	1.729351e-09	2.038638e+01	1.155599e+02
2.090000e-06	2.787784e-06	1.672267e-09	1.998410e+01	1.140297e+02
2.100000e-06	2.730727e-06	1.728381e-09	1.957509e+01	1.124567e+02
2.110000e-06	2.672768e-06	1.778811e-09	1.915961e+01	1.108380e+02
2.120000e-06	2.613910e-06	1.682303e-09	1.873769e+01	1.091738e+02
2.130000e-06	2.554274e-06	1.600518e-09	1.831019e+01	1.074664e+02
2.140000e-06	2.493863e-06	1.582333e-09	1.787714e+01	1.057199e+02
2.150000e-06	2.432429e-06	1.617830e-09	1.743675e+01	1.039388e+02
2.160000e-06	2.369761e-06	1.624291e-09	1.698752e+01	1.021276e+02
2.170000e-06	2.306112e-06	1.523617e-09	1.653125e+01	1.002895e+02
2.180000e-06	2.241723e-06	1.453049e-09	1.606969e+01	9.842603e+01
2.190000e-06	2.176582e-06	1.457095e-09	1.560273e+01	9.653716e+01
2.200000e-06	2.110712e-06	1.487535e-09	1.513054e+01	9.462104e+01
2.210000e-06	2.044109e-06	1.457888e-09	1.465310e+01	9.267466e+01
2.220000e-06	1.976827e-06	1.369088e-09	1.417079e+01	9.069445e+01
2.230000e-06	1.908933e-06	1.325792e-09	1.368410e+01	8.867699e+01
2.240000e-06	1.840412e-06	1.325106e-09	1.319291e+01	8.661967e+01
2.250000e-06	1.771104e-06	1.322256e-09	1.269607e+01	8.452114e+01
2.260000e-06	1.700886e-06	1.273606e-09	1.219272e+01	8.238154e+01
2.270000e-06	1.629881e-06	1.205809e-09	1.168372e+01	8.020247e+01
2.280000e-06	1.558211e-06	1.171490e-09	1.116996e+01	7.798660e+01
2.290000e-06	1.486001e-06	1.156768e-09	1.065233e+01	7.573722e+01
2.300000e-06	1.413377e-06	1.134643e-09	1.013172e+01	7.345755e+01
2.310000e-06	1.340344e-06	1.088201e-09	9.608195e+00	7.115013e+01
2.320000e-06	1.266880e-06	1.044965e-09	9.081568e+00	6.881636e+01
2.330000e-06	1.193001e-06	1.016605e-09	8.551970e+00	6.645615e+01
2.340000e-06	1.118678e-06	9.812246e-10	8.019191e+00	6.406793e+01
2.350000e-06	1.043960e-06	9.407818e-10	7.483576e+00	6.164886e+01
2.360000e-06	9.689103e-07	9.044475e-10	6.945588e+00	5.919529e+01
2.370000e-06	8.935710e-07	8.728170e-10	6.405522e+00	5.670338e+01
2.380000e-06	8.179586e-07	8.291343e-10	5.863498e+00	5.416973e+01
2.390000e-06	7.421302e-07	7.778559e-10	5.319926e+00	5.159198e+01
2.400000e-06	6.661105e-07	7.415811e-10	4.774982e+00	4.896921e+01
2.410000e-06	5.897682e-07	7.160203e-10	4.227726e+00	4.630216e+01
2.420000e-06	5.131705e-07	6.812253e-10	3.678639e+00	4.359312e+01
2.430000e-06	4.364103e-07	6.260456e-10	3.128387e+00	4.084564e+01
2.440000e-06	3.594562e-07	5.677905e-10	2.576745e+00	3.806396e+01
2.450000e-06	2.822963e-07	5.322416e-10	2.023628e+00	3.525244e+01
2.460000e-06	2.049044e-07	5.101215e-10	1.468848e+00	3.241488e+01
2.470000e-06	1.273602e-07	4.688075e-10	9.129754e-01	2.955402e+01
2.480000e-06	4.976121e-08	4.016682e-10	3.567109e-01	2.667121e+01
2.490000e-06	-2.785654e-08	3.418666e-10	-1.996883e-01	2.376629e+01
2.500000e-06	-1.055027e-07	3.148270e-10	-7.562915e-01	2.083780e+01
2.510000e-06	-1.831460e-07	2.935885e-10	-1.312874e+00	1.788337e+01
2.520000e-06	-2.606834e-07	2.396518e-10	-1.868697e+00	1.490029e+01
2.530000e-06	-3.380537e-07	1.655201e-10	-2.423322e+00	1.188613e+01
2.540000e-06	-4.152800e-07	1.142798e-10	-2.976915e+00	8.839349e+00
2.550000e-06	-4.923010e-07	9.257643e-11	-3.529037e+00	5.759713e+00
2.560000e-06	-5.690312e-07	6.199424e-11	-4.079073e+00	2.648552e+00
2.570000e-06	-6.455112e-07	-3.412362e-12	-4.627317e+00	-4.912852e-01
2.580000e-06	-7.217003e-07	-7.864492e-11	-5.173475e+00	-3.655718e+00
2.590000e-06	-7.976424e-07	-1.241559e-10	-5.717862e+00	-6.839920e+00
2.600000e-06	-8.733346e-07	-1.449097e-10	-6.260458e+00	-1.003894e+01
2.610000e-06	-9.486667e-07	-1.821882e-10	-6.800473e+00	-1.324833e+01
2.620000e-06	-1.023586e-06	-2.541103e-10	-7.337527e+00	-1.646469e+01
2.630000e-06	-1.098069e-06	-3.266322e-10	-7.871458e+00	-1.968600e+01
2.640000e-06	-1.172188e-06	-3.655702e-10	-8.402776e+00	-2.291173e+01
2.650000e-06	-1.245930e-06	-3.874763e-10	-8.931389e+00	-2.614264e+01
2.660000e-06	-1.319139e-06	-4.347516e-10	-9.456188e+00	-2.938031e+01
2.670000e-06	-1.391831e-06	-5.114915e-10	-9.977272e+00	-3.262654e+01
2.680000e-06	-1.464112e-06	-5.767516e-10	-1.049542e+01	-3.588255e+01
2.690000e-06	-1.536059e-06	-6.083646e-10	-1.101116e+01	-3.914833e+01
2.700000e-06	-1.607630e-06	-6.338891e-10	-1.152422e+01	-4.242202e+01
2.710000e-06	-1.678497e-06	-6.897452e-10	-1.203222e+01	-4.569964e+01
2.720000e-06	-1.748301e-06	-7.661386e-10	-1.253262e+01	-4.897501e+01
2.730000e-06	-1.817153e-06	-8.213323e-10	-1.302618e+01	-5.224009e+01
2.740000e-06	-1.885439e-06	-8.457736e-10	-1.351568e+01	-5.548553e+01
2.750000e-06	-1.953229e-06	-8.768579e-10	-1.400163e+01	-5.870150e+01
2.760000e-06	-2.020384e-06	-9.413271e-10	-1.448303e+01	-6.187851e+01
2.770000e-06	-2.086852e-06	-1.014473e-09	-1.495950e+01	-6.500830e+01
2.780000e-06	-2.152627e-06	-1.058538e-09	-1.543101e+01	-6.808444e+01
2.790000e-06	-2.217644e-06	-1.079437e-09	-1.589707e+01	-7.110281e+01
2.800000e-06	-2.281990e-06	-1.114888e-09	-1.635834e+01	-7.406160e+01
2.810000e-06	-2.345743e-06	-1.177947e-09	-1.681535e+01	-7.696109e+01
2.820000e-06	-2.408499e-06	-1.238570e-09	-1.726521e+01	-7.980309e+01
2.830000e-06	-2.470013e-06	-1.271050e-09	-1.770617e+01	-8.259020e+01
2.840000e-06	-2.530621e-06	-1.292636e-09	-1.814064e+01	-8.532491e+01
2.850000e-06	-2.590540e-06	-1.333087e-09	-1.857017e+01	-8.800892e+01
2.860000e-06	-2.649596e-06	-1.393207e-09	-1.899351e+01	-9.064244e+01
2.870000e-06	-2.707695e-06	-1.444062e-09	-1.940998e+01	-9.322392e+01
2.880000e-06	-2.764835e-06	-1.468646e-09	-1.981959e+01	-9.575005e+01
2.890000e-06	-2.821091e-06	-1.487104e-09	-2.022286e+01	-9.821607e+01
2.900000e-06	-2.876481e-06	-1.525628e-09	-2.061992e+01	-1.006164e+02
2.910000e-06	-2.930447e-06	-1.577875e-09	-2.100677e+01	-1.029454e+02
2.920000e-06	-2.982961e-06	-1.617590e-09	-2.138321e+01	-1.051982e+02
2.930000e-06	-3.034398e-06	-1.636629e-09	-2.175194e+01	-1.073715e+02
2.940000e-06	-3.084666e-06	-1.655930e-09	-2.211228e+01	-1.094641e+02
