# Temperatura_=_20.0
# Concentracion g/m^3_=_12600.0
# C_Vs_to_Am_M_A/Vsm_=_65563218390.804596
# pendiente_HvsI_1/m_=_3716.3
# ordenada_HvsI_A/m_=_1297.0
# frecuencia_Hz_=_301668.00049400347

Tiempo_(s)	Campo_(V.s)	Magnetizacion_(V.s)	Campo_(kA/m)	Magnetizacion_(A/m)
0.000000e+00	-4.037565e-06	-2.183259e-09	-2.906765e+01	-1.434614e+02
1.000000e-08	-4.035336e-06	-2.180375e-09	-2.905160e+01	-1.433891e+02
2.000000e-08	-4.031699e-06	-2.180378e-09	-2.902542e+01	-1.432877e+02
3.000000e-08	-4.026878e-06	-2.182259e-09	-2.899071e+01	-1.431532e+02
4.000000e-08	-4.020834e-06	-2.181446e-09	-2.894720e+01	-1.429810e+02
5.000000e-08	-4.013599e-06	-2.177237e-09	-2.889511e+01	-1.427675e+02
6.000000e-08	-4.005152e-06	-2.169257e-09	-2.883430e+01	-1.425106e+02
7.000000e-08	-3.995146e-06	-2.159859e-09	-2.876226e+01	-1.422117e+02
8.000000e-08	-3.983405e-06	-2.172074e-09	-2.867774e+01	-1.418758e+02
9.000000e-08	-3.969771e-06	-2.194179e-09	-2.857958e+01	-1.415118e+02
1.000000e-07	-3.954032e-06	-2.185960e-09	-2.846628e+01	-1.411320e+02
1.100000e-07	-3.936606e-06	-2.142595e-09	-2.834082e+01	-1.407509e+02
1.200000e-07	-3.918056e-06	-2.071573e-09	-2.820727e+01	-1.403831e+02
1.300000e-07	-3.898656e-06	-2.097266e-09	-2.806760e+01	-1.400423e+02
1.400000e-07	-3.878351e-06	-2.194160e-09	-2.792142e+01	-1.397385e+02
1.500000e-07	-3.857029e-06	-2.156146e-09	-2.776792e+01	-1.394763e+02
1.600000e-07	-3.834668e-06	-2.097293e-09	-2.760694e+01	-1.392543e+02
1.700000e-07	-3.810738e-06	-2.082421e-09	-2.743465e+01	-1.390638e+02
1.800000e-07	-3.784877e-06	-2.038745e-09	-2.724847e+01	-1.388895e+02
1.900000e-07	-3.757711e-06	-2.117067e-09	-2.705290e+01	-1.387102e+02
2.000000e-07	-3.729596e-06	-2.181908e-09	-2.685049e+01	-1.385013e+02
2.100000e-07	-3.700149e-06	-2.052899e-09	-2.663849e+01	-1.382362e+02
2.200000e-07	-3.669342e-06	-2.026014e-09	-2.641671e+01	-1.378896e+02
2.300000e-07	-3.637391e-06	-2.129202e-09	-2.618668e+01	-1.374397e+02
2.400000e-07	-3.604176e-06	-2.114456e-09	-2.594756e+01	-1.368703e+02
2.500000e-07	-3.569468e-06	-2.047458e-09	-2.569768e+01	-1.361725e+02
2.600000e-07	-3.533267e-06	-1.999313e-09	-2.543706e+01	-1.353450e+02
2.700000e-07	-3.495758e-06	-2.002632e-09	-2.516702e+01	-1.343943e+02
2.800000e-07	-3.457159e-06	-2.071874e-09	-2.488914e+01	-1.333334e+02
2.900000e-07	-3.417462e-06	-2.027943e-09	-2.460335e+01	-1.321802e+02
3.000000e-07	-3.376415e-06	-1.909275e-09	-2.430783e+01	-1.309552e+02
3.100000e-07	-3.333816e-06	-1.918108e-09	-2.400115e+01	-1.296790e+02
3.200000e-07	-3.289945e-06	-1.992267e-09	-2.368531e+01	-1.283703e+02
3.300000e-07	-3.245021e-06	-1.983240e-09	-2.336189e+01	-1.270438e+02
3.400000e-07	-3.198931e-06	-1.894008e-09	-2.303007e+01	-1.257092e+02
3.500000e-07	-3.151680e-06	-1.830510e-09	-2.268990e+01	-1.243705e+02
3.600000e-07	-3.103224e-06	-1.851437e-09	-2.234105e+01	-1.230263e+02
3.700000e-07	-3.053284e-06	-1.897634e-09	-2.198152e+01	-1.216708e+02
3.800000e-07	-3.001880e-06	-1.864722e-09	-2.161144e+01	-1.202953e+02
3.900000e-07	-2.949349e-06	-1.764474e-09	-2.123326e+01	-1.188897e+02
4.000000e-07	-2.895766e-06	-1.734502e-09	-2.084750e+01	-1.174445e+02
4.100000e-07	-2.841193e-06	-1.786177e-09	-2.045461e+01	-1.159518e+02
4.200000e-07	-2.785802e-06	-1.784345e-09	-2.005583e+01	-1.144069e+02
4.300000e-07	-2.729546e-06	-1.700471e-09	-1.965083e+01	-1.128086e+02
4.400000e-07	-2.672096e-06	-1.634563e-09	-1.923723e+01	-1.111591e+02
4.500000e-07	-2.613388e-06	-1.652891e-09	-1.881457e+01	-1.094631e+02
4.600000e-07	-2.553794e-06	-1.688152e-09	-1.838553e+01	-1.077273e+02
4.700000e-07	-2.493499e-06	-1.634723e-09	-1.795145e+01	-1.059589e+02
4.800000e-07	-2.432370e-06	-1.537860e-09	-1.751137e+01	-1.041643e+02
4.900000e-07	-2.370379e-06	-1.511737e-09	-1.706508e+01	-1.023480e+02
5.000000e-07	-2.307544e-06	-1.551385e-09	-1.661270e+01	-1.005122e+02
5.100000e-07	-2.244021e-06	-1.548529e-09	-1.615538e+01	-9.865616e+01
5.200000e-07	-2.179818e-06	-1.467309e-09	-1.569317e+01	-9.677657e+01
5.300000e-07	-2.114490e-06	-1.393229e-09	-1.522286e+01	-9.486818e+01
5.400000e-07	-2.048007e-06	-1.391238e-09	-1.474422e+01	-9.292470e+01
5.500000e-07	-1.980799e-06	-1.417961e-09	-1.426037e+01	-9.093991e+01
5.600000e-07	-1.913120e-06	-1.386159e-09	-1.377313e+01	-8.890866e+01
5.700000e-07	-1.844882e-06	-1.299654e-09	-1.328187e+01	-8.682776e+01
5.800000e-07	-1.775937e-06	-1.246035e-09	-1.278551e+01	-8.469651e+01
5.900000e-07	-1.706353e-06	-1.254080e-09	-1.228455e+01	-8.251679e+01
6.000000e-07	-1.636159e-06	-1.254523e-09	-1.177920e+01	-8.029283e+01
6.100000e-07	-1.565335e-06	-1.196424e-09	-1.126932e+01	-7.803053e+01
6.200000e-07	-1.493991e-06	-1.122865e-09	-1.075569e+01	-7.573662e+01
6.300000e-07	-1.422272e-06	-1.095923e-09	-1.023937e+01	-7.341764e+01
6.400000e-07	-1.350155e-06	-1.102842e-09	-9.720172e+00	-7.107904e+01
6.500000e-07	-1.277517e-06	-1.081546e-09	-9.197233e+00	-6.872442e+01
6.600000e-07	-1.204332e-06	-1.013686e-09	-8.670351e+00	-6.635517e+01
6.700000e-07	-1.130450e-06	-9.496792e-10	-8.138451e+00	-6.397031e+01
6.800000e-07	-1.055822e-06	-9.304837e-10	-7.601180e+00	-6.156683e+01
6.900000e-07	-9.807019e-07	-9.241140e-10	-7.060369e+00	-5.914026e+01
7.000000e-07	-9.052836e-07	-8.812385e-10	-6.517411e+00	-5.668542e+01
7.100000e-07	-8.295994e-07	-8.112349e-10	-5.972537e+00	-5.419727e+01
7.200000e-07	-7.537000e-07	-7.648321e-10	-5.426115e+00	-5.167164e+01
7.300000e-07	-6.776588e-07	-7.529190e-10	-4.878671e+00	-4.910585e+01
7.400000e-07	-6.014015e-07	-7.318015e-10	-4.329671e+00	-4.649894e+01
7.500000e-07	-5.248542e-07	-6.762385e-10	-3.778584e+00	-4.385175e+01
7.600000e-07	-4.480047e-07	-6.135899e-10	-3.225322e+00	-4.116656e+01
7.700000e-07	-3.709033e-07	-5.783853e-10	-2.670245e+00	-3.844666e+01
7.800000e-07	-2.937193e-07	-5.603450e-10	-2.114574e+00	-3.569565e+01
7.900000e-07	-2.165330e-07	-5.216084e-10	-1.558887e+00	-3.291689e+01
8.000000e-07	-1.392653e-07	-4.560436e-10	-1.002613e+00	-3.011295e+01
8.100000e-07	-6.190070e-08	-4.005678e-10	-4.456419e-01	-2.728526e+01
8.200000e-07	1.549920e-08	-3.771268e-10	1.115834e-01	-2.443407e+01
8.300000e-07	9.289622e-08	-3.542202e-10	6.687880e-01	-2.155861e+01
8.400000e-07	1.702580e-07	-3.000661e-10	1.225739e+00	-1.865745e+01
8.500000e-07	2.475802e-07	-2.339607e-10	1.782405e+00	-1.572904e+01
8.600000e-07	3.248721e-07	-1.928364e-10	2.338853e+00	-1.277221e+01
8.700000e-07	4.021124e-07	-1.715615e-10	2.894929e+00	-9.786684e+00
8.800000e-07	4.791658e-07	-1.318095e-10	3.449659e+00	-6.773309e+00
8.900000e-07	5.560457e-07	-6.347144e-11	4.003141e+00	-3.734162e+00
9.000000e-07	6.327432e-07	8.754872e-13	4.555310e+00	-6.723392e-01
9.100000e-07	7.091796e-07	3.448066e-11	5.105599e+00	2.408451e+00
9.200000e-07	7.853594e-07	5.980955e-11	5.654040e+00	5.504448e+00
9.300000e-07	8.612282e-07	1.129092e-10	6.200243e+00	8.612452e+00
9.400000e-07	9.368312e-07	1.834721e-10	6.744531e+00	1.173036e+01
9.500000e-07	1.012219e-06	2.327159e-10	7.287273e+00	1.485756e+01
9.600000e-07	1.087243e-06	2.561268e-10	7.827389e+00	1.799500e+01
9.700000e-07	1.161602e-06	2.895203e-10	8.362723e+00	2.114502e+01
9.800000e-07	1.235161e-06	3.547351e-10	8.892301e+00	2.431087e+01
9.900000e-07	1.307970e-06	4.262280e-10	9.416469e+00	2.749597e+01
1.000000e-06	1.380161e-06	4.701149e-10	9.936196e+00	3.070307e+01
1.010000e-06	1.451935e-06	4.959157e-10	1.045292e+01	3.393340e+01
1.020000e-06	1.523335e-06	5.410289e-10	1.096695e+01	3.718591e+01
1.030000e-06	1.594190e-06	6.120734e-10	1.147706e+01	4.045686e+01
1.040000e-06	1.664449e-06	6.779677e-10	1.198287e+01	4.373968e+01
1.050000e-06	1.734173e-06	7.158372e-10	1.248483e+01	4.702525e+01
1.060000e-06	1.803293e-06	7.437234e-10	1.298245e+01	5.030255e+01
1.070000e-06	1.871778e-06	7.945700e-10	1.347550e+01	5.355959e+01
1.080000e-06	1.939687e-06	8.650634e-10	1.396439e+01	5.678453e+01
1.090000e-06	2.007118e-06	9.239001e-10	1.444985e+01	5.996675e+01
1.100000e-06	2.073974e-06	9.576614e-10	1.493116e+01	6.309786e+01
1.110000e-06	2.139861e-06	9.872920e-10	1.540551e+01	6.617236e+01
1.120000e-06	2.204579e-06	1.038275e-09	1.587143e+01	6.918791e+01
1.130000e-06	2.268429e-06	1.103112e-09	1.633111e+01	7.214519e+01
1.140000e-06	2.331727e-06	1.153461e-09	1.678681e+01	7.504731e+01
1.150000e-06	2.394441e-06	1.179866e-09	1.723831e+01	7.789895e+01
1.160000e-06	2.456329e-06	1.207506e-09	1.768385e+01	8.070518e+01
1.170000e-06	2.517291e-06	1.258258e-09	1.812274e+01	8.347039e+01
1.180000e-06	2.577484e-06	1.316983e-09	1.855608e+01	8.619722e+01
1.190000e-06	2.637013e-06	1.358915e-09	1.898466e+01	8.888586e+01
1.200000e-06	2.695723e-06	1.384408e-09	1.940732e+01	9.153371e+01
1.210000e-06	2.753124e-06	1.418064e-09	1.982057e+01	9.413547e+01
1.220000e-06	2.809203e-06	1.470063e-09	2.022430e+01	9.668367e+01
1.230000e-06	2.864365e-06	1.522276e-09	2.062143e+01	9.916956e+01
1.240000e-06	2.918654e-06	1.554971e-09	2.101227e+01	1.015841e+02
1.250000e-06	2.971965e-06	1.574677e-09	2.139608e+01	1.039194e+02
1.260000e-06	3.024181e-06	1.604442e-09	2.177199e+01	1.061691e+02
1.270000e-06	3.075073e-06	1.648233e-09	2.213838e+01	1.083298e+02
1.280000e-06	3.124355e-06	1.689361e-09	2.249318e+01	1.104010e+02
1.290000e-06	3.172188e-06	1.715984e-09	2.283754e+01	1.123852e+02
1.300000e-06	3.218942e-06	1.736157e-09	2.317414e+01	1.142870e+02
1.310000e-06	3.264620e-06	1.765263e-09	2.350299e+01	1.161129e+02
1.320000e-06	3.309227e-06	1.802262e-09	2.382412e+01	1.178700e+02
1.330000e-06	3.352775e-06	1.831812e-09	2.413764e+01	1.195648e+02
1.340000e-06	3.395036e-06	1.847863e-09	2.444189e+01	1.212024e+02
1.350000e-06	3.435812e-06	1.861325e-09	2.473545e+01	1.227858e+02
1.360000e-06	3.475380e-06	1.884407e-09	2.502031e+01	1.243158e+02
1.370000e-06	3.513897e-06	1.915574e-09	2.529761e+01	1.257910e+02
1.380000e-06	3.551195e-06	1.941345e-09	2.556613e+01	1.272082e+02
1.390000e-06	3.587353e-06	1.957071e-09	2.582644e+01	1.285632e+02
1.400000e-06	3.622409e-06	1.972651e-09	2.607882e+01	1.298519e+02
1.410000e-06	3.656019e-06	1.996534e-09	2.632079e+01	1.310712e+02
1.420000e-06	3.688120e-06	2.022769e-09	2.655189e+01	1.322194e+02
1.430000e-06	3.718993e-06	2.041226e-09	2.677416e+01	1.332974e+02
1.440000e-06	3.748681e-06	2.051395e-09	2.698789e+01	1.343080e+02
1.450000e-06	3.777208e-06	2.060540e-09	2.719327e+01	1.352561e+02
1.460000e-06	3.804559e-06	2.074790e-09	2.739017e+01	1.361481e+02
1.470000e-06	3.830383e-06	2.092475e-09	2.757609e+01	1.369906e+02
1.480000e-06	3.854598e-06	2.107469e-09	2.775042e+01	1.377897e+02
1.490000e-06	3.877474e-06	2.117458e-09	2.791511e+01	1.385501e+02
1.500000e-06	3.899076e-06	2.127636e-09	2.807063e+01	1.392741e+02
1.510000e-06	3.919422e-06	2.141998e-09	2.821711e+01	1.399617e+02
1.520000e-06	3.938561e-06	2.157427e-09	2.835490e+01	1.406101e+02
1.530000e-06	3.956310e-06	2.166969e-09	2.848267e+01	1.412147e+02
1.540000e-06	3.972521e-06	2.170049e-09	2.859938e+01	1.417692e+02
1.550000e-06	3.987217e-06	2.174016e-09	2.870518e+01	1.422675e+02
1.560000e-06	4.000448e-06	2.182318e-09	2.880043e+01	1.427040e+02
1.570000e-06	4.012193e-06	2.191451e-09	2.888499e+01	1.430750e+02
1.580000e-06	4.022257e-06	2.196577e-09	2.895744e+01	1.433792e+02
1.590000e-06	4.030686e-06	2.197434e-09	2.901812e+01	1.436182e+02
1.600000e-06	4.037688e-06	2.200326e-09	2.906854e+01	1.437961e+02
1.610000e-06	4.043299e-06	2.207408e-09	2.910893e+01	1.439192e+02
1.620000e-06	4.047562e-06	2.212817e-09	2.913963e+01	1.439948e+02
1.630000e-06	4.050441e-06	2.213437e-09	2.916035e+01	1.440306e+02
1.640000e-06	4.051677e-06	2.210187e-09	2.916925e+01	1.440329e+02
1.650000e-06	4.051405e-06	2.206189e-09	2.916729e+01	1.440065e+02
1.660000e-06	4.049879e-06	2.203812e-09	2.915630e+01	1.439533e+02
1.670000e-06	4.047081e-06	2.203392e-09	2.913616e+01	1.438729e+02
1.680000e-06	4.043134e-06	2.201137e-09	2.910774e+01	1.437623e+02
1.690000e-06	4.037963e-06	2.196566e-09	2.907052e+01	1.436173e+02
1.700000e-06	4.031252e-06	2.194846e-09	2.902221e+01	1.434335e+02
1.710000e-06	4.023120e-06	2.196092e-09	2.896366e+01	1.432074e+02
1.720000e-06	4.013840e-06	2.203790e-09	2.889685e+01	1.429380e+02
1.730000e-06	4.003433e-06	2.189553e-09	2.882193e+01	1.426277e+02
1.740000e-06	3.991573e-06	2.145610e-09	2.873654e+01	1.422825e+02
1.750000e-06	3.977474e-06	2.123654e-09	2.863504e+01	1.419125e+02
1.760000e-06	3.960954e-06	2.145379e-09	2.851611e+01	1.415306e+02
1.770000e-06	3.942934e-06	2.211587e-09	2.838637e+01	1.411516e+02
1.780000e-06	3.924463e-06	2.198569e-09	2.825340e+01	1.407901e+02
1.790000e-06	3.905525e-06	2.109611e-09	2.811705e+01	1.404589e+02
1.800000e-06	3.884946e-06	2.121887e-09	2.796890e+01	1.401665e+02
1.810000e-06	3.862395e-06	2.147230e-09	2.780655e+01	1.399161e+02
1.820000e-06	3.838765e-06	2.157263e-09	2.763643e+01	1.397041e+02
1.830000e-06	3.814017e-06	2.212197e-09	2.745827e+01	1.395199e+02
1.840000e-06	3.787668e-06	2.129623e-09	2.726857e+01	1.393463e+02
1.850000e-06	3.760132e-06	2.029061e-09	2.707033e+01	1.391610e+02
1.860000e-06	3.731499e-06	2.131450e-09	2.686419e+01	1.389386e+02
1.870000e-06	3.701382e-06	2.157310e-09	2.664737e+01	1.386525e+02
1.880000e-06	3.669737e-06	2.059313e-09	2.641955e+01	1.382782e+02
1.890000e-06	3.636599e-06	2.087299e-09	2.618098e+01	1.377954e+02
1.900000e-06	3.602293e-06	2.127832e-09	2.593400e+01	1.371897e+02
1.910000e-06	3.567016e-06	2.115996e-09	2.568002e+01	1.364544e+02
1.920000e-06	3.530417e-06	2.078636e-09	2.541654e+01	1.355905e+02
1.930000e-06	3.492319e-06	2.004407e-09	2.514226e+01	1.346066e+02
1.940000e-06	3.452739e-06	2.060867e-09	2.485732e+01	1.335172e+02
1.950000e-06	3.411841e-06	2.126022e-09	2.456288e+01	1.323412e+02
1.960000e-06	3.369845e-06	2.014875e-09	2.426054e+01	1.310993e+02
1.970000e-06	3.326772e-06	1.912766e-09	2.395044e+01	1.298118e+02
1.980000e-06	3.282727e-06	1.913994e-09	2.363335e+01	1.284966e+02
1.990000e-06	3.237685e-06	1.979855e-09	2.330907e+01	1.271669e+02
2.000000e-06	3.191320e-06	2.009171e-09	2.297528e+01	1.258307e+02
2.010000e-06	3.143802e-06	1.902250e-09	2.263318e+01	1.244906e+02
2.020000e-06	3.095213e-06	1.815430e-09	2.228338e+01	1.231438e+02
2.030000e-06	3.045288e-06	1.841213e-09	2.192395e+01	1.217834e+02
2.040000e-06	2.994127e-06	1.902576e-09	2.155563e+01	1.204001e+02
2.050000e-06	2.941973e-06	1.882110e-09	2.118016e+01	1.189839e+02
2.060000e-06	2.888707e-06	1.754678e-09	2.079668e+01	1.175256e+02
2.070000e-06	2.834019e-06	1.708354e-09	2.040296e+01	1.160182e+02
2.080000e-06	2.778103e-06	1.767889e-09	2.000040e+01	1.144578e+02
2.090000e-06	2.721354e-06	1.793722e-09	1.959185e+01	1.128444e+02
2.100000e-06	2.663712e-06	1.719962e-09	1.917687e+01	1.111807e+02
2.110000e-06	2.605098e-06	1.607928e-09	1.875489e+01	1.094725e+02
2.120000e-06	2.545643e-06	1.614511e-09	1.832685e+01	1.077265e+02
2.130000e-06	2.485474e-06	1.678727e-09	1.789368e+01	1.059498e+02
2.140000e-06	2.424529e-06	1.648841e-09	1.745492e+01	1.041484e+02
2.150000e-06	2.362370e-06	1.546309e-09	1.700742e+01	1.023263e+02
2.160000e-06	2.298996e-06	1.474366e-09	1.655117e+01	1.004848e+02
2.170000e-06	2.234860e-06	1.498325e-09	1.608944e+01	9.862224e+01
2.180000e-06	2.170061e-06	1.528606e-09	1.562293e+01	9.673484e+01
2.190000e-06	2.104544e-06	1.475604e-09	1.515125e+01	9.481690e+01
2.200000e-06	2.038265e-06	1.387761e-09	1.467408e+01	9.286205e+01
2.210000e-06	1.971215e-06	1.350393e-09	1.419137e+01	9.086425e+01
2.220000e-06	1.903556e-06	1.373656e-09	1.370428e+01	8.881886e+01
2.230000e-06	1.835333e-06	1.366760e-09	1.321312e+01	8.672335e+01
2.240000e-06	1.766457e-06	1.294958e-09	1.271726e+01	8.457776e+01
2.250000e-06	1.696768e-06	1.225206e-09	1.221555e+01	8.238470e+01
2.260000e-06	1.626145e-06	1.205125e-09	1.170711e+01	8.014895e+01
2.270000e-06	1.554677e-06	1.206567e-09	1.119259e+01	7.787675e+01
2.280000e-06	1.482691e-06	1.167862e-09	1.067434e+01	7.557485e+01
2.290000e-06	1.410426e-06	1.095915e-09	1.015408e+01	7.324959e+01
2.300000e-06	1.337792e-06	1.049393e-09	9.631169e+00	7.090596e+01
2.310000e-06	1.264681e-06	1.046565e-09	9.104824e+00	6.854694e+01
2.320000e-06	1.191088e-06	1.038237e-09	8.575000e+00	6.617325e+01
2.330000e-06	1.117061e-06	9.780073e-10	8.042060e+00	6.378327e+01
2.340000e-06	1.042683e-06	9.051440e-10	7.506591e+00	6.137351e+01
2.350000e-06	9.679854e-07	8.771691e-10	6.968820e+00	5.893922e+01
2.360000e-06	8.929967e-07	8.771793e-10	6.428954e+00	5.647517e+01
2.370000e-06	8.177035e-07	8.429912e-10	5.886895e+00	5.397650e+01
2.380000e-06	7.421483e-07	7.672677e-10	5.342950e+00	5.143941e+01
2.390000e-06	6.663529e-07	7.100101e-10	4.797276e+00	4.886170e+01
2.400000e-06	5.903160e-07	6.997237e-10	4.249863e+00	4.624295e+01
2.410000e-06	5.140973e-07	6.920999e-10	3.701142e+00	4.358443e+01
2.420000e-06	4.377387e-07	6.365517e-10	3.151413e+00	4.088878e+01
2.430000e-06	3.612504e-07	5.546741e-10	2.600751e+00	3.815944e+01
2.440000e-06	2.846239e-07	5.097488e-10	2.049093e+00	3.540000e+01
2.450000e-06	2.078466e-07	5.067254e-10	1.496351e+00	3.261365e+01
2.460000e-06	1.309031e-07	4.833301e-10	9.424109e-01	2.980265e+01
2.470000e-06	5.384912e-08	4.064420e-10	3.876761e-01	2.696809e+01
2.480000e-06	-2.324739e-08	3.250158e-10	-1.673650e-01	2.410990e+01
2.490000e-06	-1.003791e-07	2.960962e-10	-7.226598e-01	2.122707e+01
2.500000e-06	-1.774911e-07	2.951883e-10	-1.277812e+00	1.831810e+01
2.510000e-06	-2.544406e-07	2.533898e-10	-1.831795e+00	1.538147e+01
2.520000e-06	-3.312922e-07	1.680579e-10	-2.385073e+00	1.241624e+01
2.530000e-06	-4.080721e-07	1.032553e-10	-2.937835e+00	9.422436e+00
2.540000e-06	-4.846770e-07	8.754848e-11	-3.489337e+00	6.401253e+00
2.550000e-06	-5.610614e-07	7.214034e-11	-4.039251e+00	3.355093e+00
2.560000e-06	-6.372069e-07	9.412006e-12	-4.587446e+00	2.872766e-01
2.570000e-06	-7.131474e-07	-7.528307e-11	-5.134164e+00	-2.798411e+00
2.580000e-06	-7.888830e-07	-1.259228e-10	-5.679407e+00	-5.898309e+00
2.590000e-06	-8.643013e-07	-1.398809e-10	-6.222366e+00	-9.009481e+00
2.600000e-06	-9.393003e-07	-1.690924e-10	-6.762307e+00	-1.213022e+01
2.610000e-06	-1.013866e-06	-2.395011e-10	-7.299128e+00	-1.526036e+01
2.620000e-06	-1.088042e-06	-3.137549e-10	-7.833140e+00	-1.840129e+01
2.630000e-06	-1.161910e-06	-3.503581e-10	-8.364944e+00	-2.155566e+01
2.640000e-06	-1.235435e-06	-3.690577e-10	-8.894269e+00	-2.472685e+01
2.650000e-06	-1.308454e-06	-4.145549e-10	-9.419957e+00	-2.791819e+01
2.660000e-06	-1.380913e-06	-4.909571e-10	-9.941612e+00	-3.113208e+01
2.670000e-06	-1.453027e-06	-5.593937e-10	-1.046078e+01	-3.436915e+01
2.680000e-06	-1.524879e-06	-5.942163e-10	-1.097806e+01	-3.762762e+01
2.690000e-06	-1.596168e-06	-6.209167e-10	-1.149130e+01	-4.090293e+01
2.700000e-06	-1.666635e-06	-6.738842e-10	-1.199861e+01	-4.418775e+01
2.710000e-06	-1.736062e-06	-7.457629e-10	-1.249843e+01	-4.747232e+01
2.720000e-06	-1.804604e-06	-8.013664e-10	-1.299189e+01	-5.074525e+01
2.730000e-06	-1.872675e-06	-8.301603e-10	-1.348195e+01	-5.399448e+01
2.740000e-06	-1.940278e-06	-8.623208e-10	-1.396865e+01	-5.720839e+01
2.750000e-06	-2.007204e-06	-9.219798e-10	-1.445047e+01	-6.037693e+01
2.760000e-06	-2.073403e-06	-9.912467e-10	-1.492706e+01	-6.349248e+01
2.770000e-06	-2.138905e-06	-1.039118e-09	-1.539863e+01	-6.655042e+01
2.780000e-06	-2.203672e-06	-1.067981e-09	-1.586490e+01	-6.954931e+01
2.790000e-06	-2.267820e-06	-1.105681e-09	-1.632672e+01	-7.249061e+01
2.800000e-06	-2.331319e-06	-1.161793e-09	-1.678387e+01	-7.537797e+01
2.810000e-06	-2.393799e-06	-1.217532e-09	-1.723368e+01	-7.821631e+01
2.820000e-06	-2.455127e-06	-1.253527e-09	-1.767520e+01	-8.101061e+01
2.830000e-06	-2.515583e-06	-1.280503e-09	-1.811044e+01	-8.376486e+01
2.840000e-06	-2.575316e-06	-1.320201e-09	-1.854048e+01	-8.648107e+01
2.850000e-06	-2.634245e-06	-1.373733e-09	-1.896473e+01	-8.915863e+01
2.860000e-06	-2.692251e-06	-1.422368e-09	-1.938233e+01	-9.179414e+01
2.870000e-06	-2.749328e-06	-1.453248e-09	-1.979324e+01	-9.438162e+01
2.880000e-06	-2.805533e-06	-1.480040e-09	-2.019788e+01	-9.691312e+01
2.890000e-06	-2.860766e-06	-1.520071e-09	-2.059552e+01	-9.937971e+01
2.900000e-06	-2.914605e-06	-1.567402e-09	-2.098312e+01	-1.017726e+02
2.910000e-06	-2.966980e-06	-1.604977e-09	-2.136018e+01	-1.040841e+02
2.920000e-06	-3.018232e-06	-1.628647e-09	-2.172917e+01	-1.063088e+02
2.930000e-06	-3.068313e-06	-1.652631e-09	-2.208971e+01	-1.084440e+02
2.940000e-06	-3.117019e-06	-1.687613e-09	-2.244037e+01	-1.104902e+02
