# Temperatura_=_20.0
# Concentracion g/m^3_=_12600.0
# C_Vs_to_Am_M_A/Vsm_=_65563218390.804596
# pendiente_HvsI_1/m_=_3716.3
# ordenada_HvsI_A/m_=_1297.0
# frecuencia_Hz_=_301669.2726493903

Tiempo_(s)	Campo_(V.s)	Magnetizacion_(V.s)	Campo_(kA/m)	Magnetizacion_(A/m)
0.000000e+00	-4.045626e-06	-2.294367e-09	-2.906569e+01	-1.499121e+02
1.000000e-08	-4.043559e-06	-2.293698e-09	-2.905084e+01	-1.498475e+02
2.000000e-08	-4.040022e-06	-2.291277e-09	-2.902543e+01	-1.497572e+02
3.000000e-08	-4.035294e-06	-2.289908e-09	-2.899146e+01	-1.496373e+02
4.000000e-08	-4.029282e-06	-2.288797e-09	-2.894827e+01	-1.494817e+02
5.000000e-08	-4.022040e-06	-2.286313e-09	-2.889624e+01	-1.492832e+02
6.000000e-08	-4.013706e-06	-2.280848e-09	-2.883636e+01	-1.490357e+02
7.000000e-08	-4.003912e-06	-2.272746e-09	-2.876600e+01	-1.487354e+02
8.000000e-08	-3.992313e-06	-2.271336e-09	-2.868266e+01	-1.483826e+02
9.000000e-08	-3.978892e-06	-2.299806e-09	-2.858624e+01	-1.479823e+02
1.000000e-07	-3.963337e-06	-2.298491e-09	-2.847448e+01	-1.475452e+02
1.100000e-07	-3.945968e-06	-2.260861e-09	-2.834970e+01	-1.470860e+02
1.200000e-07	-3.927424e-06	-2.198616e-09	-2.821647e+01	-1.466232e+02
1.300000e-07	-3.908000e-06	-2.167663e-09	-2.807692e+01	-1.461761e+02
1.400000e-07	-3.887775e-06	-2.265249e-09	-2.793161e+01	-1.457633e+02
1.500000e-07	-3.866558e-06	-2.292153e-09	-2.777918e+01	-1.453994e+02
1.600000e-07	-3.844307e-06	-2.189197e-09	-2.761932e+01	-1.450927e+02
1.700000e-07	-3.820577e-06	-2.172526e-09	-2.744883e+01	-1.448441e+02
1.800000e-07	-3.794828e-06	-2.151649e-09	-2.726384e+01	-1.446454e+02
1.900000e-07	-3.767676e-06	-2.150625e-09	-2.706877e+01	-1.444796e+02
2.000000e-07	-3.739632e-06	-2.266477e-09	-2.686728e+01	-1.443219e+02
2.100000e-07	-3.710289e-06	-2.214233e-09	-2.665646e+01	-1.441422e+02
2.200000e-07	-3.679566e-06	-2.118125e-09	-2.643574e+01	-1.439071e+02
2.300000e-07	-3.647700e-06	-2.205229e-09	-2.620680e+01	-1.435839e+02
2.400000e-07	-3.614531e-06	-2.218207e-09	-2.596850e+01	-1.431431e+02
2.500000e-07	-3.579852e-06	-2.161004e-09	-2.571934e+01	-1.425619e+02
2.600000e-07	-3.543689e-06	-2.131560e-09	-2.545953e+01	-1.418262e+02
2.700000e-07	-3.506234e-06	-2.089151e-09	-2.519044e+01	-1.409317e+02
2.800000e-07	-3.467637e-06	-2.157394e-09	-2.491314e+01	-1.398844e+02
2.900000e-07	-3.427986e-06	-2.140626e-09	-2.462827e+01	-1.386991e+02
3.000000e-07	-3.386951e-06	-1.991185e-09	-2.433345e+01	-1.373980e+02
3.100000e-07	-3.344312e-06	-2.027802e-09	-2.402712e+01	-1.360076e+02
3.200000e-07	-3.300451e-06	-2.122738e-09	-2.371200e+01	-1.345563e+02
3.300000e-07	-3.255520e-06	-2.055902e-09	-2.338919e+01	-1.330705e+02
3.400000e-07	-3.209438e-06	-1.958305e-09	-2.305812e+01	-1.315727e+02
3.500000e-07	-3.162255e-06	-1.933211e-09	-2.271913e+01	-1.300790e+02
3.600000e-07	-3.113908e-06	-1.962634e-09	-2.237179e+01	-1.285983e+02
3.700000e-07	-3.063971e-06	-1.994204e-09	-2.201301e+01	-1.271321e+02
3.800000e-07	-3.012518e-06	-1.922452e-09	-2.164335e+01	-1.256752e+02
3.900000e-07	-2.959946e-06	-1.807624e-09	-2.126565e+01	-1.242170e+02
4.000000e-07	-2.906376e-06	-1.820688e-09	-2.088078e+01	-1.227441e+02
4.100000e-07	-2.851788e-06	-1.910756e-09	-2.048859e+01	-1.212422e+02
4.200000e-07	-2.796360e-06	-1.870689e-09	-2.009037e+01	-1.196979e+02
4.300000e-07	-2.740201e-06	-1.729400e-09	-1.968690e+01	-1.181012e+02
4.400000e-07	-2.682773e-06	-1.681352e-09	-1.927431e+01	-1.164460e+02
4.500000e-07	-2.623966e-06	-1.756971e-09	-1.885181e+01	-1.147306e+02
4.600000e-07	-2.564357e-06	-1.808616e-09	-1.842355e+01	-1.129577e+02
4.700000e-07	-2.504053e-06	-1.692387e-09	-1.799030e+01	-1.111332e+02
4.800000e-07	-2.442852e-06	-1.549071e-09	-1.755060e+01	-1.092652e+02
4.900000e-07	-2.380819e-06	-1.570814e-09	-1.710492e+01	-1.073619e+02
5.000000e-07	-2.318001e-06	-1.667695e-09	-1.665361e+01	-1.054309e+02
5.100000e-07	-2.254497e-06	-1.642298e-09	-1.619737e+01	-1.034774e+02
5.200000e-07	-2.190212e-06	-1.494406e-09	-1.573551e+01	-1.015037e+02
5.300000e-07	-2.124791e-06	-1.410526e-09	-1.526550e+01	-9.950923e+01
5.400000e-07	-2.058272e-06	-1.469081e-09	-1.478760e+01	-9.749048e+01
5.500000e-07	-1.991034e-06	-1.530475e-09	-1.430453e+01	-9.544201e+01
5.600000e-07	-1.923329e-06	-1.450261e-09	-1.381811e+01	-9.335751e+01
5.700000e-07	-1.854989e-06	-1.312179e-09	-1.332712e+01	-9.123094e+01
5.800000e-07	-1.785905e-06	-1.280928e-09	-1.283078e+01	-8.905768e+01
5.900000e-07	-1.716228e-06	-1.343502e-09	-1.233019e+01	-8.683528e+01
6.000000e-07	-1.645955e-06	-1.344797e-09	-1.182532e+01	-8.456395e+01
6.100000e-07	-1.575068e-06	-1.238373e-09	-1.131603e+01	-8.224649e+01
6.200000e-07	-1.503696e-06	-1.139907e-09	-1.080326e+01	-7.988786e+01
6.300000e-07	-1.431980e-06	-1.139664e-09	-1.028802e+01	-7.749433e+01
6.400000e-07	-1.359781e-06	-1.175623e-09	-9.769310e+00	-7.507249e+01
6.500000e-07	-1.286928e-06	-1.141221e-09	-9.245899e+00	-7.262818e+01
6.600000e-07	-1.213440e-06	-1.048218e-09	-8.717924e+00	-7.016553e+01
6.700000e-07	-1.139266e-06	-9.809313e-10	-8.185026e+00	-6.768638e+01
6.800000e-07	-1.064459e-06	-9.769147e-10	-7.647579e+00	-6.518992e+01
6.900000e-07	-9.892398e-07	-9.807514e-10	-7.107165e+00	-6.267288e+01
7.000000e-07	-9.137411e-07	-9.338073e-10	-6.564748e+00	-6.013005e+01
7.100000e-07	-8.379479e-07	-8.526973e-10	-6.020213e+00	-5.755504e+01
7.200000e-07	-7.618988e-07	-7.947526e-10	-5.473841e+00	-5.494129e+01
7.300000e-07	-6.856469e-07	-7.806767e-10	-4.926011e+00	-5.228300e+01
7.400000e-07	-6.091914e-07	-7.684602e-10	-4.376719e+00	-4.957596e+01
7.500000e-07	-5.325525e-07	-7.222783e-10	-3.826109e+00	-4.681812e+01
7.600000e-07	-4.556182e-07	-6.506188e-10	-3.273376e+00	-4.400975e+01
7.700000e-07	-3.784314e-07	-5.927553e-10	-2.718830e+00	-4.115335e+01
7.800000e-07	-3.012071e-07	-5.681900e-10	-2.164014e+00	-3.825309e+01
7.900000e-07	-2.239633e-07	-5.525041e-10	-1.609058e+00	-3.531417e+01
8.000000e-07	-1.466072e-07	-5.056171e-10	-1.053295e+00	-3.234197e+01
8.100000e-07	-6.906661e-08	-4.278048e-10	-4.962071e-01	-2.934131e+01
8.200000e-07	8.557245e-09	-3.680062e-10	6.147929e-02	-2.631576e+01
8.300000e-07	8.614507e-08	-3.484543e-10	6.189069e-01	-2.326732e+01
8.400000e-07	1.636915e-07	-3.310453e-10	1.176037e+00	-2.019635e+01
8.500000e-07	2.412020e-07	-2.724278e-10	1.732909e+00	-1.710177e+01
8.600000e-07	3.187236e-07	-1.915576e-10	2.289861e+00	-1.398160e+01
8.700000e-07	3.961818e-07	-1.395210e-10	2.846357e+00	-1.083356e+01
8.800000e-07	4.734554e-07	-1.221451e-10	3.401527e+00	-7.655757e+00
8.900000e-07	5.504649e-07	-9.007672e-11	3.954800e+00	-4.447311e+00
9.000000e-07	6.272680e-07	-1.571823e-11	4.506589e+00	-1.208742e+00
9.100000e-07	7.038833e-07	6.296877e-11	5.057030e+00	2.057859e+00
9.200000e-07	7.802364e-07	1.031847e-10	5.605586e+00	5.348953e+00
9.300000e-07	8.562575e-07	1.228446e-10	6.151758e+00	8.659928e+00
9.400000e-07	9.319339e-07	1.692950e-10	6.695453e+00	1.198566e+01
9.500000e-07	1.007385e-06	2.435373e-10	7.237531e+00	1.532114e+01
9.600000e-07	1.082550e-06	3.054257e-10	7.777548e+00	1.866213e+01
9.700000e-07	1.157230e-06	3.368183e-10	8.314087e+00	2.200554e+01
9.800000e-07	1.231213e-06	3.696875e-10	8.845614e+00	2.534978e+01
9.900000e-07	1.304394e-06	4.334212e-10	9.371379e+00	2.869461e+01
1.000000e-06	1.376855e-06	5.071311e-10	9.891973e+00	3.204089e+01
1.010000e-06	1.448777e-06	5.574480e-10	1.040869e+01	3.539003e+01
1.020000e-06	1.520322e-06	5.908911e-10	1.092271e+01	3.874328e+01
1.030000e-06	1.591405e-06	6.387839e-10	1.143341e+01	4.210107e+01
1.040000e-06	1.661897e-06	7.068857e-10	1.193985e+01	4.546236e+01
1.050000e-06	1.731842e-06	7.682083e-10	1.244237e+01	4.882425e+01
1.060000e-06	1.801249e-06	8.077400e-10	1.294102e+01	5.218185e+01
1.070000e-06	1.869969e-06	8.470773e-10	1.343474e+01	5.552845e+01
1.080000e-06	1.937980e-06	9.036324e-10	1.392336e+01	5.885596e+01
1.090000e-06	2.005478e-06	9.664465e-10	1.440830e+01	6.215558e+01
1.100000e-06	2.072530e-06	1.015631e-09	1.489004e+01	6.541861e+01
1.110000e-06	2.138766e-06	1.053491e-09	1.536590e+01	6.863721e+01
1.120000e-06	2.203824e-06	1.099801e-09	1.583331e+01	7.180507e+01
1.130000e-06	2.267860e-06	1.157363e-09	1.629338e+01	7.491777e+01
1.140000e-06	2.331221e-06	1.207851e-09	1.674859e+01	7.797297e+01
1.150000e-06	2.394039e-06	1.243530e-09	1.719991e+01	8.097015e+01
1.160000e-06	2.456128e-06	1.280321e-09	1.764599e+01	8.391020e+01
1.170000e-06	2.517332e-06	1.329992e-09	1.808570e+01	8.679468e+01
1.180000e-06	2.577670e-06	1.381555e-09	1.851920e+01	8.962515e+01
1.190000e-06	2.637293e-06	1.422122e-09	1.894755e+01	9.240239e+01
1.200000e-06	2.696201e-06	1.457827e-09	1.937078e+01	9.512591e+01
1.210000e-06	2.753960e-06	1.500501e-09	1.978575e+01	9.779362e+01
1.220000e-06	2.810348e-06	1.548937e-09	2.019086e+01	1.004019e+02
1.230000e-06	2.865688e-06	1.591125e-09	2.058845e+01	1.029458e+02
1.240000e-06	2.920155e-06	1.622369e-09	2.097977e+01	1.054199e+02
1.250000e-06	2.973669e-06	1.651261e-09	2.136424e+01	1.078187e+02
1.260000e-06	3.026064e-06	1.686304e-09	2.174068e+01	1.101377e+02
1.270000e-06	3.077141e-06	1.722870e-09	2.210763e+01	1.123737e+02
1.280000e-06	3.126681e-06	1.755031e-09	2.246355e+01	1.145258e+02
1.290000e-06	3.174763e-06	1.782185e-09	2.280900e+01	1.165951e+02
1.300000e-06	3.221717e-06	1.811602e-09	2.314634e+01	1.185846e+02
1.310000e-06	3.267560e-06	1.847727e-09	2.347569e+01	1.204990e+02
1.320000e-06	3.312230e-06	1.882034e-09	2.379663e+01	1.223437e+02
1.330000e-06	3.355883e-06	1.906301e-09	2.411025e+01	1.241240e+02
1.340000e-06	3.398391e-06	1.925296e-09	2.441564e+01	1.258445e+02
1.350000e-06	3.439414e-06	1.948459e-09	2.471038e+01	1.275081e+02
1.360000e-06	3.479153e-06	1.976672e-09	2.499588e+01	1.291159e+02
1.370000e-06	3.517777e-06	2.003558e-09	2.527337e+01	1.306670e+02
1.380000e-06	3.555222e-06	2.023173e-09	2.554239e+01	1.321586e+02
1.390000e-06	3.591529e-06	2.039444e-09	2.580324e+01	1.335871e+02
1.400000e-06	3.626697e-06	2.060627e-09	2.605590e+01	1.349482e+02
1.410000e-06	3.660504e-06	2.086821e-09	2.629879e+01	1.362388e+02
1.420000e-06	3.692812e-06	2.108042e-09	2.653091e+01	1.374567e+02
1.430000e-06	3.723895e-06	2.121853e-09	2.675422e+01	1.386020e+02
1.440000e-06	3.753762e-06	2.135876e-09	2.696880e+01	1.396773e+02
1.450000e-06	3.782365e-06	2.153893e-09	2.717429e+01	1.406873e+02
1.460000e-06	3.809840e-06	2.172303e-09	2.737169e+01	1.416384e+02
1.470000e-06	3.835946e-06	2.185276e-09	2.755925e+01	1.425381e+02
1.480000e-06	3.860410e-06	2.194054e-09	2.773501e+01	1.433935e+02
1.490000e-06	3.883425e-06	2.205842e-09	2.790036e+01	1.442109e+02
1.500000e-06	3.905195e-06	2.222293e-09	2.805677e+01	1.449940e+02
1.510000e-06	3.925717e-06	2.237285e-09	2.820420e+01	1.457441e+02
1.520000e-06	3.945044e-06	2.246675e-09	2.834306e+01	1.464592e+02
1.530000e-06	3.963055e-06	2.252167e-09	2.847246e+01	1.471347e+02
1.540000e-06	3.979532e-06	2.259015e-09	2.859083e+01	1.477634e+02
1.550000e-06	3.994437e-06	2.270157e-09	2.869792e+01	1.483375e+02
1.560000e-06	4.007833e-06	2.279982e-09	2.879416e+01	1.488490e+02
1.570000e-06	4.019772e-06	2.284644e-09	2.887994e+01	1.492912e+02
1.580000e-06	4.030006e-06	2.288748e-09	2.895346e+01	1.496600e+02
1.590000e-06	4.038463e-06	2.296095e-09	2.901422e+01	1.499546e+02
1.600000e-06	4.045516e-06	2.304830e-09	2.906490e+01	1.501775e+02
1.610000e-06	4.051247e-06	2.310132e-09	2.910607e+01	1.503342e+02
1.620000e-06	4.055582e-06	2.311034e-09	2.913721e+01	1.504331e+02
1.630000e-06	4.058596e-06	2.310189e-09	2.915887e+01	1.504834e+02
1.640000e-06	4.060041e-06	2.311168e-09	2.916925e+01	1.504944e+02
1.650000e-06	4.059902e-06	2.312762e-09	2.916825e+01	1.504737e+02
1.660000e-06	4.058483e-06	2.311122e-09	2.915806e+01	1.504266e+02
1.670000e-06	4.055814e-06	2.306571e-09	2.913888e+01	1.503547e+02
1.680000e-06	4.051955e-06	2.302667e-09	2.911116e+01	1.502563e+02
1.690000e-06	4.046930e-06	2.300658e-09	2.907505e+01	1.501268e+02
1.700000e-06	4.040368e-06	2.300743e-09	2.902791e+01	1.499595e+02
1.710000e-06	4.032315e-06	2.298948e-09	2.897006e+01	1.497474e+02
1.720000e-06	4.023128e-06	2.296906e-09	2.890405e+01	1.494848e+02
1.730000e-06	4.012821e-06	2.295616e-09	2.883000e+01	1.491691e+02
1.740000e-06	4.001120e-06	2.250966e-09	2.874594e+01	1.488018e+02
1.750000e-06	3.987240e-06	2.225616e-09	2.864622e+01	1.483896e+02
1.760000e-06	3.970918e-06	2.238911e-09	2.852895e+01	1.479443e+02
1.770000e-06	3.952949e-06	2.287403e-09	2.839985e+01	1.474819e+02
1.780000e-06	3.934394e-06	2.328405e-09	2.826654e+01	1.470215e+02
1.790000e-06	3.915464e-06	2.244034e-09	2.813054e+01	1.465823e+02
1.800000e-06	3.895043e-06	2.183984e-09	2.798383e+01	1.461820e+02
1.810000e-06	3.872546e-06	2.249493e-09	2.782220e+01	1.458337e+02
1.820000e-06	3.848955e-06	2.242888e-09	2.765271e+01	1.455438e+02
1.830000e-06	3.824403e-06	2.265735e-09	2.747632e+01	1.453105e+02
1.840000e-06	3.798188e-06	2.279820e-09	2.728797e+01	1.451231e+02
1.850000e-06	3.770658e-06	2.120124e-09	2.709019e+01	1.449623e+02
1.860000e-06	3.742096e-06	2.115497e-09	2.688498e+01	1.448014e+02
1.870000e-06	3.712082e-06	2.223736e-09	2.666935e+01	1.446092e+02
1.880000e-06	3.680532e-06	2.159271e-09	2.644268e+01	1.443520e+02
1.890000e-06	3.647487e-06	2.170279e-09	2.620527e+01	1.439978e+02
1.900000e-06	3.613167e-06	2.230931e-09	2.595870e+01	1.435187e+02
1.910000e-06	3.577939e-06	2.165453e-09	2.570560e+01	1.428942e+02
1.920000e-06	3.541383e-06	2.162676e-09	2.544297e+01	1.421130e+02
1.930000e-06	3.503223e-06	2.100352e-09	2.516881e+01	1.411736e+02
1.940000e-06	3.463663e-06	2.117525e-09	2.488459e+01	1.400848e+02
1.950000e-06	3.422796e-06	2.254858e-09	2.459098e+01	1.388638e+02
1.960000e-06	3.380826e-06	2.090180e-09	2.428945e+01	1.375341e+02
1.970000e-06	3.337764e-06	1.920350e-09	2.398007e+01	1.361234e+02
1.980000e-06	3.293659e-06	2.025344e-09	2.366320e+01	1.346595e+02
1.990000e-06	3.248612e-06	2.097469e-09	2.333956e+01	1.331680e+02
2.000000e-06	3.202224e-06	2.087116e-09	2.300629e+01	1.316698e+02
2.010000e-06	3.154554e-06	1.943555e-09	2.266380e+01	1.301791e+02
2.020000e-06	3.105896e-06	1.831705e-09	2.231423e+01	1.287026e+02
2.030000e-06	3.056049e-06	1.952108e-09	2.195610e+01	1.272397e+02
2.040000e-06	3.005014e-06	2.024664e-09	2.158944e+01	1.257835e+02
2.050000e-06	2.952869e-06	1.935829e-09	2.121481e+01	1.243224e+02
2.060000e-06	2.899616e-06	1.766575e-09	2.083221e+01	1.228425e+02
2.070000e-06	2.845017e-06	1.742615e-09	2.043995e+01	1.213295e+02
2.080000e-06	2.789088e-06	1.896018e-09	2.003813e+01	1.197710e+02
2.090000e-06	2.732256e-06	1.903642e-09	1.962982e+01	1.181578e+02
2.100000e-06	2.674535e-06	1.747606e-09	1.921512e+01	1.164852e+02
2.110000e-06	2.615895e-06	1.614406e-09	1.879383e+01	1.147528e+02
2.120000e-06	2.556436e-06	1.679302e-09	1.836664e+01	1.129643e+02
2.130000e-06	2.496275e-06	1.816932e-09	1.793442e+01	1.111264e+02
2.140000e-06	2.435277e-06	1.729789e-09	1.749618e+01	1.092473e+02
2.150000e-06	2.373049e-06	1.556344e-09	1.704910e+01	1.073352e+02
2.160000e-06	2.309661e-06	1.506163e-09	1.659369e+01	1.053972e+02
2.170000e-06	2.245495e-06	1.589860e-09	1.613270e+01	1.034376e+02
2.180000e-06	2.180658e-06	1.645327e-09	1.566688e+01	1.014581e+02
2.190000e-06	2.115050e-06	1.524747e-09	1.519551e+01	9.945694e+01
2.200000e-06	2.048674e-06	1.395672e-09	1.471864e+01	9.743015e+01
2.210000e-06	1.981584e-06	1.397834e-09	1.423663e+01	9.537188e+01
2.220000e-06	1.913829e-06	1.463959e-09	1.374985e+01	9.327577e+01
2.230000e-06	1.845502e-06	1.449427e-09	1.325896e+01	9.113609e+01
2.240000e-06	1.776500e-06	1.325671e-09	1.276322e+01	8.894876e+01
2.250000e-06	1.706665e-06	1.250955e-09	1.226149e+01	8.671208e+01
2.260000e-06	1.635911e-06	1.266095e-09	1.175315e+01	8.442701e+01
2.270000e-06	1.564324e-06	1.286681e-09	1.123884e+01	8.209704e+01
2.280000e-06	1.492221e-06	1.233355e-09	1.072082e+01	7.972760e+01
2.290000e-06	1.419793e-06	1.138208e-09	1.020046e+01	7.732516e+01
2.300000e-06	1.347022e-06	1.094025e-09	9.677644e+00	7.489620e+01
2.310000e-06	1.273878e-06	1.095083e-09	9.152143e+00	7.244616e+01
2.320000e-06	1.200332e-06	1.091616e-09	8.623753e+00	6.997856e+01
2.330000e-06	1.126290e-06	1.036681e-09	8.091803e+00	6.749449e+01
2.340000e-06	1.051802e-06	9.575647e-10	7.556644e+00	6.499243e+01
2.350000e-06	9.769589e-07	9.133634e-10	7.018934e+00	6.246846e+01
2.360000e-06	9.018278e-07	9.046283e-10	6.479157e+00	5.991695e+01
2.370000e-06	8.264489e-07	8.890398e-10	5.937599e+00	5.733136e+01
2.380000e-06	7.508252e-07	8.315565e-10	5.394283e+00	5.470525e+01
2.390000e-06	6.749604e-07	7.613273e-10	4.849234e+00	5.203321e+01
2.400000e-06	5.988308e-07	7.199232e-10	4.302283e+00	4.931160e+01
2.410000e-06	5.224397e-07	7.083753e-10	3.753454e+00	4.653903e+01
2.420000e-06	4.458303e-07	6.889751e-10	3.203056e+00	4.371644e+01
2.430000e-06	3.690946e-07	6.274524e-10	2.651750e+00	4.084686e+01
2.440000e-06	2.922352e-07	5.490709e-10	2.099556e+00	3.793483e+01
2.450000e-06	2.151479e-07	5.051427e-10	1.545724e+00	3.498571e+01
2.460000e-06	1.379094e-07	4.944326e-10	9.908064e-01	3.200477e+01
2.470000e-06	6.062276e-08	4.625019e-10	4.355425e-01	2.899653e+01
2.480000e-06	-1.676350e-08	3.826744e-10	-1.204369e-01	2.596415e+01
2.490000e-06	-9.415347e-08	3.032029e-10	-6.764430e-01	2.290914e+01
2.500000e-06	-1.714881e-07	2.751756e-10	-1.232052e+00	1.983142e+01
2.510000e-06	-2.487991e-07	2.684617e-10	-1.787490e+00	1.672960e+01
2.520000e-06	-3.259835e-07	2.214516e-10	-2.342020e+00	1.360153e+01
2.530000e-06	-4.029497e-07	1.354713e-10	-2.894981e+00	1.044498e+01
2.540000e-06	-4.797256e-07	7.176166e-11	-3.446575e+00	7.258296e+00
2.550000e-06	-5.562990e-07	5.247337e-11	-3.996714e+00	4.040959e+00
2.560000e-06	-6.326851e-07	2.887310e-11	-4.545509e+00	7.939365e-01
2.570000e-06	-7.088168e-07	-3.959633e-11	-5.092475e+00	-2.480243e+00
2.580000e-06	-7.846478e-07	-1.255836e-10	-5.637280e+00	-5.777685e+00
2.590000e-06	-8.602157e-07	-1.762835e-10	-6.180195e+00	-9.093568e+00
2.600000e-06	-9.354399e-07	-1.951990e-10	-6.720642e+00	-1.242274e+01
2.610000e-06	-1.010289e-06	-2.330033e-10	-7.258393e+00	-1.576035e+01
2.620000e-06	-1.084730e-06	-3.065650e-10	-7.793210e+00	-1.910244e+01
2.630000e-06	-1.158774e-06	-3.750684e-10	-8.325181e+00	-2.244635e+01
2.640000e-06	-1.232398e-06	-4.106218e-10	-8.854128e+00	-2.579089e+01
2.650000e-06	-1.305518e-06	-4.391220e-10	-9.379460e+00	-2.913617e+01
2.660000e-06	-1.378168e-06	-4.953737e-10	-9.901408e+00	-3.248328e+01
2.670000e-06	-1.450417e-06	-5.706564e-10	-1.042048e+01	-3.583365e+01
2.680000e-06	-1.522344e-06	-6.283135e-10	-1.093724e+01	-3.918837e+01
2.690000e-06	-1.593819e-06	-6.627440e-10	-1.145075e+01	-4.254751e+01
2.700000e-06	-1.664498e-06	-7.038107e-10	-1.195854e+01	-4.590951e+01
2.710000e-06	-1.734152e-06	-7.652701e-10	-1.245897e+01	-4.927093e+01
2.720000e-06	-1.802924e-06	-8.260169e-10	-1.295306e+01	-5.262631e+01
2.730000e-06	-1.871169e-06	-8.688085e-10	-1.344336e+01	-5.596849e+01
2.740000e-06	-1.938920e-06	-9.070617e-10	-1.393011e+01	-5.928909e+01
2.750000e-06	-2.006028e-06	-9.597716e-10	-1.441225e+01	-6.257929e+01
2.760000e-06	-2.072473e-06	-1.020173e-09	-1.488963e+01	-6.583053e+01
2.770000e-06	-2.138195e-06	-1.070190e-09	-1.536180e+01	-6.903537e+01
2.780000e-06	-2.203196e-06	-1.111730e-09	-1.582880e+01	-7.218799e+01
2.790000e-06	-2.267564e-06	-1.158600e-09	-1.629125e+01	-7.528458e+01
2.800000e-06	-2.331209e-06	-1.212401e-09	-1.674850e+01	-7.832334e+01
2.810000e-06	-2.393863e-06	-1.260694e-09	-1.719864e+01	-8.130423e+01
2.820000e-06	-2.455411e-06	-1.298407e-09	-1.764083e+01	-8.422839e+01
2.830000e-06	-2.516050e-06	-1.337180e-09	-1.807649e+01	-8.709747e+01
2.840000e-06	-2.575991e-06	-1.384541e-09	-1.850714e+01	-8.991286e+01
2.850000e-06	-2.635146e-06	-1.432097e-09	-1.893213e+01	-9.267503e+01
2.860000e-06	-2.693314e-06	-1.470417e-09	-1.935004e+01	-9.538305e+01
2.870000e-06	-2.750517e-06	-1.502827e-09	-1.976101e+01	-9.803437e+01
2.880000e-06	-2.806909e-06	-1.541040e-09	-2.016616e+01	-1.006250e+02
2.890000e-06	-2.862378e-06	-1.586636e-09	-2.056468e+01	-1.031497e+02
2.900000e-06	-2.916465e-06	-1.628323e-09	-2.095326e+01	-1.056030e+02
2.910000e-06	-2.969126e-06	-1.660534e-09	-2.133160e+01	-1.079795e+02
2.920000e-06	-3.020671e-06	-1.689290e-09	-2.170193e+01	-1.102752e+02
2.930000e-06	-3.070996e-06	-1.723035e-09	-2.206348e+01	-1.124874e+02
2.940000e-06	-3.119888e-06	-1.762427e-09	-2.241474e+01	-1.146158e+02
