# Temperatura_=_20.0
# Concentracion g/m^3_=_12600.0
# C_Vs_to_Am_M_A/Vsm_=_65563218390.804596
# pendiente_HvsI_1/m_=_3716.3
# ordenada_HvsI_A/m_=_1297.0
# frecuencia_Hz_=_301668.59008072014

Tiempo_(s)	Campo_(V.s)	Magnetizacion_(V.s)	Campo_(kA/m)	Magnetizacion_(A/m)
0.000000e+00	-4.046681e-06	-2.259560e-09	-2.907107e+01	-1.480781e+02
1.000000e-08	-4.044603e-06	-2.257203e-09	-2.905614e+01	-1.479628e+02
2.000000e-08	-4.041079e-06	-2.257012e-09	-2.903083e+01	-1.478192e+02
3.000000e-08	-4.036388e-06	-2.258843e-09	-2.899713e+01	-1.476423e+02
4.000000e-08	-4.030395e-06	-2.258853e-09	-2.895408e+01	-1.474259e+02
5.000000e-08	-4.023201e-06	-2.256075e-09	-2.890240e+01	-1.471638e+02
6.000000e-08	-4.014905e-06	-2.248522e-09	-2.884280e+01	-1.468515e+02
7.000000e-08	-4.005053e-06	-2.236054e-09	-2.877202e+01	-1.464875e+02
8.000000e-08	-3.993442e-06	-2.242773e-09	-2.868861e+01	-1.460747e+02
9.000000e-08	-3.980033e-06	-2.268254e-09	-2.859228e+01	-1.456203e+02
1.000000e-07	-3.964458e-06	-2.264530e-09	-2.848039e+01	-1.451357e+02
1.100000e-07	-3.947059e-06	-2.233013e-09	-2.835540e+01	-1.446357e+02
1.200000e-07	-3.928492e-06	-2.157123e-09	-2.822201e+01	-1.441367e+02
1.300000e-07	-3.909113e-06	-2.154692e-09	-2.808280e+01	-1.436549e+02
1.400000e-07	-3.888851e-06	-2.259367e-09	-2.793723e+01	-1.432037e+02
1.500000e-07	-3.867546e-06	-2.231626e-09	-2.778418e+01	-1.427922e+02
1.600000e-07	-3.845302e-06	-2.167167e-09	-2.762438e+01	-1.424233e+02
1.700000e-07	-3.821559e-06	-2.157095e-09	-2.745381e+01	-1.420928e+02
1.800000e-07	-3.795760e-06	-2.095893e-09	-2.726847e+01	-1.417895e+02
1.900000e-07	-3.768604e-06	-2.153119e-09	-2.707339e+01	-1.414959e+02
2.000000e-07	-3.740580e-06	-2.241442e-09	-2.687206e+01	-1.411894e+02
2.100000e-07	-3.711244e-06	-2.111375e-09	-2.666132e+01	-1.408452e+02
2.200000e-07	-3.680491e-06	-2.047858e-09	-2.644039e+01	-1.404381e+02
2.300000e-07	-3.648591e-06	-2.150845e-09	-2.621122e+01	-1.399454e+02
2.400000e-07	-3.615430e-06	-2.159082e-09	-2.597299e+01	-1.393494e+02
2.500000e-07	-3.580774e-06	-2.117721e-09	-2.572403e+01	-1.386385e+02
2.600000e-07	-3.544597e-06	-2.054756e-09	-2.546414e+01	-1.378087e+02
2.700000e-07	-3.507103e-06	-2.004378e-09	-2.519478e+01	-1.368635e+02
2.800000e-07	-3.468540e-06	-2.080779e-09	-2.491775e+01	-1.358129e+02
2.900000e-07	-3.428953e-06	-2.078808e-09	-2.463336e+01	-1.346721e+02
3.000000e-07	-3.387986e-06	-1.961101e-09	-2.433906e+01	-1.334595e+02
3.100000e-07	-3.345381e-06	-1.953872e-09	-2.403298e+01	-1.321940e+02
3.200000e-07	-3.301541e-06	-1.991416e-09	-2.371804e+01	-1.308932e+02
3.300000e-07	-3.256639e-06	-1.974190e-09	-2.339547e+01	-1.295715e+02
3.400000e-07	-3.210585e-06	-1.946344e-09	-2.306462e+01	-1.282383e+02
3.500000e-07	-3.163428e-06	-1.908710e-09	-2.272584e+01	-1.268982e+02
3.600000e-07	-3.115060e-06	-1.877834e-09	-2.237838e+01	-1.255503e+02
3.700000e-07	-3.065120e-06	-1.889972e-09	-2.201961e+01	-1.241895e+02
3.800000e-07	-3.013728e-06	-1.888711e-09	-2.165041e+01	-1.228079e+02
3.900000e-07	-2.961234e-06	-1.827739e-09	-2.127330e+01	-1.213960e+02
4.000000e-07	-2.907712e-06	-1.789206e-09	-2.088880e+01	-1.199448e+02
4.100000e-07	-2.853134e-06	-1.796129e-09	-2.049672e+01	-1.184469e+02
4.200000e-07	-2.797739e-06	-1.779086e-09	-2.009876e+01	-1.168975e+02
4.300000e-07	-2.741607e-06	-1.740322e-09	-1.969551e+01	-1.152954e+02
4.400000e-07	-2.684131e-06	-1.710778e-09	-1.928261e+01	-1.136424e+02
4.500000e-07	-2.625295e-06	-1.697867e-09	-1.885993e+01	-1.119429e+02
4.600000e-07	-2.565706e-06	-1.689566e-09	-1.843186e+01	-1.102030e+02
4.700000e-07	-2.505427e-06	-1.645342e-09	-1.799881e+01	-1.084291e+02
4.800000e-07	-2.444282e-06	-1.598258e-09	-1.755955e+01	-1.066271e+02
4.900000e-07	-2.382216e-06	-1.588083e-09	-1.711367e+01	-1.048010e+02
5.000000e-07	-2.319271e-06	-1.579445e-09	-1.666148e+01	-1.029524e+02
5.100000e-07	-2.255745e-06	-1.541292e-09	-1.620512e+01	-1.010801e+02
5.200000e-07	-2.191516e-06	-1.489534e-09	-1.574370e+01	-9.918074e+01
5.300000e-07	-2.126045e-06	-1.461290e-09	-1.527336e+01	-9.724909e+01
5.400000e-07	-2.059442e-06	-1.455142e-09	-1.479488e+01	-9.527910e+01
5.500000e-07	-1.992206e-06	-1.438309e-09	-1.431187e+01	-9.326498e+01
5.600000e-07	-1.924480e-06	-1.389853e-09	-1.382533e+01	-9.120215e+01
5.700000e-07	-1.856159e-06	-1.338365e-09	-1.333452e+01	-8.908804e+01
5.800000e-07	-1.787169e-06	-1.317970e-09	-1.283890e+01	-8.692252e+01
5.900000e-07	-1.717557e-06	-1.306105e-09	-1.233881e+01	-8.470788e+01
6.000000e-07	-1.647257e-06	-1.267954e-09	-1.183378e+01	-8.244848e+01
6.100000e-07	-1.576300e-06	-1.210222e-09	-1.132403e+01	-8.014997e+01
6.200000e-07	-1.504960e-06	-1.168947e-09	-1.081153e+01	-7.781837e+01
6.300000e-07	-1.433321e-06	-1.155708e-09	-1.029688e+01	-7.545904e+01
6.400000e-07	-1.361196e-06	-1.140057e-09	-9.778734e+00	-7.307581e+01
6.500000e-07	-1.288442e-06	-1.096670e-09	-9.256075e+00	-7.067035e+01
6.600000e-07	-1.214997e-06	-1.041211e-09	-8.728451e+00	-6.824188e+01
6.700000e-07	-1.140856e-06	-1.002055e-09	-8.195830e+00	-6.578731e+01
6.800000e-07	-1.066144e-06	-9.811725e-10	-7.659105e+00	-6.330179e+01
6.900000e-07	-9.909923e-07	-9.515875e-10	-7.119219e+00	-6.077947e+01
7.000000e-07	-9.155139e-07	-8.979946e-10	-6.576988e+00	-5.821457e+01
7.100000e-07	-8.397797e-07	-8.404047e-10	-6.032919e+00	-5.560228e+01
7.200000e-07	-7.638054e-07	-8.040939e-10	-5.487125e+00	-5.293970e+01
7.300000e-07	-6.875538e-07	-7.828961e-10	-4.939338e+00	-5.022636e+01
7.400000e-07	-6.109862e-07	-7.471703e-10	-4.389282e+00	-4.746444e+01
7.500000e-07	-5.342359e-07	-6.924678e-10	-3.837914e+00	-4.465851e+01
7.600000e-07	-4.573442e-07	-6.390364e-10	-3.285529e+00	-4.181504e+01
7.700000e-07	-3.802582e-07	-6.030229e-10	-2.731749e+00	-3.894147e+01
7.800000e-07	-3.030182e-07	-5.738443e-10	-2.176862e+00	-3.604528e+01
7.900000e-07	-2.256477e-07	-5.287221e-10	-1.621037e+00	-3.313296e+01
8.000000e-07	-1.482100e-07	-4.664849e-10	-1.064730e+00	-3.020923e+01
8.100000e-07	-7.070175e-08	-4.099011e-10	-5.079165e-01	-2.727651e+01
8.200000e-07	6.896090e-09	-3.772212e-10	4.954103e-02	-2.433474e+01
8.300000e-07	8.449025e-08	-3.507492e-10	6.069721e-01	-2.138162e+01
8.400000e-07	1.620187e-07	-3.023002e-10	1.163931e+00	-1.841312e+01
8.500000e-07	2.394682e-07	-2.391147e-10	1.720323e+00	-1.542431e+01
8.600000e-07	3.168980e-07	-1.900232e-10	2.276573e+00	-1.241025e+01
8.700000e-07	3.943433e-07	-1.614068e-10	2.832935e+00	-9.366858e+00
8.800000e-07	4.716212e-07	-1.270863e-10	3.388094e+00	-6.291603e+00
8.900000e-07	5.486614e-07	-6.595057e-11	3.941545e+00	-3.183915e+00
9.000000e-07	6.255104e-07	3.058331e-12	4.493623e+00	-4.526459e-02
9.100000e-07	7.021765e-07	4.996216e-11	5.044387e+00	3.121096e+00
9.200000e-07	7.785830e-07	7.810555e-11	5.593286e+00	6.310677e+00
9.300000e-07	8.546673e-07	1.199607e-10	6.139870e+00	9.518473e+00
9.400000e-07	9.304662e-07	1.846177e-10	6.684404e+00	1.273973e+01
9.500000e-07	1.005965e-06	2.445797e-10	7.226785e+00	1.597065e+01
9.600000e-07	1.081111e-06	2.797803e-10	7.766629e+00	1.920881e+01
9.700000e-07	1.155704e-06	3.073207e-10	8.302497e+00	2.245342e+01
9.800000e-07	1.229568e-06	3.594361e-10	8.833133e+00	2.570509e+01
9.900000e-07	1.302709e-06	4.338070e-10	9.358574e+00	2.896543e+01
1.000000e-06	1.375181e-06	4.944083e-10	9.879205e+00	3.223630e+01
1.010000e-06	1.447123e-06	5.270987e-10	1.039603e+01	3.551905e+01
1.020000e-06	1.518660e-06	5.614791e-10	1.090994e+01	3.881371e+01
1.030000e-06	1.589737e-06	6.221933e-10	1.142056e+01	4.211836e+01
1.040000e-06	1.660249e-06	6.926979e-10	1.192711e+01	4.542877e+01
1.050000e-06	1.730204e-06	7.411124e-10	1.242967e+01	4.873841e+01
1.060000e-06	1.799622e-06	7.675576e-10	1.292836e+01	5.203877e+01
1.070000e-06	1.868343e-06	8.081055e-10	1.342205e+01	5.532008e+01
1.080000e-06	1.936392e-06	8.746894e-10	1.391090e+01	5.857214e+01
1.090000e-06	2.003949e-06	9.408392e-10	1.439623e+01	6.178534e+01
1.100000e-06	2.071005e-06	9.813984e-10	1.487796e+01	6.495162e+01
1.110000e-06	2.137198e-06	1.007998e-09	1.535348e+01	6.806512e+01
1.120000e-06	2.202245e-06	1.052196e-09	1.582077e+01	7.112268e+01
1.130000e-06	2.266360e-06	1.116661e-09	1.628137e+01	7.412379e+01
1.140000e-06	2.329803e-06	1.171469e-09	1.673714e+01	7.707031e+01
1.150000e-06	2.392683e-06	1.200702e-09	1.718887e+01	7.996575e+01
1.160000e-06	2.454845e-06	1.227507e-09	1.763543e+01	8.281433e+01
1.170000e-06	2.516078e-06	1.275300e-09	1.807533e+01	8.562005e+01
1.180000e-06	2.576436e-06	1.334571e-09	1.850894e+01	8.838570e+01
1.190000e-06	2.636105e-06	1.379850e-09	1.893759e+01	9.111218e+01
1.200000e-06	2.695010e-06	1.407985e-09	1.936076e+01	9.379806e+01
1.210000e-06	2.752719e-06	1.438942e-09	1.977534e+01	9.643962e+01
1.220000e-06	2.809108e-06	1.486520e-09	2.018043e+01	9.903117e+01
1.230000e-06	2.864455e-06	1.538061e-09	2.057804e+01	1.015657e+02
1.240000e-06	2.918930e-06	1.572905e-09	2.096939e+01	1.040360e+02
1.250000e-06	2.972474e-06	1.593902e-09	2.135405e+01	1.064351e+02
1.260000e-06	3.024910e-06	1.621737e-09	2.173074e+01	1.087578e+02
1.270000e-06	3.076039e-06	1.662961e-09	2.209805e+01	1.110007e+02
1.280000e-06	3.125641e-06	1.707644e-09	2.245439e+01	1.131629e+02
1.290000e-06	3.173755e-06	1.740594e-09	2.280004e+01	1.152457e+02
1.300000e-06	3.220689e-06	1.762567e-09	2.313721e+01	1.172523e+02
1.310000e-06	3.266547e-06	1.789509e-09	2.346665e+01	1.191871e+02
1.320000e-06	3.311326e-06	1.825458e-09	2.378834e+01	1.210549e+02
1.330000e-06	3.355091e-06	1.857537e-09	2.410274e+01	1.228597e+02
1.340000e-06	3.397618e-06	1.876690e-09	2.440825e+01	1.246044e+02
1.350000e-06	3.438670e-06	1.889944e-09	2.470317e+01	1.262900e+02
1.360000e-06	3.478457e-06	1.910494e-09	2.498900e+01	1.279155e+02
1.370000e-06	3.517145e-06	1.942342e-09	2.526692e+01	1.294786e+02
1.380000e-06	3.554609e-06	1.973411e-09	2.553606e+01	1.309754e+02
1.390000e-06	3.590906e-06	1.993139e-09	2.579682e+01	1.324021e+02
1.400000e-06	3.626139e-06	2.005565e-09	2.604993e+01	1.337552e+02
1.410000e-06	3.659991e-06	2.025179e-09	2.629312e+01	1.350330e+02
1.420000e-06	3.692342e-06	2.053153e-09	2.652553e+01	1.362356e+02
1.430000e-06	3.723442e-06	2.075380e-09	2.674895e+01	1.373657e+02
1.440000e-06	3.753335e-06	2.084393e-09	2.696369e+01	1.384282e+02
1.450000e-06	3.782019e-06	2.089462e-09	2.716976e+01	1.394298e+02
1.460000e-06	3.809504e-06	2.103777e-09	2.736721e+01	1.403783e+02
1.470000e-06	3.835487e-06	2.126285e-09	2.755387e+01	1.412813e+02
1.480000e-06	3.859834e-06	2.144524e-09	2.772878e+01	1.421451e+02
1.490000e-06	3.882872e-06	2.152502e-09	2.789428e+01	1.429738e+02
1.500000e-06	3.904696e-06	2.159249e-09	2.805106e+01	1.437688e+02
1.510000e-06	3.925249e-06	2.174818e-09	2.819872e+01	1.445279e+02
1.520000e-06	3.944620e-06	2.193030e-09	2.833788e+01	1.452461e+02
1.530000e-06	3.962625e-06	2.202408e-09	2.846722e+01	1.459161e+02
1.540000e-06	3.979120e-06	2.203612e-09	2.858572e+01	1.465290e+02
1.550000e-06	3.994131e-06	2.206994e-09	2.869356e+01	1.470760e+02
1.560000e-06	4.007650e-06	2.217107e-09	2.879068e+01	1.475496e+02
1.570000e-06	4.019638e-06	2.227644e-09	2.887680e+01	1.479447e+02
1.580000e-06	4.029907e-06	2.232994e-09	2.895057e+01	1.482594e+02
1.590000e-06	4.038467e-06	2.233718e-09	2.901207e+01	1.484955e+02
1.600000e-06	4.045567e-06	2.237080e-09	2.906307e+01	1.486582e+02
1.610000e-06	4.051283e-06	2.243700e-09	2.910414e+01	1.487556e+02
1.620000e-06	4.055675e-06	2.246929e-09	2.913568e+01	1.487975e+02
1.630000e-06	4.058805e-06	2.244017e-09	2.915818e+01	1.487937e+02
1.640000e-06	4.060347e-06	2.239354e-09	2.916925e+01	1.487533e+02
1.650000e-06	4.060286e-06	2.236908e-09	2.916881e+01	1.486830e+02
1.660000e-06	4.058920e-06	2.233662e-09	2.915900e+01	1.485861e+02
1.670000e-06	4.056272e-06	2.230800e-09	2.913998e+01	1.484627e+02
1.680000e-06	4.052442e-06	2.226939e-09	2.911246e+01	1.483098e+02
1.690000e-06	4.047392e-06	2.222238e-09	2.907618e+01	1.481220e+02
1.700000e-06	4.040819e-06	2.220060e-09	2.902896e+01	1.478928e+02
1.710000e-06	4.032834e-06	2.218411e-09	2.897160e+01	1.476163e+02
1.720000e-06	4.023709e-06	2.221334e-09	2.890604e+01	1.472889e+02
1.730000e-06	4.013481e-06	2.214016e-09	2.883257e+01	1.469102e+02
1.740000e-06	4.001849e-06	2.167727e-09	2.874901e+01	1.464842e+02
1.750000e-06	3.988020e-06	2.141444e-09	2.864966e+01	1.460195e+02
1.760000e-06	3.971812e-06	2.144894e-09	2.853322e+01	1.455285e+02
1.770000e-06	3.953945e-06	2.211994e-09	2.840486e+01	1.450268e+02
1.780000e-06	3.935396e-06	2.235971e-09	2.827161e+01	1.445309e+02
1.790000e-06	3.916518e-06	2.124463e-09	2.813599e+01	1.440562e+02
1.800000e-06	3.896163e-06	2.119013e-09	2.798976e+01	1.436154e+02
1.810000e-06	3.873623e-06	2.161128e-09	2.782784e+01	1.432157e+02
1.820000e-06	3.849953e-06	2.152865e-09	2.765780e+01	1.428582e+02
1.830000e-06	3.825330e-06	2.214969e-09	2.748090e+01	1.425366e+02
1.840000e-06	3.799082e-06	2.169150e-09	2.729234e+01	1.422378e+02
1.850000e-06	3.771603e-06	2.053402e-09	2.709494e+01	1.419426e+02
1.860000e-06	3.743088e-06	2.160342e-09	2.689008e+01	1.416276e+02
1.870000e-06	3.713087e-06	2.243316e-09	2.667456e+01	1.412676e+02
1.880000e-06	3.681515e-06	2.160746e-09	2.644775e+01	1.408378e+02
1.890000e-06	3.648446e-06	2.166906e-09	2.621019e+01	1.403169e+02
1.900000e-06	3.614170e-06	2.173239e-09	2.596394e+01	1.396885e+02
1.910000e-06	3.578929e-06	2.166879e-09	2.571078e+01	1.389434e+02
1.920000e-06	3.542391e-06	2.203269e-09	2.544829e+01	1.380796e+02
1.930000e-06	3.504366e-06	2.104218e-09	2.517512e+01	1.371027e+02
1.940000e-06	3.464904e-06	2.092913e-09	2.489163e+01	1.360243e+02
1.950000e-06	3.424062e-06	2.172172e-09	2.459822e+01	1.348607e+02
1.960000e-06	3.382144e-06	2.067227e-09	2.429708e+01	1.336307e+02
1.970000e-06	3.339149e-06	2.021718e-09	2.398821e+01	1.323531e+02
1.980000e-06	3.295130e-06	2.056195e-09	2.367198e+01	1.310448e+02
1.990000e-06	3.250149e-06	2.026971e-09	2.334884e+01	1.297187e+02
2.000000e-06	3.203832e-06	2.025734e-09	2.301611e+01	1.283830e+02
2.010000e-06	3.156411e-06	1.976547e-09	2.267544e+01	1.270406e+02
2.020000e-06	3.107900e-06	1.932758e-09	2.232694e+01	1.256893e+02
2.030000e-06	3.057992e-06	1.944188e-09	2.196840e+01	1.243232e+02
2.040000e-06	3.006891e-06	1.933166e-09	2.160129e+01	1.229336e+02
2.050000e-06	2.954782e-06	1.910035e-09	2.122694e+01	1.215110e+02
2.060000e-06	2.901566e-06	1.842826e-09	2.084465e+01	1.200468e+02
2.070000e-06	2.846900e-06	1.822448e-09	2.045193e+01	1.185341e+02
2.080000e-06	2.790976e-06	1.845498e-09	2.005018e+01	1.169694e+02
2.090000e-06	2.734210e-06	1.813976e-09	1.964237e+01	1.153521e+02
2.100000e-06	2.676558e-06	1.766462e-09	1.922820e+01	1.136849e+02
2.110000e-06	2.617948e-06	1.709972e-09	1.880715e+01	1.119728e+02
2.120000e-06	2.558475e-06	1.718372e-09	1.837990e+01	1.102222e+02
2.130000e-06	2.498337e-06	1.735134e-09	1.794788e+01	1.084395e+02
2.140000e-06	2.437300e-06	1.665988e-09	1.750940e+01	1.066300e+02
2.150000e-06	2.374936e-06	1.608733e-09	1.706137e+01	1.047970e+02
2.160000e-06	2.311451e-06	1.582105e-09	1.660530e+01	1.029415e+02
2.170000e-06	2.247330e-06	1.585880e-09	1.614466e+01	1.010616e+02
2.180000e-06	2.182546e-06	1.571814e-09	1.567926e+01	9.915329e+01
2.190000e-06	2.116930e-06	1.507445e-09	1.520788e+01	9.721097e+01
2.200000e-06	2.050610e-06	1.463813e-09	1.473144e+01	9.522860e+01
2.210000e-06	1.983562e-06	1.450081e-09	1.424977e+01	9.320062e+01
2.220000e-06	1.915802e-06	1.445307e-09	1.376299e+01	9.112296e+01
2.230000e-06	1.847492e-06	1.402829e-09	1.327225e+01	8.899374e+01
2.240000e-06	1.778604e-06	1.335000e-09	1.277737e+01	8.681352e+01
2.250000e-06	1.708832e-06	1.299934e-09	1.227613e+01	8.458524e+01
2.260000e-06	1.638052e-06	1.283926e-09	1.176765e+01	8.231372e+01
2.270000e-06	1.566483e-06	1.260221e-09	1.125351e+01	8.000482e+01
2.280000e-06	1.494396e-06	1.207010e-09	1.073564e+01	7.766446e+01
2.290000e-06	1.421923e-06	1.152660e-09	1.021500e+01	7.529767e+01
2.300000e-06	1.349076e-06	1.127516e-09	9.691671e+00	7.290769e+01
2.310000e-06	1.275887e-06	1.110170e-09	9.165881e+00	7.049550e+01
2.320000e-06	1.202264e-06	1.079172e-09	8.636980e+00	6.805965e+01
2.330000e-06	1.128190e-06	1.020839e-09	8.104840e+00	6.559646e+01
2.340000e-06	1.053711e-06	9.663209e-10	7.569787e+00	6.310071e+01
2.350000e-06	9.789018e-07	9.386365e-10	7.032362e+00	6.056646e+01
2.360000e-06	9.037864e-07	9.165324e-10	6.492739e+00	5.798810e+01
2.370000e-06	8.283346e-07	8.732135e-10	5.950698e+00	5.536131e+01
2.380000e-06	7.526408e-07	8.104111e-10	5.406919e+00	5.268383e+01
2.390000e-06	6.767494e-07	7.653668e-10	4.861721e+00	4.995594e+01
2.400000e-06	6.006186e-07	7.442641e-10	4.314802e+00	4.718055e+01
2.410000e-06	5.242873e-07	7.188406e-10	3.766443e+00	4.436284e+01
2.420000e-06	4.477769e-07	6.669523e-10	3.216798e+00	4.150966e+01
2.430000e-06	3.711135e-07	5.990154e-10	2.666053e+00	3.862856e+01
2.440000e-06	2.942493e-07	5.501441e-10	2.113866e+00	3.572682e+01
2.450000e-06	2.171248e-07	5.259844e-10	1.559809e+00	3.281052e+01
2.460000e-06	1.398417e-07	4.952633e-10	1.004613e+00	2.988375e+01
2.470000e-06	6.245064e-08	4.338490e-10	4.486411e-01	2.694823e+01
2.480000e-06	-1.496110e-08	3.627117e-10	-1.074795e-01	2.400321e+01
2.490000e-06	-9.235697e-08	3.227833e-10	-6.634861e-01	2.104582e+01
2.500000e-06	-1.697188e-07	3.081230e-10	-1.219248e+00	1.807171e+01
2.510000e-06	-2.470562e-07	2.719416e-10	-1.774834e+00	1.507583e+01
2.520000e-06	-3.242890e-07	1.996853e-10	-2.329670e+00	1.205342e+01
2.530000e-06	-4.013009e-07	1.310587e-10	-2.882918e+00	9.000768e+00
2.540000e-06	-4.781451e-07	9.876188e-11	-3.434961e+00	5.915881e+00
2.550000e-06	-5.547778e-07	7.863920e-11	-3.985485e+00	2.798778e+00
2.560000e-06	-6.311722e-07	2.678937e-11	-4.534297e+00	-3.485209e-01
2.570000e-06	-7.072852e-07	-5.248166e-11	-5.081087e+00	-3.522344e+00
2.580000e-06	-7.830661e-07	-1.133375e-10	-5.625492e+00	-6.717976e+00
2.590000e-06	-8.585675e-07	-1.371985e-10	-6.167889e+00	-9.930407e+00
2.600000e-06	-9.338099e-07	-1.616429e-10	-6.708426e+00	-1.315509e+01
2.610000e-06	-1.008684e-06	-2.232151e-10	-7.246318e+00	-1.638859e+01
2.620000e-06	-1.083121e-06	-3.019767e-10	-7.781062e+00	-1.962894e+01
2.630000e-06	-1.157171e-06	-3.529565e-10	-8.313036e+00	-2.287578e+01
2.640000e-06	-1.230808e-06	-3.771179e-10	-8.842040e+00	-2.613007e+01
2.650000e-06	-1.303944e-06	-4.160666e-10	-9.367444e+00	-2.939357e+01
2.660000e-06	-1.376601e-06	-4.869087e-10	-9.889402e+00	-3.266807e+01
2.670000e-06	-1.448864e-06	-5.599298e-10	-1.040854e+01	-3.595463e+01
2.680000e-06	-1.520789e-06	-6.016290e-10	-1.092525e+01	-3.925277e+01
2.690000e-06	-1.592254e-06	-6.258766e-10	-1.143864e+01	-4.255993e+01
2.700000e-06	-1.662974e-06	-6.724722e-10	-1.194669e+01	-4.587122e+01
2.710000e-06	-1.732743e-06	-7.459081e-10	-1.244790e+01	-4.917948e+01
2.720000e-06	-1.801633e-06	-8.091190e-10	-1.294280e+01	-5.247577e+01
2.730000e-06	-1.869887e-06	-8.416400e-10	-1.343313e+01	-5.575008e+01
2.740000e-06	-1.937629e-06	-8.718585e-10	-1.391979e+01	-5.899230e+01
2.750000e-06	-2.004787e-06	-9.293552e-10	-1.440225e+01	-6.219317e+01
2.760000e-06	-2.071229e-06	-1.001147e-09	-1.487957e+01	-6.534519e+01
2.770000e-06	-2.136914e-06	-1.054052e-09	-1.535144e+01	-6.844324e+01
2.780000e-06	-2.201937e-06	-1.083722e-09	-1.581856e+01	-7.148494e+01
2.790000e-06	-2.266386e-06	-1.117972e-09	-1.628156e+01	-7.447052e+01
2.800000e-06	-2.330166e-06	-1.172201e-09	-1.673975e+01	-7.740237e+01
2.810000e-06	-2.392944e-06	-1.230082e-09	-1.719074e+01	-8.028430e+01
2.820000e-06	-2.454509e-06	-1.270581e-09	-1.763302e+01	-8.312060e+01
2.830000e-06	-2.515099e-06	-1.299239e-09	-1.806829e+01	-8.591500e+01
2.840000e-06	-2.574993e-06	-1.337020e-09	-1.849857e+01	-8.866980e+01
2.850000e-06	-2.634115e-06	-1.389739e-09	-1.892330e+01	-9.138525e+01
2.860000e-06	-2.692287e-06	-1.442171e-09	-1.934120e+01	-9.405928e+01
2.870000e-06	-2.749524e-06	-1.479094e-09	-1.975239e+01	-9.668754e+01
2.880000e-06	-2.805899e-06	-1.506335e-09	-2.015738e+01	-9.926388e+01
2.890000e-06	-2.861325e-06	-1.540887e-09	-2.055556e+01	-1.017812e+02
2.900000e-06	-2.915424e-06	-1.585556e-09	-2.094420e+01	-1.042321e+02
2.910000e-06	-2.968139e-06	-1.627166e-09	-2.132290e+01	-1.066102e+02
2.920000e-06	-3.019701e-06	-1.656815e-09	-2.169332e+01	-1.089106e+02
2.930000e-06	-3.070057e-06	-1.681710e-09	-2.205508e+01	-1.111308e+02
2.940000e-06	-3.118969e-06	-1.715428e-09	-2.240646e+01	-1.132704e+02
