# Temperatura_=_20.0
# Concentracion g/m^3_=_12600.0
# C_Vs_to_Am_M_A/Vsm_=_65563218390.804596
# pendiente_HvsI_1/m_=_3716.3
# ordenada_HvsI_A/m_=_1297.0
# frecuencia_Hz_=_301666.00841100013

Tiempo_(s)	Campo_(V.s)	Magnetizacion_(V.s)	Campo_(kA/m)	Magnetizacion_(A/m)
0.000000e+00	-4.056569e-06	-2.299414e-09	-2.906426e+01	-1.505511e+02
1.000000e-08	-4.054437e-06	-2.300063e-09	-2.904899e+01	-1.504826e+02
2.000000e-08	-4.050864e-06	-2.296230e-09	-2.902339e+01	-1.503776e+02
3.000000e-08	-4.046149e-06	-2.292981e-09	-2.898961e+01	-1.502367e+02
4.000000e-08	-4.040150e-06	-2.289037e-09	-2.894663e+01	-1.500602e+02
5.000000e-08	-4.032994e-06	-2.285687e-09	-2.889536e+01	-1.498480e+02
6.000000e-08	-4.024689e-06	-2.276997e-09	-2.883586e+01	-1.496006e+02
7.000000e-08	-4.014777e-06	-2.255087e-09	-2.876484e+01	-1.493193e+02
8.000000e-08	-4.003124e-06	-2.262373e-09	-2.868135e+01	-1.490066e+02
9.000000e-08	-3.989671e-06	-2.331505e-09	-2.858496e+01	-1.486665e+02
1.000000e-07	-3.973952e-06	-2.333362e-09	-2.847234e+01	-1.483042e+02
1.100000e-07	-3.956489e-06	-2.295502e-09	-2.834722e+01	-1.479258e+02
1.200000e-07	-3.937928e-06	-2.128912e-09	-2.821423e+01	-1.475375e+02
1.300000e-07	-3.918522e-06	-2.098015e-09	-2.807519e+01	-1.471449e+02
1.400000e-07	-3.898234e-06	-2.365825e-09	-2.792984e+01	-1.467521e+02
1.500000e-07	-3.876855e-06	-2.291156e-09	-2.777666e+01	-1.463605e+02
1.600000e-07	-3.854488e-06	-2.155980e-09	-2.761641e+01	-1.459685e+02
1.700000e-07	-3.830592e-06	-2.213072e-09	-2.744520e+01	-1.455709e+02
1.800000e-07	-3.804620e-06	-2.065159e-09	-2.725911e+01	-1.451592e+02
1.900000e-07	-3.777379e-06	-2.131631e-09	-2.706394e+01	-1.447216e+02
2.000000e-07	-3.749342e-06	-2.401549e-09	-2.686306e+01	-1.442443e+02
2.100000e-07	-3.719893e-06	-2.160207e-09	-2.665207e+01	-1.437127e+02
2.200000e-07	-3.689067e-06	-1.993379e-09	-2.643121e+01	-1.431121e+02
2.300000e-07	-3.657169e-06	-2.237102e-09	-2.620267e+01	-1.424301e+02
2.400000e-07	-3.623954e-06	-2.230489e-09	-2.596469e+01	-1.416569e+02
2.500000e-07	-3.589187e-06	-2.162334e-09	-2.571560e+01	-1.407867e+02
2.600000e-07	-3.552900e-06	-2.109947e-09	-2.545561e+01	-1.398183e+02
2.700000e-07	-3.515345e-06	-1.994678e-09	-2.518654e+01	-1.387550e+02
2.800000e-07	-3.476697e-06	-2.145695e-09	-2.490963e+01	-1.376040e+02
2.900000e-07	-3.437008e-06	-2.168046e-09	-2.462527e+01	-1.363758e+02
3.000000e-07	-3.395936e-06	-1.957778e-09	-2.433100e+01	-1.350829e+02
3.100000e-07	-3.353227e-06	-2.000524e-09	-2.402500e+01	-1.337386e+02
3.200000e-07	-3.309246e-06	-2.068340e-09	-2.370989e+01	-1.323553e+02
3.300000e-07	-3.264137e-06	-2.011984e-09	-2.338670e+01	-1.309435e+02
3.400000e-07	-3.217892e-06	-1.970307e-09	-2.305536e+01	-1.295112e+02
3.500000e-07	-3.170600e-06	-1.933583e-09	-2.271653e+01	-1.280628e+02
3.600000e-07	-3.122056e-06	-1.910763e-09	-2.236872e+01	-1.265997e+02
3.700000e-07	-3.071874e-06	-1.926329e-09	-2.200918e+01	-1.251200e+02
3.800000e-07	-3.020267e-06	-1.911536e-09	-2.163943e+01	-1.236200e+02
3.900000e-07	-2.967614e-06	-1.819949e-09	-2.126219e+01	-1.220943e+02
4.000000e-07	-2.913908e-06	-1.806288e-09	-2.087740e+01	-1.205376e+02
4.100000e-07	-2.859176e-06	-1.860890e-09	-2.048526e+01	-1.189447e+02
4.200000e-07	-2.803715e-06	-1.812973e-09	-2.008789e+01	-1.173124e+02
4.300000e-07	-2.747400e-06	-1.714349e-09	-1.968441e+01	-1.156387e+02
4.400000e-07	-2.689657e-06	-1.692748e-09	-1.927069e+01	-1.139239e+02
4.500000e-07	-2.630685e-06	-1.730785e-09	-1.884817e+01	-1.121698e+02
4.600000e-07	-2.570981e-06	-1.744556e-09	-1.842042e+01	-1.103796e+02
4.700000e-07	-2.510492e-06	-1.633421e-09	-1.798702e+01	-1.085566e+02
4.800000e-07	-2.449159e-06	-1.535580e-09	-1.754759e+01	-1.067044e+02
4.900000e-07	-2.387025e-06	-1.578342e-09	-1.710242e+01	-1.048255e+02
5.000000e-07	-2.324075e-06	-1.635515e-09	-1.665139e+01	-1.029211e+02
5.100000e-07	-2.260441e-06	-1.580715e-09	-1.619548e+01	-1.009909e+02
5.200000e-07	-2.195975e-06	-1.451883e-09	-1.573359e+01	-9.903295e+01
5.300000e-07	-2.130325e-06	-1.410950e-09	-1.526322e+01	-9.704432e+01
5.400000e-07	-2.063614e-06	-1.463404e-09	-1.478526e+01	-9.502127e+01
5.500000e-07	-1.996255e-06	-1.483892e-09	-1.430265e+01	-9.296006e+01
5.600000e-07	-1.928410e-06	-1.390144e-09	-1.381656e+01	-9.085758e+01
5.700000e-07	-1.859920e-06	-1.276895e-09	-1.332585e+01	-8.871189e+01
5.800000e-07	-1.790717e-06	-1.275490e-09	-1.283003e+01	-8.652257e+01
5.900000e-07	-1.720898e-06	-1.328963e-09	-1.232979e+01	-8.429087e+01
6.000000e-07	-1.650401e-06	-1.299831e-09	-1.182470e+01	-8.201955e+01
6.100000e-07	-1.579289e-06	-1.184646e-09	-1.131520e+01	-7.971246e+01
6.200000e-07	-1.507812e-06	-1.114436e-09	-1.080309e+01	-7.737399e+01
6.300000e-07	-1.435921e-06	-1.133551e-09	-1.028800e+01	-7.500837e+01
6.400000e-07	-1.363433e-06	-1.152499e-09	-9.768645e+00	-7.261901e+01
6.500000e-07	-1.290274e-06	-1.093397e-09	-9.244480e+00	-7.020801e+01
6.600000e-07	-1.216440e-06	-9.984986e-10	-8.715480e+00	-6.777573e+01
6.700000e-07	-1.141934e-06	-9.500767e-10	-8.181660e+00	-6.532078e+01
6.800000e-07	-1.066890e-06	-9.587672e-10	-7.643993e+00	-6.284016e+01
6.900000e-07	-9.915090e-07	-9.521415e-10	-7.103905e+00	-6.032968e+01
7.000000e-07	-9.158345e-07	-8.853875e-10	-6.561717e+00	-5.778459e+01
7.100000e-07	-8.398456e-07	-8.072818e-10	-6.017276e+00	-5.520026e+01
7.200000e-07	-7.635660e-07	-7.721898e-10	-5.470752e+00	-5.257280e+01
7.300000e-07	-6.871363e-07	-7.672353e-10	-4.923154e+00	-4.989971e+01
7.400000e-07	-6.105359e-07	-7.348421e-10	-4.374331e+00	-4.718015e+01
7.500000e-07	-5.336029e-07	-6.703501e-10	-3.823126e+00	-4.441511e+01
7.600000e-07	-4.564079e-07	-6.066299e-10	-3.270044e+00	-4.160724e+01
7.700000e-07	-3.790709e-07	-5.680169e-10	-2.715945e+00	-3.876050e+01
7.800000e-07	-3.016582e-07	-5.455230e-10	-2.161303e+00	-3.587958e+01
7.900000e-07	-2.241749e-07	-5.112243e-10	-1.606155e+00	-3.296932e+01
8.000000e-07	-1.465480e-07	-4.534936e-10	-1.049978e+00	-3.003404e+01
8.100000e-07	-6.880249e-08	-3.871028e-10	-4.929520e-01	-2.707707e+01
8.200000e-07	9.080130e-09	-3.453992e-10	6.505678e-02	-2.410041e+01
8.300000e-07	8.695987e-08	-3.236539e-10	6.230450e-01	-2.110456e+01
8.400000e-07	1.647186e-07	-2.860710e-10	1.180166e+00	-1.808871e+01
8.500000e-07	2.424637e-07	-2.191766e-10	1.737190e+00	-1.505098e+01
8.600000e-07	3.201983e-07	-1.537114e-10	2.294138e+00	-1.198891e+01
8.700000e-07	3.978646e-07	-1.169264e-10	2.850596e+00	-8.900001e+00
8.800000e-07	4.753407e-07	-9.289250e-11	3.405693e+00	-5.782164e+00
8.900000e-07	5.525558e-07	-4.656228e-11	3.958919e+00	-2.634180e+00
9.000000e-07	6.296063e-07	2.463001e-11	4.510966e+00	5.440727e-01
9.100000e-07	7.064815e-07	8.495238e-11	5.061757e+00	3.751546e+00
9.200000e-07	7.830247e-07	1.177768e-10	5.610169e+00	6.986143e+00
9.300000e-07	8.592095e-07	1.498604e-10	6.156014e+00	1.024499e+01
9.400000e-07	9.351522e-07	2.092684e-10	6.700123e+00	1.352483e+01
9.500000e-07	1.010839e-06	2.799147e-10	7.242398e+00	1.682239e+01
9.600000e-07	1.086181e-06	3.297183e-10	7.782208e+00	2.013474e+01
9.700000e-07	1.161102e-06	3.602592e-10	8.318996e+00	2.345953e+01
9.800000e-07	1.235329e-06	4.038726e-10	8.850810e+00	2.679508e+01
9.900000e-07	1.308733e-06	4.717772e-10	9.376733e+00	3.014026e+01
1.000000e-06	1.381376e-06	5.366498e-10	9.897204e+00	3.349424e+01
1.010000e-06	1.453430e-06	5.773354e-10	1.041345e+01	3.685612e+01
1.020000e-06	1.525078e-06	6.124707e-10	1.092679e+01	4.022452e+01
1.030000e-06	1.596280e-06	6.691849e-10	1.143693e+01	4.359719e+01
1.040000e-06	1.666985e-06	7.398381e-10	1.194352e+01	4.697072e+01
1.050000e-06	1.737144e-06	7.967499e-10	1.244619e+01	5.034039e+01
1.060000e-06	1.806699e-06	8.327617e-10	1.294453e+01	5.370027e+01
1.070000e-06	1.875590e-06	8.772619e-10	1.343812e+01	5.704339e+01
1.080000e-06	1.943795e-06	9.404493e-10	1.392679e+01	6.036221e+01
1.090000e-06	2.011429e-06	1.002046e-09	1.441137e+01	6.364912e+01
1.100000e-06	2.078545e-06	1.043703e-09	1.489223e+01	6.689694e+01
1.110000e-06	2.144834e-06	1.078206e-09	1.536718e+01	7.009946e+01
1.120000e-06	2.209963e-06	1.128535e-09	1.583381e+01	7.325177e+01
1.130000e-06	2.274090e-06	1.190493e-09	1.629326e+01	7.635047e+01
1.140000e-06	2.337603e-06	1.241755e-09	1.674832e+01	7.939360e+01
1.150000e-06	2.400561e-06	1.275276e-09	1.719940e+01	8.238044e+01
1.160000e-06	2.462760e-06	1.312808e-09	1.764504e+01	8.531112e+01
1.170000e-06	2.524098e-06	1.364494e-09	1.808451e+01	8.818609e+01
1.180000e-06	2.584589e-06	1.416377e-09	1.851791e+01	9.100561e+01
1.190000e-06	2.644388e-06	1.454431e-09	1.894636e+01	9.376932e+01
1.200000e-06	2.703469e-06	1.488202e-09	1.936965e+01	9.647587e+01
1.210000e-06	2.761393e-06	1.529999e-09	1.978467e+01	9.912286e+01
1.220000e-06	2.817888e-06	1.579432e-09	2.018943e+01	1.017068e+02
1.230000e-06	2.873296e-06	1.622402e-09	2.058642e+01	1.042237e+02
1.240000e-06	2.927845e-06	1.654318e-09	2.097725e+01	1.066691e+02
1.250000e-06	2.981414e-06	1.684801e-09	2.136106e+01	1.090388e+02
1.260000e-06	3.033921e-06	1.721583e-09	2.173725e+01	1.113296e+02
1.270000e-06	3.085194e-06	1.758045e-09	2.210462e+01	1.135394e+02
1.280000e-06	3.134862e-06	1.789661e-09	2.246047e+01	1.156678e+02
1.290000e-06	3.182997e-06	1.817742e-09	2.280535e+01	1.177159e+02
1.300000e-06	3.229982e-06	1.847169e-09	2.314198e+01	1.196862e+02
1.310000e-06	3.275935e-06	1.880607e-09	2.347122e+01	1.215826e+02
1.320000e-06	3.320801e-06	1.912326e-09	2.379268e+01	1.234093e+02
1.330000e-06	3.364615e-06	1.937947e-09	2.410660e+01	1.251709e+02
1.340000e-06	3.407343e-06	1.960030e-09	2.441273e+01	1.268710e+02
1.350000e-06	3.448532e-06	1.984517e-09	2.470784e+01	1.285125e+02
1.360000e-06	3.488353e-06	2.009656e-09	2.499314e+01	1.300968e+02
1.370000e-06	3.527110e-06	2.034715e-09	2.527083e+01	1.316238e+02
1.380000e-06	3.564649e-06	2.056254e-09	2.553978e+01	1.330921e+02
1.390000e-06	3.601036e-06	2.074658e-09	2.580049e+01	1.344994e+02
1.400000e-06	3.636416e-06	2.094647e-09	2.605398e+01	1.358430e+02
1.410000e-06	3.670460e-06	2.117691e-09	2.629789e+01	1.371204e+02
1.420000e-06	3.702923e-06	2.138717e-09	2.653048e+01	1.383297e+02
1.430000e-06	3.734079e-06	2.155207e-09	2.675371e+01	1.394702e+02
1.440000e-06	3.764072e-06	2.169781e-09	2.696860e+01	1.405428e+02
1.450000e-06	3.792828e-06	2.184577e-09	2.717463e+01	1.415497e+02
1.460000e-06	3.820426e-06	2.199519e-09	2.737236e+01	1.424946e+02
1.470000e-06	3.846616e-06	2.213713e-09	2.756001e+01	1.433819e+02
1.480000e-06	3.871098e-06	2.226857e-09	2.773541e+01	1.442166e+02
1.490000e-06	3.894174e-06	2.238475e-09	2.790075e+01	1.450032e+02
1.500000e-06	3.915998e-06	2.250849e-09	2.805711e+01	1.457456e+02
1.510000e-06	3.936540e-06	2.263875e-09	2.820429e+01	1.464461e+02
1.520000e-06	3.955943e-06	2.274570e-09	2.834331e+01	1.471057e+02
1.530000e-06	3.973993e-06	2.282125e-09	2.847263e+01	1.477236e+02
1.540000e-06	3.990482e-06	2.288818e-09	2.859077e+01	1.482977e+02
1.550000e-06	4.005472e-06	2.297780e-09	2.869817e+01	1.488248e+02
1.560000e-06	4.018928e-06	2.306292e-09	2.879458e+01	1.493014e+02
1.570000e-06	4.030930e-06	2.312481e-09	2.888057e+01	1.497241e+02
1.580000e-06	4.041183e-06	2.318250e-09	2.895403e+01	1.500902e+02
1.590000e-06	4.049628e-06	2.323087e-09	2.901453e+01	1.503981e+02
1.600000e-06	4.056663e-06	2.327621e-09	2.906494e+01	1.506480e+02
1.610000e-06	4.062336e-06	2.332210e-09	2.910558e+01	1.508410e+02
1.620000e-06	4.066699e-06	2.335171e-09	2.913684e+01	1.509799e+02
1.630000e-06	4.069803e-06	2.337612e-09	2.915908e+01	1.510682e+02
1.640000e-06	4.071222e-06	2.340864e-09	2.916925e+01	1.511096e+02
1.650000e-06	4.071050e-06	2.343786e-09	2.916802e+01	1.511080e+02
1.660000e-06	4.069636e-06	2.340176e-09	2.915789e+01	1.510664e+02
1.670000e-06	4.066876e-06	2.336748e-09	2.913811e+01	1.509872e+02
1.680000e-06	4.062997e-06	2.333689e-09	2.911032e+01	1.508717e+02
1.690000e-06	4.057982e-06	2.330570e-09	2.907439e+01	1.507205e+02
1.700000e-06	4.051315e-06	2.330319e-09	2.902662e+01	1.505337e+02
1.710000e-06	4.043232e-06	2.328150e-09	2.896871e+01	1.503112e+02
1.720000e-06	4.034033e-06	2.337071e-09	2.890280e+01	1.500538e+02
1.730000e-06	4.023685e-06	2.354829e-09	2.882866e+01	1.497631e+02
1.740000e-06	4.011994e-06	2.251114e-09	2.874490e+01	1.494420e+02
1.750000e-06	3.998054e-06	2.223984e-09	2.864502e+01	1.490948e+02
1.760000e-06	3.981585e-06	2.230479e-09	2.852702e+01	1.487271e+02
1.770000e-06	3.963475e-06	2.397685e-09	2.839727e+01	1.483451e+02
1.780000e-06	3.944865e-06	2.454794e-09	2.826394e+01	1.479549e+02
1.790000e-06	3.926007e-06	2.157511e-09	2.812882e+01	1.475618e+02
1.800000e-06	3.905523e-06	2.232646e-09	2.798206e+01	1.471692e+02
1.810000e-06	3.882764e-06	2.337701e-09	2.781900e+01	1.467776e+02
1.820000e-06	3.859070e-06	2.210384e-09	2.764924e+01	1.463846e+02
1.830000e-06	3.834471e-06	2.403626e-09	2.747299e+01	1.459838e+02
1.840000e-06	3.808103e-06	2.379830e-09	2.728407e+01	1.455659e+02
1.850000e-06	3.780476e-06	1.999846e-09	2.708613e+01	1.451183e+02
1.860000e-06	3.751797e-06	2.190228e-09	2.688065e+01	1.446268e+02
1.870000e-06	3.721629e-06	2.375478e-09	2.666451e+01	1.440768e+02
1.880000e-06	3.689987e-06	2.061437e-09	2.643780e+01	1.434540e+02
1.890000e-06	3.656758e-06	2.093267e-09	2.619972e+01	1.427466e+02
1.900000e-06	3.622283e-06	2.170681e-09	2.595272e+01	1.419459e+02
1.910000e-06	3.586965e-06	2.073809e-09	2.569967e+01	1.410475e+02
1.920000e-06	3.550289e-06	2.199618e-09	2.543690e+01	1.400513e+02
1.930000e-06	3.512032e-06	2.002033e-09	2.516280e+01	1.389618e+02
1.940000e-06	3.472376e-06	2.010447e-09	2.487868e+01	1.377874e+02
1.950000e-06	3.431412e-06	2.252720e-09	2.458518e+01	1.365393e+02
1.960000e-06	3.389363e-06	1.977095e-09	2.428390e+01	1.352303e+02
1.970000e-06	3.346168e-06	1.905370e-09	2.397442e+01	1.338734e+02
1.980000e-06	3.301998e-06	2.025566e-09	2.365796e+01	1.324809e+02
1.990000e-06	3.256958e-06	1.978560e-09	2.333526e+01	1.310625e+02
2.000000e-06	3.210470e-06	2.016648e-09	2.300218e+01	1.296251e+02
2.010000e-06	3.162844e-06	1.893998e-09	2.266096e+01	1.281724e+02
2.020000e-06	3.114198e-06	1.833641e-09	2.231242e+01	1.267046e+02
2.030000e-06	3.064219e-06	1.912678e-09	2.195434e+01	1.252195e+02
2.040000e-06	3.013051e-06	1.898612e-09	2.158773e+01	1.237126e+02
2.050000e-06	2.960779e-06	1.892168e-09	2.121321e+01	1.221784e+02
2.060000e-06	2.907332e-06	1.734737e-09	2.083028e+01	1.206117e+02
2.070000e-06	2.852469e-06	1.721104e-09	2.043720e+01	1.190077e+02
2.080000e-06	2.796367e-06	1.844071e-09	2.003524e+01	1.173635e+02
2.090000e-06	2.739432e-06	1.790607e-09	1.962732e+01	1.156778e+02
2.100000e-06	2.681582e-06	1.706140e-09	1.921284e+01	1.139514e+02
2.110000e-06	2.622733e-06	1.576625e-09	1.879120e+01	1.121865e+02
2.120000e-06	2.563103e-06	1.647680e-09	1.836397e+01	1.103864e+02
2.130000e-06	2.502831e-06	1.757574e-09	1.793213e+01	1.085546e+02
2.140000e-06	2.441631e-06	1.618397e-09	1.749366e+01	1.066944e+02
2.150000e-06	2.379105e-06	1.511221e-09	1.704567e+01	1.048080e+02
2.160000e-06	2.315478e-06	1.478129e-09	1.658980e+01	1.028962e+02
2.170000e-06	2.251226e-06	1.550956e-09	1.612945e+01	1.009581e+02
2.180000e-06	2.186295e-06	1.566968e-09	1.566424e+01	9.899165e+01
2.190000e-06	2.120551e-06	1.435509e-09	1.519320e+01	9.699343e+01
2.200000e-06	2.054098e-06	1.357803e-09	1.471708e+01	9.495970e+01
2.210000e-06	1.986966e-06	1.360854e-09	1.423610e+01	9.288683e+01
2.220000e-06	1.919152e-06	1.413488e-09	1.375023e+01	9.077200e+01
2.230000e-06	1.850676e-06	1.368665e-09	1.325962e+01	8.861367e+01
2.240000e-06	1.781494e-06	1.246014e-09	1.276395e+01	8.641190e+01
2.250000e-06	1.711438e-06	1.209869e-09	1.226201e+01	8.416840e+01
2.260000e-06	1.640434e-06	1.229107e-09	1.175329e+01	8.188629e+01
2.270000e-06	1.568680e-06	1.230594e-09	1.123918e+01	7.956963e+01
2.280000e-06	1.496472e-06	1.151710e-09	1.072183e+01	7.722285e+01
2.290000e-06	1.423905e-06	1.067501e-09	1.020191e+01	7.485000e+01
2.300000e-06	1.350959e-06	1.051004e-09	9.679274e+00	7.245418e+01
2.310000e-06	1.277631e-06	1.054220e-09	9.153898e+00	7.003699e+01
2.320000e-06	1.203805e-06	1.035874e-09	8.624953e+00	6.759831e+01
2.330000e-06	1.129513e-06	9.584895e-10	8.092670e+00	6.513625e+01
2.340000e-06	1.054849e-06	8.903781e-10	7.557722e+00	6.264741e+01
2.350000e-06	9.798167e-07	8.741734e-10	7.020133e+00	6.012740e+01
2.360000e-06	9.045104e-07	8.689510e-10	6.480583e+00	5.757141e+01
2.370000e-06	8.289235e-07	8.297876e-10	5.939022e+00	5.497495e+01
2.380000e-06	7.530613e-07	7.525698e-10	5.395489e+00	5.233450e+01
2.390000e-06	6.769848e-07	7.029773e-10	4.850420e+00	4.964799e+01
2.400000e-06	6.006583e-07	6.837955e-10	4.303561e+00	4.691512e+01
2.410000e-06	5.240205e-07	6.636711e-10	3.754471e+00	4.413736e+01
2.420000e-06	4.471430e-07	6.196420e-10	3.203664e+00	4.131779e+01
2.430000e-06	3.701414e-07	5.499767e-10	2.651967e+00	3.846064e+01
2.440000e-06	2.929844e-07	4.929268e-10	2.099157e+00	3.557072e+01
2.450000e-06	2.156283e-07	4.676110e-10	1.544921e+00	3.265275e+01
2.460000e-06	1.380493e-07	4.506713e-10	9.890875e-01	2.971085e+01
2.470000e-06	6.030495e-08	3.991429e-10	4.320694e-01	2.674797e+01
2.480000e-06	-1.742623e-08	3.181223e-10	-1.248544e-01	2.376569e+01
2.490000e-06	-9.511274e-08	2.618845e-10	-6.814581e-01	2.076413e+01
2.500000e-06	-1.727621e-07	2.484704e-10	-1.237796e+00	1.774210e+01
2.510000e-06	-2.503365e-07	2.257593e-10	-1.793596e+00	1.469754e+01
2.520000e-06	-3.277991e-07	1.573290e-10	-2.348596e+00	1.162791e+01
2.530000e-06	-4.051121e-07	7.804980e-11	-2.902523e+00	8.530766e+00
2.540000e-06	-4.822257e-07	3.701523e-11	-3.455022e+00	5.404251e+00
2.550000e-06	-5.590956e-07	2.485884e-11	-4.005775e+00	2.247436e+00
2.560000e-06	-6.357289e-07	-1.343780e-11	-4.554833e+00	-9.394665e-01
2.570000e-06	-7.120354e-07	-9.165702e-11	-5.101549e+00	-4.155087e+00
2.580000e-06	-7.880122e-07	-1.654962e-10	-5.645903e+00	-7.397076e+00
2.590000e-06	-8.636918e-07	-1.988661e-10	-6.188128e+00	-1.066241e+01
2.600000e-06	-9.390666e-07	-2.190358e-10	-6.728169e+00	-1.394778e+01
2.610000e-06	-1.014105e-06	-2.721754e-10	-7.265802e+00	-1.724998e+01
2.620000e-06	-1.088678e-06	-3.521398e-10	-7.800095e+00	-2.056624e+01
2.630000e-06	-1.162808e-06	-4.108635e-10	-8.331216e+00	-2.389440e+01
2.640000e-06	-1.236575e-06	-4.368236e-10	-8.859740e+00	-2.723294e+01
2.650000e-06	-1.309886e-06	-4.696735e-10	-9.384993e+00	-3.058086e+01
2.660000e-06	-1.382671e-06	-5.353007e-10	-9.906480e+00	-3.393734e+01
2.670000e-06	-1.455010e-06	-6.106688e-10	-1.042477e+01	-3.730140e+01
2.680000e-06	-1.527023e-06	-6.581726e-10	-1.094072e+01	-4.067143e+01
2.690000e-06	-1.598600e-06	-6.864218e-10	-1.145355e+01	-4.404490e+01
2.700000e-06	-1.669535e-06	-7.318003e-10	-1.196178e+01	-4.741801e+01
2.710000e-06	-1.739538e-06	-8.006963e-10	-1.246334e+01	-5.078569e+01
2.720000e-06	-1.808584e-06	-8.611011e-10	-1.295804e+01	-5.414166e+01
2.730000e-06	-1.877017e-06	-8.966296e-10	-1.344834e+01	-5.747877e+01
2.740000e-06	-1.944927e-06	-9.318739e-10	-1.393490e+01	-6.078939e+01
2.750000e-06	-2.012243e-06	-9.891186e-10	-1.441720e+01	-6.406597e+01
2.760000e-06	-2.078814e-06	-1.055165e-09	-1.489416e+01	-6.730157e+01
2.770000e-06	-2.144625e-06	-1.103518e-09	-1.536568e+01	-7.049033e+01
2.780000e-06	-2.209725e-06	-1.139609e-09	-1.583210e+01	-7.362775e+01
2.790000e-06	-2.274160e-06	-1.184438e-09	-1.629377e+01	-7.671085e+01
2.800000e-06	-2.337986e-06	-1.240344e-09	-1.675107e+01	-7.973807e+01
2.810000e-06	-2.400862e-06	-1.290427e-09	-1.720155e+01	-8.270898e+01
2.820000e-06	-2.462557e-06	-1.326042e-09	-1.764358e+01	-8.562383e+01
2.830000e-06	-2.523286e-06	-1.362688e-09	-1.807869e+01	-8.848310e+01
2.840000e-06	-2.583349e-06	-1.408548e-09	-1.850903e+01	-9.128689e+01
2.850000e-06	-2.642640e-06	-1.455531e-09	-1.893383e+01	-9.403460e+01
2.860000e-06	-2.700917e-06	-1.494640e-09	-1.935137e+01	-9.672457e+01
2.870000e-06	-2.758237e-06	-1.528198e-09	-1.976206e+01	-9.935408e+01
2.880000e-06	-2.814736e-06	-1.565102e-09	-2.016686e+01	-1.019195e+02
2.890000e-06	-2.870334e-06	-1.607853e-09	-2.056520e+01	-1.044165e+02
2.900000e-06	-2.924577e-06	-1.648631e-09	-2.095384e+01	-1.068408e+02
2.910000e-06	-2.977339e-06	-1.681469e-09	-2.133186e+01	-1.091884e+02
2.920000e-06	-3.028901e-06	-1.711187e-09	-2.170129e+01	-1.114564e+02
2.930000e-06	-3.079347e-06	-1.743567e-09	-2.206272e+01	-1.136431e+02
2.940000e-06	-3.128393e-06	-1.779221e-09	-2.241412e+01	-1.157484e+02
