# Temperatura_=_20.0
# Concentracion g/m^3_=_12600.0
# C_Vs_to_Am_M_A/Vsm_=_65563218390.804596
# pendiente_HvsI_1/m_=_3716.3
# ordenada_HvsI_A/m_=_1297.0
# frecuencia_Hz_=_302314.81563492474

Tiempo_(s)	Campo_(V.s)	Magnetizacion_(V.s)	Campo_(kA/m)	Magnetizacion_(A/m)
0.000000e+00	-8.221440e-06	-1.493539e-08	-5.693326e+01	-9.783846e+02
1.000000e-08	-8.218149e-06	-1.493183e-08	-5.691046e+01	-9.780181e+02
2.000000e-08	-8.212193e-06	-1.492177e-08	-5.686922e+01	-9.775178e+02
3.000000e-08	-8.203524e-06	-1.491299e-08	-5.680919e+01	-9.769023e+02
4.000000e-08	-8.191933e-06	-1.490538e-08	-5.672892e+01	-9.761898e+02
5.000000e-08	-8.177405e-06	-1.489505e-08	-5.662831e+01	-9.753953e+02
6.000000e-08	-8.160064e-06	-1.487881e-08	-5.650823e+01	-9.745296e+02
7.000000e-08	-8.140194e-06	-1.485533e-08	-5.637063e+01	-9.735989e+02
8.000000e-08	-8.117735e-06	-1.487065e-08	-5.621511e+01	-9.726043e+02
9.000000e-08	-8.092183e-06	-1.487550e-08	-5.603815e+01	-9.715436e+02
1.000000e-07	-8.063385e-06	-1.483739e-08	-5.583873e+01	-9.704121e+02
1.100000e-07	-8.031523e-06	-1.479839e-08	-5.561809e+01	-9.692041e+02
1.200000e-07	-7.996715e-06	-1.477108e-08	-5.537705e+01	-9.679146e+02
1.300000e-07	-7.959248e-06	-1.473450e-08	-5.511759e+01	-9.665394e+02
1.400000e-07	-7.919585e-06	-1.468365e-08	-5.484292e+01	-9.650755e+02
1.500000e-07	-7.877571e-06	-1.472701e-08	-5.455197e+01	-9.635206e+02
1.600000e-07	-7.832709e-06	-1.468814e-08	-5.424130e+01	-9.618719e+02
1.700000e-07	-7.785087e-06	-1.461162e-08	-5.391153e+01	-9.601246e+02
1.800000e-07	-7.734511e-06	-1.463433e-08	-5.356129e+01	-9.582709e+02
1.900000e-07	-7.680773e-06	-1.458823e-08	-5.318915e+01	-9.562991e+02
2.000000e-07	-7.624239e-06	-1.455359e-08	-5.279766e+01	-9.541930e+02
2.100000e-07	-7.564969e-06	-1.451485e-08	-5.238722e+01	-9.519334e+02
2.200000e-07	-7.502986e-06	-1.446834e-08	-5.195798e+01	-9.494986e+02
2.300000e-07	-7.438252e-06	-1.442355e-08	-5.150970e+01	-9.468673e+02
2.400000e-07	-7.370668e-06	-1.435828e-08	-5.104168e+01	-9.440209e+02
2.500000e-07	-7.300331e-06	-1.434262e-08	-5.055460e+01	-9.409456e+02
2.600000e-07	-7.227180e-06	-1.429365e-08	-5.004803e+01	-9.376350e+02
2.700000e-07	-7.151130e-06	-1.422518e-08	-4.952139e+01	-9.340907e+02
2.800000e-07	-7.072233e-06	-1.415657e-08	-4.897503e+01	-9.303225e+02
2.900000e-07	-6.990640e-06	-1.411278e-08	-4.841000e+01	-9.263469e+02
3.000000e-07	-6.906596e-06	-1.407125e-08	-4.782800e+01	-9.221850e+02
3.100000e-07	-6.820146e-06	-1.398157e-08	-4.722933e+01	-9.178591e+02
3.200000e-07	-6.731242e-06	-1.391118e-08	-4.661368e+01	-9.133891e+02
3.300000e-07	-6.639940e-06	-1.384377e-08	-4.598141e+01	-9.087893e+02
3.400000e-07	-6.546283e-06	-1.378823e-08	-4.533284e+01	-9.040654e+02
3.500000e-07	-6.450288e-06	-1.371556e-08	-4.466808e+01	-8.992137e+02
3.600000e-07	-6.351892e-06	-1.363310e-08	-4.398669e+01	-8.942203e+02
3.700000e-07	-6.251134e-06	-1.354498e-08	-4.328894e+01	-8.890630e+02
3.800000e-07	-6.148119e-06	-1.345113e-08	-4.257557e+01	-8.837142e+02
3.900000e-07	-6.042919e-06	-1.337964e-08	-4.184706e+01	-8.781442e+02
4.000000e-07	-5.935644e-06	-1.330297e-08	-4.110418e+01	-8.723255e+02
4.100000e-07	-5.826254e-06	-1.320472e-08	-4.034666e+01	-8.662363e+02
4.200000e-07	-5.714725e-06	-1.308051e-08	-3.957432e+01	-8.598632e+02
4.300000e-07	-5.601069e-06	-1.298297e-08	-3.878726e+01	-8.532028e+02
4.400000e-07	-5.485259e-06	-1.289936e-08	-3.798528e+01	-8.462612e+02
4.500000e-07	-5.367414e-06	-1.280044e-08	-3.716920e+01	-8.390518e+02
4.600000e-07	-5.247646e-06	-1.267547e-08	-3.633981e+01	-8.315923e+02
4.700000e-07	-5.125944e-06	-1.255205e-08	-3.549703e+01	-8.239000e+02
4.800000e-07	-5.002386e-06	-1.244237e-08	-3.464139e+01	-8.159875e+02
4.900000e-07	-4.877129e-06	-1.232704e-08	-3.377399e+01	-8.078591e+02
5.000000e-07	-4.750141e-06	-1.220287e-08	-3.289460e+01	-7.995077e+02
5.100000e-07	-4.621383e-06	-1.206076e-08	-3.200296e+01	-7.909140e+02
5.200000e-07	-4.490849e-06	-1.191276e-08	-3.109901e+01	-7.820472e+02
5.300000e-07	-4.358580e-06	-1.176981e-08	-3.018305e+01	-7.728686e+02
5.400000e-07	-4.224677e-06	-1.163546e-08	-2.925578e+01	-7.633348e+02
5.500000e-07	-4.089188e-06	-1.148268e-08	-2.831752e+01	-7.534035e+02
5.600000e-07	-3.952223e-06	-1.130919e-08	-2.736904e+01	-7.430385e+02
5.700000e-07	-3.813710e-06	-1.113610e-08	-2.640984e+01	-7.322135e+02
5.800000e-07	-3.673536e-06	-1.097485e-08	-2.543914e+01	-7.209149e+02
5.900000e-07	-3.531864e-06	-1.081353e-08	-2.445807e+01	-7.091423e+02
6.000000e-07	-3.388911e-06	-1.063038e-08	-2.346812e+01	-6.969068e+02
6.100000e-07	-3.244633e-06	-1.042960e-08	-2.246900e+01	-6.842264e+02
6.200000e-07	-3.099022e-06	-1.022500e-08	-2.146064e+01	-6.711215e+02
6.300000e-07	-2.952296e-06	-1.002678e-08	-2.044457e+01	-6.576078e+02
6.400000e-07	-2.804579e-06	-9.821692e-09	-1.942164e+01	-6.436913e+02
6.500000e-07	-2.655945e-06	-9.598664e-09	-1.839235e+01	-6.293629e+02
6.600000e-07	-2.506461e-06	-9.360601e-09	-1.735717e+01	-6.145964e+02
6.700000e-07	-2.356188e-06	-9.120558e-09	-1.631654e+01	-5.993487e+02
6.800000e-07	-2.205137e-06	-8.883543e-09	-1.527052e+01	-5.835625e+02
6.900000e-07	-2.053272e-06	-8.637322e-09	-1.421886e+01	-5.671719e+02
7.000000e-07	-1.900631e-06	-8.370878e-09	-1.316182e+01	-5.501095e+02
7.100000e-07	-1.747420e-06	-8.086873e-09	-1.210084e+01	-5.323141e+02
7.200000e-07	-1.593734e-06	-7.803752e-09	-1.103657e+01	-5.137372e+02
7.300000e-07	-1.439447e-06	-7.522440e-09	-9.968136e+00	-4.943489e+02
7.400000e-07	-1.284534e-06	-7.223877e-09	-8.895364e+00	-4.741389e+02
7.500000e-07	-1.129051e-06	-6.896438e-09	-7.818647e+00	-4.531159e+02
7.600000e-07	-9.731226e-07	-6.555279e-09	-6.738849e+00	-4.313017e+02
7.700000e-07	-8.168604e-07	-6.214949e-09	-5.656737e+00	-4.087234e+02
7.800000e-07	-6.603239e-07	-5.870356e-09	-4.572725e+00	-3.854021e+02
7.900000e-07	-5.035387e-07	-5.504634e-09	-3.486992e+00	-3.613425e+02
8.000000e-07	-3.465911e-07	-5.114647e-09	-2.400134e+00	-3.365226e+02
8.100000e-07	-1.895119e-07	-4.713966e-09	-1.312365e+00	-3.108865e+02
8.200000e-07	-3.229311e-08	-4.307741e-09	-2.236289e-01	-2.843421e+02
8.300000e-07	1.249661e-07	-3.890978e-09	8.653869e-01	-2.567633e+02
8.400000e-07	2.822099e-07	-3.449373e-09	1.954296e+00	-2.279994e+02
8.500000e-07	4.393211e-07	-2.979668e-09	3.042287e+00	-1.978888e+02
8.600000e-07	5.962345e-07	-2.492398e-09	4.128908e+00	-1.662772e+02
8.700000e-07	7.530287e-07	-1.995185e-09	5.214704e+00	-1.330391e+02
8.800000e-07	9.096788e-07	-1.479121e-09	6.299502e+00	-9.809807e+01
8.900000e-07	1.066044e-06	-9.266487e-10	7.382325e+00	-6.144616e+01
9.000000e-07	1.221984e-06	-3.411536e-10	8.462209e+00	-2.315754e+01
9.100000e-07	1.377448e-06	2.634865e-10	9.538790e+00	1.660389e+01
9.200000e-07	1.532353e-06	8.812490e-10	1.061151e+01	5.758484e+01
9.300000e-07	1.686537e-06	1.517598e-09	1.167922e+01	9.945132e+01
9.400000e-07	1.840028e-06	2.174869e-09	1.274215e+01	1.418049e+02
9.500000e-07	1.992829e-06	2.836976e-09	1.380029e+01	1.842054e+02
9.600000e-07	2.144880e-06	3.481311e-09	1.485324e+01	2.261978e+02
9.700000e-07	2.296157e-06	4.100722e-09	1.590082e+01	2.673402e+02
9.800000e-07	2.446604e-06	4.702308e-09	1.694267e+01	3.072311e+02
9.900000e-07	2.596153e-06	5.284316e-09	1.797829e+01	3.455325e+02
1.000000e-06	2.744747e-06	5.836649e-09	1.900730e+01	3.819870e+02
1.010000e-06	2.892329e-06	6.351048e-09	2.002930e+01	4.164269e+02
1.020000e-06	3.038753e-06	6.829608e-09	2.104329e+01	4.487761e+02
1.030000e-06	3.184012e-06	7.281505e-09	2.204920e+01	4.790433e+02
1.040000e-06	3.328155e-06	7.714603e-09	2.304739e+01	5.073091e+02
1.050000e-06	3.471136e-06	8.123637e-09	2.403753e+01	5.337084e+02
1.060000e-06	3.612792e-06	8.501398e-09	2.501849e+01	5.584101e+02
1.070000e-06	3.753042e-06	8.849582e-09	2.598972e+01	5.815965e+02
1.080000e-06	3.891825e-06	9.184155e-09	2.695079e+01	6.034453e+02
1.090000e-06	4.029055e-06	9.509164e-09	2.790110e+01	6.241148e+02
1.100000e-06	4.164816e-06	9.814599e-09	2.884124e+01	6.437348e+02
1.110000e-06	4.299078e-06	1.009582e-08	2.977100e+01	6.624024e+02
1.120000e-06	4.431830e-06	1.035941e-08	3.069031e+01	6.801828e+02
1.130000e-06	4.563094e-06	1.061427e-08	3.159931e+01	6.971149e+02
1.140000e-06	4.692731e-06	1.086028e-08	3.249704e+01	7.132188e+02
1.150000e-06	4.820773e-06	1.109197e-08	3.338372e+01	7.285057e+02
1.160000e-06	4.947183e-06	1.130531e-08	3.425911e+01	7.429863e+02
1.170000e-06	5.071890e-06	1.150373e-08	3.512271e+01	7.566783e+02
1.180000e-06	5.194826e-06	1.169749e-08	3.597403e+01	7.696104e+02
1.190000e-06	5.315862e-06	1.188788e-08	3.681220e+01	7.818246e+02
1.200000e-06	5.434986e-06	1.206616e-08	3.763714e+01	7.933741e+02
1.210000e-06	5.552085e-06	1.223227e-08	3.844804e+01	8.043195e+02
1.220000e-06	5.666972e-06	1.239105e-08	3.924363e+01	8.147235e+02
1.230000e-06	5.779623e-06	1.254866e-08	4.002374e+01	8.246449e+02
1.240000e-06	5.890157e-06	1.270200e-08	4.078919e+01	8.341334e+02
1.250000e-06	5.998654e-06	1.284405e-08	4.154052e+01	8.432256e+02
1.260000e-06	6.104997e-06	1.297263e-08	4.227694e+01	8.519439e+02
1.270000e-06	6.209022e-06	1.309692e-08	4.299732e+01	8.602966e+02
1.280000e-06	6.310793e-06	1.322055e-08	4.370207e+01	8.682808e+02
1.290000e-06	6.410290e-06	1.333886e-08	4.439109e+01	8.758870e+02
1.300000e-06	6.507331e-06	1.344577e-08	4.506309e+01	8.831039e+02
1.310000e-06	6.601973e-06	1.354357e-08	4.571849e+01	8.899237e+02
1.320000e-06	6.694329e-06	1.364042e-08	4.635805e+01	8.963461e+02
1.330000e-06	6.784279e-06	1.373837e-08	4.698096e+01	9.023808e+02
1.340000e-06	6.871767e-06	1.383095e-08	4.758681e+01	9.080485e+02
1.350000e-06	6.956881e-06	1.391194e-08	4.817622e+01	9.133791e+02
1.360000e-06	7.039603e-06	1.398528e-08	4.874906e+01	9.184093e+02
1.370000e-06	7.119779e-06	1.405753e-08	4.930428e+01	9.231778e+02
1.380000e-06	7.197326e-06	1.412953e-08	4.984130e+01	9.277213e+02
1.390000e-06	7.272163e-06	1.419657e-08	5.035954e+01	9.320697e+02
1.400000e-06	7.344222e-06	1.425655e-08	5.085855e+01	9.362434e+02
1.410000e-06	7.413695e-06	1.431375e-08	5.133965e+01	9.402512e+02
1.420000e-06	7.480625e-06	1.437297e-08	5.180314e+01	9.440906e+02
1.430000e-06	7.544823e-06	1.443297e-08	5.224770e+01	9.477495e+02
1.440000e-06	7.606465e-06	1.448791e-08	5.267457e+01	9.512095e+02
1.450000e-06	7.665600e-06	1.453512e-08	5.308408e+01	9.544500e+02
1.460000e-06	7.721938e-06	1.457825e-08	5.347422e+01	9.574522e+02
1.470000e-06	7.775373e-06	1.462055e-08	5.384426e+01	9.602032e+02
1.480000e-06	7.825740e-06	1.466078e-08	5.419304e+01	9.626988e+02
1.490000e-06	7.873018e-06	1.469458e-08	5.452045e+01	9.649442e+02
1.500000e-06	7.917489e-06	1.472164e-08	5.482841e+01	9.669546e+02
1.510000e-06	7.959147e-06	1.474713e-08	5.511689e+01	9.687523e+02
1.520000e-06	7.997897e-06	1.477450e-08	5.538523e+01	9.703648e+02
1.530000e-06	8.033867e-06	1.480181e-08	5.563432e+01	9.718201e+02
1.540000e-06	8.067016e-06	1.482412e-08	5.586387e+01	9.731438e+02
1.550000e-06	8.097272e-06	1.484197e-08	5.607340e+01	9.743556e+02
1.560000e-06	8.124672e-06	1.486034e-08	5.626314e+01	9.754672e+02
1.570000e-06	8.149081e-06	1.487779e-08	5.643218e+01	9.764813e+02
1.580000e-06	8.170581e-06	1.489103e-08	5.658106e+01	9.773925e+02
1.590000e-06	8.189232e-06	1.489975e-08	5.671022e+01	9.781889e+02
1.600000e-06	8.204855e-06	1.490571e-08	5.681841e+01	9.788546e+02
1.610000e-06	8.217385e-06	1.491174e-08	5.690518e+01	9.793732e+02
1.620000e-06	8.226742e-06	1.491750e-08	5.696998e+01	9.797308e+02
1.630000e-06	8.233045e-06	1.492155e-08	5.701362e+01	9.799184e+02
1.640000e-06	8.236506e-06	1.492236e-08	5.703759e+01	9.799336e+02
1.650000e-06	8.237071e-06	1.492198e-08	5.704150e+01	9.797811e+02
1.660000e-06	8.234804e-06	1.491704e-08	5.702580e+01	9.794717e+02
1.670000e-06	8.229779e-06	1.491244e-08	5.699101e+01	9.790214e+02
1.680000e-06	8.222009e-06	1.490499e-08	5.693720e+01	9.784487e+02
1.690000e-06	8.211493e-06	1.489383e-08	5.686437e+01	9.777720e+02
1.700000e-06	8.198070e-06	1.488391e-08	5.677142e+01	9.770078e+02
1.710000e-06	8.181843e-06	1.487884e-08	5.665905e+01	9.761688e+02
1.720000e-06	8.163200e-06	1.487498e-08	5.652995e+01	9.752629e+02
1.730000e-06	8.142087e-06	1.481633e-08	5.638374e+01	9.742932e+02
1.740000e-06	8.117770e-06	1.478361e-08	5.621535e+01	9.732587e+02
1.750000e-06	8.089627e-06	1.478615e-08	5.602046e+01	9.721553e+02
1.760000e-06	8.057918e-06	1.477408e-08	5.580087e+01	9.709777e+02
1.770000e-06	8.023513e-06	1.475574e-08	5.556262e+01	9.697205e+02
1.780000e-06	7.986859e-06	1.477898e-08	5.530879e+01	9.683790e+02
1.790000e-06	7.947971e-06	1.473534e-08	5.503949e+01	9.669500e+02
1.800000e-06	7.906868e-06	1.466914e-08	5.475485e+01	9.654308e+02
1.810000e-06	7.863093e-06	1.469806e-08	5.445172e+01	9.638191e+02
1.820000e-06	7.816584e-06	1.465471e-08	5.412964e+01	9.621110e+02
1.830000e-06	7.767364e-06	1.467229e-08	5.378879e+01	9.603000e+02
1.840000e-06	7.715001e-06	1.463686e-08	5.342618e+01	9.583759e+02
1.850000e-06	7.659683e-06	1.457754e-08	5.304311e+01	9.563244e+02
1.860000e-06	7.601597e-06	1.457773e-08	5.264086e+01	9.541273e+02
1.870000e-06	7.540818e-06	1.451346e-08	5.221997e+01	9.517637e+02
1.880000e-06	7.477246e-06	1.453813e-08	5.177973e+01	9.492117e+02
1.890000e-06	7.410695e-06	1.446915e-08	5.131887e+01	9.464514e+02
1.900000e-06	7.341248e-06	1.436271e-08	5.083795e+01	9.434669e+02
1.910000e-06	7.268948e-06	1.432559e-08	5.033727e+01	9.402487e+02
1.920000e-06	7.193944e-06	1.429789e-08	4.981787e+01	9.367952e+02
1.930000e-06	7.116072e-06	1.428268e-08	4.927861e+01	9.331130e+02
1.940000e-06	7.035345e-06	1.417353e-08	4.871958e+01	9.292163e+02
1.950000e-06	6.952142e-06	1.410940e-08	4.814340e+01	9.251246e+02
1.960000e-06	6.866405e-06	1.405052e-08	4.754967e+01	9.208603e+02
1.970000e-06	6.778098e-06	1.400314e-08	4.693815e+01	9.164445e+02
1.980000e-06	6.687363e-06	1.395514e-08	4.630982e+01	9.118942e+02
1.990000e-06	6.594286e-06	1.385756e-08	4.566526e+01	9.072186e+02
2.000000e-06	6.498858e-06	1.376552e-08	4.500442e+01	9.024179e+02
2.010000e-06	6.401131e-06	1.367936e-08	4.432767e+01	8.974821e+02
2.020000e-06	6.301196e-06	1.365298e-08	4.363562e+01	8.923920e+02
2.030000e-06	6.198966e-06	1.357826e-08	4.292768e+01	8.871216e+02
2.040000e-06	6.094414e-06	1.345504e-08	4.220366e+01	8.816417e+02
2.050000e-06	5.987706e-06	1.333670e-08	4.146471e+01	8.759234e+02
2.060000e-06	5.879066e-06	1.326932e-08	4.071238e+01	8.699422e+02
2.070000e-06	5.768397e-06	1.320881e-08	3.994600e+01	8.636813e+02
2.080000e-06	5.655498e-06	1.310688e-08	3.916418e+01	8.571333e+02
2.090000e-06	5.540390e-06	1.297728e-08	3.836705e+01	8.503006e+02
2.100000e-06	5.423193e-06	1.284603e-08	3.755547e+01	8.431942e+02
2.110000e-06	5.303972e-06	1.275270e-08	3.672987e+01	8.358305e+02
2.120000e-06	5.182819e-06	1.266460e-08	3.589089e+01	8.282274e+02
2.130000e-06	5.059771e-06	1.255353e-08	3.503878e+01	8.204001e+02
2.140000e-06	4.934898e-06	1.239750e-08	3.417404e+01	8.123564e+02
2.150000e-06	4.808248e-06	1.225672e-08	3.329699e+01	8.040939e+02
2.160000e-06	4.679844e-06	1.214973e-08	3.240780e+01	7.955981e+02
2.170000e-06	4.549746e-06	1.204412e-08	3.150688e+01	7.868426e+02
2.180000e-06	4.417956e-06	1.189255e-08	3.059423e+01	7.777912e+02
2.190000e-06	4.284601e-06	1.171487e-08	2.967075e+01	7.684018e+02
2.200000e-06	4.149649e-06	1.155833e-08	2.873621e+01	7.586312e+02
2.210000e-06	4.013039e-06	1.142917e-08	2.779019e+01	7.484400e+02
2.220000e-06	3.874823e-06	1.129115e-08	2.683305e+01	7.377978e+02
2.230000e-06	3.735158e-06	1.110749e-08	2.586587e+01	7.266857e+02
2.240000e-06	3.594113e-06	1.090214e-08	2.488914e+01	7.150983e+02
2.250000e-06	3.451687e-06	1.071708e-08	2.390284e+01	7.030425e+02
2.260000e-06	3.307943e-06	1.055712e-08	2.290742e+01	6.905341e+02
2.270000e-06	3.162877e-06	1.037855e-08	2.190284e+01	6.775934e+02
2.280000e-06	3.016567e-06	1.016154e-08	2.088965e+01	6.642386e+02
2.290000e-06	2.869249e-06	9.927461e-09	1.986947e+01	6.504803e+02
2.300000e-06	2.721060e-06	9.713939e-09	1.884327e+01	6.363155e+02
2.310000e-06	2.571936e-06	9.516123e-09	1.781059e+01	6.217251e+02
2.320000e-06	2.421953e-06	9.296345e-09	1.677196e+01	6.066722e+02
2.330000e-06	2.271210e-06	9.035786e-09	1.572807e+01	5.911048e+02
2.340000e-06	2.119611e-06	8.763360e-09	1.467825e+01	5.749595e+02
2.350000e-06	1.967208e-06	8.513172e-09	1.362286e+01	5.581685e+02
2.360000e-06	1.814153e-06	8.272461e-09	1.256296e+01	5.406674e+02
2.370000e-06	1.660474e-06	7.999546e-09	1.149874e+01	5.224019e+02
2.380000e-06	1.506246e-06	7.689617e-09	1.043072e+01	5.033343e+02
2.390000e-06	1.351534e-06	7.375225e-09	9.359336e+00	4.834468e+02
2.400000e-06	1.196377e-06	7.075717e-09	8.284877e+00	4.627408e+02
2.410000e-06	1.040832e-06	6.774567e-09	7.207733e+00	4.412340e+02
2.420000e-06	8.849164e-07	6.441276e-09	6.128023e+00	4.189525e+02
2.430000e-06	7.286589e-07	6.072757e-09	5.045944e+00	3.959210e+02
2.440000e-06	5.721746e-07	5.698614e-09	3.962294e+00	3.721521e+02
2.450000e-06	4.154864e-07	5.336823e-09	2.877232e+00	3.476353e+02
2.460000e-06	2.586231e-07	4.964475e-09	1.790958e+00	3.223286e+02
2.470000e-06	1.016133e-07	4.553002e-09	7.036694e-01	2.961539e+02
2.480000e-06	-5.547022e-08	4.112377e-09	-3.841298e-01	2.689981e+02
2.490000e-06	-2.125501e-07	3.672505e-09	-1.471904e+00	2.407185e+02
2.500000e-06	-3.695417e-07	3.237416e-09	-2.559067e+00	2.111559e+02
2.510000e-06	-5.263765e-07	2.779284e-09	-3.645143e+00	1.801507e+02
2.520000e-06	-6.830980e-07	2.276601e-09	-4.730436e+00	1.475636e+02
2.530000e-06	-8.396407e-07	1.742709e-09	-5.814490e+00	1.132964e+02
2.540000e-06	-9.958691e-07	1.201790e-09	-6.896368e+00	7.731225e+01
2.550000e-06	-1.151702e-06	6.528991e-10	-7.975508e+00	3.965182e+01
2.560000e-06	-1.307050e-06	7.102563e-11	-9.051284e+00	4.433255e-01
2.570000e-06	-1.461916e-06	-5.576357e-10	-1.012373e+01	-4.009448e+01
2.580000e-06	-1.616342e-06	-1.210958e-09	-1.119312e+01	-8.165778e+01
2.590000e-06	-1.770205e-06	-1.861697e-09	-1.225863e+01	-1.238710e+02
2.600000e-06	-1.923453e-06	-2.508871e-09	-1.331986e+01	-1.663075e+02
2.610000e-06	-2.075993e-06	-3.159795e-09	-1.437620e+01	-2.085146e+02
2.620000e-06	-2.227601e-06	-3.809734e-09	-1.542608e+01	-2.500419e+02
2.630000e-06	-2.378217e-06	-4.437267e-09	-1.646909e+01	-2.904690e+02
2.640000e-06	-2.527979e-06	-5.024309e-09	-1.750619e+01	-3.294306e+02
2.650000e-06	-2.676884e-06	-5.575315e-09	-1.853736e+01	-3.666361e+02
2.660000e-06	-2.824810e-06	-6.108771e-09	-1.956174e+01	-4.018819e+02
2.670000e-06	-2.971744e-06	-6.625525e-09	-2.057925e+01	-4.350561e+02
2.680000e-06	-3.117610e-06	-7.105013e-09	-2.158937e+01	-4.661356e+02
2.690000e-06	-3.262318e-06	-7.539492e-09	-2.259146e+01	-4.951744e+02
2.700000e-06	-3.405738e-06	-7.944865e-09	-2.358465e+01	-5.222886e+02
2.710000e-06	-3.547766e-06	-8.338010e-09	-2.456819e+01	-5.476361e+02
2.720000e-06	-3.688452e-06	-8.716248e-09	-2.554243e+01	-5.713963e+02
2.730000e-06	-3.827738e-06	-9.066005e-09	-2.650698e+01	-5.937506e+02
2.740000e-06	-3.965557e-06	-9.384977e-09	-2.746138e+01	-6.148665e+02
2.750000e-06	-4.101966e-06	-9.686641e-09	-2.840601e+01	-6.348857e+02
2.760000e-06	-4.236873e-06	-9.982608e-09	-2.934024e+01	-6.539183e+02
2.770000e-06	-4.370286e-06	-1.026978e-08	-3.026412e+01	-6.720416e+02
2.780000e-06	-4.502237e-06	-1.053543e-08	-3.117787e+01	-6.893040e+02
2.790000e-06	-4.632606e-06	-1.077516e-08	-3.208067e+01	-7.057319e+02
2.800000e-06	-4.761448e-06	-1.100296e-08	-3.297290e+01	-7.213390e+02
2.810000e-06	-4.888599e-06	-1.123054e-08	-3.385342e+01	-7.361351e+02
2.820000e-06	-5.013955e-06	-1.145206e-08	-3.472151e+01	-7.501344e+02
2.830000e-06	-5.137564e-06	-1.165493e-08	-3.557750e+01	-7.633611e+02
2.840000e-06	-5.259374e-06	-1.183843e-08	-3.642103e+01	-7.758518e+02
2.850000e-06	-5.379271e-06	-1.201621e-08	-3.725131e+01	-7.876558e+02
2.860000e-06	-5.497042e-06	-1.219557e-08	-3.806687e+01	-7.988314e+02
2.870000e-06	-5.612573e-06	-1.236740e-08	-3.886692e+01	-8.094410e+02
2.880000e-06	-5.725852e-06	-1.252303e-08	-3.965137e+01	-8.195458e+02
2.890000e-06	-5.836870e-06	-1.266598e-08	-4.042017e+01	-8.291995e+02
2.900000e-06	-5.945791e-06	-1.280589e-08	-4.117445e+01	-8.384443e+02
2.910000e-06	-6.052721e-06	-1.294550e-08	-4.191493e+01	-8.473080e+02
2.920000e-06	-6.157481e-06	-1.307675e-08	-4.264040e+01	-8.558044e+02
2.930000e-06	-6.259887e-06	-1.319435e-08	-4.334956e+01	-8.639346e+02
2.940000e-06	-6.359954e-06	-1.330329e-08	-4.404251e+01	-8.716909e+02
