# Temperatura_=_20.0
# Concentracion g/m^3_=_12600.0
# C_Vs_to_Am_M_A/Vsm_=_65563218390.804596
# pendiente_HvsI_1/m_=_3716.3
# ordenada_HvsI_A/m_=_1297.0
# frecuencia_Hz_=_302308.15908703074

Tiempo_(s)	Campo_(V.s)	Magnetizacion_(V.s)	Campo_(kA/m)	Magnetizacion_(A/m)
0.000000e+00	-8.179745e-06	-1.348498e-08	-5.693930e+01	-8.829774e+02
1.000000e-08	-8.176488e-06	-1.348201e-08	-5.691663e+01	-8.826923e+02
2.000000e-08	-8.170596e-06	-1.347456e-08	-5.687562e+01	-8.822751e+02
3.000000e-08	-8.161983e-06	-1.346652e-08	-5.681566e+01	-8.817372e+02
4.000000e-08	-8.150464e-06	-1.345652e-08	-5.673548e+01	-8.810922e+02
5.000000e-08	-8.135997e-06	-1.344540e-08	-5.663477e+01	-8.803539e+02
6.000000e-08	-8.118701e-06	-1.343147e-08	-5.651438e+01	-8.795353e+02
7.000000e-08	-8.098951e-06	-1.340940e-08	-5.637689e+01	-8.786475e+02
8.000000e-08	-8.076644e-06	-1.341870e-08	-5.622161e+01	-8.776989e+02
9.000000e-08	-8.051173e-06	-1.343345e-08	-5.604432e+01	-8.766950e+02
1.000000e-07	-8.022465e-06	-1.340652e-08	-5.584448e+01	-8.756386e+02
1.100000e-07	-7.990723e-06	-1.336204e-08	-5.562352e+01	-8.745298e+02
1.200000e-07	-7.956033e-06	-1.333059e-08	-5.538204e+01	-8.733669e+02
1.300000e-07	-7.918775e-06	-1.330163e-08	-5.512269e+01	-8.721461e+02
1.400000e-07	-7.879397e-06	-1.326034e-08	-5.484858e+01	-8.708623e+02
1.500000e-07	-7.837693e-06	-1.329253e-08	-5.455827e+01	-8.695089e+02
1.600000e-07	-7.793226e-06	-1.325794e-08	-5.424874e+01	-8.680772e+02
1.700000e-07	-7.746018e-06	-1.318411e-08	-5.392012e+01	-8.665567e+02
1.800000e-07	-7.695798e-06	-1.320993e-08	-5.357054e+01	-8.649348e+02
1.900000e-07	-7.642427e-06	-1.317456e-08	-5.319903e+01	-8.631965e+02
2.000000e-07	-7.586188e-06	-1.313916e-08	-5.280755e+01	-8.613251e+02
2.100000e-07	-7.527164e-06	-1.310252e-08	-5.239668e+01	-8.593028e+02
2.200000e-07	-7.465472e-06	-1.305444e-08	-5.196724e+01	-8.571118e+02
2.300000e-07	-7.401069e-06	-1.302383e-08	-5.151893e+01	-8.547360e+02
2.400000e-07	-7.333840e-06	-1.296426e-08	-5.105095e+01	-8.521623e+02
2.500000e-07	-7.263886e-06	-1.294148e-08	-5.056400e+01	-8.493825e+02
2.600000e-07	-7.191105e-06	-1.289677e-08	-5.005737e+01	-8.463937e+02
2.700000e-07	-7.115445e-06	-1.283244e-08	-4.953070e+01	-8.431994e+02
2.800000e-07	-7.036934e-06	-1.277984e-08	-4.898418e+01	-8.398091e+02
2.900000e-07	-6.955700e-06	-1.274273e-08	-4.841871e+01	-8.362366e+02
3.000000e-07	-6.872076e-06	-1.269539e-08	-4.783660e+01	-8.324992e+02
3.100000e-07	-6.786042e-06	-1.261032e-08	-4.723772e+01	-8.286141e+02
3.200000e-07	-6.697504e-06	-1.255922e-08	-4.662141e+01	-8.245968e+02
3.300000e-07	-6.606588e-06	-1.250426e-08	-4.598854e+01	-8.204580e+02
3.400000e-07	-6.513380e-06	-1.244031e-08	-4.533971e+01	-8.162020e+02
3.500000e-07	-6.417793e-06	-1.237373e-08	-4.467434e+01	-8.118251e+02
3.600000e-07	-6.319786e-06	-1.230273e-08	-4.399211e+01	-8.073163e+02
3.700000e-07	-6.219481e-06	-1.222655e-08	-4.329388e+01	-8.026573e+02
3.800000e-07	-6.116964e-06	-1.214798e-08	-4.258026e+01	-7.978256e+02
3.900000e-07	-6.012287e-06	-1.208411e-08	-4.185160e+01	-7.927963e+02
4.000000e-07	-5.905475e-06	-1.200309e-08	-4.110808e+01	-7.875457e+02
4.100000e-07	-5.796558e-06	-1.190808e-08	-4.034991e+01	-7.820542e+02
4.200000e-07	-5.685606e-06	-1.181262e-08	-3.957757e+01	-7.763084e+02
4.300000e-07	-5.572584e-06	-1.173299e-08	-3.879082e+01	-7.703026e+02
4.400000e-07	-5.457372e-06	-1.164477e-08	-3.798883e+01	-7.640385e+02
4.500000e-07	-5.340047e-06	-1.154563e-08	-3.717213e+01	-7.575249e+02
4.600000e-07	-5.220796e-06	-1.143942e-08	-3.634203e+01	-7.507741e+02
4.700000e-07	-5.099700e-06	-1.133320e-08	-3.549907e+01	-7.438000e+02
4.800000e-07	-4.976764e-06	-1.123374e-08	-3.464331e+01	-7.366136e+02
4.900000e-07	-4.852077e-06	-1.112599e-08	-3.377536e+01	-7.292203e+02
5.000000e-07	-4.725673e-06	-1.100604e-08	-3.289547e+01	-7.216173e+02
5.100000e-07	-4.597579e-06	-1.087671e-08	-3.200380e+01	-7.137919e+02
5.200000e-07	-4.467718e-06	-1.075388e-08	-3.109984e+01	-7.057222e+02
5.300000e-07	-4.336116e-06	-1.062935e-08	-3.018376e+01	-6.973781e+02
5.400000e-07	-4.202964e-06	-1.049637e-08	-2.925688e+01	-6.887246e+02
5.500000e-07	-4.068274e-06	-1.035266e-08	-2.831930e+01	-6.797255e+02
5.600000e-07	-3.932111e-06	-1.020582e-08	-2.737147e+01	-6.703469e+02
5.700000e-07	-3.794446e-06	-1.005792e-08	-2.641318e+01	-6.605616e+02
5.800000e-07	-3.655130e-06	-9.908931e-09	-2.544341e+01	-6.503513e+02
5.900000e-07	-3.514254e-06	-9.753409e-09	-2.446276e+01	-6.397081e+02
6.000000e-07	-3.372070e-06	-9.581453e-09	-2.347302e+01	-6.286337e+02
6.100000e-07	-3.228601e-06	-9.403524e-09	-2.247433e+01	-6.171376e+02
6.200000e-07	-3.083795e-06	-9.226421e-09	-2.146633e+01	-6.052333e+02
6.300000e-07	-2.937815e-06	-9.044591e-09	-2.045016e+01	-5.929336e+02
6.400000e-07	-2.790797e-06	-8.847388e-09	-1.942677e+01	-5.802462e+02
6.500000e-07	-2.642837e-06	-8.641885e-09	-1.839682e+01	-5.671695e+02
6.600000e-07	-2.494060e-06	-8.433819e-09	-1.736118e+01	-5.536895e+02
6.700000e-07	-2.344541e-06	-8.221949e-09	-1.632038e+01	-5.397793e+02
6.800000e-07	-2.194272e-06	-8.002210e-09	-1.527436e+01	-5.253996e+02
6.900000e-07	-2.043222e-06	-7.770496e-09	-1.422290e+01	-5.105026e+02
7.000000e-07	-1.891443e-06	-7.528353e-09	-1.316636e+01	-4.950365e+02
7.100000e-07	-1.739006e-06	-7.279344e-09	-1.210524e+01	-4.789514e+02
7.200000e-07	-1.585984e-06	-7.027678e-09	-1.104006e+01	-4.622051e+02
7.300000e-07	-1.432469e-06	-6.765151e-09	-9.971435e+00	-4.447684e+02
7.400000e-07	-1.278517e-06	-6.487502e-09	-8.899772e+00	-4.266278e+02
7.500000e-07	-1.124102e-06	-6.199028e-09	-7.824889e+00	-4.077865e+02
7.600000e-07	-9.692354e-07	-5.904212e-09	-6.746859e+00	-3.882620e+02
7.700000e-07	-8.139894e-07	-5.601664e-09	-5.666190e+00	-3.680809e+02
7.800000e-07	-6.583578e-07	-5.287400e-09	-4.582836e+00	-3.472719e+02
7.900000e-07	-5.024244e-07	-4.958772e-09	-3.497383e+00	-3.258569e+02
8.000000e-07	-3.462738e-07	-4.618576e-09	-2.410416e+00	-3.038425e+02
8.100000e-07	-1.899005e-07	-4.272012e-09	-1.321899e+00	-2.812123e+02
8.200000e-07	-3.340450e-08	-3.915513e-09	-2.325291e-01	-2.579223e+02
8.300000e-07	1.231568e-07	-3.545327e-09	8.572962e-01	-2.338999e+02
8.400000e-07	2.797347e-07	-3.159533e-09	1.947237e+00	-2.090463e+02
8.500000e-07	4.362654e-07	-2.761759e-09	3.036849e+00	-1.832449e+02
8.600000e-07	5.926731e-07	-2.353034e-09	4.125605e+00	-1.563726e+02
8.700000e-07	7.488368e-07	-1.931091e-09	5.212662e+00	-1.283145e+02
8.800000e-07	9.046581e-07	-1.490021e-09	6.297336e+00	-9.897987e+01
8.900000e-07	1.060038e-06	-1.024155e-09	7.378938e+00	-6.831836e+01
9.000000e-07	1.214934e-06	-5.391272e-10	8.457170e+00	-3.633361e+01
9.100000e-07	1.369326e-06	-4.021777e-11	9.531893e+00	-3.093269e+00
9.200000e-07	1.523260e-06	4.768910e-10	1.060343e+01	3.126621e+01
9.300000e-07	1.676697e-06	1.017768e-09	1.167151e+01	6.654082e+01
9.400000e-07	1.829499e-06	1.574217e-09	1.273517e+01	1.024664e+02
9.500000e-07	1.981645e-06	2.133978e-09	1.379425e+01	1.387317e+02
9.600000e-07	2.133026e-06	2.688858e-09	1.484802e+01	1.749958e+02
9.700000e-07	2.283517e-06	3.236658e-09	1.589559e+01	2.109088e+02
9.800000e-07	2.433198e-06	3.774911e-09	1.693752e+01	2.461323e+02
9.900000e-07	2.582082e-06	4.296782e-09	1.797390e+01	2.803600e+02
1.000000e-06	2.729997e-06	4.793369e-09	1.900354e+01	3.133341e+02
1.010000e-06	2.876849e-06	5.261544e-09	2.002578e+01	3.448575e+02
1.020000e-06	3.022613e-06	5.707017e-09	2.104044e+01	3.748004e+02
1.030000e-06	3.167226e-06	6.133787e-09	2.204710e+01	4.031006e+02
1.040000e-06	3.310632e-06	6.540639e-09	2.304535e+01	4.297585e+02
1.050000e-06	3.452854e-06	6.921356e-09	2.403536e+01	4.548273e+02
1.060000e-06	3.593785e-06	7.278895e-09	2.501638e+01	4.784002e+02
1.070000e-06	3.733290e-06	7.619394e-09	2.598748e+01	5.005951e+02
1.080000e-06	3.871347e-06	7.945534e-09	2.694849e+01	5.215404e+02
1.090000e-06	4.007931e-06	8.254251e-09	2.789925e+01	5.413618e+02
1.100000e-06	4.143028e-06	8.541007e-09	2.883967e+01	5.601721e+02
1.110000e-06	4.276688e-06	8.810041e-09	2.977008e+01	5.780645e+02
1.120000e-06	4.408856e-06	9.067441e-09	3.069010e+01	5.951100e+02
1.130000e-06	4.539389e-06	9.313291e-09	3.159874e+01	6.113579e+02
1.140000e-06	4.668324e-06	9.547234e-09	3.249626e+01	6.268401e+02
1.150000e-06	4.795693e-06	9.768501e-09	3.338287e+01	6.415758e+02
1.160000e-06	4.921447e-06	9.978338e-09	3.425825e+01	6.555787e+02
1.170000e-06	5.045506e-06	1.017860e-08	3.512183e+01	6.688625e+02
1.180000e-06	5.167803e-06	1.036888e-08	3.597314e+01	6.814458e+02
1.190000e-06	5.288251e-06	1.054850e-08	3.681158e+01	6.933552e+02
1.200000e-06	5.406812e-06	1.071715e-08	3.763688e+01	7.046258e+02
1.210000e-06	5.523356e-06	1.087823e-08	3.844815e+01	7.153001e+02
1.220000e-06	5.637622e-06	1.103495e-08	3.924356e+01	7.254256e+02
1.230000e-06	5.749649e-06	1.118724e-08	4.002338e+01	7.350502e+02
1.240000e-06	5.859630e-06	1.133201e-08	4.078895e+01	7.442189e+02
1.250000e-06	5.967518e-06	1.146763e-08	4.153997e+01	7.529701e+02
1.260000e-06	6.073248e-06	1.159632e-08	4.227595e+01	7.613331e+02
1.270000e-06	6.176775e-06	1.172226e-08	4.299660e+01	7.693274e+02
1.280000e-06	6.278039e-06	1.184137e-08	4.370151e+01	7.769629e+02
1.290000e-06	6.376970e-06	1.195047e-08	4.439017e+01	7.842426e+02
1.300000e-06	6.473453e-06	1.204937e-08	4.506178e+01	7.911651e+02
1.310000e-06	6.567571e-06	1.214290e-08	4.571694e+01	7.977281e+02
1.320000e-06	6.659429e-06	1.223540e-08	4.635637e+01	8.039323e+02
1.330000e-06	6.748937e-06	1.232431e-08	4.697943e+01	8.097833e+02
1.340000e-06	6.836036e-06	1.240803e-08	4.758573e+01	8.152936e+02
1.350000e-06	6.920737e-06	1.248571e-08	4.817534e+01	8.204828e+02
1.360000e-06	7.002943e-06	1.256044e-08	4.874757e+01	8.253761e+02
1.370000e-06	7.082650e-06	1.263355e-08	4.930241e+01	8.300026e+02
1.380000e-06	7.159804e-06	1.270240e-08	4.983948e+01	8.343919e+02
1.390000e-06	7.234275e-06	1.276563e-08	5.035788e+01	8.385710e+02
1.400000e-06	7.306051e-06	1.282453e-08	5.085751e+01	8.425618e+02
1.410000e-06	7.375205e-06	1.288183e-08	5.133889e+01	8.463786e+02
1.420000e-06	7.441722e-06	1.293900e-08	5.180191e+01	8.500272e+02
1.430000e-06	7.505559e-06	1.299228e-08	5.224629e+01	8.535053e+02
1.440000e-06	7.566866e-06	1.303998e-08	5.267304e+01	8.568042e+02
1.450000e-06	7.625600e-06	1.308508e-08	5.308189e+01	8.599105e+02
1.460000e-06	7.681616e-06	1.313010e-08	5.347182e+01	8.628096e+02
1.470000e-06	7.734843e-06	1.317313e-08	5.384234e+01	8.654887e+02
1.480000e-06	7.784980e-06	1.320993e-08	5.419134e+01	8.679391e+02
1.490000e-06	7.831978e-06	1.324169e-08	5.451850e+01	8.701586e+02
1.500000e-06	7.876208e-06	1.327122e-08	5.482638e+01	8.721520e+02
1.510000e-06	7.917657e-06	1.329881e-08	5.511491e+01	8.739310e+02
1.520000e-06	7.956224e-06	1.332403e-08	5.538337e+01	8.755130e+02
1.530000e-06	7.992082e-06	1.334649e-08	5.563298e+01	8.769189e+02
1.540000e-06	8.025116e-06	1.336558e-08	5.586293e+01	8.781705e+02
1.550000e-06	8.055267e-06	1.338224e-08	5.607281e+01	8.792882e+02
1.560000e-06	8.082592e-06	1.339764e-08	5.626302e+01	8.802885e+02
1.570000e-06	8.106901e-06	1.341228e-08	5.643224e+01	8.811822e+02
1.580000e-06	8.128274e-06	1.342425e-08	5.658101e+01	8.819743e+02
1.590000e-06	8.146790e-06	1.343223e-08	5.670990e+01	8.826638e+02
1.600000e-06	8.162332e-06	1.343820e-08	5.681809e+01	8.832448e+02
1.610000e-06	8.174814e-06	1.344355e-08	5.690498e+01	8.837084e+02
1.620000e-06	8.184133e-06	1.344805e-08	5.696985e+01	8.840444e+02
1.630000e-06	8.190404e-06	1.344984e-08	5.701350e+01	8.842440e+02
1.640000e-06	8.193835e-06	1.344958e-08	5.703738e+01	8.843008e+02
1.650000e-06	8.194426e-06	1.345067e-08	5.704150e+01	8.842126e+02
1.660000e-06	8.192239e-06	1.344744e-08	5.702628e+01	8.839817e+02
1.670000e-06	8.187310e-06	1.344284e-08	5.699196e+01	8.836150e+02
1.680000e-06	8.179585e-06	1.343621e-08	5.693819e+01	8.831228e+02
1.690000e-06	8.169163e-06	1.342746e-08	5.686564e+01	8.825180e+02
1.700000e-06	8.155921e-06	1.341960e-08	5.677346e+01	8.818145e+02
1.710000e-06	8.139892e-06	1.341635e-08	5.666188e+01	8.810258e+02
1.720000e-06	8.121440e-06	1.341815e-08	5.653344e+01	8.801638e+02
1.730000e-06	8.100472e-06	1.336652e-08	5.638748e+01	8.792381e+02
1.740000e-06	8.076261e-06	1.332029e-08	5.621895e+01	8.782552e+02
1.750000e-06	8.048254e-06	1.332238e-08	5.602399e+01	8.772191e+02
1.760000e-06	8.016755e-06	1.332287e-08	5.580473e+01	8.761308e+02
1.770000e-06	7.982568e-06	1.331042e-08	5.556675e+01	8.749893e+02
1.780000e-06	7.946105e-06	1.332416e-08	5.531293e+01	8.737915e+02
1.790000e-06	7.907437e-06	1.327546e-08	5.504376e+01	8.725330e+02
1.800000e-06	7.866537e-06	1.321623e-08	5.475906e+01	8.712076e+02
1.810000e-06	7.822958e-06	1.326751e-08	5.445571e+01	8.698076e+02
1.820000e-06	7.776689e-06	1.323310e-08	5.413363e+01	8.683232e+02
1.830000e-06	7.727750e-06	1.323351e-08	5.379296e+01	8.667426e+02
1.840000e-06	7.675744e-06	1.321379e-08	5.343095e+01	8.650517e+02
1.850000e-06	7.620789e-06	1.315547e-08	5.304840e+01	8.632345e+02
1.860000e-06	7.563047e-06	1.318058e-08	5.264646e+01	8.612734e+02
1.870000e-06	7.502616e-06	1.312518e-08	5.222580e+01	8.591505e+02
1.880000e-06	7.439392e-06	1.311760e-08	5.178570e+01	8.568489e+02
1.890000e-06	7.373225e-06	1.305377e-08	5.132511e+01	8.543540e+02
1.900000e-06	7.304167e-06	1.296299e-08	5.084439e+01	8.516556e+02
1.910000e-06	7.232231e-06	1.296555e-08	5.034365e+01	8.487486e+02
1.920000e-06	7.157580e-06	1.292720e-08	4.982400e+01	8.456341e+02
1.930000e-06	7.080041e-06	1.288615e-08	4.928425e+01	8.423191e+02
1.940000e-06	6.999669e-06	1.279316e-08	4.872478e+01	8.388161e+02
1.950000e-06	6.916818e-06	1.274485e-08	4.814805e+01	8.351411e+02
1.960000e-06	6.831456e-06	1.270589e-08	4.755385e+01	8.313118e+02
1.970000e-06	6.743581e-06	1.264463e-08	4.694215e+01	8.273447e+02
1.980000e-06	6.653314e-06	1.259992e-08	4.631380e+01	8.232525e+02
1.990000e-06	6.560781e-06	1.250453e-08	4.566968e+01	8.190423e+02
2.000000e-06	6.465889e-06	1.243501e-08	4.500913e+01	8.147136e+02
2.010000e-06	6.368655e-06	1.237473e-08	4.433228e+01	8.102582e+02
2.020000e-06	6.269193e-06	1.232902e-08	4.363993e+01	8.056605e+02
2.030000e-06	6.167438e-06	1.224539e-08	4.293161e+01	8.008994e+02
2.040000e-06	6.063453e-06	1.214548e-08	4.220777e+01	7.959504e+02
2.050000e-06	5.957371e-06	1.207026e-08	4.146933e+01	7.907892e+02
2.060000e-06	5.849313e-06	1.200075e-08	4.071714e+01	7.853942e+02
2.070000e-06	5.739195e-06	1.192284e-08	3.995060e+01	7.797492e+02
2.080000e-06	5.626925e-06	1.181866e-08	3.916909e+01	7.738455e+02
2.090000e-06	5.512491e-06	1.171490e-08	3.837252e+01	7.676820e+02
2.100000e-06	5.395956e-06	1.161408e-08	3.756132e+01	7.612648e+02
2.110000e-06	5.277348e-06	1.152965e-08	3.673568e+01	7.546053e+02
2.120000e-06	5.156758e-06	1.143194e-08	3.589626e+01	7.477172e+02
2.130000e-06	5.034302e-06	1.131780e-08	3.504384e+01	7.406130e+02
2.140000e-06	4.910076e-06	1.119384e-08	3.417910e+01	7.333006e+02
2.150000e-06	4.784116e-06	1.108554e-08	3.330229e+01	7.257807e+02
2.160000e-06	4.656318e-06	1.098181e-08	3.241268e+01	7.180446e+02
2.170000e-06	4.526859e-06	1.086031e-08	3.151152e+01	7.100738e+02
2.180000e-06	4.395771e-06	1.072001e-08	3.059902e+01	7.018413e+02
2.190000e-06	4.263085e-06	1.057717e-08	2.967539e+01	6.933135e+02
2.200000e-06	4.128839e-06	1.045003e-08	2.874090e+01	6.844542e+02
2.210000e-06	3.993030e-06	1.032193e-08	2.779553e+01	6.752282e+02
2.220000e-06	3.855651e-06	1.017548e-08	2.683923e+01	6.656052e+02
2.230000e-06	3.716743e-06	1.000725e-08	2.587229e+01	6.555632e+02
2.240000e-06	3.576442e-06	9.841644e-09	2.489566e+01	6.450901e+02
2.250000e-06	3.434806e-06	9.686419e-09	2.390973e+01	6.341842e+02
2.260000e-06	3.291825e-06	9.526583e-09	2.291444e+01	6.228521e+02
2.270000e-06	3.147482e-06	9.346007e-09	2.190966e+01	6.111062e+02
2.280000e-06	3.001941e-06	9.152561e-09	2.089654e+01	5.989603e+02
2.290000e-06	2.855346e-06	8.960959e-09	1.987610e+01	5.864247e+02
2.300000e-06	2.707824e-06	8.775989e-09	1.884920e+01	5.735016e+02
2.310000e-06	2.559476e-06	8.581043e-09	1.781655e+01	5.601824e+02
2.320000e-06	2.410298e-06	8.363246e-09	1.677811e+01	5.464450e+02
2.330000e-06	2.260270e-06	8.133587e-09	1.573377e+01	5.322548e+02
2.340000e-06	2.109430e-06	7.908142e-09	1.468377e+01	5.175670e+02
2.350000e-06	1.957835e-06	7.684519e-09	1.362851e+01	5.023304e+02
2.360000e-06	1.805528e-06	7.446272e-09	1.256830e+01	4.864939e+02
2.370000e-06	1.652576e-06	7.187798e-09	1.150360e+01	4.700114e+02
2.380000e-06	1.499065e-06	6.920117e-09	1.043501e+01	4.528482e+02
2.390000e-06	1.345127e-06	6.653392e-09	9.363447e+00	4.349845e+02
2.400000e-06	1.190779e-06	6.382362e-09	8.289029e+00	4.164169e+02
2.410000e-06	1.036016e-06	6.095113e-09	7.211718e+00	3.971578e+02
2.420000e-06	8.808707e-07	5.788008e-09	6.131751e+00	3.772309e+02
2.430000e-06	7.253713e-07	5.470993e-09	5.049318e+00	3.566652e+02
2.440000e-06	5.696617e-07	5.152929e-09	3.965422e+00	3.354863e+02
2.450000e-06	4.138105e-07	4.828401e-09	2.880540e+00	3.137077e+02
2.460000e-06	2.577797e-07	4.484303e-09	1.794408e+00	2.913228e+02
2.470000e-06	1.015663e-07	4.121066e-09	7.070044e-01	2.682989e+02
2.480000e-06	-5.465719e-08	3.750509e-09	-3.804694e-01	2.445745e+02
2.490000e-06	-2.107891e-07	3.376943e-09	-1.467305e+00	2.200603e+02
2.500000e-06	-3.668979e-07	2.992224e-09	-2.553981e+00	1.946457e+02
2.510000e-06	-5.229418e-07	2.585458e-09	-3.640204e+00	1.682084e+02
2.520000e-06	-6.788382e-07	2.158713e-09	-4.725401e+00	1.406285e+02
2.530000e-06	-8.345290e-07	1.721193e-09	-5.809167e+00	1.118037e+02
2.540000e-06	-9.899260e-07	1.273954e-09	-6.890887e+00	8.166612e+01
2.550000e-06	-1.144887e-06	8.055521e-10	-7.969569e+00	5.019664e+01
2.560000e-06	-1.299353e-06	3.068409e-10	-9.044810e+00	1.743694e+01
2.570000e-06	-1.453418e-06	-2.142606e-10	-1.011726e+01	-1.650377e+01
2.580000e-06	-1.607098e-06	-7.459663e-10	-1.118703e+01	-5.144748e+01
2.590000e-06	-1.760278e-06	-1.288996e-09	-1.225332e+01	-8.715239e+01
2.600000e-06	-1.912793e-06	-1.848191e-09	-1.331497e+01	-1.233239e+02
2.610000e-06	-2.064415e-06	-2.416684e-09	-1.437041e+01	-1.596304e+02
2.620000e-06	-2.215098e-06	-2.977716e-09	-1.541933e+01	-1.957230e+02
2.630000e-06	-2.364963e-06	-3.519911e-09	-1.646254e+01	-2.312562e+02
2.640000e-06	-2.514024e-06	-4.043954e-09	-1.750015e+01	-2.659091e+02
2.650000e-06	-2.662227e-06	-4.554545e-09	-1.853179e+01	-2.994030e+02
2.660000e-06	-2.809442e-06	-5.049594e-09	-1.955656e+01	-3.315158e+02
2.670000e-06	-2.955587e-06	-5.517549e-09	-2.057388e+01	-3.620910e+02
2.680000e-06	-3.100656e-06	-5.952535e-09	-2.158370e+01	-3.910400e+02
2.690000e-06	-3.244491e-06	-6.361964e-09	-2.258494e+01	-4.183395e+02
2.700000e-06	-3.386999e-06	-6.754207e-09	-2.357694e+01	-4.440237e+02
2.710000e-06	-3.528249e-06	-7.129482e-09	-2.456019e+01	-4.681714e+02
2.720000e-06	-3.668175e-06	-7.481312e-09	-2.553421e+01	-4.908928e+02
2.730000e-06	-3.806719e-06	-7.808620e-09	-2.649862e+01	-5.123139e+02
2.740000e-06	-3.943895e-06	-8.118799e-09	-2.745350e+01	-5.325627e+02
2.750000e-06	-4.079578e-06	-8.416887e-09	-2.839799e+01	-5.517581e+02
2.760000e-06	-4.213748e-06	-8.702568e-09	-2.933195e+01	-5.700016e+02
2.770000e-06	-4.346499e-06	-8.971148e-09	-3.025603e+01	-5.873729e+02
2.780000e-06	-4.477760e-06	-9.221367e-09	-3.116974e+01	-6.039297e+02
2.790000e-06	-4.607510e-06	-9.458322e-09	-3.207293e+01	-6.197101e+02
2.800000e-06	-4.735685e-06	-9.686967e-09	-3.296516e+01	-6.347375e+02
2.810000e-06	-4.862140e-06	-9.906391e-09	-3.384541e+01	-6.490270e+02
2.820000e-06	-4.986898e-06	-1.011296e-08	-3.471386e+01	-6.625916e+02
2.830000e-06	-5.109976e-06	-1.030612e-08	-3.557060e+01	-6.754477e+02
2.840000e-06	-5.231235e-06	-1.048944e-08	-3.641469e+01	-6.876183e+02
2.850000e-06	-5.350502e-06	-1.066777e-08	-3.724491e+01	-6.991353e+02
2.860000e-06	-5.467665e-06	-1.083853e-08	-3.806048e+01	-7.100386e+02
2.870000e-06	-5.582661e-06	-1.099756e-08	-3.886097e+01	-7.203741e+02
2.880000e-06	-5.695387e-06	-1.114646e-08	-3.964566e+01	-7.301901e+02
2.890000e-06	-5.805893e-06	-1.128974e-08	-4.041489e+01	-7.395331e+02
2.900000e-06	-5.914333e-06	-1.142912e-08	-4.116975e+01	-7.484445e+02
2.910000e-06	-6.020716e-06	-1.156130e-08	-4.191027e+01	-7.569574e+02
2.920000e-06	-6.124948e-06	-1.168237e-08	-4.263584e+01	-7.650950e+02
2.930000e-06	-6.226893e-06	-1.179521e-08	-4.334548e+01	-7.728710e+02
2.940000e-06	-6.326532e-06	-1.190670e-08	-4.403907e+01	-7.802907e+02
