# Temperatura_=_20.0
# Concentracion g/m^3_=_12600.0
# C_Vs_to_Am_M_A/Vsm_=_65563218390.804596
# pendiente_HvsI_1/m_=_3716.3
# ordenada_HvsI_A/m_=_1297.0
# frecuencia_Hz_=_302310.52308880066

Tiempo_(s)	Campo_(V.s)	Magnetizacion_(V.s)	Campo_(kA/m)	Magnetizacion_(A/m)
0.000000e+00	-8.227909e-06	-1.360506e-08	-5.693650e+01	-8.907002e+02
1.000000e-08	-8.224691e-06	-1.360282e-08	-5.691423e+01	-8.904032e+02
2.000000e-08	-8.218840e-06	-1.359482e-08	-5.687374e+01	-8.899795e+02
3.000000e-08	-8.210328e-06	-1.358558e-08	-5.681484e+01	-8.894415e+02
4.000000e-08	-8.198887e-06	-1.357584e-08	-5.673567e+01	-8.888026e+02
5.000000e-08	-8.184464e-06	-1.356623e-08	-5.663586e+01	-8.880757e+02
6.000000e-08	-8.167189e-06	-1.355368e-08	-5.651632e+01	-8.872714e+02
7.000000e-08	-8.147429e-06	-1.353497e-08	-5.637958e+01	-8.863981e+02
8.000000e-08	-8.125140e-06	-1.354580e-08	-5.622535e+01	-8.854607e+02
9.000000e-08	-8.099702e-06	-1.355306e-08	-5.604932e+01	-8.844617e+02
1.000000e-07	-8.070945e-06	-1.352110e-08	-5.585032e+01	-8.834010e+02
1.100000e-07	-8.039130e-06	-1.348035e-08	-5.563016e+01	-8.822768e+02
1.200000e-07	-8.004383e-06	-1.345353e-08	-5.538972e+01	-8.810862e+02
1.300000e-07	-7.967031e-06	-1.342419e-08	-5.513125e+01	-8.798258e+02
1.400000e-07	-7.927529e-06	-1.338137e-08	-5.485789e+01	-8.784919e+02
1.500000e-07	-7.885701e-06	-1.340983e-08	-5.456845e+01	-8.770799e+02
1.600000e-07	-7.841046e-06	-1.337756e-08	-5.425944e+01	-8.755845e+02
1.700000e-07	-7.793576e-06	-1.330837e-08	-5.393094e+01	-8.739985e+02
1.800000e-07	-7.743107e-06	-1.332056e-08	-5.358171e+01	-8.723126e+02
1.900000e-07	-7.689522e-06	-1.329083e-08	-5.321090e+01	-8.705149e+02
2.000000e-07	-7.633106e-06	-1.325456e-08	-5.282051e+01	-8.685909e+02
2.100000e-07	-7.573898e-06	-1.321273e-08	-5.241079e+01	-8.665241e+02
2.200000e-07	-7.512046e-06	-1.317390e-08	-5.198278e+01	-8.642970e+02
2.300000e-07	-7.447472e-06	-1.313629e-08	-5.153593e+01	-8.618925e+02
2.400000e-07	-7.380002e-06	-1.307966e-08	-5.106905e+01	-8.592959e+02
2.500000e-07	-7.309712e-06	-1.306087e-08	-5.058265e+01	-8.564963e+02
2.600000e-07	-7.236550e-06	-1.301268e-08	-5.007637e+01	-8.534880e+02
2.700000e-07	-7.160512e-06	-1.294441e-08	-4.955020e+01	-8.502717e+02
2.800000e-07	-7.081640e-06	-1.289157e-08	-4.900440e+01	-8.468538e+02
2.900000e-07	-7.000069e-06	-1.285428e-08	-4.843994e+01	-8.432462e+02
3.000000e-07	-6.916063e-06	-1.280813e-08	-4.785863e+01	-8.394645e+02
3.100000e-07	-6.829649e-06	-1.272854e-08	-4.726065e+01	-8.355257e+02
3.200000e-07	-6.740750e-06	-1.266899e-08	-4.664548e+01	-8.314453e+02
3.300000e-07	-6.649395e-06	-1.260903e-08	-4.601330e+01	-8.272353e+02
3.400000e-07	-6.555708e-06	-1.255100e-08	-4.536499e+01	-8.229020e+02
3.500000e-07	-6.459653e-06	-1.248151e-08	-4.470031e+01	-8.184440e+02
3.600000e-07	-6.361212e-06	-1.240479e-08	-4.401910e+01	-8.138530e+02
3.700000e-07	-6.260544e-06	-1.232772e-08	-4.332248e+01	-8.091133e+02
3.800000e-07	-6.157623e-06	-1.224751e-08	-4.261028e+01	-8.042047e+02
3.900000e-07	-6.052422e-06	-1.218102e-08	-4.188230e+01	-7.991042e+02
4.000000e-07	-5.945082e-06	-1.210474e-08	-4.113951e+01	-7.937895e+02
4.100000e-07	-5.835681e-06	-1.201276e-08	-4.038247e+01	-7.882412e+02
4.200000e-07	-5.724165e-06	-1.191070e-08	-3.961078e+01	-7.824457e+02
4.300000e-07	-5.610470e-06	-1.182647e-08	-3.882402e+01	-7.763961e+02
4.400000e-07	-5.494580e-06	-1.174196e-08	-3.802207e+01	-7.700924e+02
4.500000e-07	-5.376625e-06	-1.164365e-08	-3.720583e+01	-7.635408e+02
4.600000e-07	-5.256737e-06	-1.153259e-08	-3.637622e+01	-7.567513e+02
4.700000e-07	-5.134960e-06	-1.142287e-08	-3.553353e+01	-7.497344e+02
4.800000e-07	-5.011374e-06	-1.132276e-08	-3.467832e+01	-7.424988e+02
4.900000e-07	-4.886074e-06	-1.121633e-08	-3.381126e+01	-7.350472e+02
5.000000e-07	-4.759031e-06	-1.109902e-08	-3.293213e+01	-7.273749e+02
5.100000e-07	-4.630229e-06	-1.097035e-08	-3.204083e+01	-7.194682e+02
5.200000e-07	-4.499656e-06	-1.084166e-08	-3.113727e+01	-7.113045e+02
5.300000e-07	-4.367375e-06	-1.071274e-08	-3.022190e+01	-7.028545e+02
5.400000e-07	-4.233583e-06	-1.058188e-08	-2.929607e+01	-6.940845e+02
5.500000e-07	-4.098203e-06	-1.043830e-08	-2.835925e+01	-6.849601e+02
5.600000e-07	-3.961196e-06	-1.028481e-08	-2.741117e+01	-6.754505e+02
5.700000e-07	-3.822634e-06	-1.013057e-08	-2.645233e+01	-6.655314e+02
5.800000e-07	-3.682490e-06	-9.979655e-09	-2.548255e+01	-6.551874e+02
5.900000e-07	-3.540800e-06	-9.824574e-09	-2.450206e+01	-6.444133e+02
6.000000e-07	-3.397722e-06	-9.652203e-09	-2.351198e+01	-6.332133e+02
6.100000e-07	-3.253369e-06	-9.471401e-09	-2.251307e+01	-6.215982e+02
6.200000e-07	-3.107772e-06	-9.290788e-09	-2.150554e+01	-6.095818e+02
6.300000e-07	-2.960981e-06	-9.109084e-09	-2.048976e+01	-5.971766e+02
6.400000e-07	-2.813173e-06	-8.914968e-09	-1.946694e+01	-5.843887e+02
6.500000e-07	-2.664473e-06	-8.707470e-09	-1.843795e+01	-5.712140e+02
6.600000e-07	-2.514873e-06	-8.493758e-09	-1.740273e+01	-5.576357e+02
6.700000e-07	-2.364475e-06	-8.278553e-09	-1.636199e+01	-5.436235e+02
6.800000e-07	-2.213311e-06	-8.058665e-09	-1.531594e+01	-5.291351e+02
6.900000e-07	-2.061311e-06	-7.827457e-09	-1.426411e+01	-5.141198e+02
7.000000e-07	-1.908511e-06	-7.582437e-09	-1.320675e+01	-4.985236e+02
7.100000e-07	-1.755094e-06	-7.326133e-09	-1.214512e+01	-4.822952e+02
7.200000e-07	-1.601190e-06	-7.069812e-09	-1.108011e+01	-4.653921e+02
7.300000e-07	-1.446764e-06	-6.809831e-09	-1.001149e+01	-4.477853e+02
7.400000e-07	-1.291776e-06	-6.532633e-09	-8.938988e+00	-4.294621e+02
7.500000e-07	-1.136245e-06	-6.237844e-09	-7.862731e+00	-4.104269e+02
7.600000e-07	-9.802876e-07	-5.936749e-09	-6.783515e+00	-3.906982e+02
7.700000e-07	-8.240147e-07	-5.632522e-09	-5.702118e+00	-3.703031e+02
7.800000e-07	-6.674804e-07	-5.316579e-09	-4.618913e+00	-3.492700e+02
7.900000e-07	-5.107616e-07	-4.983420e-09	-3.534431e+00	-3.276193e+02
8.000000e-07	-3.538712e-07	-4.636919e-09	-2.448762e+00	-3.053552e+02
8.100000e-07	-1.967733e-07	-4.284033e-09	-1.361656e+00	-2.824577e+02
8.200000e-07	-3.955442e-08	-3.924133e-09	-2.737135e-01	-2.588784e+02
8.300000e-07	1.176794e-07	-3.552043e-09	8.143324e-01	-2.345399e+02
8.400000e-07	2.748943e-07	-3.161672e-09	1.902247e+00	-2.093390e+02
8.500000e-07	4.320733e-07	-2.755787e-09	2.989914e+00	-1.831554e+02
8.600000e-07	5.891417e-07	-2.339653e-09	4.076815e+00	-1.558637e+02
8.700000e-07	7.460159e-07	-1.911266e-09	5.162373e+00	-1.273486e+02
8.800000e-07	9.026832e-07	-1.463057e-09	6.246498e+00	-9.752150e+01
8.900000e-07	1.059067e-06	-9.873499e-10	7.328664e+00	-6.633664e+01
9.000000e-07	1.215042e-06	-4.907431e-10	8.407995e+00	-3.380468e+01
9.100000e-07	1.370529e-06	1.898750e-11	9.483953e+00	-2.487191e-03
9.200000e-07	1.525524e-06	5.455278e-10	1.055651e+01	3.492262e+01
9.300000e-07	1.679952e-06	1.093528e-09	1.162514e+01	7.075480e+01
9.400000e-07	1.833722e-06	1.656790e-09	1.268921e+01	1.072179e+02
9.500000e-07	1.986808e-06	2.223757e-09	1.374856e+01	1.439895e+02
9.600000e-07	2.139105e-06	2.784668e-09	1.480244e+01	1.807187e+02
9.700000e-07	2.290596e-06	3.335862e-09	1.585075e+01	2.170478e+02
9.800000e-07	2.441259e-06	3.877676e-09	1.689332e+01	2.526334e+02
9.900000e-07	2.590998e-06	4.405251e-09	1.792951e+01	2.871667e+02
1.000000e-06	2.739807e-06	4.909443e-09	1.895925e+01	3.203901e+02
1.010000e-06	2.887551e-06	5.383878e-09	1.998163e+01	3.521095e+02
1.020000e-06	3.034165e-06	5.831532e-09	2.099619e+01	3.821998e+02
1.030000e-06	3.179675e-06	6.258002e-09	2.200311e+01	4.106051e+02
1.040000e-06	3.323997e-06	6.664017e-09	2.300180e+01	4.373330e+02
1.050000e-06	3.467075e-06	7.045268e-09	2.399189e+01	4.624441e+02
1.060000e-06	3.608867e-06	7.401868e-09	2.497308e+01	4.860383e+02
1.070000e-06	3.749298e-06	7.739921e-09	2.594486e+01	5.082398e+02
1.080000e-06	3.888237e-06	8.064907e-09	2.690631e+01	5.291820e+02
1.090000e-06	4.025642e-06	8.373409e-09	2.785713e+01	5.489943e+02
1.100000e-06	4.161609e-06	8.661083e-09	2.879802e+01	5.677921e+02
1.110000e-06	4.296127e-06	8.931595e-09	2.972887e+01	5.856700e+02
1.120000e-06	4.429136e-06	9.189131e-09	3.064928e+01	6.026999e+02
1.130000e-06	4.560556e-06	9.435467e-09	3.155870e+01	6.189313e+02
1.140000e-06	4.690344e-06	9.669948e-09	3.245682e+01	6.343958e+02
1.150000e-06	4.818534e-06	9.890673e-09	3.334388e+01	6.491130e+02
1.160000e-06	4.945048e-06	1.009864e-08	3.421935e+01	6.630965e+02
1.170000e-06	5.069859e-06	1.029649e-08	3.508303e+01	6.763604e+02
1.180000e-06	5.192844e-06	1.048729e-08	3.593408e+01	6.889242e+02
1.190000e-06	5.313941e-06	1.066957e-08	3.677206e+01	7.008151e+02
1.200000e-06	5.433200e-06	1.083952e-08	3.759733e+01	7.120693e+02
1.210000e-06	5.550444e-06	1.099979e-08	3.840865e+01	7.227303e+02
1.220000e-06	5.665517e-06	1.115639e-08	3.920495e+01	7.328462e+02
1.230000e-06	5.778421e-06	1.130937e-08	3.998623e+01	7.424654e+02
1.240000e-06	5.889164e-06	1.145388e-08	4.075256e+01	7.516330e+02
1.250000e-06	5.997787e-06	1.158734e-08	4.150422e+01	7.603873e+02
1.260000e-06	6.104244e-06	1.171431e-08	4.224090e+01	7.687570e+02
1.270000e-06	6.208465e-06	1.183985e-08	4.296210e+01	7.767609e+02
1.280000e-06	6.310488e-06	1.195987e-08	4.366809e+01	7.844083e+02
1.290000e-06	6.410164e-06	1.206987e-08	4.435784e+01	7.917012e+02
1.300000e-06	6.507310e-06	1.216991e-08	4.503009e+01	7.986374e+02
1.310000e-06	6.602016e-06	1.226606e-08	4.568544e+01	8.052141e+02
1.320000e-06	6.694513e-06	1.236130e-08	4.632551e+01	8.114310e+02
1.330000e-06	6.784691e-06	1.245174e-08	4.694954e+01	8.172934e+02
1.340000e-06	6.872377e-06	1.253475e-08	4.755632e+01	8.228132e+02
1.350000e-06	6.957679e-06	1.261138e-08	4.814660e+01	8.280096e+02
1.360000e-06	7.040538e-06	1.268473e-08	4.871998e+01	8.329073e+02
1.370000e-06	7.120842e-06	1.275669e-08	4.927568e+01	8.375350e+02
1.380000e-06	7.198580e-06	1.282521e-08	4.981362e+01	8.419217e+02
1.390000e-06	7.273592e-06	1.288831e-08	5.033270e+01	8.460945e+02
1.400000e-06	7.345888e-06	1.294720e-08	5.083298e+01	8.500749e+02
1.410000e-06	7.415648e-06	1.300579e-08	5.131572e+01	8.538776e+02
1.420000e-06	7.482767e-06	1.306404e-08	5.178018e+01	8.575092e+02
1.430000e-06	7.547146e-06	1.311695e-08	5.222567e+01	8.609684e+02
1.440000e-06	7.608954e-06	1.316363e-08	5.265338e+01	8.642479e+02
1.450000e-06	7.668176e-06	1.320718e-08	5.306319e+01	8.673364e+02
1.460000e-06	7.724674e-06	1.325046e-08	5.345415e+01	8.702213e+02
1.470000e-06	7.778324e-06	1.329221e-08	5.382541e+01	8.728918e+02
1.480000e-06	7.828862e-06	1.332944e-08	5.417512e+01	8.753413e+02
1.490000e-06	7.876315e-06	1.336260e-08	5.450349e+01	8.775688e+02
1.500000e-06	7.920966e-06	1.339303e-08	5.481248e+01	8.795800e+02
1.510000e-06	7.962739e-06	1.342125e-08	5.510154e+01	8.813865e+02
1.520000e-06	8.001597e-06	1.344635e-08	5.537044e+01	8.830045e+02
1.530000e-06	8.037734e-06	1.346899e-08	5.562051e+01	8.844533e+02
1.540000e-06	8.071033e-06	1.348824e-08	5.585093e+01	8.857521e+02
1.550000e-06	8.101451e-06	1.350421e-08	5.606142e+01	8.869180e+02
1.560000e-06	8.129090e-06	1.352113e-08	5.625268e+01	8.879643e+02
1.570000e-06	8.153741e-06	1.353802e-08	5.642326e+01	8.888988e+02
1.580000e-06	8.175433e-06	1.355101e-08	5.657337e+01	8.897240e+02
1.590000e-06	8.194240e-06	1.355970e-08	5.670351e+01	8.904369e+02
1.600000e-06	8.210061e-06	1.356678e-08	5.681299e+01	8.910310e+02
1.610000e-06	8.222836e-06	1.357469e-08	5.690140e+01	8.914976e+02
1.620000e-06	8.232362e-06	1.357998e-08	5.696732e+01	8.918281e+02
1.630000e-06	8.238793e-06	1.358134e-08	5.701182e+01	8.920157e+02
1.640000e-06	8.242381e-06	1.357993e-08	5.703664e+01	8.920570e+02
1.650000e-06	8.243083e-06	1.357901e-08	5.704150e+01	8.919529e+02
1.660000e-06	8.241006e-06	1.357506e-08	5.702713e+01	8.917085e+02
1.670000e-06	8.236185e-06	1.356994e-08	5.699377e+01	8.913329e+02
1.680000e-06	8.228581e-06	1.356402e-08	5.694115e+01	8.908379e+02
1.690000e-06	8.218204e-06	1.355641e-08	5.686934e+01	8.902369e+02
1.700000e-06	8.204909e-06	1.355028e-08	5.677734e+01	8.895429e+02
1.710000e-06	8.188842e-06	1.354743e-08	5.666616e+01	8.887677e+02
1.720000e-06	8.170373e-06	1.354386e-08	5.653836e+01	8.879204e+02
1.730000e-06	8.149380e-06	1.349081e-08	5.639309e+01	8.870076e+02
1.740000e-06	8.125156e-06	1.345135e-08	5.622546e+01	8.860325e+02
1.750000e-06	8.097138e-06	1.345573e-08	5.603158e+01	8.849959e+02
1.760000e-06	8.065603e-06	1.345232e-08	5.581335e+01	8.838967e+02
1.770000e-06	8.031316e-06	1.343456e-08	5.557609e+01	8.827323e+02
1.780000e-06	7.994688e-06	1.344774e-08	5.532262e+01	8.814996e+02
1.790000e-06	7.955852e-06	1.340894e-08	5.505388e+01	8.801948e+02
1.800000e-06	7.914848e-06	1.334748e-08	5.477014e+01	8.788138e+02
1.810000e-06	7.871213e-06	1.337057e-08	5.446819e+01	8.773517e+02
1.820000e-06	7.824841e-06	1.333982e-08	5.414730e+01	8.758021e+02
1.830000e-06	7.775718e-06	1.334065e-08	5.380738e+01	8.741565e+02
1.840000e-06	7.723476e-06	1.331344e-08	5.344586e+01	8.724041e+02
1.850000e-06	7.668264e-06	1.326374e-08	5.306380e+01	8.705313e+02
1.860000e-06	7.610240e-06	1.327165e-08	5.266228e+01	8.685225e+02
1.870000e-06	7.549542e-06	1.321800e-08	5.224225e+01	8.663601e+02
1.880000e-06	7.486088e-06	1.321417e-08	5.180316e+01	8.640270e+02
1.890000e-06	7.419626e-06	1.315728e-08	5.134324e+01	8.615072e+02
1.900000e-06	7.350193e-06	1.307393e-08	5.086277e+01	8.587881e+02
1.910000e-06	7.277895e-06	1.305574e-08	5.036247e+01	8.558619e+02
1.920000e-06	7.202926e-06	1.301914e-08	4.984370e+01	8.527266e+02
1.930000e-06	7.125112e-06	1.298510e-08	4.930523e+01	8.493865e+02
1.940000e-06	7.044451e-06	1.289166e-08	4.874706e+01	8.458515e+02
1.950000e-06	6.961269e-06	1.283730e-08	4.817144e+01	8.421361e+02
1.960000e-06	6.875485e-06	1.279726e-08	4.757783e+01	8.382567e+02
1.970000e-06	6.787152e-06	1.274000e-08	4.696657e+01	8.342300e+02
1.980000e-06	6.696458e-06	1.268689e-08	4.633898e+01	8.300696e+02
1.990000e-06	6.603409e-06	1.260259e-08	4.569508e+01	8.257842e+02
2.000000e-06	6.507937e-06	1.253320e-08	4.503442e+01	8.213756e+02
2.010000e-06	6.410189e-06	1.246307e-08	4.435801e+01	8.168381e+02
2.020000e-06	6.310260e-06	1.241762e-08	4.366652e+01	8.121588e+02
2.030000e-06	6.208016e-06	1.233925e-08	4.295899e+01	8.073190e+02
2.040000e-06	6.103475e-06	1.223499e-08	4.223558e+01	8.022964e+02
2.050000e-06	5.996854e-06	1.214838e-08	4.149777e+01	7.970682e+02
2.060000e-06	5.888259e-06	1.208247e-08	4.074630e+01	7.916134e+02
2.070000e-06	5.777535e-06	1.200967e-08	3.998010e+01	7.859161e+02
2.080000e-06	5.664636e-06	1.190767e-08	3.919885e+01	7.799664e+02
2.090000e-06	5.549498e-06	1.180172e-08	3.840210e+01	7.737618e+02
2.100000e-06	5.432220e-06	1.170011e-08	3.759054e+01	7.673064e+02
2.110000e-06	5.312939e-06	1.161368e-08	3.676513e+01	7.606088e+02
2.120000e-06	5.191765e-06	1.151615e-08	3.592661e+01	7.536798e+02
2.130000e-06	5.068752e-06	1.140298e-08	3.507537e+01	7.465292e+02
2.140000e-06	4.943882e-06	1.127312e-08	3.421128e+01	7.391623e+02
2.150000e-06	4.817246e-06	1.115803e-08	3.333497e+01	7.315776e+02
2.160000e-06	4.688823e-06	1.105530e-08	3.244630e+01	7.237650e+02
2.170000e-06	4.558726e-06	1.093914e-08	3.154604e+01	7.157052e+02
2.180000e-06	4.426987e-06	1.079931e-08	3.063441e+01	7.073713e+02
2.190000e-06	4.293587e-06	1.065351e-08	2.971130e+01	6.987309e+02
2.200000e-06	4.158620e-06	1.052227e-08	2.877733e+01	6.897495e+02
2.210000e-06	4.022108e-06	1.039357e-08	2.783268e+01	6.803944e+02
2.220000e-06	3.884016e-06	1.024784e-08	2.687709e+01	6.706382e+02
2.230000e-06	3.744337e-06	1.007747e-08	2.591053e+01	6.604621e+02
2.240000e-06	3.603135e-06	9.904903e-09	2.493342e+01	6.498567e+02
2.250000e-06	3.460563e-06	9.744011e-09	2.394683e+01	6.388228e+02
2.260000e-06	3.316729e-06	9.585536e-09	2.295151e+01	6.273690e+02
2.270000e-06	3.171636e-06	9.407730e-09	2.194748e+01	6.155083e+02
2.280000e-06	3.025348e-06	9.213393e-09	2.093517e+01	6.032545e+02
2.290000e-06	2.877971e-06	9.017394e-09	1.991534e+01	5.906165e+02
2.300000e-06	2.729659e-06	8.828954e-09	1.888903e+01	5.775948e+02
2.310000e-06	2.580459e-06	8.636126e-09	1.785658e+01	5.641778e+02
2.320000e-06	2.430361e-06	8.422013e-09	1.681791e+01	5.503402e+02
2.330000e-06	2.279433e-06	8.189777e-09	1.577350e+01	5.360443e+02
2.340000e-06	2.127672e-06	7.956010e-09	1.472332e+01	5.212422e+02
2.350000e-06	1.975135e-06	7.728884e-09	1.366778e+01	5.058804e+02
2.360000e-06	1.821991e-06	7.494547e-09	1.260804e+01	4.899058e+02
2.370000e-06	1.668272e-06	7.236892e-09	1.154432e+01	4.732719e+02
2.380000e-06	1.513973e-06	6.963445e-09	1.047658e+01	4.559437e+02
2.390000e-06	1.359150e-06	6.690171e-09	9.405210e+00	4.379021e+02
2.400000e-06	1.203854e-06	6.417329e-09	8.330580e+00	4.191449e+02
2.410000e-06	1.048136e-06	6.132703e-09	7.253021e+00	3.996855e+02
2.420000e-06	8.920679e-07	5.825785e-09	6.173042e+00	3.795485e+02
2.430000e-06	7.358000e-07	5.501690e-09	5.091679e+00	3.587627e+02
2.440000e-06	5.793095e-07	5.174133e-09	4.008777e+00	3.373529e+02
2.450000e-06	4.225444e-07	4.845999e-09	2.923975e+00	3.153304e+02
2.460000e-06	2.655979e-07	4.504223e-09	1.837917e+00	2.926856e+02
2.470000e-06	1.085265e-07	4.138257e-09	7.509952e-01	2.693816e+02
2.480000e-06	-4.858921e-08	3.758181e-09	-3.362336e-01	2.453522e+02
2.490000e-06	-2.056666e-07	3.378691e-09	-1.423197e+00	2.205035e+02
2.500000e-06	-3.626919e-07	2.994225e-09	-2.509800e+00	1.947207e+02
2.510000e-06	-5.196271e-07	2.587390e-09	-3.595780e+00	1.678787e+02
2.520000e-06	-6.763960e-07	2.153866e-09	-4.680609e+00	1.398564e+02
2.530000e-06	-8.329390e-07	1.704391e-09	-5.763874e+00	1.105527e+02
2.540000e-06	-9.891688e-07	1.246618e-09	-6.844973e+00	7.990318e+01
2.550000e-06	-1.145046e-06	7.727269e-10	-7.923631e+00	4.789486e+01
2.560000e-06	-1.300541e-06	2.703558e-10	-8.999644e+00	1.457781e+01
2.570000e-06	-1.455559e-06	-2.602943e-10	-1.007235e+01	-1.992844e+01
2.580000e-06	-1.610041e-06	-8.064845e-10	-1.114136e+01	-5.543434e+01
2.590000e-06	-1.763995e-06	-1.359451e-09	-1.220671e+01	-9.168610e+01
2.600000e-06	-1.917349e-06	-1.921287e-09	-1.326791e+01	-1.283774e+02
2.610000e-06	-2.069911e-06	-2.493089e-09	-1.432363e+01	-1.651663e+02
2.620000e-06	-2.221592e-06	-3.064101e-09	-1.537325e+01	-2.016950e+02
2.630000e-06	-2.372401e-06	-3.617226e-09	-1.641683e+01	-2.376121e+02
2.640000e-06	-2.522342e-06	-4.146042e-09	-1.745441e+01	-2.725929e+02
2.650000e-06	-2.671332e-06	-4.656547e-09	-1.848542e+01	-3.063580e+02
2.660000e-06	-2.819351e-06	-5.153801e-09	-1.950969e+01	-3.386873e+02
2.670000e-06	-2.966435e-06	-5.628906e-09	-2.052750e+01	-3.694283e+02
2.680000e-06	-3.112428e-06	-6.069972e-09	-2.153776e+01	-3.984982e+02
2.690000e-06	-3.257159e-06	-6.479285e-09	-2.253929e+01	-4.258807e+02
2.700000e-06	-3.400622e-06	-6.868083e-09	-2.353205e+01	-4.516171e+02
2.710000e-06	-3.542808e-06	-7.242136e-09	-2.451596e+01	-4.757937e+02
2.720000e-06	-3.683645e-06	-7.596229e-09	-2.549054e+01	-4.985268e+02
2.730000e-06	-3.823100e-06	-7.925722e-09	-2.645556e+01	-5.199481e+02
2.740000e-06	-3.961169e-06	-8.234950e-09	-2.741098e+01	-5.401898e+02
2.750000e-06	-4.097811e-06	-8.530871e-09	-2.835654e+01	-5.593738e+02
2.760000e-06	-4.232865e-06	-8.817268e-09	-2.929110e+01	-5.776035e+02
2.770000e-06	-4.366392e-06	-9.090679e-09	-3.021510e+01	-5.949597e+02
2.780000e-06	-4.498441e-06	-9.344439e-09	-3.112887e+01	-6.115003e+02
2.790000e-06	-4.628898e-06	-9.578086e-09	-3.203162e+01	-6.272635e+02
2.800000e-06	-4.757834e-06	-9.802199e-09	-3.292384e+01	-6.422727e+02
2.810000e-06	-4.885104e-06	-1.002059e-08	-3.380455e+01	-6.565431e+02
2.820000e-06	-5.010648e-06	-1.022724e-08	-3.467330e+01	-6.700880e+02
2.830000e-06	-5.134536e-06	-1.041863e-08	-3.553060e+01	-6.829243e+02
2.840000e-06	-5.256612e-06	-1.059857e-08	-3.637535e+01	-6.950759e+02
2.850000e-06	-5.376720e-06	-1.077608e-08	-3.720649e+01	-7.065756e+02
2.860000e-06	-5.494716e-06	-1.095212e-08	-3.802301e+01	-7.174644e+02
2.870000e-06	-5.610556e-06	-1.111727e-08	-3.882462e+01	-7.277888e+02
2.880000e-06	-5.724121e-06	-1.126676e-08	-3.961048e+01	-7.375977e+02
2.890000e-06	-5.835395e-06	-1.140668e-08	-4.038048e+01	-7.469379e+02
2.900000e-06	-5.944545e-06	-1.154318e-08	-4.113580e+01	-7.558508e+02
2.910000e-06	-6.051626e-06	-1.167570e-08	-4.187679e+01	-7.643691e+02
2.920000e-06	-6.156559e-06	-1.179812e-08	-4.260291e+01	-7.725153e+02
2.930000e-06	-6.259188e-06	-1.191007e-08	-4.331310e+01	-7.803024e+02
2.940000e-06	-6.359512e-06	-1.201819e-08	-4.400734e+01	-7.877350e+02
