# Temperatura_=_20.0
# Concentracion g/m^3_=_12600.0
# C_Vs_to_Am_M_A/Vsm_=_65563218390.804596
# pendiente_HvsI_1/m_=_3716.3
# ordenada_HvsI_A/m_=_1297.0
# frecuencia_Hz_=_302314.25922501215

Tiempo_(s)	Campo_(V.s)	Magnetizacion_(V.s)	Campo_(kA/m)	Magnetizacion_(A/m)
0.000000e+00	-8.259387e-06	-1.450395e-08	-5.693209e+01	-9.499263e+02
1.000000e-08	-8.255861e-06	-1.449902e-08	-5.690778e+01	-9.495614e+02
2.000000e-08	-8.249717e-06	-1.449066e-08	-5.686544e+01	-9.490713e+02
3.000000e-08	-8.240802e-06	-1.448468e-08	-5.680398e+01	-9.484742e+02
4.000000e-08	-8.228899e-06	-1.447688e-08	-5.672194e+01	-9.477875e+02
5.000000e-08	-8.213998e-06	-1.446739e-08	-5.661922e+01	-9.470258e+02
6.000000e-08	-8.196287e-06	-1.445160e-08	-5.649714e+01	-9.461995e+02
7.000000e-08	-8.176113e-06	-1.443123e-08	-5.635808e+01	-9.453140e+02
8.000000e-08	-8.153304e-06	-1.446184e-08	-5.620086e+01	-9.443704e+02
9.000000e-08	-8.127295e-06	-1.445147e-08	-5.602158e+01	-9.433657e+02
1.000000e-07	-8.098053e-06	-1.439958e-08	-5.582002e+01	-9.422944e+02
1.100000e-07	-8.065757e-06	-1.436776e-08	-5.559740e+01	-9.411501e+02
1.200000e-07	-8.030519e-06	-1.434706e-08	-5.535450e+01	-9.399263e+02
1.300000e-07	-7.992731e-06	-1.431020e-08	-5.509403e+01	-9.386174e+02
1.400000e-07	-7.952717e-06	-1.426053e-08	-5.481821e+01	-9.372188e+02
1.500000e-07	-7.910249e-06	-1.432574e-08	-5.452548e+01	-9.357268e+02
1.600000e-07	-7.864999e-06	-1.423419e-08	-5.421357e+01	-9.341374e+02
1.700000e-07	-7.816985e-06	-1.418420e-08	-5.388260e+01	-9.324452e+02
1.800000e-07	-7.765902e-06	-1.423005e-08	-5.353049e+01	-9.306424e+02
1.900000e-07	-7.711714e-06	-1.414602e-08	-5.315697e+01	-9.287181e+02
2.000000e-07	-7.654718e-06	-1.413184e-08	-5.276410e+01	-9.266582e+02
2.100000e-07	-7.594933e-06	-1.407329e-08	-5.235200e+01	-9.244454e+02
2.200000e-07	-7.532423e-06	-1.404477e-08	-5.192111e+01	-9.220615e+02
2.300000e-07	-7.467156e-06	-1.401415e-08	-5.147123e+01	-9.194881e+02
2.400000e-07	-7.399027e-06	-1.394137e-08	-5.100162e+01	-9.167099e+02
2.500000e-07	-7.328047e-06	-1.392656e-08	-5.051235e+01	-9.137158e+02
2.600000e-07	-7.254224e-06	-1.387201e-08	-5.000349e+01	-9.105015e+02
2.700000e-07	-7.177523e-06	-1.381434e-08	-4.947478e+01	-9.070696e+02
2.800000e-07	-7.097983e-06	-1.374513e-08	-4.892651e+01	-9.034299e+02
2.900000e-07	-7.015816e-06	-1.371394e-08	-4.836013e+01	-8.995980e+02
3.000000e-07	-6.931245e-06	-1.366415e-08	-4.777719e+01	-8.955931e+02
3.100000e-07	-6.844211e-06	-1.356336e-08	-4.717726e+01	-8.914350e+02
3.200000e-07	-6.754652e-06	-1.351860e-08	-4.655993e+01	-8.871411e+02
3.300000e-07	-6.662622e-06	-1.345086e-08	-4.592557e+01	-8.827230e+02
3.400000e-07	-6.568212e-06	-1.338730e-08	-4.527480e+01	-8.781844e+02
3.500000e-07	-6.471473e-06	-1.330943e-08	-4.460797e+01	-8.735200e+02
3.600000e-07	-6.372334e-06	-1.323933e-08	-4.392460e+01	-8.687152e+02
3.700000e-07	-6.270853e-06	-1.315950e-08	-4.322509e+01	-8.637480e+02
3.800000e-07	-6.167093e-06	-1.306896e-08	-4.250987e+01	-8.585914e+02
3.900000e-07	-6.061179e-06	-1.300240e-08	-4.177980e+01	-8.532168e+02
4.000000e-07	-5.953202e-06	-1.291946e-08	-4.103552e+01	-8.475982e+02
4.100000e-07	-5.843088e-06	-1.282394e-08	-4.027650e+01	-8.417148e+02
4.200000e-07	-5.730759e-06	-1.270871e-08	-3.950222e+01	-8.355543e+02
4.300000e-07	-5.616283e-06	-1.262652e-08	-3.871313e+01	-8.291134e+02
4.400000e-07	-5.499716e-06	-1.253837e-08	-3.790964e+01	-8.223980e+02
4.500000e-07	-5.381116e-06	-1.243282e-08	-3.709212e+01	-8.154208e+02
4.600000e-07	-5.260552e-06	-1.231442e-08	-3.626107e+01	-8.081983e+02
4.700000e-07	-5.138069e-06	-1.220597e-08	-3.541679e+01	-8.007466e+02
4.800000e-07	-5.013784e-06	-1.209943e-08	-3.456010e+01	-7.930773e+02
4.900000e-07	-4.887745e-06	-1.197751e-08	-3.369131e+01	-7.851940e+02
5.000000e-07	-4.759947e-06	-1.185546e-08	-3.281039e+01	-7.770895e+02
5.100000e-07	-4.630366e-06	-1.171996e-08	-3.191719e+01	-7.687450e+02
5.200000e-07	-4.499029e-06	-1.158102e-08	-3.101188e+01	-7.601312e+02
5.300000e-07	-4.365998e-06	-1.143985e-08	-3.009490e+01	-7.512107e+02
5.400000e-07	-4.231437e-06	-1.130331e-08	-2.916736e+01	-7.419421e+02
5.500000e-07	-4.095331e-06	-1.115218e-08	-2.822918e+01	-7.322848e+02
5.600000e-07	-3.957606e-06	-1.099049e-08	-2.727985e+01	-7.222037e+02
5.700000e-07	-3.818268e-06	-1.082926e-08	-2.631938e+01	-7.116730e+02
5.800000e-07	-3.677262e-06	-1.067131e-08	-2.534743e+01	-7.006790e+02
5.900000e-07	-3.534738e-06	-1.050729e-08	-2.436501e+01	-6.892200e+02
6.000000e-07	-3.390893e-06	-1.032407e-08	-2.337348e+01	-6.773052e+02
6.100000e-07	-3.245848e-06	-1.013347e-08	-2.237368e+01	-6.649505e+02
6.200000e-07	-3.099608e-06	-9.938685e-09	-2.136565e+01	-6.521739e+02
6.300000e-07	-2.952198e-06	-9.743415e-09	-2.034955e+01	-6.389893e+02
6.400000e-07	-2.803788e-06	-9.537409e-09	-1.932656e+01	-6.254016e+02
6.500000e-07	-2.654429e-06	-9.319758e-09	-1.829702e+01	-6.114018e+02
6.600000e-07	-2.504212e-06	-9.091734e-09	-1.726157e+01	-5.969650e+02
6.700000e-07	-2.353216e-06	-8.859071e-09	-1.622076e+01	-5.820507e+02
6.800000e-07	-2.201315e-06	-8.626036e-09	-1.517370e+01	-5.666052e+02
6.900000e-07	-2.048507e-06	-8.381779e-09	-1.412039e+01	-5.505669e+02
7.000000e-07	-1.894972e-06	-8.121575e-09	-1.306207e+01	-5.338727e+02
7.100000e-07	-1.740824e-06	-7.846472e-09	-1.199953e+01	-5.164654e+02
7.200000e-07	-1.586148e-06	-7.571144e-09	-1.093335e+01	-4.982998e+02
7.300000e-07	-1.431001e-06	-7.292296e-09	-9.863914e+00	-4.793479e+02
7.400000e-07	-1.275398e-06	-6.996544e-09	-8.791338e+00	-4.596001e+02
7.500000e-07	-1.119331e-06	-6.680856e-09	-7.715566e+00	-4.390646e+02
7.600000e-07	-9.628479e-07	-6.353470e-09	-6.636926e+00	-4.177618e+02
7.700000e-07	-8.059648e-07	-6.021836e-09	-5.555529e+00	-3.957170e+02
7.800000e-07	-6.487128e-07	-5.681354e-09	-4.471588e+00	-3.729502e+02
7.900000e-07	-4.912736e-07	-5.323869e-09	-3.386357e+00	-3.494661e+02
8.000000e-07	-3.336962e-07	-4.946465e-09	-2.300174e+00	-3.252442e+02
8.100000e-07	-1.759211e-07	-4.556919e-09	-1.212627e+00	-3.002328e+02
8.200000e-07	-1.808202e-08	-4.158529e-09	-1.246397e-01	-2.743460e+02
8.300000e-07	1.397741e-07	-3.748398e-09	9.634655e-01	-2.474666e+02
8.400000e-07	2.976511e-07	-3.317433e-09	2.051714e+00	-2.194540e+02
8.500000e-07	4.554075e-07	-2.863419e-09	3.139131e+00	-1.901579e+02
8.600000e-07	6.130352e-07	-2.393464e-09	4.225662e+00	-1.594347e+02
8.700000e-07	7.705222e-07	-1.909846e-09	5.311222e+00	-1.271678e+02
8.800000e-07	9.277350e-07	-1.404982e-09	6.394892e+00	-9.328717e+01
8.900000e-07	1.084590e-06	-8.677960e-10	7.476098e+00	-5.778676e+01
9.000000e-07	1.241010e-06	-3.044040e-10	8.554304e+00	-2.073798e+01
9.100000e-07	1.396986e-06	2.783245e-10	9.629451e+00	1.770325e+01
9.200000e-07	1.552538e-06	8.778931e-10	1.070167e+01	5.729674e+01
9.300000e-07	1.707519e-06	1.496050e-09	1.176996e+01	9.772605e+01
9.400000e-07	1.861809e-06	2.129758e-09	1.283348e+01	1.386138e+02
9.500000e-07	2.015395e-06	2.765853e-09	1.389215e+01	1.795428e+02
9.600000e-07	2.168264e-06	3.388255e-09	1.494588e+01	2.200813e+02
9.700000e-07	2.320308e-06	3.989089e-09	1.599392e+01	2.598098e+02
9.800000e-07	2.471441e-06	4.572108e-09	1.703568e+01	2.983463e+02
9.900000e-07	2.621660e-06	5.133095e-09	1.807115e+01	3.353685e+02
1.000000e-06	2.770844e-06	5.665426e-09	1.909947e+01	3.706298e+02
1.010000e-06	2.918980e-06	6.162187e-09	2.012058e+01	4.039685e+02
1.020000e-06	3.066027e-06	6.626739e-09	2.113417e+01	4.353095e+02
1.030000e-06	3.211851e-06	7.067779e-09	2.213934e+01	4.646584e+02
1.040000e-06	3.356565e-06	7.487562e-09	2.313686e+01	4.920893e+02
1.050000e-06	3.500095e-06	7.880958e-09	2.412622e+01	5.177284e+02
1.060000e-06	3.642242e-06	8.247616e-09	2.510603e+01	5.417346e+02
1.070000e-06	3.782969e-06	8.591076e-09	2.607607e+01	5.642807e+02
1.080000e-06	3.922329e-06	8.919422e-09	2.703668e+01	5.855354e+02
1.090000e-06	4.060267e-06	9.234220e-09	2.798749e+01	6.056498e+02
1.100000e-06	4.196643e-06	9.530215e-09	2.892753e+01	6.247483e+02
1.110000e-06	4.331417e-06	9.804818e-09	2.985653e+01	6.429242e+02
1.120000e-06	4.464667e-06	1.006197e-08	3.077502e+01	6.602406e+02
1.130000e-06	4.596375e-06	1.030896e-08	3.168289e+01	6.767353e+02
1.140000e-06	4.726450e-06	1.054719e-08	3.257950e+01	6.924277e+02
1.150000e-06	4.854878e-06	1.077195e-08	3.346476e+01	7.073284e+02
1.160000e-06	4.981615e-06	1.098104e-08	3.433835e+01	7.214467e+02
1.170000e-06	5.106658e-06	1.117765e-08	3.520028e+01	7.347985e+02
1.180000e-06	5.229950e-06	1.136781e-08	3.605013e+01	7.474099e+02
1.190000e-06	5.351419e-06	1.155321e-08	3.688742e+01	7.593196e+02
1.200000e-06	5.470961e-06	1.172707e-08	3.771142e+01	7.705773e+02
1.210000e-06	5.588395e-06	1.188880e-08	3.852090e+01	7.812402e+02
1.220000e-06	5.703625e-06	1.204330e-08	3.931518e+01	7.913681e+02
1.230000e-06	5.816625e-06	1.219594e-08	4.009409e+01	8.010180e+02
1.240000e-06	5.927452e-06	1.234437e-08	4.085802e+01	8.102386e+02
1.250000e-06	6.036214e-06	1.248229e-08	4.160772e+01	8.190672e+02
1.260000e-06	6.142827e-06	1.260806e-08	4.234261e+01	8.275275e+02
1.270000e-06	6.247117e-06	1.273080e-08	4.306148e+01	8.356299e+02
1.280000e-06	6.349122e-06	1.285178e-08	4.376460e+01	8.433744e+02
1.290000e-06	6.448786e-06	1.296563e-08	4.445159e+01	8.507538e+02
1.300000e-06	6.546001e-06	1.306782e-08	4.512169e+01	8.577590e+02
1.310000e-06	6.640853e-06	1.316291e-08	4.577551e+01	8.643830e+02
1.320000e-06	6.733403e-06	1.325645e-08	4.641346e+01	8.706255e+02
1.330000e-06	6.823489e-06	1.334780e-08	4.703442e+01	8.764951e+02
1.340000e-06	6.911069e-06	1.343509e-08	4.763811e+01	8.820100e+02
1.350000e-06	6.996269e-06	1.351334e-08	4.822540e+01	8.871974e+02
1.360000e-06	7.079036e-06	1.358572e-08	4.879591e+01	8.920904e+02
1.370000e-06	7.159244e-06	1.365741e-08	4.934879e+01	8.967247e+02
1.380000e-06	7.236875e-06	1.372875e-08	4.988390e+01	9.011343e+02
1.390000e-06	7.311861e-06	1.379617e-08	5.040078e+01	9.053476e+02
1.400000e-06	7.384134e-06	1.385544e-08	5.089896e+01	9.093842e+02
1.410000e-06	7.453796e-06	1.391071e-08	5.137914e+01	9.132539e+02
1.420000e-06	7.520823e-06	1.396721e-08	5.184115e+01	9.169556e+02
1.430000e-06	7.585137e-06	1.402228e-08	5.228448e+01	9.204800e+02
1.440000e-06	7.646853e-06	1.407290e-08	5.270988e+01	9.238114e+02
1.450000e-06	7.705977e-06	1.411704e-08	5.311743e+01	9.269320e+02
1.460000e-06	7.762376e-06	1.415781e-08	5.350619e+01	9.298256e+02
1.470000e-06	7.815916e-06	1.419813e-08	5.387524e+01	9.324808e+02
1.480000e-06	7.866324e-06	1.423653e-08	5.422270e+01	9.348937e+02
1.490000e-06	7.913579e-06	1.427157e-08	5.454843e+01	9.370694e+02
1.500000e-06	7.958019e-06	1.430024e-08	5.485475e+01	9.390213e+02
1.510000e-06	7.999622e-06	1.432511e-08	5.514153e+01	9.407696e+02
1.520000e-06	8.038309e-06	1.435112e-08	5.540820e+01	9.423390e+02
1.530000e-06	8.074234e-06	1.437783e-08	5.565583e+01	9.437548e+02
1.540000e-06	8.107283e-06	1.439865e-08	5.588364e+01	9.450400e+02
1.550000e-06	8.137429e-06	1.441324e-08	5.609143e+01	9.462126e+02
1.560000e-06	8.164726e-06	1.442840e-08	5.627959e+01	9.472830e+02
1.570000e-06	8.188980e-06	1.444458e-08	5.644677e+01	9.482539e+02
1.580000e-06	8.210284e-06	1.445885e-08	5.659362e+01	9.491204e+02
1.590000e-06	8.228740e-06	1.446833e-08	5.672084e+01	9.498718e+02
1.600000e-06	8.244214e-06	1.447379e-08	5.682750e+01	9.504941e+02
1.610000e-06	8.256561e-06	1.447834e-08	5.691261e+01	9.509729e+02
1.620000e-06	8.265699e-06	1.448395e-08	5.697560e+01	9.512960e+02
1.630000e-06	8.271805e-06	1.448934e-08	5.701769e+01	9.514560e+02
1.640000e-06	8.275002e-06	1.448969e-08	5.703973e+01	9.514517e+02
1.650000e-06	8.275259e-06	1.448668e-08	5.704150e+01	9.512883e+02
1.660000e-06	8.272729e-06	1.447785e-08	5.702406e+01	9.509771e+02
1.670000e-06	8.267484e-06	1.447579e-08	5.698790e+01	9.505337e+02
1.680000e-06	8.259437e-06	1.447132e-08	5.693243e+01	9.499762e+02
1.690000e-06	8.248632e-06	1.446104e-08	5.685796e+01	9.493224e+02
1.700000e-06	8.234926e-06	1.445227e-08	5.676348e+01	9.485884e+02
1.710000e-06	8.218432e-06	1.445005e-08	5.664979e+01	9.477862e+02
1.720000e-06	8.199524e-06	1.444444e-08	5.651945e+01	9.469233e+02
1.730000e-06	8.178032e-06	1.436880e-08	5.637131e+01	9.460024e+02
1.740000e-06	8.153201e-06	1.435941e-08	5.620015e+01	9.450219e+02
1.750000e-06	8.124521e-06	1.436586e-08	5.600246e+01	9.439773e+02
1.760000e-06	8.092418e-06	1.433883e-08	5.578117e+01	9.428621e+02
1.770000e-06	8.057728e-06	1.432718e-08	5.554205e+01	9.416700e+02
1.780000e-06	8.020767e-06	1.436552e-08	5.528728e+01	9.403947e+02
1.790000e-06	7.981567e-06	1.428129e-08	5.501707e+01	9.390316e+02
1.800000e-06	7.940057e-06	1.424788e-08	5.473094e+01	9.375764e+02
1.810000e-06	7.895774e-06	1.430735e-08	5.442570e+01	9.360255e+02
1.820000e-06	7.848804e-06	1.420990e-08	5.410193e+01	9.343741e+02
1.830000e-06	7.799075e-06	1.427047e-08	5.375915e+01	9.326156e+02
1.840000e-06	7.746179e-06	1.419833e-08	5.339454e+01	9.307402e+02
1.850000e-06	7.690309e-06	1.416816e-08	5.300943e+01	9.287352e+02
1.860000e-06	7.631665e-06	1.418587e-08	5.260519e+01	9.265843e+02
1.870000e-06	7.570340e-06	1.407306e-08	5.218248e+01	9.242695e+02
1.880000e-06	7.506170e-06	1.412518e-08	5.174015e+01	9.217723e+02
1.890000e-06	7.439031e-06	1.402069e-08	5.127736e+01	9.190758e+02
1.900000e-06	7.368966e-06	1.395578e-08	5.079441e+01	9.161672e+02
1.910000e-06	7.296018e-06	1.392648e-08	5.029157e+01	9.130392e+02
1.920000e-06	7.220335e-06	1.388506e-08	4.976989e+01	9.096917e+02
1.930000e-06	7.141794e-06	1.387129e-08	4.922851e+01	9.061317e+02
1.940000e-06	7.060500e-06	1.373607e-08	4.866814e+01	9.023728e+02
1.950000e-06	6.976610e-06	1.372284e-08	4.808989e+01	8.984332e+02
1.960000e-06	6.890105e-06	1.364499e-08	4.749361e+01	8.943327e+02
1.970000e-06	6.801087e-06	1.359603e-08	4.688000e+01	8.900901e+02
1.980000e-06	6.709698e-06	1.354523e-08	4.625006e+01	8.857195e+02
1.990000e-06	6.616048e-06	1.345339e-08	4.560453e+01	8.812281e+02
2.000000e-06	6.520000e-06	1.338335e-08	4.494246e+01	8.766140e+02
2.010000e-06	6.421603e-06	1.328714e-08	4.426421e+01	8.718663e+02
2.020000e-06	6.320936e-06	1.326408e-08	4.357031e+01	8.669656e+02
2.030000e-06	6.217994e-06	1.317446e-08	4.286073e+01	8.618865e+02
2.040000e-06	6.112821e-06	1.307198e-08	4.213578e+01	8.566006e+02
2.050000e-06	6.005521e-06	1.296439e-08	4.139616e+01	8.510804e+02
2.060000e-06	5.896155e-06	1.290190e-08	4.064229e+01	8.453026e+02
2.070000e-06	5.784625e-06	1.282453e-08	3.987352e+01	8.392516e+02
2.080000e-06	5.670913e-06	1.271342e-08	3.908970e+01	8.329203e+02
2.090000e-06	5.555019e-06	1.260133e-08	3.829084e+01	8.263113e+02
2.100000e-06	5.437053e-06	1.248908e-08	3.747770e+01	8.194348e+02
2.110000e-06	5.317110e-06	1.239607e-08	3.665093e+01	8.123063e+02
2.120000e-06	5.195239e-06	1.229270e-08	3.581087e+01	8.049425e+02
2.130000e-06	5.071487e-06	1.218653e-08	3.495785e+01	7.973575e+02
2.140000e-06	4.945841e-06	1.204352e-08	3.409176e+01	7.895582e+02
2.150000e-06	4.818387e-06	1.192001e-08	3.321322e+01	7.815418e+02
2.160000e-06	4.689231e-06	1.180825e-08	3.232295e+01	7.732943e+02
2.170000e-06	4.558414e-06	1.169529e-08	3.142122e+01	7.647901e+02
2.180000e-06	4.425902e-06	1.154518e-08	3.050781e+01	7.559945e+02
2.190000e-06	4.291736e-06	1.138530e-08	2.958301e+01	7.468674e+02
2.200000e-06	4.156036e-06	1.124125e-08	2.864762e+01	7.373671e+02
2.210000e-06	4.018759e-06	1.110861e-08	2.770137e+01	7.274558e+02
2.220000e-06	3.879880e-06	1.096143e-08	2.674408e+01	7.171038e+02
2.230000e-06	3.739427e-06	1.078192e-08	2.577593e+01	7.062923e+02
2.240000e-06	3.597450e-06	1.059556e-08	2.479728e+01	6.950152e+02
2.250000e-06	3.454209e-06	1.042010e-08	2.380992e+01	6.832775e+02
2.260000e-06	3.309758e-06	1.025670e-08	2.281422e+01	6.710931e+02
2.270000e-06	3.164014e-06	1.007239e-08	2.180960e+01	6.584799e+02
2.280000e-06	3.017116e-06	9.864783e-09	2.079703e+01	6.454541e+02
2.290000e-06	2.869129e-06	9.648324e-09	1.977696e+01	6.320247e+02
2.300000e-06	2.720113e-06	9.444781e-09	1.874978e+01	6.181886e+02
2.310000e-06	2.570146e-06	9.241570e-09	1.771606e+01	6.039271e+02
2.320000e-06	2.419313e-06	9.018159e-09	1.667637e+01	5.892059e+02
2.330000e-06	2.267697e-06	8.768516e-09	1.563128e+01	5.739758e+02
2.340000e-06	2.115340e-06	8.512390e-09	1.458107e+01	5.581776e+02
2.350000e-06	1.962268e-06	8.267767e-09	1.352595e+01	5.417481e+02
2.360000e-06	1.808493e-06	8.022619e-09	1.246597e+01	5.246268e+02
2.370000e-06	1.654097e-06	7.750589e-09	1.140172e+01	5.067632e+02
2.380000e-06	1.499172e-06	7.453629e-09	1.033382e+01	4.881220e+02
2.390000e-06	1.343778e-06	7.154892e-09	9.262685e+00	4.686865e+02
2.400000e-06	1.187882e-06	6.861306e-09	8.188089e+00	4.484583e+02
2.410000e-06	1.031494e-06	6.559002e-09	7.110102e+00	4.274536e+02
2.420000e-06	8.746679e-07	6.230067e-09	6.029101e+00	4.056971e+02
2.430000e-06	7.175532e-07	5.876036e-09	4.946106e+00	3.832120e+02
2.440000e-06	5.602896e-07	5.515871e-09	3.862086e+00	3.600103e+02
2.450000e-06	4.028050e-07	5.159409e-09	2.776542e+00	3.360822e+02
2.460000e-06	2.451166e-07	4.788573e-09	1.689593e+00	3.113890e+02
2.470000e-06	8.735637e-08	4.386248e-09	6.021489e-01	2.858582e+02
2.480000e-06	-7.044965e-08	3.962643e-09	-4.856106e-01	2.593841e+02
2.490000e-06	-2.282644e-07	3.538671e-09	-1.573430e+00	2.318342e+02
2.500000e-06	-3.859685e-07	3.112190e-09	-2.660487e+00	2.030599e+02
2.510000e-06	-5.435647e-07	2.660721e-09	-3.746801e+00	1.729128e+02
2.520000e-06	-7.010701e-07	2.172848e-09	-4.832487e+00	1.412635e+02
2.530000e-06	-8.583573e-07	1.659759e-09	-5.916671e+00	1.080211e+02
2.540000e-06	-1.015292e-06	1.138638e-09	-6.998423e+00	7.315275e+01
2.550000e-06	-1.171854e-06	6.030385e-10	-8.077607e+00	3.669810e+01
2.560000e-06	-1.327958e-06	3.395482e-11	-9.153633e+00	-1.220479e+00
2.570000e-06	-1.483532e-06	-5.715930e-10	-1.022601e+01	-4.039539e+01
2.580000e-06	-1.638633e-06	-1.196011e-09	-1.129512e+01	-8.053870e+01
2.590000e-06	-1.793158e-06	-1.822642e-09	-1.236027e+01	-1.212947e+02
2.600000e-06	-1.946917e-06	-2.449910e-09	-1.342013e+01	-1.622591e+02
2.610000e-06	-2.099858e-06	-3.079941e-09	-1.447436e+01	-2.030026e+02
2.620000e-06	-2.252002e-06	-3.705148e-09	-1.552308e+01	-2.430978e+02
2.630000e-06	-2.403313e-06	-4.307729e-09	-1.656607e+01	-2.821451e+02
2.640000e-06	-2.553729e-06	-4.875799e-09	-1.760290e+01	-3.197964e+02
2.650000e-06	-2.703210e-06	-5.413451e-09	-1.863327e+01	-3.557739e+02
2.660000e-06	-2.851678e-06	-5.934012e-09	-1.965666e+01	-3.898819e+02
2.670000e-06	-2.999063e-06	-6.433126e-09	-2.067259e+01	-4.220116e+02
2.680000e-06	-3.145314e-06	-6.894135e-09	-2.168070e+01	-4.521381e+02
2.690000e-06	-3.290391e-06	-7.315790e-09	-2.268072e+01	-4.803102e+02
2.700000e-06	-3.434227e-06	-7.712626e-09	-2.367218e+01	-5.066360e+02
2.710000e-06	-3.576759e-06	-8.094676e-09	-2.465466e+01	-5.312638e+02
2.720000e-06	-3.717955e-06	-8.458313e-09	-2.562792e+01	-5.543631e+02
2.730000e-06	-3.857752e-06	-8.795814e-09	-2.659155e+01	-5.761061e+02
2.740000e-06	-3.996054e-06	-9.108089e-09	-2.754487e+01	-5.966524e+02
2.750000e-06	-4.132853e-06	-9.403746e-09	-2.848783e+01	-6.161374e+02
2.760000e-06	-4.268240e-06	-9.691461e-09	-2.942105e+01	-6.346669e+02
2.770000e-06	-4.402165e-06	-9.969425e-09	-3.034419e+01	-6.523156e+02
2.780000e-06	-4.534465e-06	-1.022613e-08	-3.125614e+01	-6.691302e+02
2.790000e-06	-4.665195e-06	-1.046129e-08	-3.215727e+01	-6.851366e+02
2.800000e-06	-4.794410e-06	-1.068748e-08	-3.304795e+01	-7.003476e+02
2.810000e-06	-4.921952e-06	-1.091084e-08	-3.392709e+01	-7.147722e+02
2.820000e-06	-5.047765e-06	-1.112412e-08	-3.479433e+01	-7.284230e+02
2.830000e-06	-5.171787e-06	-1.131865e-08	-3.564921e+01	-7.413216e+02
2.840000e-06	-5.294010e-06	-1.149866e-08	-3.649169e+01	-7.535020e+02
2.850000e-06	-5.414303e-06	-1.167434e-08	-3.732088e+01	-7.650096e+02
2.860000e-06	-5.532466e-06	-1.184684e-08	-3.813538e+01	-7.758993e+02
2.870000e-06	-5.648433e-06	-1.201104e-08	-3.893474e+01	-7.862307e+02
2.880000e-06	-5.762157e-06	-1.216193e-08	-3.971864e+01	-7.960623e+02
2.890000e-06	-5.873642e-06	-1.230120e-08	-4.048711e+01	-8.054468e+02
2.900000e-06	-5.982910e-06	-1.243796e-08	-4.124030e+01	-8.144261e+02
2.910000e-06	-6.090059e-06	-1.257378e-08	-4.197888e+01	-8.230294e+02
2.920000e-06	-6.195061e-06	-1.270082e-08	-4.270266e+01	-8.312722e+02
2.930000e-06	-6.297735e-06	-1.281580e-08	-4.341039e+01	-8.391582e+02
2.940000e-06	-6.398042e-06	-1.292358e-08	-4.410181e+01	-8.466824e+02
