# Temperatura_=_20.0
# Concentracion g/m^3_=_12600.0
# C_Vs_to_Am_M_A/Vsm_=_65563218390.804596
# pendiente_HvsI_1/m_=_3716.3
# ordenada_HvsI_A/m_=_1297.0
# frecuencia_Hz_=_302317.0637136153

Tiempo_(s)	Campo_(V.s)	Magnetizacion_(V.s)	Campo_(kA/m)	Magnetizacion_(A/m)
0.000000e+00	-8.224160e-06	-1.502071e-08	-5.693525e+01	-9.838948e+02
1.000000e-08	-8.221483e-06	-1.501881e-08	-5.691672e+01	-9.835420e+02
2.000000e-08	-8.216065e-06	-1.501088e-08	-5.687921e+01	-9.830495e+02
3.000000e-08	-8.207943e-06	-1.500070e-08	-5.682298e+01	-9.824342e+02
4.000000e-08	-8.196928e-06	-1.499328e-08	-5.674673e+01	-9.817136e+02
5.000000e-08	-8.182979e-06	-1.498442e-08	-5.665016e+01	-9.809039e+02
6.000000e-08	-8.166140e-06	-1.497122e-08	-5.653359e+01	-9.800181e+02
7.000000e-08	-8.146744e-06	-1.495219e-08	-5.639931e+01	-9.790659e+02
8.000000e-08	-8.124872e-06	-1.493864e-08	-5.624789e+01	-9.780525e+02
9.000000e-08	-8.099931e-06	-1.496214e-08	-5.607523e+01	-9.769799e+02
1.000000e-07	-8.071720e-06	-1.495136e-08	-5.587992e+01	-9.758469e+02
1.100000e-07	-8.040464e-06	-1.489440e-08	-5.566354e+01	-9.746507e+02
1.200000e-07	-8.006176e-06	-1.485540e-08	-5.542617e+01	-9.733873e+02
1.300000e-07	-7.969146e-06	-1.482996e-08	-5.516981e+01	-9.720522e+02
1.400000e-07	-7.929903e-06	-1.478498e-08	-5.489814e+01	-9.706406e+02
1.500000e-07	-7.888426e-06	-1.476226e-08	-5.461099e+01	-9.691470e+02
1.600000e-07	-7.844215e-06	-1.481571e-08	-5.430493e+01	-9.675646e+02
1.700000e-07	-7.797206e-06	-1.472209e-08	-5.397949e+01	-9.658840e+02
1.800000e-07	-7.747315e-06	-1.467326e-08	-5.363409e+01	-9.640931e+02
1.900000e-07	-7.694225e-06	-1.471483e-08	-5.326655e+01	-9.621762e+02
2.000000e-07	-7.638230e-06	-1.463786e-08	-5.287890e+01	-9.601145e+02
2.100000e-07	-7.579512e-06	-1.461024e-08	-5.247241e+01	-9.578870e+02
2.200000e-07	-7.518076e-06	-1.455850e-08	-5.204709e+01	-9.554716e+02
2.300000e-07	-7.453956e-06	-1.450744e-08	-5.160319e+01	-9.528476e+02
2.400000e-07	-7.387020e-06	-1.447178e-08	-5.113980e+01	-9.499981e+02
2.500000e-07	-7.317293e-06	-1.442237e-08	-5.065708e+01	-9.469116e+02
2.600000e-07	-7.244688e-06	-1.439075e-08	-5.015444e+01	-9.435841e+02
2.700000e-07	-7.169174e-06	-1.431546e-08	-4.963166e+01	-9.400196e+02
2.800000e-07	-7.090851e-06	-1.425058e-08	-4.908944e+01	-9.362301e+02
2.900000e-07	-7.009781e-06	-1.419170e-08	-4.852820e+01	-9.322338e+02
3.000000e-07	-6.926247e-06	-1.415699e-08	-4.794990e+01	-9.280528e+02
3.100000e-07	-6.840358e-06	-1.409785e-08	-4.735530e+01	-9.237100e+02
3.200000e-07	-6.751978e-06	-1.398683e-08	-4.674345e+01	-9.192254e+02
3.300000e-07	-6.661105e-06	-1.393093e-08	-4.611434e+01	-9.146132e+02
3.400000e-07	-6.567893e-06	-1.387736e-08	-4.546904e+01	-9.098791e+02
3.500000e-07	-6.472336e-06	-1.380535e-08	-4.480751e+01	-9.050189e+02
3.600000e-07	-6.374291e-06	-1.371623e-08	-4.412874e+01	-9.000187e+02
3.700000e-07	-6.273932e-06	-1.363602e-08	-4.343397e+01	-8.948563e+02
3.800000e-07	-6.171392e-06	-1.355120e-08	-4.272409e+01	-8.895041e+02
3.900000e-07	-6.066615e-06	-1.345956e-08	-4.199873e+01	-8.839324e+02
4.000000e-07	-5.959701e-06	-1.338706e-08	-4.125857e+01	-8.781137e+02
4.100000e-07	-5.850722e-06	-1.328973e-08	-4.050412e+01	-8.720259e+02
4.200000e-07	-5.739641e-06	-1.317514e-08	-3.973511e+01	-8.656553e+02
4.300000e-07	-5.626362e-06	-1.306541e-08	-3.895089e+01	-8.589980e+02
4.400000e-07	-5.510841e-06	-1.298510e-08	-3.815115e+01	-8.520591e+02
4.500000e-07	-5.393305e-06	-1.288775e-08	-3.733745e+01	-8.448515e+02
4.600000e-07	-5.273879e-06	-1.276492e-08	-3.651068e+01	-8.373921e+02
4.700000e-07	-5.152520e-06	-1.264066e-08	-3.567052e+01	-8.296979e+02
4.800000e-07	-5.029249e-06	-1.252901e-08	-3.481712e+01	-8.217816e+02
4.900000e-07	-4.904198e-06	-1.241449e-08	-3.395140e+01	-8.136478e+02
5.000000e-07	-4.777510e-06	-1.228477e-08	-3.307435e+01	-8.052900e+02
5.100000e-07	-4.649055e-06	-1.214997e-08	-3.218507e+01	-7.966901e+02
5.200000e-07	-4.518783e-06	-1.200163e-08	-3.128320e+01	-7.878184e+02
5.300000e-07	-4.386798e-06	-1.185566e-08	-3.036948e+01	-7.786373e+02
5.400000e-07	-4.253256e-06	-1.171424e-08	-2.944498e+01	-7.691045e+02
5.500000e-07	-4.118215e-06	-1.156760e-08	-2.851010e+01	-7.591783e+02
5.600000e-07	-3.981555e-06	-1.140242e-08	-2.756401e+01	-7.488225e+02
5.700000e-07	-3.843312e-06	-1.123017e-08	-2.660696e+01	-7.380106e+02
5.800000e-07	-3.703496e-06	-1.106316e-08	-2.563903e+01	-7.267284e+02
5.900000e-07	-3.562106e-06	-1.089726e-08	-2.466020e+01	-7.149746e+02
6.000000e-07	-3.419296e-06	-1.071712e-08	-2.367153e+01	-7.027590e+02
6.100000e-07	-3.275160e-06	-1.051625e-08	-2.267370e+01	-6.900992e+02
6.200000e-07	-3.129774e-06	-1.031194e-08	-2.166719e+01	-6.770149e+02
6.300000e-07	-2.983296e-06	-1.011285e-08	-2.065314e+01	-6.635218e+02
6.400000e-07	-2.835832e-06	-9.909285e-09	-1.963226e+01	-6.496261e+02
6.500000e-07	-2.687346e-06	-9.686283e-09	-1.860430e+01	-6.353195e+02
6.600000e-07	-2.537919e-06	-9.451146e-09	-1.756983e+01	-6.205767e+02
6.700000e-07	-2.387720e-06	-9.212752e-09	-1.653001e+01	-6.053552e+02
6.800000e-07	-2.236805e-06	-8.971209e-09	-1.548523e+01	-5.895984e+02
6.900000e-07	-2.085088e-06	-8.721875e-09	-1.443491e+01	-5.732403e+02
7.000000e-07	-1.932541e-06	-8.457174e-09	-1.337884e+01	-5.562125e+02
7.100000e-07	-1.779272e-06	-8.176986e-09	-1.231777e+01	-5.384523e+02
7.200000e-07	-1.625402e-06	-7.890592e-09	-1.125254e+01	-5.199092e+02
7.300000e-07	-1.471054e-06	-7.605265e-09	-1.018400e+01	-5.005509e+02
7.400000e-07	-1.316249e-06	-7.308083e-09	-9.112296e+00	-4.803652e+02
7.500000e-07	-1.160949e-06	-6.989018e-09	-8.037162e+00	-4.593589e+02
7.600000e-07	-1.005200e-06	-6.653165e-09	-6.958924e+00	-4.375538e+02
7.700000e-07	-8.491394e-07	-6.311276e-09	-5.878530e+00	-4.149777e+02
7.800000e-07	-6.927512e-07	-5.962601e-09	-4.795866e+00	-3.916549e+02
7.900000e-07	-5.360220e-07	-5.596065e-09	-3.710841e+00	-3.675942e+02
8.000000e-07	-3.790763e-07	-5.210788e-09	-2.624317e+00	-3.427793e+02
8.100000e-07	-2.219739e-07	-4.810429e-09	-1.536709e+00	-3.171605e+02
8.200000e-07	-6.477261e-08	-4.400389e-09	-4.484160e-01	-2.906517e+02
8.300000e-07	9.249492e-08	-3.980389e-09	6.403355e-01	-2.631316e+02
8.400000e-07	2.497962e-07	-3.542066e-09	1.729320e+00	-2.344522e+02
8.500000e-07	4.070075e-07	-3.077847e-09	2.817683e+00	-2.044511e+02
8.600000e-07	5.640764e-07	-2.593071e-09	3.905060e+00	-1.729701e+02
8.700000e-07	7.209903e-07	-2.095338e-09	4.991363e+00	-1.398755e+02
8.800000e-07	8.776645e-07	-1.578863e-09	6.076007e+00	-1.050791e+02
8.900000e-07	1.033979e-06	-1.030902e-09	7.158162e+00	-6.855825e+01
9.000000e-07	1.189879e-06	-4.495166e-10	8.237447e+00	-3.037036e+01
9.100000e-07	1.345359e-06	1.547189e-10	9.313819e+00	9.337699e+00
9.200000e-07	1.500382e-06	7.770018e-10	1.038704e+01	5.032850e+01
9.300000e-07	1.654948e-06	1.416413e-09	1.145708e+01	9.228104e+01
9.400000e-07	1.808886e-06	2.072704e-09	1.252279e+01	1.348056e+02
9.500000e-07	1.962020e-06	2.734876e-09	1.358292e+01	1.774654e+02
9.600000e-07	2.114398e-06	3.385485e-09	1.463782e+01	2.198025e+02
9.700000e-07	2.265989e-06	4.015478e-09	1.568727e+01	2.613666e+02
9.800000e-07	2.416702e-06	4.624712e-09	1.673065e+01	3.017422e+02
9.900000e-07	2.566509e-06	5.212895e-09	1.776775e+01	3.405734e+02
1.000000e-06	2.715326e-06	5.772330e-09	1.879800e+01	3.775818e+02
1.010000e-06	2.863080e-06	6.299361e-09	1.982089e+01	4.125787e+02
1.020000e-06	3.009781e-06	6.791238e-09	2.083649e+01	4.454677e+02
1.030000e-06	3.155371e-06	7.251445e-09	2.184440e+01	4.762403e+02
1.040000e-06	3.299827e-06	7.686337e-09	2.284446e+01	5.049643e+02
1.050000e-06	3.443123e-06	8.096344e-09	2.383649e+01	5.317669e+02
1.060000e-06	3.585073e-06	8.480420e-09	2.481919e+01	5.568144e+02
1.070000e-06	3.725603e-06	8.837998e-09	2.579208e+01	5.802920e+02
1.080000e-06	3.864753e-06	9.178224e-09	2.675540e+01	6.023843e+02
1.090000e-06	4.002447e-06	9.504288e-09	2.770865e+01	6.232597e+02
1.100000e-06	4.138618e-06	9.812159e-09	2.865135e+01	6.430593e+02
1.110000e-06	4.273225e-06	1.009887e-08	2.958322e+01	6.618918e+02
1.120000e-06	4.406324e-06	1.036705e-08	3.050466e+01	6.798323e+02
1.130000e-06	4.537938e-06	1.062389e-08	3.141581e+01	6.969275e+02
1.140000e-06	4.667979e-06	1.086986e-08	3.231607e+01	7.132024e+02
1.150000e-06	4.796359e-06	1.110298e-08	3.320484e+01	7.286696e+02
1.160000e-06	4.923014e-06	1.132158e-08	3.408166e+01	7.433387e+02
1.170000e-06	5.048029e-06	1.152678e-08	3.494714e+01	7.572237e+02
1.180000e-06	5.171411e-06	1.172235e-08	3.580130e+01	7.703490e+02
1.190000e-06	5.292926e-06	1.191191e-08	3.664254e+01	7.827517e+02
1.200000e-06	5.412441e-06	1.209317e-08	3.746993e+01	7.944808e+02
1.210000e-06	5.529976e-06	1.226273e-08	3.828362e+01	8.055942e+02
1.220000e-06	5.645425e-06	1.242406e-08	3.908286e+01	8.161538e+02
1.230000e-06	5.758622e-06	1.258148e-08	3.986652e+01	8.262194e+02
1.240000e-06	5.869575e-06	1.273499e-08	4.063463e+01	8.358432e+02
1.250000e-06	5.978416e-06	1.287881e-08	4.138813e+01	8.450657e+02
1.260000e-06	6.085179e-06	1.301186e-08	4.212724e+01	8.539132e+02
1.270000e-06	6.189738e-06	1.314026e-08	4.285110e+01	8.623975e+02
1.280000e-06	6.292003e-06	1.326582e-08	4.355908e+01	8.705183e+02
1.290000e-06	6.391949e-06	1.338473e-08	4.425099e+01	8.782668e+02
1.300000e-06	6.489469e-06	1.349357e-08	4.492612e+01	8.856308e+02
1.310000e-06	6.584553e-06	1.359698e-08	4.558438e+01	8.925998e+02
1.320000e-06	6.677349e-06	1.369727e-08	4.622679e+01	8.991697e+02
1.330000e-06	6.767838e-06	1.379286e-08	4.685324e+01	9.053457e+02
1.340000e-06	6.855850e-06	1.388283e-08	4.746254e+01	9.111442e+02
1.350000e-06	6.941418e-06	1.396457e-08	4.805493e+01	9.165919e+02
1.360000e-06	7.024601e-06	1.404073e-08	4.863079e+01	9.217237e+02
1.370000e-06	7.105266e-06	1.411539e-08	4.918924e+01	9.265788e+02
1.380000e-06	7.183354e-06	1.418720e-08	4.972983e+01	9.311960e+02
1.390000e-06	7.258853e-06	1.425546e-08	5.025250e+01	9.356099e+02
1.400000e-06	7.331573e-06	1.431974e-08	5.075594e+01	9.398466e+02
1.410000e-06	7.401582e-06	1.438121e-08	5.124061e+01	9.439213e+02
1.420000e-06	7.469047e-06	1.444183e-08	5.170766e+01	9.478376e+02
1.430000e-06	7.533836e-06	1.449958e-08	5.215619e+01	9.515887e+02
1.440000e-06	7.595974e-06	1.455263e-08	5.258637e+01	9.551594e+02
1.450000e-06	7.655613e-06	1.460006e-08	5.299925e+01	9.585297e+02
1.460000e-06	7.712605e-06	1.464489e-08	5.339380e+01	9.616794e+02
1.470000e-06	7.766757e-06	1.468827e-08	5.376869e+01	9.645915e+02
1.480000e-06	7.817833e-06	1.472964e-08	5.412228e+01	9.672555e+02
1.490000e-06	7.865711e-06	1.476730e-08	5.445374e+01	9.696696e+02
1.500000e-06	7.910758e-06	1.480106e-08	5.476559e+01	9.718412e+02
1.510000e-06	7.953053e-06	1.483194e-08	5.505840e+01	9.737857e+02
1.520000e-06	7.992420e-06	1.486041e-08	5.533094e+01	9.755247e+02
1.530000e-06	8.029026e-06	1.488672e-08	5.558436e+01	9.770828e+02
1.540000e-06	8.062831e-06	1.490826e-08	5.581839e+01	9.784843e+02
1.550000e-06	8.093685e-06	1.492601e-08	5.603198e+01	9.797499e+02
1.560000e-06	8.121727e-06	1.494265e-08	5.622612e+01	9.808945e+02
1.570000e-06	8.146822e-06	1.495837e-08	5.639985e+01	9.819254e+02
1.580000e-06	8.168920e-06	1.497177e-08	5.655284e+01	9.828427e+02
1.590000e-06	8.188162e-06	1.498345e-08	5.668605e+01	9.836398e+02
1.600000e-06	8.204384e-06	1.499191e-08	5.679835e+01	9.843058e+02
1.610000e-06	8.217512e-06	1.499806e-08	5.688923e+01	9.848276e+02
1.620000e-06	8.227467e-06	1.500264e-08	5.695815e+01	9.851933e+02
1.630000e-06	8.234330e-06	1.500473e-08	5.700566e+01	9.853938e+02
1.640000e-06	8.238364e-06	1.500457e-08	5.703359e+01	9.854254e+02
1.650000e-06	8.239507e-06	1.500367e-08	5.704150e+01	9.852901e+02
1.660000e-06	8.237805e-06	1.500101e-08	5.702972e+01	9.849961e+02
1.670000e-06	8.233423e-06	1.499319e-08	5.699938e+01	9.845563e+02
1.680000e-06	8.226234e-06	1.498696e-08	5.694962e+01	9.839868e+02
1.690000e-06	8.216266e-06	1.497812e-08	5.688060e+01	9.833053e+02
1.700000e-06	8.203484e-06	1.496932e-08	5.679211e+01	9.825285e+02
1.710000e-06	8.187840e-06	1.496359e-08	5.668382e+01	9.816710e+02
1.720000e-06	8.169703e-06	1.496160e-08	5.655826e+01	9.807437e+02
1.730000e-06	8.149188e-06	1.494209e-08	5.641623e+01	9.797537e+02
1.740000e-06	8.125635e-06	1.486321e-08	5.625318e+01	9.787040e+02
1.750000e-06	8.098305e-06	1.484729e-08	5.606397e+01	9.775948e+02
1.760000e-06	8.067278e-06	1.486342e-08	5.584917e+01	9.764235e+02
1.770000e-06	8.033340e-06	1.483725e-08	5.561422e+01	9.751867e+02
1.780000e-06	7.997129e-06	1.482918e-08	5.536353e+01	9.738801e+02
1.790000e-06	7.958710e-06	1.485889e-08	5.509756e+01	9.724989e+02
1.800000e-06	7.918101e-06	1.475198e-08	5.481643e+01	9.710380e+02
1.810000e-06	7.874942e-06	1.471626e-08	5.451764e+01	9.694911e+02
1.820000e-06	7.829041e-06	1.478569e-08	5.419987e+01	9.678500e+02
1.830000e-06	7.780421e-06	1.470728e-08	5.386328e+01	9.661039e+02
1.840000e-06	7.728679e-06	1.474562e-08	5.350508e+01	9.642383e+02
1.850000e-06	7.673901e-06	1.467714e-08	5.312585e+01	9.622356e+02
1.860000e-06	7.616302e-06	1.462893e-08	5.272710e+01	9.600756e+02
1.870000e-06	7.555995e-06	1.464597e-08	5.230960e+01	9.577363e+02
1.880000e-06	7.492948e-06	1.455514e-08	5.187312e+01	9.551962e+02
1.890000e-06	7.426965e-06	1.457747e-08	5.141633e+01	9.524368e+02
1.900000e-06	7.358102e-06	1.446281e-08	5.093960e+01	9.494440e+02
1.910000e-06	7.286325e-06	1.439408e-08	5.044269e+01	9.462109e+02
1.920000e-06	7.211816e-06	1.439640e-08	4.992687e+01	9.427382e+02
1.930000e-06	7.134491e-06	1.434513e-08	4.939155e+01	9.390350e+02
1.940000e-06	7.054292e-06	1.429346e-08	4.883635e+01	9.351172e+02
1.950000e-06	6.971597e-06	1.415643e-08	4.826385e+01	9.310057e+02
1.960000e-06	6.886295e-06	1.414664e-08	4.767331e+01	9.267235e+02
1.970000e-06	6.798355e-06	1.408922e-08	4.706451e+01	9.222922e+02
1.980000e-06	6.707994e-06	1.401773e-08	4.643895e+01	9.177287e+02
1.990000e-06	6.615355e-06	1.395799e-08	4.579762e+01	9.130421e+02
2.000000e-06	6.520350e-06	1.384762e-08	4.513991e+01	9.082323e+02
2.010000e-06	6.422993e-06	1.377840e-08	4.446591e+01	9.032890e+02
2.020000e-06	6.323431e-06	1.370472e-08	4.377665e+01	8.981932e+02
2.030000e-06	6.221574e-06	1.366628e-08	4.307150e+01	8.929188e+02
2.040000e-06	6.117435e-06	1.354840e-08	4.235055e+01	8.874365e+02
2.050000e-06	6.011152e-06	1.343434e-08	4.161477e+01	8.817176e+02
2.060000e-06	5.902883e-06	1.335376e-08	4.086522e+01	8.757374e+02
2.070000e-06	5.792529e-06	1.328300e-08	4.010125e+01	8.694786e+02
2.080000e-06	5.679944e-06	1.318341e-08	3.932184e+01	8.629335e+02
2.090000e-06	5.565163e-06	1.305090e-08	3.852721e+01	8.561038e+02
2.100000e-06	5.448259e-06	1.294052e-08	3.771790e+01	8.489996e+02
2.110000e-06	5.329267e-06	1.283747e-08	3.689412e+01	8.416367e+02
2.120000e-06	5.208334e-06	1.274565e-08	3.605691e+01	8.340326e+02
2.130000e-06	5.085619e-06	1.262533e-08	3.520736e+01	8.262023e+02
2.140000e-06	4.961078e-06	1.249202e-08	3.434518e+01	8.181537e+02
2.150000e-06	4.834735e-06	1.234997e-08	3.347051e+01	8.098852e+02
2.160000e-06	4.706621e-06	1.223733e-08	3.258359e+01	8.013830e+02
2.170000e-06	4.576787e-06	1.211930e-08	3.168476e+01	7.926219e+02
2.180000e-06	4.445302e-06	1.197243e-08	3.077450e+01	7.835671e+02
2.190000e-06	4.312218e-06	1.180464e-08	2.985317e+01	7.741772e+02
2.200000e-06	4.177573e-06	1.164820e-08	2.892103e+01	7.644100e+02
2.210000e-06	4.041332e-06	1.151143e-08	2.797784e+01	7.542265e+02
2.220000e-06	3.903489e-06	1.136416e-08	2.702357e+01	7.435959e+02
2.230000e-06	3.764145e-06	1.118974e-08	2.605890e+01	7.324990e+02
2.240000e-06	3.623303e-06	1.099254e-08	2.508386e+01	7.209296e+02
2.250000e-06	3.481028e-06	1.081209e-08	2.409890e+01	7.088934e+02
2.260000e-06	3.337491e-06	1.064114e-08	2.310520e+01	6.964055e+02
2.270000e-06	3.192618e-06	1.045654e-08	2.210226e+01	6.834854e+02
2.280000e-06	3.046508e-06	1.024278e-08	2.109075e+01	6.701512e+02
2.290000e-06	2.899402e-06	1.002202e-08	2.007235e+01	6.564135e+02
2.300000e-06	2.751374e-06	9.809172e-09	1.904756e+01	6.422700e+02
2.310000e-06	2.602398e-06	9.601231e-09	1.801621e+01	6.277025e+02
2.320000e-06	2.452479e-06	9.378241e-09	1.697833e+01	6.126749e+02
2.330000e-06	2.301712e-06	9.127800e-09	1.593459e+01	5.971356e+02
2.340000e-06	2.150214e-06	8.864379e-09	1.488577e+01	5.810216e+02
2.350000e-06	1.998023e-06	8.610406e-09	1.383216e+01	5.642645e+02
2.360000e-06	1.845100e-06	8.361104e-09	1.277349e+01	5.467986e+02
2.370000e-06	1.691461e-06	8.086883e-09	1.170986e+01	5.285678e+02
2.380000e-06	1.537276e-06	7.783244e-09	1.064245e+01	5.095321e+02
2.390000e-06	1.382686e-06	7.473685e-09	9.572230e+00	4.896713e+02
2.400000e-06	1.227675e-06	7.170921e-09	8.499103e+00	4.689852e+02
2.410000e-06	1.072238e-06	6.861963e-09	7.423027e+00	4.474904e+02
2.420000e-06	9.164011e-07	6.529764e-09	6.344177e+00	4.252136e+02
2.430000e-06	7.602707e-07	6.169869e-09	5.263298e+00	4.021817e+02
2.440000e-06	6.039167e-07	5.799853e-09	4.180871e+00	3.784109e+02
2.450000e-06	4.472655e-07	5.432442e-09	3.096386e+00	3.538960e+02
2.460000e-06	2.903498e-07	5.054193e-09	2.010071e+00	3.286010e+02
2.470000e-06	1.333185e-07	4.645002e-09	9.229542e-01	3.024542e+02
2.480000e-06	-2.375337e-08	4.210251e-09	-1.644429e-01	2.753475e+02
2.490000e-06	-1.808042e-07	3.771773e-09	-1.251694e+00	2.471422e+02
2.500000e-06	-3.377687e-07	3.330441e-09	-2.338348e+00	2.176795e+02
2.510000e-06	-4.946073e-07	2.868324e-09	-3.424130e+00	1.867975e+02
2.520000e-06	-6.513093e-07	2.372982e-09	-4.508967e+00	1.543500e+02
2.530000e-06	-8.078637e-07	1.850114e-09	-5.592781e+00	1.202286e+02
2.540000e-06	-9.641730e-07	1.311305e-09	-6.674899e+00	8.438280e+01
2.550000e-06	-1.120111e-06	7.562073e-10	-7.754443e+00	4.683707e+01
2.560000e-06	-1.275575e-06	1.714874e-10	-8.830712e+00	7.702568e+00
2.570000e-06	-1.430529e-06	-4.505620e-10	-9.903446e+00	-3.281848e+01
2.580000e-06	-1.585023e-06	-1.097077e-09	-1.097300e+01	-7.443657e+01
2.590000e-06	-1.739039e-06	-1.751071e-09	-1.203924e+01	-1.167867e+02
2.600000e-06	-1.892453e-06	-2.408832e-09	-1.310131e+01	-1.594477e+02
2.610000e-06	-2.045071e-06	-3.068880e-09	-1.415788e+01	-2.019666e+02
2.620000e-06	-2.196825e-06	-3.721054e-09	-1.520845e+01	-2.438868e+02
2.630000e-06	-2.347804e-06	-4.351572e-09	-1.625367e+01	-2.847758e+02
2.640000e-06	-2.497896e-06	-4.950674e-09	-1.729275e+01	-3.242518e+02
2.650000e-06	-2.647006e-06	-5.515790e-09	-1.832503e+01	-3.620042e+02
2.660000e-06	-2.795144e-06	-6.055270e-09	-1.935058e+01	-3.978083e+02
2.670000e-06	-2.942246e-06	-6.573488e-09	-2.036895e+01	-4.315313e+02
2.680000e-06	-3.088274e-06	-7.059349e-09	-2.137989e+01	-4.631315e+02
2.690000e-06	-3.233124e-06	-7.505011e-09	-2.238268e+01	-4.926483e+02
2.700000e-06	-3.376792e-06	-7.918956e-09	-2.337728e+01	-5.201878e+02
2.710000e-06	-3.519237e-06	-8.314145e-09	-2.436342e+01	-5.459036e+02
2.720000e-06	-3.660278e-06	-8.692197e-09	-2.533983e+01	-5.699758e+02
2.730000e-06	-3.799867e-06	-9.045334e-09	-2.630620e+01	-5.925913e+02
2.740000e-06	-3.938029e-06	-9.371792e-09	-2.726269e+01	-6.139265e+02
2.750000e-06	-4.074729e-06	-9.680593e-09	-2.820905e+01	-6.341343e+02
2.760000e-06	-4.209922e-06	-9.977959e-09	-2.914498e+01	-6.533362e+02
2.770000e-06	-4.343631e-06	-1.026338e-08	-3.007064e+01	-6.716204e+02
2.780000e-06	-4.475870e-06	-1.053179e-08	-3.098612e+01	-6.890440e+02
2.790000e-06	-4.606600e-06	-1.077859e-08	-3.189115e+01	-7.056395e+02
2.800000e-06	-4.735773e-06	-1.101062e-08	-3.278541e+01	-7.214232e+02
2.810000e-06	-4.863313e-06	-1.123693e-08	-3.366836e+01	-7.364048e+02
2.820000e-06	-4.989088e-06	-1.145495e-08	-3.453909e+01	-7.505958e+02
2.830000e-06	-5.113068e-06	-1.165928e-08	-3.539740e+01	-7.640162e+02
2.840000e-06	-5.235265e-06	-1.184933e-08	-3.624335e+01	-7.766978e+02
2.850000e-06	-5.355598e-06	-1.203174e-08	-3.707641e+01	-7.886853e+02
2.860000e-06	-5.473880e-06	-1.221236e-08	-3.789527e+01	-8.000336e+02
2.870000e-06	-5.589963e-06	-1.238575e-08	-3.869890e+01	-8.108037e+02
2.880000e-06	-5.703795e-06	-1.254474e-08	-3.948695e+01	-8.210568e+02
2.890000e-06	-5.815381e-06	-1.269248e-08	-4.025945e+01	-8.308489e+02
2.900000e-06	-5.924783e-06	-1.283580e-08	-4.101684e+01	-8.402255e+02
2.910000e-06	-6.032107e-06	-1.297587e-08	-4.175983e+01	-8.492184e+02
2.920000e-06	-6.137329e-06	-1.310759e-08	-4.248827e+01	-8.578451e+02
2.930000e-06	-6.240282e-06	-1.322807e-08	-4.320101e+01	-8.661096e+02
2.940000e-06	-6.340864e-06	-1.334076e-08	-4.389734e+01	-8.740060e+02
