# Temperatura_=_20.0
# Concentracion g/m^3_=_12600.0
# C_Vs_to_Am_M_A/Vsm_=_65563218390.804596
# pendiente_HvsI_1/m_=_3716.3
# ordenada_HvsI_A/m_=_1297.0
# frecuencia_Hz_=_302308.16147798183

Tiempo_(s)	Campo_(V.s)	Magnetizacion_(V.s)	Campo_(kA/m)	Magnetizacion_(A/m)
0.000000e+00	-8.230984e-06	-1.372500e-08	-5.693458e+01	-8.989700e+02
1.000000e-08	-8.227739e-06	-1.372415e-08	-5.691213e+01	-8.986366e+02
2.000000e-08	-8.221869e-06	-1.371363e-08	-5.687153e+01	-8.981861e+02
3.000000e-08	-8.213309e-06	-1.370458e-08	-5.681232e+01	-8.976348e+02
4.000000e-08	-8.201819e-06	-1.369833e-08	-5.673284e+01	-8.969980e+02
5.000000e-08	-8.187357e-06	-1.368892e-08	-5.663281e+01	-8.962884e+02
6.000000e-08	-8.170006e-06	-1.367078e-08	-5.651279e+01	-8.955145e+02
7.000000e-08	-8.150189e-06	-1.364357e-08	-5.637571e+01	-8.946806e+02
8.000000e-08	-8.127864e-06	-1.366002e-08	-5.622129e+01	-8.937865e+02
9.000000e-08	-8.102373e-06	-1.369082e-08	-5.604496e+01	-8.928288e+02
1.000000e-07	-8.073585e-06	-1.364886e-08	-5.584583e+01	-8.918017e+02
1.100000e-07	-8.041768e-06	-1.359329e-08	-5.562576e+01	-8.906990e+02
1.200000e-07	-8.006949e-06	-1.357020e-08	-5.538491e+01	-8.895143e+02
1.300000e-07	-7.969454e-06	-1.354352e-08	-5.512555e+01	-8.882428e+02
1.400000e-07	-7.929879e-06	-1.349209e-08	-5.485180e+01	-8.868811e+02
1.500000e-07	-7.887960e-06	-1.354073e-08	-5.456184e+01	-8.854266e+02
1.600000e-07	-7.843199e-06	-1.352609e-08	-5.425223e+01	-8.838772e+02
1.700000e-07	-7.795696e-06	-1.340027e-08	-5.392365e+01	-8.822298e+02
1.800000e-07	-7.745168e-06	-1.344245e-08	-5.357414e+01	-8.804794e+02
1.900000e-07	-7.691492e-06	-1.342126e-08	-5.320286e+01	-8.786180e+02
2.000000e-07	-7.634994e-06	-1.337182e-08	-5.281206e+01	-8.766346e+02
2.100000e-07	-7.575693e-06	-1.334168e-08	-5.240186e+01	-8.745150e+02
2.200000e-07	-7.513741e-06	-1.327728e-08	-5.197334e+01	-8.722436e+02
2.300000e-07	-7.449094e-06	-1.326157e-08	-5.152617e+01	-8.698039e+02
2.400000e-07	-7.381552e-06	-1.320527e-08	-5.105897e+01	-8.671815e+02
2.500000e-07	-7.311222e-06	-1.318534e-08	-5.057249e+01	-8.643651e+02
2.600000e-07	-7.238013e-06	-1.313897e-08	-5.006610e+01	-8.613488e+02
2.700000e-07	-7.161897e-06	-1.307332e-08	-4.953959e+01	-8.581329e+02
2.800000e-07	-7.082950e-06	-1.301314e-08	-4.899351e+01	-8.547238e+02
2.900000e-07	-7.001314e-06	-1.296745e-08	-4.842882e+01	-8.511331e+02
3.000000e-07	-6.917216e-06	-1.294814e-08	-4.784711e+01	-8.473761e+02
3.100000e-07	-6.830684e-06	-1.285323e-08	-4.724856e+01	-8.434693e+02
3.200000e-07	-6.741674e-06	-1.277920e-08	-4.663287e+01	-8.394271e+02
3.300000e-07	-6.650228e-06	-1.273681e-08	-4.600032e+01	-8.352599e+02
3.400000e-07	-6.556482e-06	-1.268658e-08	-4.535188e+01	-8.309714e+02
3.500000e-07	-6.460366e-06	-1.261114e-08	-4.468703e+01	-8.265574e+02
3.600000e-07	-6.361811e-06	-1.252673e-08	-4.400531e+01	-8.220059e+02
3.700000e-07	-6.260980e-06	-1.245782e-08	-4.330786e+01	-8.172983e+02
3.800000e-07	-6.157898e-06	-1.237491e-08	-4.259483e+01	-8.124114e+02
3.900000e-07	-6.052543e-06	-1.230835e-08	-4.186607e+01	-8.073202e+02
4.000000e-07	-5.945093e-06	-1.223767e-08	-4.112283e+01	-8.020017e+02
4.100000e-07	-5.835673e-06	-1.214561e-08	-4.036596e+01	-7.964374e+02
4.200000e-07	-5.724145e-06	-1.203368e-08	-3.959451e+01	-7.906156e+02
4.300000e-07	-5.610401e-06	-1.194680e-08	-3.880773e+01	-7.845327e+02
4.400000e-07	-5.494487e-06	-1.187844e-08	-3.800595e+01	-7.781930e+02
4.500000e-07	-5.376519e-06	-1.178408e-08	-3.718995e+01	-7.716070e+02
4.600000e-07	-5.256590e-06	-1.166302e-08	-3.636038e+01	-7.647885e+02
4.700000e-07	-5.134774e-06	-1.155012e-08	-3.551777e+01	-7.577511e+02
4.800000e-07	-5.011111e-06	-1.145548e-08	-3.466238e+01	-7.505048e+02
4.900000e-07	-4.885709e-06	-1.134817e-08	-3.379496e+01	-7.430521e+02
5.000000e-07	-4.758621e-06	-1.122816e-08	-3.291588e+01	-7.353864e+02
5.100000e-07	-4.629698e-06	-1.109839e-08	-3.202410e+01	-7.274905e+02
5.200000e-07	-4.498966e-06	-1.096648e-08	-3.111982e+01	-7.193378e+02
5.300000e-07	-4.366582e-06	-1.083952e-08	-3.020411e+01	-7.108942e+02
5.400000e-07	-4.232691e-06	-1.071737e-08	-2.927797e+01	-7.021221e+02
5.500000e-07	-4.097268e-06	-1.057541e-08	-2.834123e+01	-6.929842e+02
5.600000e-07	-3.960208e-06	-1.041369e-08	-2.739318e+01	-6.834482e+02
5.700000e-07	-3.821558e-06	-1.025381e-08	-2.643412e+01	-6.734901e+02
5.800000e-07	-3.681334e-06	-1.010657e-08	-2.546417e+01	-6.630968e+02
5.900000e-07	-3.539569e-06	-9.955582e-09	-2.448357e+01	-6.522662e+02
6.000000e-07	-3.396369e-06	-9.779881e-09	-2.349304e+01	-6.410063e+02
6.100000e-07	-3.251909e-06	-9.590833e-09	-2.249380e+01	-6.293315e+02
6.200000e-07	-3.106270e-06	-9.407310e-09	-2.148639e+01	-6.172582e+02
6.300000e-07	-2.959461e-06	-9.230051e-09	-2.047090e+01	-6.047997e+02
6.400000e-07	-2.811658e-06	-9.038765e-09	-1.944853e+01	-5.919605e+02
6.500000e-07	-2.662944e-06	-8.828365e-09	-1.841987e+01	-5.787332e+02
6.600000e-07	-2.513359e-06	-8.609215e-09	-1.738517e+01	-5.650952e+02
6.700000e-07	-2.362962e-06	-8.392057e-09	-1.634485e+01	-5.510095e+02
6.800000e-07	-2.211782e-06	-8.172967e-09	-1.529913e+01	-5.364266e+02
6.900000e-07	-2.059785e-06	-7.941369e-09	-1.424775e+01	-5.212891e+02
7.000000e-07	-1.906948e-06	-7.692253e-09	-1.319056e+01	-5.055383e+02
7.100000e-07	-1.753410e-06	-7.430607e-09	-1.212852e+01	-4.891202e+02
7.200000e-07	-1.599240e-06	-7.170543e-09	-1.106211e+01	-4.719926e+02
7.300000e-07	-1.444612e-06	-6.909862e-09	-9.992532e+00	-4.541291e+02
7.400000e-07	-1.289636e-06	-6.631694e-09	-8.920546e+00	-4.355217e+02
7.500000e-07	-1.134161e-06	-6.329983e-09	-7.845113e+00	-4.161804e+02
7.600000e-07	-9.782375e-07	-6.020944e-09	-6.766571e+00	-3.961280e+02
7.700000e-07	-8.219853e-07	-5.713359e-09	-5.685759e+00	-3.753943e+02
7.800000e-07	-6.653971e-07	-5.397229e-09	-4.602621e+00	-3.540062e+02
7.900000e-07	-5.085556e-07	-5.059736e-09	-3.517732e+00	-3.319780e+02
8.000000e-07	-3.515442e-07	-4.702811e-09	-2.431668e+00	-3.093023e+02
8.100000e-07	-1.943404e-07	-4.338026e-09	-1.344273e+00	-2.859427e+02
8.200000e-07	-3.701096e-08	-3.969295e-09	-2.560087e-01	-2.618305e+02
8.300000e-07	1.203857e-07	-3.591039e-09	8.327204e-01	-2.368656e+02
8.400000e-07	2.777520e-07	-3.191203e-09	1.921240e+00	-2.109229e+02
8.500000e-07	4.350183e-07	-2.769979e-09	3.009067e+00	-1.838633e+02
8.600000e-07	5.921558e-07	-2.336514e-09	4.096004e+00	-1.555490e+02
8.700000e-07	7.491155e-07	-1.893582e-09	5.181710e+00	-1.258606e+02
8.800000e-07	9.058474e-07	-1.430032e-09	6.265841e+00	-9.471623e+01
8.900000e-07	1.062226e-06	-9.343168e-10	7.347529e+00	-6.208799e+01
9.000000e-07	1.218155e-06	-4.121062e-10	8.426108e+00	-2.801573e+01
9.100000e-07	1.373578e-06	1.257599e-10	9.501184e+00	7.384754e+00
9.200000e-07	1.528537e-06	6.765355e-10	1.057305e+01	4.391997e+01
9.300000e-07	1.683060e-06	1.247052e-09	1.164190e+01	8.132396e+01
9.400000e-07	1.837036e-06	1.836394e-09	1.270697e+01	1.192703e+02
9.500000e-07	1.990241e-06	2.430258e-09	1.376671e+01	1.573902e+02
9.600000e-07	2.142526e-06	3.010300e-09	1.482008e+01	1.952938e+02
9.700000e-07	2.293963e-06	3.571497e-09	1.586758e+01	2.325951e+02
9.800000e-07	2.444637e-06	4.120201e-09	1.690981e+01	2.689343e+02
9.900000e-07	2.594441e-06	4.654823e-09	1.794602e+01	3.039998e+02
1.000000e-06	2.743207e-06	5.163216e-09	1.897505e+01	3.375437e+02
1.010000e-06	2.890884e-06	5.637273e-09	1.999655e+01	3.693921e+02
1.020000e-06	3.037520e-06	6.081378e-09	2.101084e+01	3.994489e+02
1.030000e-06	3.183041e-06	6.504511e-09	2.201743e+01	4.276921e+02
1.040000e-06	3.327345e-06	6.909592e-09	2.301559e+01	4.541650e+02
1.050000e-06	3.470445e-06	7.289928e-09	2.400543e+01	4.789623e+02
1.060000e-06	3.612274e-06	7.642620e-09	2.498648e+01	5.022138e+02
1.070000e-06	3.752676e-06	7.973143e-09	2.595765e+01	5.240672e+02
1.080000e-06	3.891596e-06	8.292759e-09	2.691858e+01	5.446724e+02
1.090000e-06	4.029090e-06	8.599364e-09	2.786964e+01	5.641677e+02
1.100000e-06	4.165129e-06	8.884001e-09	2.881063e+01	5.826710e+02
1.110000e-06	4.299662e-06	9.147864e-09	2.974122e+01	6.002745e+02
1.120000e-06	4.432701e-06	9.397904e-09	3.066146e+01	6.170441e+02
1.130000e-06	4.564122e-06	9.639897e-09	3.157051e+01	6.330224e+02
1.140000e-06	4.693897e-06	9.872000e-09	3.246818e+01	6.482345e+02
1.150000e-06	4.822083e-06	1.009006e-08	3.335486e+01	6.626952e+02
1.160000e-06	4.948577e-06	1.029286e-08	3.422983e+01	6.764161e+02
1.170000e-06	5.073378e-06	1.048355e-08	3.509309e+01	6.894124e+02
1.180000e-06	5.196437e-06	1.066866e-08	3.594430e+01	7.017066e+02
1.190000e-06	5.317659e-06	1.084818e-08	3.678281e+01	7.133312e+02
1.200000e-06	5.436964e-06	1.101639e-08	3.760805e+01	7.243279e+02
1.210000e-06	5.554198e-06	1.117235e-08	3.841897e+01	7.347454e+02
1.220000e-06	5.669264e-06	1.132336e-08	3.921490e+01	7.446351e+02
1.230000e-06	5.782170e-06	1.147417e-08	3.999588e+01	7.540472e+02
1.240000e-06	5.892919e-06	1.162067e-08	4.076194e+01	7.630257e+02
1.250000e-06	6.001567e-06	1.175568e-08	4.151347e+01	7.716057e+02
1.260000e-06	6.108047e-06	1.187904e-08	4.225000e+01	7.798114e+02
1.270000e-06	6.212265e-06	1.199818e-08	4.297089e+01	7.876562e+02
1.280000e-06	6.314284e-06	1.211386e-08	4.367656e+01	7.951443e+02
1.290000e-06	6.413975e-06	1.222257e-08	4.436614e+01	8.022739e+02
1.300000e-06	6.511253e-06	1.232065e-08	4.503902e+01	8.090409e+02
1.310000e-06	6.606139e-06	1.241144e-08	4.569535e+01	8.154430e+02
1.320000e-06	6.698634e-06	1.250048e-08	4.633515e+01	8.214827e+02
1.330000e-06	6.788740e-06	1.258836e-08	4.695843e+01	8.271700e+02
1.340000e-06	6.876380e-06	1.267287e-08	4.756465e+01	8.325226e+02
1.350000e-06	6.961664e-06	1.275069e-08	4.815456e+01	8.375657e+02
1.360000e-06	7.044568e-06	1.282187e-08	4.872802e+01	8.423293e+02
1.370000e-06	7.124897e-06	1.289027e-08	4.928366e+01	8.468456e+02
1.380000e-06	7.202664e-06	1.295797e-08	4.982158e+01	8.511450e+02
1.390000e-06	7.277731e-06	1.302308e-08	5.034083e+01	8.552533e+02
1.400000e-06	7.350014e-06	1.308189e-08	5.084082e+01	8.591885e+02
1.410000e-06	7.419689e-06	1.313659e-08	5.132277e+01	8.629595e+02
1.420000e-06	7.486797e-06	1.319088e-08	5.178696e+01	8.665664e+02
1.430000e-06	7.551247e-06	1.324246e-08	5.223277e+01	8.700010e+02
1.440000e-06	7.613079e-06	1.329019e-08	5.266047e+01	8.732501e+02
1.450000e-06	7.672300e-06	1.333409e-08	5.307011e+01	8.762980e+02
1.460000e-06	7.728770e-06	1.337591e-08	5.346071e+01	8.791301e+02
1.470000e-06	7.782357e-06	1.341607e-08	5.383138e+01	8.817359e+02
1.480000e-06	7.832851e-06	1.345413e-08	5.418066e+01	8.841117e+02
1.490000e-06	7.880253e-06	1.348884e-08	5.450853e+01	8.862611e+02
1.500000e-06	7.924853e-06	1.351845e-08	5.481704e+01	8.881953e+02
1.510000e-06	7.966624e-06	1.354398e-08	5.510598e+01	8.899318e+02
1.520000e-06	8.005512e-06	1.356665e-08	5.537496e+01	8.914918e+02
1.530000e-06	8.041658e-06	1.358912e-08	5.562499e+01	8.928978e+02
1.540000e-06	8.074969e-06	1.361018e-08	5.585540e+01	8.941703e+02
1.550000e-06	8.105385e-06	1.362715e-08	5.606580e+01	8.953257e+02
1.560000e-06	8.133007e-06	1.364362e-08	5.625687e+01	8.963740e+02
1.570000e-06	8.157632e-06	1.366071e-08	5.642720e+01	8.973184e+02
1.580000e-06	8.179245e-06	1.367538e-08	5.657670e+01	8.981558e+02
1.590000e-06	8.198040e-06	1.368489e-08	5.670670e+01	8.988778e+02
1.600000e-06	8.213831e-06	1.368951e-08	5.681593e+01	8.994734e+02
1.610000e-06	8.226449e-06	1.369403e-08	5.690321e+01	8.999308e+02
1.620000e-06	8.235892e-06	1.369793e-08	5.696853e+01	9.002404e+02
1.630000e-06	8.242329e-06	1.369946e-08	5.701305e+01	9.003966e+02
1.640000e-06	8.245864e-06	1.369862e-08	5.703750e+01	9.003993e+02
1.650000e-06	8.246441e-06	1.369875e-08	5.704150e+01	9.002537e+02
1.660000e-06	8.244258e-06	1.369417e-08	5.702640e+01	8.999704e+02
1.670000e-06	8.239381e-06	1.368987e-08	5.699266e+01	8.995637e+02
1.680000e-06	8.231711e-06	1.368530e-08	5.693961e+01	8.990498e+02
1.690000e-06	8.221333e-06	1.367683e-08	5.686782e+01	8.984446e+02
1.700000e-06	8.208058e-06	1.366872e-08	5.677600e+01	8.977620e+02
1.710000e-06	8.191935e-06	1.366659e-08	5.666448e+01	8.970124e+02
1.720000e-06	8.173412e-06	1.367136e-08	5.653635e+01	8.962015e+02
1.730000e-06	8.152375e-06	1.360617e-08	5.639083e+01	8.953310e+02
1.740000e-06	8.128120e-06	1.354418e-08	5.622306e+01	8.943986e+02
1.750000e-06	8.100053e-06	1.356787e-08	5.602892e+01	8.933993e+02
1.760000e-06	8.068387e-06	1.357352e-08	5.580988e+01	8.923268e+02
1.770000e-06	8.034037e-06	1.354796e-08	5.557228e+01	8.911746e+02
1.780000e-06	7.997417e-06	1.358340e-08	5.531897e+01	8.899375e+02
1.790000e-06	7.958525e-06	1.355613e-08	5.504995e+01	8.886113e+02
1.800000e-06	7.917465e-06	1.345371e-08	5.476593e+01	8.871932e+02
1.810000e-06	7.873742e-06	1.352227e-08	5.446350e+01	8.856811e+02
1.820000e-06	7.827241e-06	1.348249e-08	5.414185e+01	8.840724e+02
1.830000e-06	7.778057e-06	1.345663e-08	5.380163e+01	8.823629e+02
1.840000e-06	7.725739e-06	1.346271e-08	5.343975e+01	8.805460e+02
1.850000e-06	7.670374e-06	1.336436e-08	5.305678e+01	8.786117e+02
1.860000e-06	7.612245e-06	1.341613e-08	5.265469e+01	8.765472e+02
1.870000e-06	7.551468e-06	1.335292e-08	5.223430e+01	8.743371e+02
1.880000e-06	7.487886e-06	1.334535e-08	5.179449e+01	8.719651e+02
1.890000e-06	7.421357e-06	1.331413e-08	5.133431e+01	8.694158e+02
1.900000e-06	7.351911e-06	1.317984e-08	5.085394e+01	8.666763e+02
1.910000e-06	7.279555e-06	1.318150e-08	5.035344e+01	8.637386e+02
1.920000e-06	7.204507e-06	1.314408e-08	4.983433e+01	8.606005e+02
1.930000e-06	7.126605e-06	1.313665e-08	4.929547e+01	8.572658e+02
1.940000e-06	7.045881e-06	1.302445e-08	4.873710e+01	8.537445e+02
1.950000e-06	6.962667e-06	1.294097e-08	4.816150e+01	8.500506e+02
1.960000e-06	6.876841e-06	1.293452e-08	4.756783e+01	8.462005e+02
1.970000e-06	6.788475e-06	1.286573e-08	4.695659e+01	8.422097e+02
1.980000e-06	6.697742e-06	1.283665e-08	4.632898e+01	8.380905e+02
1.990000e-06	6.604683e-06	1.273415e-08	4.568528e+01	8.338494e+02
2.000000e-06	6.509180e-06	1.266014e-08	4.502468e+01	8.294853e+02
2.010000e-06	6.411320e-06	1.258621e-08	4.434778e+01	8.249895e+02
2.020000e-06	6.311240e-06	1.255347e-08	4.365551e+01	8.203455e+02
2.030000e-06	6.208850e-06	1.249452e-08	4.294727e+01	8.155317e+02
2.040000e-06	6.104224e-06	1.236689e-08	4.222356e+01	8.105234e+02
2.050000e-06	5.997522e-06	1.227124e-08	4.148549e+01	8.052965e+02
2.060000e-06	5.888840e-06	1.220475e-08	4.073373e+01	7.998303e+02
2.070000e-06	5.778071e-06	1.215920e-08	3.996752e+01	7.941102e+02
2.080000e-06	5.665157e-06	1.204979e-08	3.918649e+01	7.881295e+02
2.090000e-06	5.550001e-06	1.192915e-08	3.838994e+01	7.818895e+02
2.100000e-06	5.432628e-06	1.181398e-08	3.757806e+01	7.753985e+02
2.110000e-06	5.313179e-06	1.173719e-08	3.675181e+01	7.686693e+02
2.120000e-06	5.191865e-06	1.165316e-08	3.591267e+01	7.617161e+02
2.130000e-06	5.068759e-06	1.154288e-08	3.506114e+01	7.545508e+02
2.140000e-06	4.943747e-06	1.140339e-08	3.419642e+01	7.471792e+02
2.150000e-06	4.816961e-06	1.127620e-08	3.331943e+01	7.395983e+02
2.160000e-06	4.688461e-06	1.118482e-08	3.243058e+01	7.317953e+02
2.170000e-06	4.558317e-06	1.108051e-08	3.153035e+01	7.237469e+02
2.180000e-06	4.426513e-06	1.094052e-08	3.061866e+01	7.154217e+02
2.190000e-06	4.293020e-06	1.077475e-08	2.969527e+01	7.067829e+02
2.200000e-06	4.157919e-06	1.063706e-08	2.876076e+01	6.977927e+02
2.210000e-06	4.021251e-06	1.051809e-08	2.781541e+01	6.884162e+02
2.220000e-06	3.883010e-06	1.038796e-08	2.685919e+01	6.786258e+02
2.230000e-06	3.743221e-06	1.021264e-08	2.589225e+01	6.684040e+02
2.240000e-06	3.601974e-06	1.002491e-08	2.491523e+01	6.577445e+02
2.250000e-06	3.459386e-06	9.860891e-09	2.392894e+01	6.466515e+02
2.260000e-06	3.315502e-06	9.715511e-09	2.293368e+01	6.351375e+02
2.270000e-06	3.170288e-06	9.546893e-09	2.192921e+01	6.232186e+02
2.280000e-06	3.023916e-06	9.344126e-09	2.091674e+01	6.109099e+02
2.290000e-06	2.876578e-06	9.134450e-09	1.989759e+01	5.982202e+02
2.300000e-06	2.728277e-06	8.941594e-09	1.887178e+01	5.851469e+02
2.310000e-06	2.578949e-06	8.758535e-09	1.783886e+01	5.716736e+02
2.320000e-06	2.428718e-06	8.550425e-09	1.679969e+01	5.577688e+02
2.330000e-06	2.277718e-06	8.309711e-09	1.575521e+01	5.433875e+02
2.340000e-06	2.125925e-06	8.062661e-09	1.470524e+01	5.284746e+02
2.350000e-06	1.973377e-06	7.835830e-09	1.365006e+01	5.129713e+02
2.360000e-06	1.820146e-06	7.612430e-09	1.259014e+01	4.968210e+02
2.370000e-06	1.666307e-06	7.356831e-09	1.152602e+01	4.799759e+02
2.380000e-06	1.511908e-06	7.070705e-09	1.045803e+01	4.624032e+02
2.390000e-06	1.357030e-06	6.784821e-09	9.386721e+00	4.440875e+02
2.400000e-06	1.201758e-06	6.510881e-09	8.312689e+00	4.250321e+02
2.410000e-06	1.046067e-06	6.231508e-09	7.235757e+00	4.052554e+02
2.420000e-06	8.899985e-07	5.920831e-09	6.156213e+00	3.847855e+02
2.430000e-06	7.336744e-07	5.581783e-09	5.074903e+00	3.636516e+02
2.440000e-06	5.771828e-07	5.242858e-09	3.992434e+00	3.418741e+02
2.450000e-06	4.204452e-07	4.914942e-09	2.908263e+00	3.194551e+02
2.460000e-06	2.633838e-07	4.574006e-09	1.821854e+00	2.963703e+02
2.470000e-06	1.061263e-07	4.198068e-09	7.340867e-01	2.725637e+02
2.480000e-06	-5.120798e-08	3.799970e-09	-3.542110e-01	2.479472e+02
2.490000e-06	-2.085201e-07	3.404805e-09	-1.442356e+00	2.224045e+02
2.500000e-06	-3.657188e-07	3.011841e-09	-2.529715e+00	1.958003e+02
2.510000e-06	-5.227886e-07	2.596633e-09	-3.616184e+00	1.679943e+02
2.520000e-06	-6.796753e-07	2.144291e-09	-4.701385e+00	1.388577e+02
2.530000e-06	-8.362587e-07	1.669203e-09	-5.784489e+00	1.082917e+02
2.540000e-06	-9.925144e-07	1.191152e-09	-6.865327e+00	7.624538e+01
2.550000e-06	-1.148414e-06	7.037092e-10	-7.943698e+00	4.273064e+01
2.560000e-06	-1.303926e-06	1.845110e-10	-9.019391e+00	7.832861e+00
2.570000e-06	-1.459048e-06	-3.757337e-10	-1.009239e+01	-2.828476e+01
2.580000e-06	-1.613693e-06	-9.560790e-10	-1.116208e+01	-6.538365e+01
2.590000e-06	-1.767734e-06	-1.535182e-09	-1.222760e+01	-1.031593e+02
2.600000e-06	-1.921084e-06	-2.114775e-09	-1.328834e+01	-1.412571e+02
2.610000e-06	-2.073669e-06	-2.702606e-09	-1.434379e+01	-1.792928e+02
2.620000e-06	-2.225379e-06	-3.293122e-09	-1.539318e+01	-2.168758e+02
2.630000e-06	-2.376267e-06	-3.863690e-09	-1.643689e+01	-2.536335e+02
2.640000e-06	-2.526371e-06	-4.400626e-09	-1.747517e+01	-2.892331e+02
2.650000e-06	-2.675452e-06	-4.909767e-09	-1.850639e+01	-3.234000e+02
2.660000e-06	-2.823489e-06	-5.405623e-09	-1.953037e+01	-3.559306e+02
2.670000e-06	-2.970566e-06	-5.885611e-09	-2.054772e+01	-3.866981e+02
2.680000e-06	-3.116540e-06	-6.330499e-09	-2.155743e+01	-4.156523e+02
2.690000e-06	-3.261236e-06	-6.736314e-09	-2.255831e+01	-4.428121e+02
2.700000e-06	-3.404676e-06	-7.116514e-09	-2.355050e+01	-4.682541e+02
2.710000e-06	-3.546893e-06	-7.486275e-09	-2.453423e+01	-4.920961e+02
2.720000e-06	-3.687816e-06	-7.842343e-09	-2.550901e+01	-5.144810e+02
2.730000e-06	-3.827328e-06	-8.171368e-09	-2.647403e+01	-5.355594e+02
2.740000e-06	-3.965392e-06	-8.472320e-09	-2.742903e+01	-5.554756e+02
2.750000e-06	-4.101969e-06	-8.755878e-09	-2.837375e+01	-5.743565e+02
2.760000e-06	-4.237033e-06	-9.034654e-09	-2.930800e+01	-5.923045e+02
2.770000e-06	-4.370646e-06	-9.306573e-09	-3.023222e+01	-6.093957e+02
2.780000e-06	-4.502759e-06	-9.557980e-09	-3.114606e+01	-6.256813e+02
2.790000e-06	-4.633343e-06	-9.784853e-09	-3.204932e+01	-6.411926e+02
2.800000e-06	-4.762336e-06	-1.000172e-08	-3.294158e+01	-6.559473e+02
2.810000e-06	-4.889623e-06	-1.021951e-08	-3.382204e+01	-6.699577e+02
2.820000e-06	-5.015159e-06	-1.042998e-08	-3.469038e+01	-6.832367e+02
2.830000e-06	-5.138926e-06	-1.062045e-08	-3.554649e+01	-6.958037e+02
2.840000e-06	-5.260929e-06	-1.079291e-08	-3.639040e+01	-7.076871e+02
2.850000e-06	-5.381051e-06	-1.096119e-08	-3.722129e+01	-7.189253e+02
2.860000e-06	-5.499109e-06	-1.113096e-08	-3.803791e+01	-7.295645e+02
2.870000e-06	-5.614986e-06	-1.129388e-08	-3.883945e+01	-7.396557e+02
2.880000e-06	-5.728574e-06	-1.144162e-08	-3.962515e+01	-7.492501e+02
2.890000e-06	-5.839882e-06	-1.157565e-08	-4.039508e+01	-7.583944e+02
2.900000e-06	-5.949017e-06	-1.170716e-08	-4.114998e+01	-7.671278e+02
2.910000e-06	-6.056089e-06	-1.184111e-08	-4.189060e+01	-7.754787e+02
2.920000e-06	-6.161010e-06	-1.196678e-08	-4.261636e+01	-7.834646e+02
2.930000e-06	-6.263610e-06	-1.207734e-08	-4.332605e+01	-7.910930e+02
2.940000e-06	-6.363897e-06	-1.217818e-08	-4.401975e+01	-7.983642e+02
