# Temperatura_=_20.0
# Concentracion g/m^3_=_12600.0
# C_Vs_to_Am_M_A/Vsm_=_65563218390.804596
# pendiente_HvsI_1/m_=_3716.3
# ordenada_HvsI_A/m_=_1297.0
# frecuencia_Hz_=_302311.2821727709

Tiempo_(s)	Campo_(V.s)	Magnetizacion_(V.s)	Campo_(kA/m)	Magnetizacion_(A/m)
0.000000e+00	-8.228287e-06	-1.354103e-08	-5.693969e+01	-8.870988e+02
1.000000e-08	-8.225169e-06	-1.353771e-08	-5.691812e+01	-8.867757e+02
2.000000e-08	-8.219309e-06	-1.352906e-08	-5.687756e+01	-8.863294e+02
3.000000e-08	-8.210728e-06	-1.352048e-08	-5.681818e+01	-8.857768e+02
4.000000e-08	-8.199230e-06	-1.351285e-08	-5.673862e+01	-8.851344e+02
5.000000e-08	-8.184793e-06	-1.350401e-08	-5.663872e+01	-8.844166e+02
6.000000e-08	-8.167525e-06	-1.349091e-08	-5.651922e+01	-8.836345e+02
7.000000e-08	-8.147757e-06	-1.347371e-08	-5.638243e+01	-8.827949e+02
8.000000e-08	-8.125419e-06	-1.347239e-08	-5.622785e+01	-8.819001e+02
9.000000e-08	-8.099975e-06	-1.348247e-08	-5.605178e+01	-8.809488e+02
1.000000e-07	-8.071283e-06	-1.346524e-08	-5.585323e+01	-8.799370e+02
1.100000e-07	-8.039525e-06	-1.342678e-08	-5.563346e+01	-8.788593e+02
1.200000e-07	-8.004798e-06	-1.339585e-08	-5.539316e+01	-8.777101e+02
1.300000e-07	-7.967390e-06	-1.336843e-08	-5.513429e+01	-8.764841e+02
1.400000e-07	-7.927813e-06	-1.332572e-08	-5.486041e+01	-8.751774e+02
1.500000e-07	-7.885981e-06	-1.332973e-08	-5.457094e+01	-8.737863e+02
1.600000e-07	-7.841342e-06	-1.333950e-08	-5.426204e+01	-8.723077e+02
1.700000e-07	-7.793829e-06	-1.326300e-08	-5.393325e+01	-8.707372e+02
1.800000e-07	-7.743367e-06	-1.325015e-08	-5.358405e+01	-8.690685e+02
1.900000e-07	-7.689804e-06	-1.324482e-08	-5.321340e+01	-8.672925e+02
2.000000e-07	-7.633399e-06	-1.319844e-08	-5.282308e+01	-8.653969e+02
2.100000e-07	-7.574247e-06	-1.317865e-08	-5.241374e+01	-8.633663e+02
2.200000e-07	-7.512402e-06	-1.313052e-08	-5.198578e+01	-8.611832e+02
2.300000e-07	-7.447881e-06	-1.308204e-08	-5.153929e+01	-8.588297e+02
2.400000e-07	-7.380498e-06	-1.303821e-08	-5.107300e+01	-8.562893e+02
2.500000e-07	-7.310290e-06	-1.301189e-08	-5.058716e+01	-8.535489e+02
2.600000e-07	-7.237195e-06	-1.297530e-08	-5.008135e+01	-8.506007e+02
2.700000e-07	-7.161172e-06	-1.291729e-08	-4.955527e+01	-8.474431e+02
2.800000e-07	-7.082321e-06	-1.285371e-08	-4.900961e+01	-8.440815e+02
2.900000e-07	-7.000766e-06	-1.280066e-08	-4.844526e+01	-8.405275e+02
3.000000e-07	-6.916799e-06	-1.277431e-08	-4.786421e+01	-8.367971e+02
3.100000e-07	-6.830414e-06	-1.271321e-08	-4.726642e+01	-8.329085e+02
3.200000e-07	-6.741554e-06	-1.262566e-08	-4.665151e+01	-8.288791e+02
3.300000e-07	-6.650270e-06	-1.256631e-08	-4.601982e+01	-8.247231e+02
3.400000e-07	-6.556594e-06	-1.251776e-08	-4.537159e+01	-8.204482e+02
3.500000e-07	-6.460567e-06	-1.245346e-08	-4.470709e+01	-8.160547e+02
3.600000e-07	-6.362136e-06	-1.237605e-08	-4.402594e+01	-8.115345e+02
3.700000e-07	-6.261347e-06	-1.229785e-08	-4.332848e+01	-8.068719e+02
3.800000e-07	-6.158279e-06	-1.221770e-08	-4.261526e+01	-8.020455e+02
3.900000e-07	-6.053057e-06	-1.214672e-08	-4.188712e+01	-7.970304e+02
4.000000e-07	-5.945766e-06	-1.208265e-08	-4.114466e+01	-7.918021e+02
4.100000e-07	-5.836418e-06	-1.199569e-08	-4.038797e+01	-7.863389e+02
4.200000e-07	-5.724980e-06	-1.188569e-08	-3.961683e+01	-7.806253e+02
4.300000e-07	-5.611368e-06	-1.178999e-08	-3.883063e+01	-7.746528e+02
4.400000e-07	-5.495572e-06	-1.172039e-08	-3.802932e+01	-7.684211e+02
4.500000e-07	-5.377692e-06	-1.163484e-08	-3.721359e+01	-7.619364e+02
4.600000e-07	-5.257845e-06	-1.151859e-08	-3.638426e+01	-7.552097e+02
4.700000e-07	-5.136138e-06	-1.140340e-08	-3.554204e+01	-7.482534e+02
4.800000e-07	-5.012594e-06	-1.130427e-08	-3.468712e+01	-7.410780e+02
4.900000e-07	-4.887269e-06	-1.120433e-08	-3.381987e+01	-7.336884e+02
5.000000e-07	-4.760242e-06	-1.109146e-08	-3.294084e+01	-7.260816e+02
5.100000e-07	-4.631425e-06	-1.096252e-08	-3.204943e+01	-7.182454e+02
5.200000e-07	-4.500855e-06	-1.082311e-08	-3.114589e+01	-7.101581e+02
5.300000e-07	-4.368676e-06	-1.069330e-08	-3.023121e+01	-7.017902e+02
5.400000e-07	-4.234895e-06	-1.057196e-08	-2.930545e+01	-6.931078e+02
5.500000e-07	-4.099536e-06	-1.043458e-08	-2.836876e+01	-6.840758e+02
5.600000e-07	-3.962585e-06	-1.027549e-08	-2.742106e+01	-6.746620e+02
5.700000e-07	-3.824022e-06	-1.011415e-08	-2.646221e+01	-6.648412e+02
5.800000e-07	-3.683840e-06	-9.967013e-09	-2.549215e+01	-6.545972e+02
5.900000e-07	-3.542118e-06	-9.821056e-09	-2.451144e+01	-6.439241e+02
6.000000e-07	-3.399014e-06	-9.655219e-09	-2.352116e+01	-6.328257e+02
6.100000e-07	-3.254621e-06	-9.469509e-09	-2.252196e+01	-6.213126e+02
6.200000e-07	-3.108993e-06	-9.282957e-09	-2.151421e+01	-6.093986e+02
6.300000e-07	-2.962257e-06	-9.105106e-09	-2.049880e+01	-5.970958e+02
6.400000e-07	-2.814555e-06	-8.920236e-09	-1.947670e+01	-5.844096e+02
6.500000e-07	-2.665864e-06	-8.713540e-09	-1.844776e+01	-5.713351e+02
6.600000e-07	-2.516263e-06	-8.493592e-09	-1.741252e+01	-5.578540e+02
6.700000e-07	-2.365876e-06	-8.276342e-09	-1.637185e+01	-5.439342e+02
6.800000e-07	-2.214702e-06	-8.060843e-09	-1.532572e+01	-5.295314e+02
6.900000e-07	-2.062769e-06	-7.836094e-09	-1.427435e+01	-5.145931e+02
7.000000e-07	-1.910008e-06	-7.593203e-09	-1.321724e+01	-4.990635e+02
7.100000e-07	-1.756428e-06	-7.335077e-09	-1.215447e+01	-4.828903e+02
7.200000e-07	-1.602311e-06	-7.076242e-09	-1.108799e+01	-4.660304e+02
7.300000e-07	-1.447830e-06	-6.818939e-09	-1.001898e+01	-4.484549e+02
7.400000e-07	-1.292895e-06	-6.546902e-09	-8.946822e+00	-4.301518e+02
7.500000e-07	-1.137451e-06	-6.251643e-09	-7.871155e+00	-4.111259e+02
7.600000e-07	-9.815620e-07	-5.945179e-09	-6.792403e+00	-3.913958e+02
7.700000e-07	-8.253208e-07	-5.640370e-09	-5.711215e+00	-3.709879e+02
7.800000e-07	-6.687827e-07	-5.330860e-09	-4.627972e+00	-3.499281e+02
7.900000e-07	-5.120246e-07	-5.001625e-09	-3.543207e+00	-3.282329e+02
8.000000e-07	-3.551160e-07	-4.651616e-09	-2.457401e+00	-3.059002e+02
8.100000e-07	-1.980017e-07	-4.290313e-09	-1.370171e+00	-2.829021e+02
8.200000e-07	-4.072293e-08	-3.924188e-09	-2.818024e-01	-2.591812e+02
8.300000e-07	1.166377e-07	-3.551214e-09	8.071320e-01	-2.346500e+02
8.400000e-07	2.739443e-07	-3.161185e-09	1.895693e+00	-2.091963e+02
8.500000e-07	4.311196e-07	-2.747349e-09	2.983345e+00	-1.826924e+02
8.600000e-07	5.882004e-07	-2.318954e-09	4.070343e+00	-1.550087e+02
8.700000e-07	7.451237e-07	-1.885011e-09	5.156251e+00	-1.260299e+02
8.800000e-07	9.018067e-07	-1.437206e-09	6.240497e+00	-9.567255e+01
8.900000e-07	1.058170e-06	-9.598021e-10	7.322533e+00	-6.390127e+01
9.000000e-07	1.214136e-06	-4.514838e-10	8.401815e+00	-3.074263e+01
9.100000e-07	1.369651e-06	7.330977e-11	9.477979e+00	3.706079e+00
9.200000e-07	1.524650e-06	6.091162e-10	1.055057e+01	3.927377e+01
9.300000e-07	1.679128e-06	1.161661e-09	1.161955e+01	7.571917e+01
9.400000e-07	1.833087e-06	1.733907e-09	1.268495e+01	1.127410e+02
9.500000e-07	1.986359e-06	2.315412e-09	1.374559e+01	1.499937e+02
9.600000e-07	2.138686e-06	2.886676e-09	1.479969e+01	1.871079e+02
9.700000e-07	2.290069e-06	3.439952e-09	1.584727e+01	2.237127e+02
9.800000e-07	2.440638e-06	3.978067e-09	1.688920e+01	2.594582e+02
9.900000e-07	2.590321e-06	4.503557e-09	1.792500e+01	2.940363e+02
1.000000e-06	2.739031e-06	5.008669e-09	1.895408e+01	3.271967e+02
1.010000e-06	2.886704e-06	5.483006e-09	1.997598e+01	3.587582e+02
1.020000e-06	3.033393e-06	5.925977e-09	2.099106e+01	3.886130e+02
1.030000e-06	3.179001e-06	6.344140e-09	2.199867e+01	4.167251e+02
1.040000e-06	3.323302e-06	6.746490e-09	2.299723e+01	4.431223e+02
1.050000e-06	3.466347e-06	7.129191e-09	2.398710e+01	4.678840e+02
1.060000e-06	3.608151e-06	7.484401e-09	2.496838e+01	4.911264e+02
1.070000e-06	3.748584e-06	7.812919e-09	2.594018e+01	5.129856e+02
1.080000e-06	3.887561e-06	8.128723e-09	2.690190e+01	5.336025e+02
1.090000e-06	4.025020e-06	8.435047e-09	2.785312e+01	5.531095e+02
1.100000e-06	4.160942e-06	8.722200e-09	2.879369e+01	5.716209e+02
1.110000e-06	4.295403e-06	8.988071e-09	2.972416e+01	5.892274e+02
1.120000e-06	4.428424e-06	9.238728e-09	3.064466e+01	6.059948e+02
1.130000e-06	4.559922e-06	9.479683e-09	3.155463e+01	6.219664e+02
1.140000e-06	4.689799e-06	9.711645e-09	3.245338e+01	6.371684e+02
1.150000e-06	4.818000e-06	9.930693e-09	3.334053e+01	6.516160e+02
1.160000e-06	4.944518e-06	1.013359e-08	3.421603e+01	6.653214e+02
1.170000e-06	5.069366e-06	1.032254e-08	3.507998e+01	6.782994e+02
1.180000e-06	5.192448e-06	1.050435e-08	3.593171e+01	6.905720e+02
1.190000e-06	5.313633e-06	1.068306e-08	3.677031e+01	7.021710e+02
1.200000e-06	5.432926e-06	1.085300e-08	3.759582e+01	7.131375e+02
1.210000e-06	5.550257e-06	1.101063e-08	3.840774e+01	7.235202e+02
1.220000e-06	5.665408e-06	1.116057e-08	3.920459e+01	7.333712e+02
1.230000e-06	5.778257e-06	1.130961e-08	3.998550e+01	7.427417e+02
1.240000e-06	5.888944e-06	1.145518e-08	4.075146e+01	7.516775e+02
1.250000e-06	5.997602e-06	1.158997e-08	4.150337e+01	7.602160e+02
1.260000e-06	6.104168e-06	1.171215e-08	4.224080e+01	7.683835e+02
1.270000e-06	6.208423e-06	1.183046e-08	4.296225e+01	7.761953e+02
1.280000e-06	6.310328e-06	1.194707e-08	4.366743e+01	7.836570e+02
1.290000e-06	6.409965e-06	1.205455e-08	4.435691e+01	7.907672e+02
1.300000e-06	6.507178e-06	1.215122e-08	4.502963e+01	7.975213e+02
1.310000e-06	6.601965e-06	1.224223e-08	4.568556e+01	8.039158e+02
1.320000e-06	6.694473e-06	1.233252e-08	4.632571e+01	8.099509e+02
1.330000e-06	6.784637e-06	1.242223e-08	4.694965e+01	8.156340e+02
1.340000e-06	6.872350e-06	1.250720e-08	4.755662e+01	8.209803e+02
1.350000e-06	6.957685e-06	1.258503e-08	4.814714e+01	8.260124e+02
1.360000e-06	7.040618e-06	1.265522e-08	4.872104e+01	8.307586e+02
1.370000e-06	7.121007e-06	1.272328e-08	4.927732e+01	8.352502e+02
1.380000e-06	7.198813e-06	1.279059e-08	4.981574e+01	8.395177e+02
1.390000e-06	7.273895e-06	1.285184e-08	5.033531e+01	8.435876e+02
1.400000e-06	7.346171e-06	1.290719e-08	5.083546e+01	8.474798e+02
1.410000e-06	7.415834e-06	1.296157e-08	5.131752e+01	8.512056e+02
1.420000e-06	7.482870e-06	1.301780e-08	5.178142e+01	8.547671e+02
1.430000e-06	7.547194e-06	1.307075e-08	5.222654e+01	8.581588e+02
1.440000e-06	7.608962e-06	1.311774e-08	5.265397e+01	8.613691e+02
1.450000e-06	7.668191e-06	1.316108e-08	5.306384e+01	8.643834e+02
1.460000e-06	7.724713e-06	1.320321e-08	5.345497e+01	8.671877e+02
1.470000e-06	7.778392e-06	1.324367e-08	5.382642e+01	8.697714e+02
1.480000e-06	7.828952e-06	1.327899e-08	5.417630e+01	8.721297e+02
1.490000e-06	7.876400e-06	1.330902e-08	5.450464e+01	8.742654e+02
1.500000e-06	7.921055e-06	1.333627e-08	5.481365e+01	8.761885e+02
1.510000e-06	7.962878e-06	1.336312e-08	5.510307e+01	8.779154e+02
1.520000e-06	8.001807e-06	1.338919e-08	5.537246e+01	8.794670e+02
1.530000e-06	8.037969e-06	1.341128e-08	5.562270e+01	8.808656e+02
1.540000e-06	8.071255e-06	1.342914e-08	5.585304e+01	8.821321e+02
1.550000e-06	8.101624e-06	1.344589e-08	5.606318e+01	8.832836e+02
1.560000e-06	8.129202e-06	1.346340e-08	5.625403e+01	8.843311e+02
1.570000e-06	8.153831e-06	1.348042e-08	5.642446e+01	8.852789e+02
1.580000e-06	8.175510e-06	1.349355e-08	5.657448e+01	8.861245e+02
1.590000e-06	8.194321e-06	1.350147e-08	5.670465e+01	8.868596e+02
1.600000e-06	8.210109e-06	1.350716e-08	5.681390e+01	8.874729e+02
1.610000e-06	8.222791e-06	1.351349e-08	5.690167e+01	8.879515e+02
1.620000e-06	8.232285e-06	1.351844e-08	5.696736e+01	8.882844e+02
1.630000e-06	8.238744e-06	1.351978e-08	5.701206e+01	8.884639e+02
1.640000e-06	8.242348e-06	1.351963e-08	5.703700e+01	8.884879e+02
1.650000e-06	8.242999e-06	1.352032e-08	5.704150e+01	8.883599e+02
1.660000e-06	8.240856e-06	1.351839e-08	5.702667e+01	8.880891e+02
1.670000e-06	8.236028e-06	1.351214e-08	5.699326e+01	8.876890e+02
1.680000e-06	8.228406e-06	1.350440e-08	5.694052e+01	8.871759e+02
1.690000e-06	8.218020e-06	1.349471e-08	5.686864e+01	8.865666e+02
1.700000e-06	8.204728e-06	1.348670e-08	5.677667e+01	8.858766e+02
1.710000e-06	8.188617e-06	1.348126e-08	5.666518e+01	8.851185e+02
1.720000e-06	8.170120e-06	1.347375e-08	5.653718e+01	8.843007e+02
1.730000e-06	8.149165e-06	1.344025e-08	5.639217e+01	8.834273e+02
1.740000e-06	8.125005e-06	1.339394e-08	5.622498e+01	8.824983e+02
1.750000e-06	8.097044e-06	1.338614e-08	5.603149e+01	8.815106e+02
1.760000e-06	8.065548e-06	1.338861e-08	5.581354e+01	8.804592e+02
1.770000e-06	8.031322e-06	1.337164e-08	5.557670e+01	8.793385e+02
1.780000e-06	7.994771e-06	1.337459e-08	5.532377e+01	8.781430e+02
1.790000e-06	7.955932e-06	1.337163e-08	5.505500e+01	8.768681e+02
1.800000e-06	7.914922e-06	1.330480e-08	5.477121e+01	8.755103e+02
1.810000e-06	7.871286e-06	1.330298e-08	5.446925e+01	8.740663e+02
1.820000e-06	7.824896e-06	1.331105e-08	5.414823e+01	8.725322e+02
1.830000e-06	7.775780e-06	1.327919e-08	5.380835e+01	8.709027e+02
1.840000e-06	7.723491e-06	1.328232e-08	5.344651e+01	8.691700e+02
1.850000e-06	7.668259e-06	1.322681e-08	5.306430e+01	8.673228e+02
1.860000e-06	7.610309e-06	1.319634e-08	5.266329e+01	8.653469e+02
1.870000e-06	7.549642e-06	1.317979e-08	5.224348e+01	8.632256e+02
1.880000e-06	7.486207e-06	1.316145e-08	5.180450e+01	8.609409e+02
1.890000e-06	7.419786e-06	1.313632e-08	5.134488e+01	8.584755e+02
1.900000e-06	7.350402e-06	1.303118e-08	5.086473e+01	8.558146e+02
1.910000e-06	7.278127e-06	1.297885e-08	5.036460e+01	8.529483e+02
1.920000e-06	7.203135e-06	1.296875e-08	4.984565e+01	8.498724e+02
1.930000e-06	7.125324e-06	1.294537e-08	4.930719e+01	8.465897e+02
1.940000e-06	7.044701e-06	1.287854e-08	4.874929e+01	8.431093e+02
1.950000e-06	6.961583e-06	1.278184e-08	4.817411e+01	8.394458e+02
1.960000e-06	6.875885e-06	1.274331e-08	4.758108e+01	8.356169e+02
1.970000e-06	6.787558e-06	1.270216e-08	4.696986e+01	8.316407e+02
1.980000e-06	6.696793e-06	1.265394e-08	4.634177e+01	8.275328e+02
1.990000e-06	6.603749e-06	1.258153e-08	4.569790e+01	8.233038e+02
2.000000e-06	6.508390e-06	1.248111e-08	4.503802e+01	8.189572e+02
2.010000e-06	6.410722e-06	1.241042e-08	4.436215e+01	8.144880e+02
2.020000e-06	6.310750e-06	1.237295e-08	4.367035e+01	8.098834e+02
2.030000e-06	6.208482e-06	1.232573e-08	4.296265e+01	8.051239e+02
2.040000e-06	6.104028e-06	1.221635e-08	4.223984e+01	8.001857e+02
2.050000e-06	5.997490e-06	1.210632e-08	4.150259e+01	7.950437e+02
2.060000e-06	5.888921e-06	1.203854e-08	4.075129e+01	7.896748e+02
2.070000e-06	5.778276e-06	1.198418e-08	3.998563e+01	7.840607e+02
2.080000e-06	5.665417e-06	1.189834e-08	3.920465e+01	7.781901e+02
2.090000e-06	5.550250e-06	1.177572e-08	3.840770e+01	7.720595e+02
2.100000e-06	5.432919e-06	1.165930e-08	3.759577e+01	7.656728e+02
2.110000e-06	5.313587e-06	1.157011e-08	3.676999e+01	7.590395e+02
2.120000e-06	5.192373e-06	1.149374e-08	3.593119e+01	7.521717e+02
2.130000e-06	5.069356e-06	1.138866e-08	3.507991e+01	7.450811e+02
2.140000e-06	4.944504e-06	1.125225e-08	3.421594e+01	7.377753e+02
2.150000e-06	4.817843e-06	1.112270e-08	3.333944e+01	7.302545e+02
2.160000e-06	4.689462e-06	1.102658e-08	3.245105e+01	7.225103e+02
2.170000e-06	4.559406e-06	1.092966e-08	3.155106e+01	7.145245e+02
2.180000e-06	4.427682e-06	1.079550e-08	3.063953e+01	7.062704e+02
2.190000e-06	4.294301e-06	1.063675e-08	2.971654e+01	6.977156e+02
2.200000e-06	4.159348e-06	1.049054e-08	2.878266e+01	6.888247e+02
2.210000e-06	4.022823e-06	1.036971e-08	2.783791e+01	6.795641e+02
2.220000e-06	3.884679e-06	1.024244e-08	2.688196e+01	6.699054e+02
2.230000e-06	3.745008e-06	1.007754e-08	2.591543e+01	6.598287e+02
2.240000e-06	3.603845e-06	9.889261e-09	2.493859e+01	6.493239e+02
2.250000e-06	3.461345e-06	9.723529e-09	2.395248e+01	6.383914e+02
2.260000e-06	3.317625e-06	9.577717e-09	2.295795e+01	6.270394e+02
2.270000e-06	3.172587e-06	9.414683e-09	2.195428e+01	6.152810e+02
2.280000e-06	3.026321e-06	9.217390e-09	2.094212e+01	6.031295e+02
2.290000e-06	2.879111e-06	9.009526e-09	1.992343e+01	5.905936e+02
2.300000e-06	2.730980e-06	8.816400e-09	1.889836e+01	5.776728e+02
2.310000e-06	2.581782e-06	8.633642e-09	1.786591e+01	5.643543e+02
2.320000e-06	2.431648e-06	8.432118e-09	1.682699e+01	5.506112e+02
2.330000e-06	2.280765e-06	8.197010e-09	1.578288e+01	5.364038e+02
2.340000e-06	2.129098e-06	7.951578e-09	1.473335e+01	5.216822e+02
2.350000e-06	1.976622e-06	7.723412e-09	1.367821e+01	5.063912e+02
2.360000e-06	1.823483e-06	7.503583e-09	1.261849e+01	4.904764e+02
2.370000e-06	1.669744e-06	7.255269e-09	1.155462e+01	4.738904e+02
2.380000e-06	1.515428e-06	6.973959e-09	1.048676e+01	4.565981e+02
2.390000e-06	1.360697e-06	6.688694e-09	9.416015e+00	4.385809e+02
2.400000e-06	1.205634e-06	6.416941e-09	8.342978e+00	4.198371e+02
2.410000e-06	1.050175e-06	6.142954e-09	7.267207e+00	4.003806e+02
2.420000e-06	8.942871e-07	5.840567e-09	6.188461e+00	3.802353e+02
2.430000e-06	7.380702e-07	5.508757e-09	5.107441e+00	3.594287e+02
2.440000e-06	5.815651e-07	5.174295e-09	4.024427e+00	3.379819e+02
2.450000e-06	4.247703e-07	4.850716e-09	2.939408e+00	3.159011e+02
2.460000e-06	2.677235e-07	4.517522e-09	1.852645e+00	2.931694e+02
2.470000e-06	1.105043e-07	4.150681e-09	7.646892e-01	2.697410e+02
2.480000e-06	-4.680320e-08	3.758121e-09	-3.238779e-01	2.455400e+02
2.490000e-06	-2.041769e-07	3.367304e-09	-1.412903e+00	2.204631e+02
2.500000e-06	-3.614994e-07	2.981987e-09	-2.501574e+00	1.943872e+02
2.510000e-06	-5.186807e-07	2.578387e-09	-3.589267e+00	1.671817e+02
2.520000e-06	-6.756676e-07	2.138344e-09	-4.675615e+00	1.387235e+02
2.530000e-06	-8.323139e-07	1.672797e-09	-5.759607e+00	1.089147e+02
2.540000e-06	-9.885565e-07	1.203674e-09	-6.840805e+00	7.769911e+01
2.550000e-06	-1.144385e-06	7.290069e-10	-7.919137e+00	4.507770e+01
2.560000e-06	-1.299751e-06	2.253072e-10	-8.994266e+00	1.111921e+01
2.570000e-06	-1.454690e-06	-3.189857e-10	-1.006645e+01	-2.403419e+01
2.580000e-06	-1.609208e-06	-8.851149e-10	-1.113571e+01	-6.016795e+01
2.590000e-06	-1.763202e-06	-1.450913e-09	-1.220134e+01	-9.700272e+01
2.600000e-06	-1.916597e-06	-2.015914e-09	-1.326284e+01	-1.342082e+02
2.610000e-06	-2.069195e-06	-2.590001e-09	-1.431882e+01	-1.714218e+02
2.620000e-06	-2.220837e-06	-3.169096e-09	-1.536818e+01	-2.082703e+02
2.630000e-06	-2.371681e-06	-3.731931e-09	-1.641202e+01	-2.443932e+02
2.640000e-06	-2.521761e-06	-4.261675e-09	-1.745057e+01	-2.794635e+02
2.650000e-06	-2.670856e-06	-4.762856e-09	-1.848231e+01	-3.132067e+02
2.660000e-06	-2.818853e-06	-5.250623e-09	-1.950645e+01	-3.454136e+02
2.670000e-06	-2.965770e-06	-5.724879e-09	-2.052311e+01	-3.759473e+02
2.680000e-06	-3.111657e-06	-6.168915e-09	-2.153265e+01	-4.047443e+02
2.690000e-06	-3.256490e-06	-6.573502e-09	-2.253489e+01	-4.318085e+02
2.700000e-06	-3.400078e-06	-6.951921e-09	-2.352852e+01	-4.572008e+02
2.710000e-06	-3.542335e-06	-7.320727e-09	-2.451294e+01	-4.810249e+02
2.720000e-06	-3.683184e-06	-7.677214e-09	-2.548761e+01	-5.034109e+02
2.730000e-06	-3.822517e-06	-8.006027e-09	-2.645179e+01	-5.244996e+02
2.740000e-06	-3.960438e-06	-8.304655e-09	-2.740621e+01	-5.444281e+02
2.750000e-06	-4.096944e-06	-8.587461e-09	-2.835083e+01	-5.633187e+02
2.760000e-06	-4.232024e-06	-8.866453e-09	-2.928558e+01	-5.812717e+02
2.770000e-06	-4.365656e-06	-9.137937e-09	-3.021031e+01	-5.983626e+02
2.780000e-06	-4.497738e-06	-9.388540e-09	-3.112432e+01	-6.146432e+02
2.790000e-06	-4.628264e-06	-9.616305e-09	-3.202756e+01	-6.301455e+02
2.800000e-06	-4.757244e-06	-9.834544e-09	-3.292010e+01	-6.448883e+02
2.810000e-06	-4.884607e-06	-1.005216e-08	-3.380145e+01	-6.588841e+02
2.820000e-06	-5.010214e-06	-1.026202e-08	-3.467065e+01	-6.721460e+02
2.830000e-06	-5.134006e-06	-1.045131e-08	-3.552729e+01	-6.846927e+02
2.840000e-06	-5.255981e-06	-1.062214e-08	-3.637135e+01	-6.965521e+02
2.850000e-06	-5.376129e-06	-1.078843e-08	-3.720278e+01	-7.077620e+02
2.860000e-06	-5.494263e-06	-1.095714e-08	-3.802027e+01	-7.183682e+02
2.870000e-06	-5.610137e-06	-1.111933e-08	-3.882211e+01	-7.284221e+02
2.880000e-06	-5.723671e-06	-1.126537e-08	-3.960777e+01	-7.379757e+02
2.890000e-06	-5.834903e-06	-1.139906e-08	-4.037749e+01	-7.470776e+02
2.900000e-06	-5.943994e-06	-1.153149e-08	-4.113240e+01	-7.557687e+02
2.910000e-06	-6.051054e-06	-1.166646e-08	-4.187325e+01	-7.640798e+02
2.920000e-06	-6.156004e-06	-1.179196e-08	-4.259951e+01	-7.720304e+02
2.930000e-06	-6.258622e-06	-1.190054e-08	-4.330963e+01	-7.796297e+02
2.940000e-06	-6.358854e-06	-1.200033e-08	-4.400323e+01	-7.868787e+02
