# Temperatura_=_20.0
# Concentracion g/m^3_=_12600.0
# C_Vs_to_Am_M_A/Vsm_=_65563218390.804596
# pendiente_HvsI_1/m_=_3716.3
# ordenada_HvsI_A/m_=_1297.0
# frecuencia_Hz_=_302304.3876083481

Tiempo_(s)	Campo_(V.s)	Magnetizacion_(V.s)	Campo_(kA/m)	Magnetizacion_(A/m)
0.000000e+00	-8.128872e-06	-1.383289e-08	-5.693844e+01	-9.052826e+02
1.000000e-08	-8.125475e-06	-1.383136e-08	-5.691464e+01	-9.049549e+02
2.000000e-08	-8.119472e-06	-1.382253e-08	-5.687260e+01	-9.044994e+02
3.000000e-08	-8.110791e-06	-1.381417e-08	-5.681179e+01	-9.039324e+02
4.000000e-08	-8.099207e-06	-1.380498e-08	-5.673064e+01	-9.032707e+02
5.000000e-08	-8.084688e-06	-1.379335e-08	-5.662895e+01	-9.025300e+02
6.000000e-08	-8.067365e-06	-1.377260e-08	-5.650761e+01	-9.017235e+02
7.000000e-08	-8.047623e-06	-1.373936e-08	-5.636933e+01	-9.008610e+02
8.000000e-08	-8.025386e-06	-1.375910e-08	-5.621357e+01	-8.999487e+02
9.000000e-08	-8.000000e-06	-1.379810e-08	-5.603576e+01	-8.989895e+02
1.000000e-07	-7.971321e-06	-1.376285e-08	-5.583487e+01	-8.979836e+02
1.100000e-07	-7.939639e-06	-1.370860e-08	-5.561296e+01	-8.969292e+02
1.200000e-07	-7.905039e-06	-1.368083e-08	-5.537060e+01	-8.958229e+02
1.300000e-07	-7.867872e-06	-1.363899e-08	-5.511027e+01	-8.946605e+02
1.400000e-07	-7.828665e-06	-1.358320e-08	-5.483564e+01	-8.934369e+02
1.500000e-07	-7.787171e-06	-1.367432e-08	-5.454500e+01	-8.921456e+02
1.600000e-07	-7.742858e-06	-1.363416e-08	-5.423461e+01	-8.907785e+02
1.700000e-07	-7.695890e-06	-1.350986e-08	-5.390563e+01	-8.893249e+02
1.800000e-07	-7.645962e-06	-1.357166e-08	-5.355591e+01	-8.877710e+02
1.900000e-07	-7.592806e-06	-1.352730e-08	-5.318358e+01	-8.861002e+02
2.000000e-07	-7.536805e-06	-1.351094e-08	-5.279132e+01	-8.842927e+02
2.100000e-07	-7.478034e-06	-1.347585e-08	-5.237966e+01	-8.823274e+02
2.200000e-07	-7.416616e-06	-1.339586e-08	-5.194946e+01	-8.801824e+02
2.300000e-07	-7.352522e-06	-1.337653e-08	-5.150052e+01	-8.778379e+02
2.400000e-07	-7.285578e-06	-1.332087e-08	-5.103161e+01	-8.752777e+02
2.500000e-07	-7.215940e-06	-1.331808e-08	-5.054383e+01	-8.724912e+02
2.600000e-07	-7.143540e-06	-1.326984e-08	-5.003671e+01	-8.694748e+02
2.700000e-07	-7.068241e-06	-1.318478e-08	-4.950928e+01	-8.662327e+02
2.800000e-07	-6.990139e-06	-1.311702e-08	-4.896222e+01	-8.627761e+02
2.900000e-07	-6.909298e-06	-1.309169e-08	-4.839597e+01	-8.591221e+02
3.000000e-07	-6.825999e-06	-1.307597e-08	-4.781250e+01	-8.552911e+02
3.100000e-07	-6.740333e-06	-1.296147e-08	-4.721245e+01	-8.513043e+02
3.200000e-07	-6.652248e-06	-1.289001e-08	-4.659547e+01	-8.471803e+02
3.300000e-07	-6.561772e-06	-1.284395e-08	-4.596173e+01	-8.429323e+02
3.400000e-07	-6.468993e-06	-1.279256e-08	-4.531186e+01	-8.385659e+02
3.500000e-07	-6.373965e-06	-1.272676e-08	-4.464624e+01	-8.340780e+02
3.600000e-07	-6.276491e-06	-1.263979e-08	-4.396349e+01	-8.294570e+02
3.700000e-07	-6.176689e-06	-1.255697e-08	-4.326443e+01	-8.246837e+02
3.800000e-07	-6.074762e-06	-1.247039e-08	-4.255049e+01	-8.197343e+02
3.900000e-07	-5.970683e-06	-1.241863e-08	-4.182147e+01	-8.145835e+02
4.000000e-07	-5.864420e-06	-1.234851e-08	-4.107715e+01	-8.092075e+02
4.100000e-07	-5.756115e-06	-1.224322e-08	-4.031853e+01	-8.035874e+02
4.200000e-07	-5.645890e-06	-1.212261e-08	-3.954646e+01	-7.977116e+02
4.300000e-07	-5.533604e-06	-1.204380e-08	-3.875996e+01	-7.915766e+02
4.400000e-07	-5.419048e-06	-1.197669e-08	-3.795755e+01	-7.851867e+02
4.500000e-07	-5.302363e-06	-1.187614e-08	-3.714024e+01	-7.785524e+02
4.600000e-07	-5.183887e-06	-1.175245e-08	-3.631038e+01	-7.716874e+02
4.700000e-07	-5.063589e-06	-1.163863e-08	-3.546776e+01	-7.646050e+02
4.800000e-07	-4.941297e-06	-1.154579e-08	-3.461116e+01	-7.573141e+02
4.900000e-07	-4.817198e-06	-1.144365e-08	-3.374191e+01	-7.498162e+02
5.000000e-07	-4.691473e-06	-1.132719e-08	-3.286128e+01	-7.421031e+02
5.100000e-07	-4.564124e-06	-1.118863e-08	-3.196927e+01	-7.341562e+02
5.200000e-07	-4.435078e-06	-1.105135e-08	-3.106537e+01	-7.259472e+02
5.300000e-07	-4.304291e-06	-1.092736e-08	-3.014927e+01	-7.174406e+02
5.400000e-07	-4.171901e-06	-1.080709e-08	-2.922195e+01	-7.085980e+02
5.500000e-07	-4.037923e-06	-1.066080e-08	-2.828351e+01	-6.993816e+02
5.600000e-07	-3.902534e-06	-1.049396e-08	-2.733518e+01	-6.897593e+02
5.700000e-07	-3.765711e-06	-1.033273e-08	-2.637681e+01	-6.797082e+02
5.800000e-07	-3.627203e-06	-1.018712e-08	-2.540663e+01	-6.692163e+02
5.900000e-07	-3.487200e-06	-1.003925e-08	-2.442599e+01	-6.582838e+02
6.000000e-07	-3.345891e-06	-9.861861e-09	-2.343619e+01	-6.469208e+02
6.100000e-07	-3.203182e-06	-9.667685e-09	-2.243659e+01	-6.351440e+02
6.200000e-07	-3.059065e-06	-9.480291e-09	-2.142712e+01	-6.229720e+02
6.300000e-07	-2.913781e-06	-9.306219e-09	-2.040949e+01	-6.104198e+02
6.400000e-07	-2.767530e-06	-9.118383e-09	-1.938508e+01	-5.974935e+02
6.500000e-07	-2.620394e-06	-8.906665e-09	-1.835447e+01	-5.841861e+02
6.600000e-07	-2.472504e-06	-8.681615e-09	-1.731858e+01	-5.704753e+02
6.700000e-07	-2.323884e-06	-8.461048e-09	-1.627757e+01	-5.563233e+02
6.800000e-07	-2.174499e-06	-8.245634e-09	-1.523121e+01	-5.416792e+02
6.900000e-07	-2.024348e-06	-8.016200e-09	-1.417949e+01	-5.264842e+02
7.000000e-07	-1.873509e-06	-7.764255e-09	-1.312294e+01	-5.106770e+02
7.100000e-07	-1.722093e-06	-7.498470e-09	-1.206234e+01	-4.942016e+02
7.200000e-07	-1.570200e-06	-7.238540e-09	-1.099842e+01	-4.770134e+02
7.300000e-07	-1.417822e-06	-6.979967e-09	-9.931090e+00	-4.590838e+02
7.400000e-07	-1.264842e-06	-6.702957e-09	-8.859546e+00	-4.404030e+02
7.500000e-07	-1.111211e-06	-6.398622e-09	-7.783442e+00	-4.209794e+02
7.600000e-07	-9.570566e-07	-6.086183e-09	-6.703674e+00	-4.008349e+02
7.700000e-07	-8.025321e-07	-5.777018e-09	-5.621312e+00	-3.799987e+02
7.800000e-07	-6.476245e-07	-5.460256e-09	-4.536266e+00	-3.584975e+02
7.900000e-07	-4.924134e-07	-5.121395e-09	-3.449094e+00	-3.363461e+02
8.000000e-07	-3.370264e-07	-4.761173e-09	-2.360691e+00	-3.135376e+02
8.100000e-07	-1.814694e-07	-4.393545e-09	-1.271097e+00	-2.900367e+02
8.200000e-07	-2.578182e-08	-4.022912e-09	-1.805880e-01	-2.657755e+02
8.300000e-07	1.299252e-07	-3.643899e-09	9.100571e-01	-2.406552e+02
8.400000e-07	2.855666e-07	-3.240930e-09	2.000242e+00	-2.145516e+02
8.500000e-07	4.411500e-07	-2.814553e-09	3.090022e+00	-1.873263e+02
8.600000e-07	5.966149e-07	-2.377012e-09	4.178971e+00	-1.588417e+02
8.700000e-07	7.519015e-07	-1.932327e-09	5.266671e+00	-1.289787e+02
8.800000e-07	9.069092e-07	-1.468850e-09	6.352418e+00	-9.765487e+01
8.900000e-07	1.061545e-06	-9.708209e-10	7.435561e+00	-6.484168e+01
9.000000e-07	1.215697e-06	-4.443064e-10	8.515313e+00	-3.057786e+01
9.100000e-07	1.369223e-06	9.668225e-11	9.590678e+00	5.022153e+00
9.200000e-07	1.522114e-06	6.481706e-10	1.066160e+01	4.176628e+01
9.300000e-07	1.674334e-06	1.219523e-09	1.172782e+01	7.938995e+01
9.400000e-07	1.825941e-06	1.813046e-09	1.278975e+01	1.175680e+02
9.500000e-07	1.976975e-06	2.412726e-09	1.384766e+01	1.559322e+02
9.600000e-07	2.127278e-06	2.997839e-09	1.490045e+01	1.940932e+02
9.700000e-07	2.276726e-06	3.562819e-09	1.594726e+01	2.316646e+02
9.800000e-07	2.425391e-06	4.114714e-09	1.698858e+01	2.682857e+02
9.900000e-07	2.573331e-06	4.652837e-09	1.802482e+01	3.036431e+02
1.000000e-06	2.720469e-06	5.165797e-09	1.905544e+01	3.374867e+02
1.010000e-06	2.866528e-06	5.644781e-09	2.007851e+01	3.696401e+02
1.020000e-06	3.011286e-06	6.092961e-09	2.109246e+01	4.000038e+02
1.030000e-06	3.154840e-06	6.520905e-09	2.209798e+01	4.285529e+02
1.040000e-06	3.297229e-06	6.931658e-09	2.309534e+01	4.553275e+02
1.050000e-06	3.438419e-06	7.318340e-09	2.408430e+01	4.804195e+02
1.060000e-06	3.578420e-06	7.675376e-09	2.506493e+01	5.039561e+02
1.070000e-06	3.716996e-06	8.007372e-09	2.603559e+01	5.260831e+02
1.080000e-06	3.853999e-06	8.328129e-09	2.699521e+01	5.469489e+02
1.090000e-06	3.989539e-06	8.639646e-09	2.794460e+01	5.666912e+02
1.100000e-06	4.123649e-06	8.931102e-09	2.888398e+01	5.854274e+02
1.110000e-06	4.256389e-06	9.200622e-09	2.981375e+01	6.032498e+02
1.120000e-06	4.387744e-06	9.454190e-09	3.073382e+01	6.202247e+02
1.130000e-06	4.517419e-06	9.698428e-09	3.164213e+01	6.363952e+02
1.140000e-06	4.645434e-06	9.934303e-09	3.253880e+01	6.517872e+02
1.150000e-06	4.771927e-06	1.015567e-08	3.342482e+01	6.664159e+02
1.160000e-06	4.896857e-06	1.036084e-08	3.429988e+01	6.802939e+02
1.170000e-06	5.020195e-06	1.055337e-08	3.516380e+01	6.934366e+02
1.180000e-06	5.141685e-06	1.074009e-08	3.601477e+01	7.058674e+02
1.190000e-06	5.261204e-06	1.092044e-08	3.685194e+01	7.176192e+02
1.200000e-06	5.378861e-06	1.109056e-08	3.767607e+01	7.287343e+02
1.210000e-06	5.494483e-06	1.124938e-08	3.848594e+01	7.392622e+02
1.220000e-06	5.607851e-06	1.140272e-08	3.928002e+01	7.492551e+02
1.230000e-06	5.719004e-06	1.155466e-08	4.005859e+01	7.587642e+02
1.240000e-06	5.828194e-06	1.170113e-08	4.082340e+01	7.678346e+02
1.250000e-06	5.935477e-06	1.183545e-08	4.157486e+01	7.765024e+02
1.260000e-06	6.040517e-06	1.195900e-08	4.231061e+01	7.847930e+02
1.270000e-06	6.143269e-06	1.207956e-08	4.303034e+01	7.927205e+02
1.280000e-06	6.243847e-06	1.219657e-08	4.373483e+01	8.002897e+02
1.290000e-06	6.341992e-06	1.230535e-08	4.442229e+01	8.074992e+02
1.300000e-06	6.437693e-06	1.240375e-08	4.509262e+01	8.143449e+02
1.310000e-06	6.531188e-06	1.249688e-08	4.574751e+01	8.208240e+02
1.320000e-06	6.622427e-06	1.258789e-08	4.638659e+01	8.269385e+02
1.330000e-06	6.711249e-06	1.267753e-08	4.700874e+01	8.326974e+02
1.340000e-06	6.797673e-06	1.276331e-08	4.761409e+01	8.381178e+02
1.350000e-06	6.881790e-06	1.284082e-08	4.820329e+01	8.432239e+02
1.360000e-06	6.963410e-06	1.291216e-08	4.877499e+01	8.480452e+02
1.370000e-06	7.042472e-06	1.298026e-08	4.932878e+01	8.526135e+02
1.380000e-06	7.119024e-06	1.304629e-08	4.986499e+01	8.569595e+02
1.390000e-06	7.192851e-06	1.310938e-08	5.038210e+01	8.611092e+02
1.400000e-06	7.264013e-06	1.316829e-08	5.088055e+01	8.650811e+02
1.410000e-06	7.332687e-06	1.322572e-08	5.136158e+01	8.688851e+02
1.420000e-06	7.398720e-06	1.328223e-08	5.182410e+01	8.725220e+02
1.430000e-06	7.462117e-06	1.333613e-08	5.226817e+01	8.759844e+02
1.440000e-06	7.523054e-06	1.338628e-08	5.269500e+01	8.792596e+02
1.450000e-06	7.581381e-06	1.343104e-08	5.310355e+01	8.823319e+02
1.460000e-06	7.636937e-06	1.347228e-08	5.349269e+01	8.851868e+02
1.470000e-06	7.689569e-06	1.351099e-08	5.386135e+01	8.878135e+02
1.480000e-06	7.739021e-06	1.354616e-08	5.420774e+01	8.902077e+02
1.490000e-06	7.785535e-06	1.357761e-08	5.453354e+01	8.923724e+02
1.500000e-06	7.829355e-06	1.360670e-08	5.484048e+01	8.943184e+02
1.510000e-06	7.870369e-06	1.363428e-08	5.512776e+01	8.960631e+02
1.520000e-06	7.908604e-06	1.365961e-08	5.539557e+01	8.976279e+02
1.530000e-06	7.944061e-06	1.368259e-08	5.564393e+01	8.990361e+02
1.540000e-06	7.976678e-06	1.370128e-08	5.587240e+01	9.003093e+02
1.550000e-06	8.006525e-06	1.371658e-08	5.608146e+01	9.014654e+02
1.560000e-06	8.033509e-06	1.373232e-08	5.627047e+01	9.025160e+02
1.570000e-06	8.057493e-06	1.374721e-08	5.643846e+01	9.034661e+02
1.580000e-06	8.078672e-06	1.375850e-08	5.658681e+01	9.043136e+02
1.590000e-06	8.097063e-06	1.376640e-08	5.671563e+01	9.050511e+02
1.600000e-06	8.112460e-06	1.377301e-08	5.682348e+01	9.056671e+02
1.610000e-06	8.124731e-06	1.377923e-08	5.690943e+01	9.061491e+02
1.620000e-06	8.133812e-06	1.378274e-08	5.697304e+01	9.064858e+02
1.630000e-06	8.139910e-06	1.378398e-08	5.701575e+01	9.066690e+02
1.640000e-06	8.143188e-06	1.378477e-08	5.703871e+01	9.066955e+02
1.650000e-06	8.143586e-06	1.378701e-08	5.704150e+01	9.065680e+02
1.660000e-06	8.141245e-06	1.378071e-08	5.702510e+01	9.062943e+02
1.670000e-06	8.136206e-06	1.377635e-08	5.698981e+01	9.058869e+02
1.680000e-06	8.128429e-06	1.377160e-08	5.693533e+01	9.053614e+02
1.690000e-06	8.118009e-06	1.376270e-08	5.686235e+01	9.047347e+02
1.700000e-06	8.104730e-06	1.375506e-08	5.676933e+01	9.040231e+02
1.710000e-06	8.088648e-06	1.375502e-08	5.665669e+01	9.032408e+02
1.720000e-06	8.070157e-06	1.376868e-08	5.652717e+01	9.023990e+02
1.730000e-06	8.049141e-06	1.369682e-08	5.637996e+01	9.015055e+02
1.740000e-06	8.024920e-06	1.363034e-08	5.621031e+01	9.005643e+02
1.750000e-06	7.996913e-06	1.365219e-08	5.601413e+01	8.995767e+02
1.760000e-06	7.965410e-06	1.365603e-08	5.579347e+01	8.985414e+02
1.770000e-06	7.931274e-06	1.364039e-08	5.555436e+01	8.974556e+02
1.780000e-06	7.894991e-06	1.369804e-08	5.530022e+01	8.963156e+02
1.790000e-06	7.856511e-06	1.363106e-08	5.503069e+01	8.951164e+02
1.800000e-06	7.815761e-06	1.352996e-08	5.474526e+01	8.938523e+02
1.810000e-06	7.772453e-06	1.363019e-08	5.444191e+01	8.925159e+02
1.820000e-06	7.726513e-06	1.356519e-08	5.412013e+01	8.910975e+02
1.830000e-06	7.677806e-06	1.358500e-08	5.377896e+01	8.895845e+02
1.840000e-06	7.625982e-06	1.356550e-08	5.341595e+01	8.879616e+02
1.850000e-06	7.571173e-06	1.344904e-08	5.303205e+01	8.862100e+02
1.860000e-06	7.513553e-06	1.352928e-08	5.262845e+01	8.843090e+02
1.870000e-06	7.453359e-06	1.345812e-08	5.220682e+01	8.822369e+02
1.880000e-06	7.390376e-06	1.348190e-08	5.176566e+01	8.799727e+02
1.890000e-06	7.324430e-06	1.342310e-08	5.130375e+01	8.774985e+02
1.900000e-06	7.255633e-06	1.327842e-08	5.082186e+01	8.748015e+02
1.910000e-06	7.183961e-06	1.330591e-08	5.031983e+01	8.718751e+02
1.920000e-06	7.109685e-06	1.326709e-08	4.979957e+01	8.687205e+02
1.930000e-06	7.032551e-06	1.326099e-08	4.925929e+01	8.653461e+02
1.940000e-06	6.952546e-06	1.313562e-08	4.869890e+01	8.617671e+02
1.950000e-06	6.870138e-06	1.306536e-08	4.812167e+01	8.580028e+02
1.960000e-06	6.785231e-06	1.305038e-08	4.752694e+01	8.540745e+02
1.970000e-06	6.697746e-06	1.297850e-08	4.691416e+01	8.500022e+02
1.980000e-06	6.607824e-06	1.296305e-08	4.628430e+01	8.458015e+02
1.990000e-06	6.515711e-06	1.284139e-08	4.563910e+01	8.414813e+02
2.000000e-06	6.421271e-06	1.276585e-08	4.497759e+01	8.370418e+02
2.010000e-06	6.324440e-06	1.270062e-08	4.429935e+01	8.324747e+02
2.020000e-06	6.225490e-06	1.267469e-08	4.360626e+01	8.277636e+02
2.030000e-06	6.124279e-06	1.260236e-08	4.289733e+01	8.228862e+02
2.040000e-06	6.020708e-06	1.246622e-08	4.217186e+01	8.178173e+02
2.050000e-06	5.915071e-06	1.238477e-08	4.143193e+01	8.125320e+02
2.060000e-06	5.807627e-06	1.232077e-08	4.067935e+01	8.070094e+02
2.070000e-06	5.698117e-06	1.226845e-08	3.991229e+01	8.012347e+02
2.080000e-06	5.586379e-06	1.215490e-08	3.912962e+01	7.952011e+02
2.090000e-06	5.472589e-06	1.204138e-08	3.833258e+01	7.889101e+02
2.100000e-06	5.356791e-06	1.192611e-08	3.752148e+01	7.823700e+02
2.110000e-06	5.238828e-06	1.184622e-08	3.669521e+01	7.755937e+02
2.120000e-06	5.118839e-06	1.176109e-08	3.585475e+01	7.685950e+02
2.130000e-06	4.997091e-06	1.164690e-08	3.500197e+01	7.613851e+02
2.140000e-06	4.873645e-06	1.150395e-08	3.413730e+01	7.539687e+02
2.150000e-06	4.748447e-06	1.138114e-08	3.326035e+01	7.463416e+02
2.160000e-06	4.621358e-06	1.129557e-08	3.237016e+01	7.384891e+02
2.170000e-06	4.492579e-06	1.118519e-08	3.146814e+01	7.303867e+02
2.180000e-06	4.362252e-06	1.103879e-08	3.055526e+01	7.220013e+02
2.190000e-06	4.230456e-06	1.087444e-08	2.963210e+01	7.132951e+02
2.200000e-06	4.097059e-06	1.074317e-08	2.869772e+01	7.042295e+02
2.210000e-06	3.961931e-06	1.062226e-08	2.775122e+01	6.947697e+02
2.220000e-06	3.825303e-06	1.048540e-08	2.679422e+01	6.848888e+02
2.230000e-06	3.687323e-06	1.030474e-08	2.582774e+01	6.745705e+02
2.240000e-06	3.547972e-06	1.011787e-08	2.485166e+01	6.638101e+02
2.250000e-06	3.407279e-06	9.955726e-09	2.386618e+01	6.526143e+02
2.260000e-06	3.265146e-06	9.808872e-09	2.287061e+01	6.409975e+02
2.270000e-06	3.121549e-06	9.635378e-09	2.186479e+01	6.289783e+02
2.280000e-06	2.976815e-06	9.428550e-09	2.085101e+01	6.165739e+02
2.290000e-06	2.831111e-06	9.220112e-09	1.983043e+01	6.037944e+02
2.300000e-06	2.684463e-06	9.031360e-09	1.880324e+01	5.906383e+02
2.310000e-06	2.536968e-06	8.847712e-09	1.777012e+01	5.770894e+02
2.320000e-06	2.388737e-06	8.632230e-09	1.673184e+01	5.631158e+02
2.330000e-06	2.239744e-06	8.388115e-09	1.568822e+01	5.486715e+02
2.340000e-06	2.089869e-06	8.143915e-09	1.463843e+01	5.337000e+02
2.350000e-06	1.939083e-06	7.918477e-09	1.358225e+01	5.181401e+02
2.360000e-06	1.787506e-06	7.688353e-09	1.252053e+01	5.019331e+02
2.370000e-06	1.635346e-06	7.425977e-09	1.145473e+01	4.850290e+02
2.380000e-06	1.482734e-06	7.140193e-09	1.038577e+01	4.673926e+02
2.390000e-06	1.329710e-06	6.859875e-09	9.313913e+00	4.490067e+02
2.400000e-06	1.176297e-06	6.587857e-09	8.239338e+00	4.298726e+02
2.410000e-06	1.022484e-06	6.303995e-09	7.161960e+00	4.100078e+02
2.420000e-06	8.683300e-07	5.988512e-09	6.082191e+00	3.894395e+02
2.430000e-06	7.138788e-07	5.649072e-09	5.000342e+00	3.681966e+02
2.440000e-06	5.591996e-07	5.311303e-09	3.916896e+00	3.462998e+02
2.450000e-06	4.043428e-07	4.980860e-09	2.832207e+00	3.237518e+02
2.460000e-06	2.493122e-07	4.634509e-09	1.746300e+00	3.005289e+02
2.470000e-06	9.414366e-08	4.254191e-09	6.594264e-01	2.765763e+02
2.480000e-06	-6.104917e-08	3.856085e-09	-4.276170e-01	2.518068e+02
2.490000e-06	-2.161854e-07	3.461576e-09	-1.514264e+00	2.261052e+02
2.500000e-06	-3.712936e-07	3.066833e-09	-2.600715e+00	1.993371e+02
2.510000e-06	-5.263453e-07	2.647493e-09	-3.686770e+00	1.713626e+02
2.520000e-06	-6.812891e-07	2.191804e-09	-4.772069e+00	1.420532e+02
2.530000e-06	-8.360063e-07	1.715074e-09	-5.855780e+00	1.113097e+02
2.540000e-06	-9.903844e-07	1.235546e-09	-6.937117e+00	7.908074e+01
2.550000e-06	-1.144400e-06	7.446496e-10	-8.015915e+00	4.537720e+01
2.560000e-06	-1.297991e-06	2.189628e-10	-9.091735e+00	1.028321e+01
2.570000e-06	-1.451114e-06	-3.436929e-10	-1.016428e+01	-2.603944e+01
2.580000e-06	-1.603789e-06	-9.235506e-10	-1.123369e+01	-6.335360e+01
2.590000e-06	-1.755990e-06	-1.503784e-09	-1.229978e+01	-1.013561e+02
2.600000e-06	-1.907587e-06	-2.088910e-09	-1.336163e+01	-1.396932e+02
2.610000e-06	-2.058349e-06	-2.684171e-09	-1.441764e+01	-1.779811e+02
2.620000e-06	-2.208146e-06	-3.278779e-09	-1.546689e+01	-2.158293e+02
2.630000e-06	-2.356991e-06	-3.852216e-09	-1.650947e+01	-2.528644e+02
2.640000e-06	-2.504950e-06	-4.393137e-09	-1.754584e+01	-2.887522e+02
2.650000e-06	-2.652092e-06	-4.909245e-09	-1.857650e+01	-3.232161e+02
2.660000e-06	-2.798337e-06	-5.412042e-09	-1.960086e+01	-3.560498e+02
2.670000e-06	-2.943599e-06	-5.894391e-09	-2.061835e+01	-3.871238e+02
2.680000e-06	-3.087843e-06	-6.339549e-09	-2.162870e+01	-4.163847e+02
2.690000e-06	-3.230863e-06	-6.747312e-09	-2.263048e+01	-4.438482e+02
2.700000e-06	-3.372445e-06	-7.133894e-09	-2.362219e+01	-4.695879e+02
2.710000e-06	-3.512601e-06	-7.510373e-09	-2.460390e+01	-4.937190e+02
2.720000e-06	-3.651436e-06	-7.869279e-09	-2.557637e+01	-5.163822e+02
2.730000e-06	-3.789010e-06	-8.200536e-09	-2.654001e+01	-5.377265e+02
2.740000e-06	-3.925328e-06	-8.506737e-09	-2.749484e+01	-5.578952e+02
2.750000e-06	-4.060208e-06	-8.798668e-09	-2.843960e+01	-5.770144e+02
2.760000e-06	-4.193466e-06	-9.082337e-09	-2.937301e+01	-5.951868e+02
2.770000e-06	-4.325249e-06	-9.354056e-09	-3.029608e+01	-6.124885e+02
2.780000e-06	-4.455638e-06	-9.604700e-09	-3.120938e+01	-6.289714e+02
2.790000e-06	-4.584571e-06	-9.834505e-09	-3.211249e+01	-6.446672e+02
2.800000e-06	-4.711962e-06	-1.005721e-08	-3.300480e+01	-6.595946e+02
2.810000e-06	-4.837583e-06	-1.027819e-08	-3.388471e+01	-6.737662e+02
2.820000e-06	-4.961504e-06	-1.048865e-08	-3.475270e+01	-6.871958e+02
2.830000e-06	-5.083796e-06	-1.067904e-08	-3.560929e+01	-6.999032e+02
2.840000e-06	-5.204278e-06	-1.085411e-08	-3.645321e+01	-7.119174e+02
2.850000e-06	-5.322662e-06	-1.102740e-08	-3.728242e+01	-7.232773e+02
2.860000e-06	-5.438849e-06	-1.119965e-08	-3.809625e+01	-7.340300e+02
2.870000e-06	-5.552907e-06	-1.136165e-08	-3.889516e+01	-7.442271e+02
2.880000e-06	-5.664682e-06	-1.150844e-08	-3.967809e+01	-7.539207e+02
2.890000e-06	-5.774324e-06	-1.164670e-08	-4.044607e+01	-7.631588e+02
2.900000e-06	-5.882059e-06	-1.178497e-08	-4.120070e+01	-7.719814e+02
2.910000e-06	-5.987758e-06	-1.192089e-08	-4.194107e+01	-7.804182e+02
2.920000e-06	-6.091240e-06	-1.204553e-08	-4.266590e+01	-7.884875e+02
2.930000e-06	-6.192391e-06	-1.215471e-08	-4.337442e+01	-7.961977e+02
2.940000e-06	-6.291305e-06	-1.225975e-08	-4.406725e+01	-8.035492e+02
