# Temperatura_=_20.0
# Concentracion g/m^3_=_12600.0
# C_Vs_to_Am_M_A/Vsm_=_65563218390.804596
# pendiente_HvsI_1/m_=_3716.3
# ordenada_HvsI_A/m_=_1297.0
# frecuencia_Hz_=_302319.08880206285

Tiempo_(s)	Campo_(V.s)	Magnetizacion_(V.s)	Campo_(kA/m)	Magnetizacion_(A/m)
0.000000e+00	-8.373700e-06	-1.463307e-08	-5.693242e+01	-9.594537e+02
1.000000e-08	-8.370729e-06	-1.463153e-08	-5.691222e+01	-9.591169e+02
2.000000e-08	-8.365011e-06	-1.462396e-08	-5.687334e+01	-9.586513e+02
3.000000e-08	-8.356491e-06	-1.461443e-08	-5.681542e+01	-9.580754e+02
4.000000e-08	-8.344993e-06	-1.460721e-08	-5.673725e+01	-9.574068e+02
5.000000e-08	-8.330515e-06	-1.459983e-08	-5.663881e+01	-9.566603e+02
6.000000e-08	-8.313139e-06	-1.458843e-08	-5.652067e+01	-9.558460e+02
7.000000e-08	-8.293178e-06	-1.457505e-08	-5.638496e+01	-9.549690e+02
8.000000e-08	-8.270619e-06	-1.458687e-08	-5.623158e+01	-9.540290e+02
9.000000e-08	-8.244903e-06	-1.458672e-08	-5.605674e+01	-9.530218e+02
1.000000e-07	-8.215910e-06	-1.454912e-08	-5.585962e+01	-9.519404e+02
1.100000e-07	-8.183812e-06	-1.450662e-08	-5.564138e+01	-9.507768e+02
1.200000e-07	-8.148662e-06	-1.448179e-08	-5.540240e+01	-9.495235e+02
1.300000e-07	-8.110857e-06	-1.446687e-08	-5.514536e+01	-9.481745e+02
1.400000e-07	-8.070829e-06	-1.442565e-08	-5.487322e+01	-9.467258e+02
1.500000e-07	-8.028355e-06	-1.439920e-08	-5.458444e+01	-9.451749e+02
1.600000e-07	-7.983021e-06	-1.439495e-08	-5.427622e+01	-9.435203e+02
1.700000e-07	-7.934790e-06	-1.434266e-08	-5.394829e+01	-9.417595e+02
1.800000e-07	-7.883524e-06	-1.431555e-08	-5.359974e+01	-9.398885e+02
1.900000e-07	-7.829213e-06	-1.431126e-08	-5.323048e+01	-9.378999e+02
2.000000e-07	-7.772020e-06	-1.425246e-08	-5.284162e+01	-9.357829e+02
2.100000e-07	-7.711991e-06	-1.419885e-08	-5.243349e+01	-9.335231e+02
2.200000e-07	-7.649224e-06	-1.417866e-08	-5.200675e+01	-9.311037e+02
2.300000e-07	-7.583642e-06	-1.415600e-08	-5.156085e+01	-9.285073e+02
2.400000e-07	-7.515195e-06	-1.408927e-08	-5.109548e+01	-9.257177e+02
2.500000e-07	-7.443913e-06	-1.403437e-08	-5.061084e+01	-9.227225e+02
2.600000e-07	-7.369626e-06	-1.400000e-08	-5.010577e+01	-9.195147e+02
2.700000e-07	-7.292379e-06	-1.395796e-08	-4.958057e+01	-9.160941e+02
2.800000e-07	-7.212248e-06	-1.390026e-08	-4.903576e+01	-9.124676e+02
2.900000e-07	-7.129458e-06	-1.383992e-08	-4.847288e+01	-9.086479e+02
3.000000e-07	-7.044284e-06	-1.378791e-08	-4.789378e+01	-9.046521e+02
3.100000e-07	-6.956549e-06	-1.372103e-08	-4.729728e+01	-9.004987e+02
3.200000e-07	-6.866254e-06	-1.365169e-08	-4.668336e+01	-8.962046e+02
3.300000e-07	-6.773566e-06	-1.358992e-08	-4.605318e+01	-8.917819e+02
3.400000e-07	-6.678483e-06	-1.352951e-08	-4.540672e+01	-8.872357e+02
3.500000e-07	-6.580879e-06	-1.344467e-08	-4.474311e+01	-8.825622e+02
3.600000e-07	-6.480868e-06	-1.336809e-08	-4.406314e+01	-8.777490e+02
3.700000e-07	-6.378598e-06	-1.330383e-08	-4.336781e+01	-8.727761e+02
3.800000e-07	-6.273903e-06	-1.321805e-08	-4.265600e+01	-8.676182e+02
3.900000e-07	-6.166956e-06	-1.312450e-08	-4.192887e+01	-8.622480e+02
4.000000e-07	-6.057978e-06	-1.304756e-08	-4.118793e+01	-8.566402e+02
4.100000e-07	-5.946879e-06	-1.296873e-08	-4.043257e+01	-8.507741e+02
4.200000e-07	-5.833450e-06	-1.286034e-08	-3.966137e+01	-8.446368e+02
4.300000e-07	-5.717670e-06	-1.275806e-08	-3.887419e+01	-8.382243e+02
4.400000e-07	-5.599847e-06	-1.267100e-08	-3.807312e+01	-8.315412e+02
4.500000e-07	-5.480047e-06	-1.257434e-08	-3.725860e+01	-8.245987e+02
4.600000e-07	-5.358206e-06	-1.245947e-08	-3.643021e+01	-8.174121e+02
4.700000e-07	-5.234462e-06	-1.234709e-08	-3.558888e+01	-8.099960e+02
4.800000e-07	-5.108958e-06	-1.223877e-08	-3.473558e+01	-8.023611e+02
4.900000e-07	-4.981708e-06	-1.211988e-08	-3.387042e+01	-7.945097e+02
5.000000e-07	-4.852542e-06	-1.199699e-08	-3.299222e+01	-7.864341e+02
5.100000e-07	-4.721481e-06	-1.186964e-08	-3.210115e+01	-7.781146e+02
5.200000e-07	-4.588637e-06	-1.173022e-08	-3.119795e+01	-7.695216e+02
5.300000e-07	-4.454253e-06	-1.158474e-08	-3.028427e+01	-7.606172e+02
5.400000e-07	-4.318317e-06	-1.144609e-08	-2.936005e+01	-7.513600e+02
5.500000e-07	-4.180510e-06	-1.130062e-08	-2.842310e+01	-7.417095e+02
5.600000e-07	-4.040988e-06	-1.114032e-08	-2.747450e+01	-7.316309e+02
5.700000e-07	-3.899818e-06	-1.097462e-08	-2.651469e+01	-7.210992e+02
5.800000e-07	-3.756923e-06	-1.081148e-08	-2.554316e+01	-7.101018e+02
5.900000e-07	-3.612540e-06	-1.064721e-08	-2.456151e+01	-6.986384e+02
6.000000e-07	-3.466908e-06	-1.047170e-08	-2.357136e+01	-6.867195e+02
6.100000e-07	-3.320126e-06	-1.028284e-08	-2.257339e+01	-6.743628e+02
6.200000e-07	-3.172239e-06	-1.008629e-08	-2.156792e+01	-6.615872e+02
6.300000e-07	-3.023215e-06	-9.889138e-09	-2.055471e+01	-6.484077e+02
6.400000e-07	-2.873138e-06	-9.686198e-09	-1.953434e+01	-6.348290e+02
6.500000e-07	-2.722075e-06	-9.468911e-09	-1.850727e+01	-6.208412e+02
6.600000e-07	-2.569896e-06	-9.240284e-09	-1.747261e+01	-6.064177e+02
6.700000e-07	-2.416591e-06	-9.007769e-09	-1.643030e+01	-5.915148e+02
6.800000e-07	-2.262455e-06	-8.771505e-09	-1.538233e+01	-5.760754e+02
6.900000e-07	-2.107630e-06	-8.528579e-09	-1.432968e+01	-5.600334e+02
7.000000e-07	-1.952126e-06	-8.272411e-09	-1.327242e+01	-5.433214e+02
7.100000e-07	-1.796008e-06	-7.999533e-09	-1.221098e+01	-5.258781e+02
7.200000e-07	-1.639309e-06	-7.719006e-09	-1.114559e+01	-5.076549e+02
7.300000e-07	-1.482109e-06	-7.436916e-09	-1.007680e+01	-4.886212e+02
7.400000e-07	-1.324432e-06	-7.142373e-09	-9.004755e+00	-4.687663e+02
7.500000e-07	-1.166325e-06	-6.826707e-09	-7.929793e+00	-4.480984e+02
7.600000e-07	-1.007938e-06	-6.496020e-09	-6.852929e+00	-4.266391e+02
7.700000e-07	-8.493158e-07	-6.159296e-09	-5.774461e+00	-4.044154e+02
7.800000e-07	-6.904191e-07	-5.816187e-09	-4.694130e+00	-3.814491e+02
7.900000e-07	-5.312875e-07	-5.456654e-09	-3.612200e+00	-3.577462e+02
8.000000e-07	-3.719937e-07	-5.076289e-09	-2.529169e+00	-3.332864e+02
8.100000e-07	-2.124995e-07	-4.680206e-09	-1.444775e+00	-3.080163e+02
8.200000e-07	-5.281958e-08	-4.274882e-09	-3.591180e-01	-2.818464e+02
8.300000e-07	1.070070e-07	-3.859243e-09	7.275357e-01	-2.546538e+02
8.400000e-07	2.668263e-07	-3.423711e-09	1.814140e+00	-2.262905e+02
8.500000e-07	4.265011e-07	-2.962786e-09	2.899762e+00	-1.965970e+02
8.600000e-07	5.859885e-07	-2.484203e-09	3.984110e+00	-1.654207e+02
8.700000e-07	7.452072e-07	-1.993938e-09	5.066632e+00	-1.326366e+02
8.800000e-07	9.042036e-07	-1.484171e-09	6.147641e+00	-9.816794e+01
8.900000e-07	1.062988e-06	-9.424183e-10	7.227212e+00	-6.200504e+01
9.000000e-07	1.221515e-06	-3.692673e-10	8.305027e+00	-2.421966e+01
9.100000e-07	1.379726e-06	2.269468e-10	9.380698e+00	1.502741e+01
9.200000e-07	1.537508e-06	8.416594e-10	1.045345e+01	5.548638e+01
9.300000e-07	1.694744e-06	1.473742e-09	1.152249e+01	9.682674e+01
9.400000e-07	1.851330e-06	2.121245e-09	1.258711e+01	1.386532e+02
9.500000e-07	2.007202e-06	2.773633e-09	1.364688e+01	1.805283e+02
9.600000e-07	2.162358e-06	3.412863e-09	1.470178e+01	2.219986e+02
9.700000e-07	2.316839e-06	4.027963e-09	1.575209e+01	2.626233e+02
9.800000e-07	2.470640e-06	4.621284e-09	1.679778e+01	3.020011e+02
9.900000e-07	2.623376e-06	5.192781e-09	1.783622e+01	3.397939e+02
1.000000e-06	2.774785e-06	5.734028e-09	1.886564e+01	3.757434e+02
1.010000e-06	2.925061e-06	6.240008e-09	1.988736e+01	4.096816e+02
1.020000e-06	3.074272e-06	6.713410e-09	2.090184e+01	4.415319e+02
1.030000e-06	3.222386e-06	7.159146e-09	2.190886e+01	4.713033e+02
1.040000e-06	3.369435e-06	7.582991e-09	2.290864e+01	4.990775e+02
1.050000e-06	3.515323e-06	7.981633e-09	2.390053e+01	5.249910e+02
1.060000e-06	3.659786e-06	8.353189e-09	2.488273e+01	5.492149e+02
1.070000e-06	3.802863e-06	8.697685e-09	2.585550e+01	5.719343e+02
1.080000e-06	3.944580e-06	9.025950e-09	2.681903e+01	5.933297e+02
1.090000e-06	4.084781e-06	9.342842e-09	2.777225e+01	6.135622e+02
1.100000e-06	4.223473e-06	9.641952e-09	2.871521e+01	6.327637e+02
1.110000e-06	4.360553e-06	9.918879e-09	2.964721e+01	6.510328e+02
1.120000e-06	4.495954e-06	1.017854e-08	3.056780e+01	6.684354e+02
1.130000e-06	4.629767e-06	1.042790e-08	3.147758e+01	6.850099e+02
1.140000e-06	4.762018e-06	1.066729e-08	3.237676e+01	7.007753e+02
1.150000e-06	4.892688e-06	1.089312e-08	3.326518e+01	7.157410e+02
1.160000e-06	5.021596e-06	1.110430e-08	3.414161e+01	7.299152e+02
1.170000e-06	5.148664e-06	1.130368e-08	3.500554e+01	7.433132e+02
1.180000e-06	5.273962e-06	1.149416e-08	3.585744e+01	7.559616e+02
1.190000e-06	5.397525e-06	1.167777e-08	3.669754e+01	7.679004e+02
1.200000e-06	5.519181e-06	1.185075e-08	3.752467e+01	7.791814e+02
1.210000e-06	5.638712e-06	1.201386e-08	3.833736e+01	7.898647e+02
1.220000e-06	5.756190e-06	1.217034e-08	3.913608e+01	8.000128e+02
1.230000e-06	5.871541e-06	1.232441e-08	3.992035e+01	8.096848e+02
1.240000e-06	5.984529e-06	1.247387e-08	4.068855e+01	8.189310e+02
1.250000e-06	6.095177e-06	1.261303e-08	4.144084e+01	8.277886e+02
1.260000e-06	6.203686e-06	1.273994e-08	4.217860e+01	8.362805e+02
1.270000e-06	6.310051e-06	1.286319e-08	4.290177e+01	8.444150e+02
1.280000e-06	6.414076e-06	1.298507e-08	4.360902e+01	8.521891e+02
1.290000e-06	6.515674e-06	1.309940e-08	4.429978e+01	8.595924e+02
1.300000e-06	6.614882e-06	1.320085e-08	4.497430e+01	8.666128e+02
1.310000e-06	6.711604e-06	1.329526e-08	4.563190e+01	8.732414e+02
1.320000e-06	6.805877e-06	1.338947e-08	4.627286e+01	8.794770e+02
1.330000e-06	6.897862e-06	1.348125e-08	4.689826e+01	8.853288e+02
1.340000e-06	6.987421e-06	1.356689e-08	4.750717e+01	8.908173e+02
1.350000e-06	7.074406e-06	1.364515e-08	4.809858e+01	8.959735e+02
1.360000e-06	7.158903e-06	1.371919e-08	4.867307e+01	9.008349e+02
1.370000e-06	7.240835e-06	1.379243e-08	4.923013e+01	9.054425e+02
1.380000e-06	7.320135e-06	1.386318e-08	4.976928e+01	9.098351e+02
1.390000e-06	7.396819e-06	1.392890e-08	5.029065e+01	9.140450e+02
1.400000e-06	7.470691e-06	1.398866e-08	5.079291e+01	9.180945e+02
1.410000e-06	7.541813e-06	1.404618e-08	5.127646e+01	9.219943e+02
1.420000e-06	7.610356e-06	1.410491e-08	5.174248e+01	9.257424e+02
1.430000e-06	7.676186e-06	1.416066e-08	5.219006e+01	9.293266e+02
1.440000e-06	7.739277e-06	1.421046e-08	5.261901e+01	9.327274e+02
1.450000e-06	7.799774e-06	1.425521e-08	5.303032e+01	9.359218e+02
1.460000e-06	7.857530e-06	1.429932e-08	5.342300e+01	9.388884e+02
1.470000e-06	7.912462e-06	1.434402e-08	5.379649e+01	9.416109e+02
1.480000e-06	7.964347e-06	1.438471e-08	5.414925e+01	9.440817e+02
1.490000e-06	8.012917e-06	1.441878e-08	5.447948e+01	9.463029e+02
1.500000e-06	8.058534e-06	1.444777e-08	5.478963e+01	9.482871e+02
1.510000e-06	8.101330e-06	1.447521e-08	5.508059e+01	9.500552e+02
1.520000e-06	8.141145e-06	1.450122e-08	5.535129e+01	9.516337e+02
1.530000e-06	8.178118e-06	1.452413e-08	5.560267e+01	9.530511e+02
1.540000e-06	8.212252e-06	1.454353e-08	5.583475e+01	9.543340e+02
1.550000e-06	8.243450e-06	1.456007e-08	5.604686e+01	9.555039e+02
1.560000e-06	8.271782e-06	1.457844e-08	5.623949e+01	9.565747e+02
1.570000e-06	8.297087e-06	1.459767e-08	5.641153e+01	9.575514e+02
1.580000e-06	8.319371e-06	1.461149e-08	5.656305e+01	9.584305e+02
1.590000e-06	8.338762e-06	1.461996e-08	5.669488e+01	9.592016e+02
1.600000e-06	8.355084e-06	1.462723e-08	5.680585e+01	9.598502e+02
1.610000e-06	8.368293e-06	1.463575e-08	5.689566e+01	9.603602e+02
1.620000e-06	8.378262e-06	1.464258e-08	5.696344e+01	9.607177e+02
1.630000e-06	8.385047e-06	1.464531e-08	5.700957e+01	9.609132e+02
1.640000e-06	8.388887e-06	1.464451e-08	5.703568e+01	9.609436e+02
1.650000e-06	8.389743e-06	1.464281e-08	5.704150e+01	9.608128e+02
1.660000e-06	8.387770e-06	1.464017e-08	5.702808e+01	9.605310e+02
1.670000e-06	8.383081e-06	1.463671e-08	5.699620e+01	9.601136e+02
1.680000e-06	8.375584e-06	1.463015e-08	5.694524e+01	9.595786e+02
1.690000e-06	8.365273e-06	1.462052e-08	5.687513e+01	9.589442e+02
1.700000e-06	8.352009e-06	1.461223e-08	5.678495e+01	9.582265e+02
1.710000e-06	8.335899e-06	1.460467e-08	5.667541e+01	9.574377e+02
1.720000e-06	8.317262e-06	1.459023e-08	5.654871e+01	9.565847e+02
1.730000e-06	8.296051e-06	1.454104e-08	5.640449e+01	9.556695e+02
1.740000e-06	8.271664e-06	1.450706e-08	5.623869e+01	9.546892e+02
1.750000e-06	8.243429e-06	1.450980e-08	5.604671e+01	9.536376e+02
1.760000e-06	8.211552e-06	1.450693e-08	5.582998e+01	9.525070e+02
1.770000e-06	8.176894e-06	1.447991e-08	5.559435e+01	9.512895e+02
1.780000e-06	8.139915e-06	1.446952e-08	5.534293e+01	9.499784e+02
1.790000e-06	8.100665e-06	1.448207e-08	5.507607e+01	9.485689e+02
1.800000e-06	8.059190e-06	1.442815e-08	5.479408e+01	9.470581e+02
1.810000e-06	8.014980e-06	1.440184e-08	5.449350e+01	9.454442e+02
1.820000e-06	7.967912e-06	1.441206e-08	5.417349e+01	9.437252e+02
1.830000e-06	7.918153e-06	1.437925e-08	5.383518e+01	9.418979e+02
1.840000e-06	7.865195e-06	1.437062e-08	5.347512e+01	9.399563e+02
1.850000e-06	7.809156e-06	1.435675e-08	5.309412e+01	9.378910e+02
1.860000e-06	7.750389e-06	1.430951e-08	5.269456e+01	9.356889e+02
1.870000e-06	7.688817e-06	1.423735e-08	5.227594e+01	9.333341e+02
1.880000e-06	7.624384e-06	1.421541e-08	5.183786e+01	9.308090e+02
1.890000e-06	7.556931e-06	1.421418e-08	5.137925e+01	9.280967e+02
1.900000e-06	7.486428e-06	1.413545e-08	5.089990e+01	9.251832e+02
1.910000e-06	7.413013e-06	1.405068e-08	5.040075e+01	9.220591e+02
1.920000e-06	7.336870e-06	1.401942e-08	4.988306e+01	9.187214e+02
1.930000e-06	7.257871e-06	1.399559e-08	4.934595e+01	9.151743e+02
1.940000e-06	7.176071e-06	1.391793e-08	4.878979e+01	9.114283e+02
1.950000e-06	7.091750e-06	1.384613e-08	4.821650e+01	9.074992e+02
1.960000e-06	7.004735e-06	1.378996e-08	4.762489e+01	9.034053e+02
1.970000e-06	6.915123e-06	1.373652e-08	4.701562e+01	8.991645e+02
1.980000e-06	6.823096e-06	1.367361e-08	4.638993e+01	8.947910e+02
1.990000e-06	6.728632e-06	1.361654e-08	4.574768e+01	8.902930e+02
2.000000e-06	6.631782e-06	1.353551e-08	4.508920e+01	8.856702e+02
2.010000e-06	6.532688e-06	1.342638e-08	4.441546e+01	8.809136e+02
2.020000e-06	6.431204e-06	1.337348e-08	4.372547e+01	8.760060e+02
2.030000e-06	6.327272e-06	1.332707e-08	4.301885e+01	8.709237e+02
2.040000e-06	6.221144e-06	1.323602e-08	4.229729e+01	8.656399e+02
2.050000e-06	6.112833e-06	1.310912e-08	4.156089e+01	8.601279e+02
2.060000e-06	6.002403e-06	1.302489e-08	4.081008e+01	8.543650e+02
2.070000e-06	5.889877e-06	1.295720e-08	4.004502e+01	8.483350e+02
2.080000e-06	5.775158e-06	1.286754e-08	3.926505e+01	8.420303e+02
2.090000e-06	5.658041e-06	1.275601e-08	3.846878e+01	8.354522e+02
2.100000e-06	5.538673e-06	1.263414e-08	3.765720e+01	8.286096e+02
2.110000e-06	5.417360e-06	1.252863e-08	3.683239e+01	8.215168e+02
2.120000e-06	5.294253e-06	1.243115e-08	3.599540e+01	8.141890e+02
2.130000e-06	5.169245e-06	1.233210e-08	3.514547e+01	8.066389e+02
2.140000e-06	5.042258e-06	1.219853e-08	3.428209e+01	7.988727e+02
2.150000e-06	4.913495e-06	1.206026e-08	3.340664e+01	7.908865e+02
2.160000e-06	4.783075e-06	1.193975e-08	3.251992e+01	7.826656e+02
2.170000e-06	4.651015e-06	1.183262e-08	3.162205e+01	7.741839e+02
2.180000e-06	4.517130e-06	1.170015e-08	3.071177e+01	7.654064e+02
2.190000e-06	4.381530e-06	1.154048e-08	2.978984e+01	7.562926e+02
2.200000e-06	4.244301e-06	1.138045e-08	2.885682e+01	7.468008e+02
2.210000e-06	4.105425e-06	1.123986e-08	2.791261e+01	7.368937e+02
2.220000e-06	3.964833e-06	1.110324e-08	2.695673e+01	7.265420e+02
2.230000e-06	3.822570e-06	1.093634e-08	2.598949e+01	7.157280e+02
2.240000e-06	3.678899e-06	1.074228e-08	2.501268e+01	7.044467e+02
2.250000e-06	3.533959e-06	1.055472e-08	2.402724e+01	6.927047e+02
2.260000e-06	3.387848e-06	1.038878e-08	2.303383e+01	6.805173e+02
2.270000e-06	3.240566e-06	1.021372e-08	2.203247e+01	6.679039e+02
2.280000e-06	3.091914e-06	1.001119e-08	2.102179e+01	6.548816e+02
2.290000e-06	2.941910e-06	9.789828e-09	2.000192e+01	6.414597e+02
2.300000e-06	2.790966e-06	9.576268e-09	1.897565e+01	6.276346e+02
2.310000e-06	2.639227e-06	9.372690e-09	1.794399e+01	6.133862e+02
2.320000e-06	2.486592e-06	9.160662e-09	1.690623e+01	5.986776e+02
2.330000e-06	2.333051e-06	8.917687e-09	1.586231e+01	5.834562e+02
2.340000e-06	2.178719e-06	8.652972e-09	1.481301e+01	5.676588e+02
2.350000e-06	2.023828e-06	8.397629e-09	1.375992e+01	5.512176e+02
2.360000e-06	1.868435e-06	8.154769e-09	1.270341e+01	5.340680e+02
2.370000e-06	1.712283e-06	7.891333e-09	1.164174e+01	5.161556e+02
2.380000e-06	1.555178e-06	7.592689e-09	1.057359e+01	4.974424e+02
2.390000e-06	1.397312e-06	7.283541e-09	9.500266e+00	4.779098e+02
2.400000e-06	1.238988e-06	6.984658e-09	8.423829e+00	4.575591e+02
2.410000e-06	1.080304e-06	6.685124e-09	7.344941e+00	4.364073e+02
2.420000e-06	9.213225e-07	6.361337e-09	6.264032e+00	4.144805e+02
2.430000e-06	7.620818e-07	6.004727e-09	5.181361e+00	3.918038e+02
2.440000e-06	6.025867e-07	5.634995e-09	4.096961e+00	3.683908e+02
2.450000e-06	4.428644e-07	5.273314e-09	3.011016e+00	3.442324e+02
2.460000e-06	2.829990e-07	4.905354e-09	1.924098e+00	3.192891e+02
2.470000e-06	1.230317e-07	4.504038e-09	8.364874e-01	2.934853e+02
2.480000e-06	-3.701623e-08	4.072373e-09	-2.516717e-01	2.667108e+02
2.490000e-06	-1.971112e-07	3.637047e-09	-1.340150e+00	2.388259e+02
2.500000e-06	-3.571667e-07	3.204277e-09	-2.428361e+00	2.096736e+02
2.510000e-06	-5.171118e-07	2.751561e-09	-3.515821e+00	1.790966e+02
2.520000e-06	-6.769105e-07	2.259556e-09	-4.602285e+00	1.469561e+02
2.530000e-06	-8.364625e-07	1.734500e-09	-5.687072e+00	1.131542e+02
2.540000e-06	-9.957404e-07	1.196644e-09	-6.769996e+00	7.765282e+01
2.550000e-06	-1.154721e-06	6.500192e-10	-7.850895e+00	4.049042e+01
2.560000e-06	-1.313397e-06	7.551532e-11	-8.929731e+00	1.792354e+00
2.570000e-06	-1.471621e-06	-5.400704e-10	-1.000549e+01	-3.822601e+01
2.580000e-06	-1.629165e-06	-1.182960e-09	-1.107662e+01	-7.926438e+01
2.590000e-06	-1.785904e-06	-1.827433e-09	-1.214228e+01	-1.209506e+02
2.600000e-06	-1.941798e-06	-2.467860e-09	-1.320220e+01	-1.628606e+02
2.610000e-06	-2.096927e-06	-3.110656e-09	-1.425692e+01	-2.045441e+02
2.620000e-06	-2.251324e-06	-3.750098e-09	-1.530665e+01	-2.455519e+02
2.630000e-06	-2.404910e-06	-4.369322e-09	-1.635088e+01	-2.854641e+02
2.640000e-06	-2.557545e-06	-4.952609e-09	-1.738864e+01	-3.239154e+02
2.650000e-06	-2.709202e-06	-5.499157e-09	-1.841975e+01	-3.606145e+02
2.660000e-06	-2.860035e-06	-6.022797e-09	-1.944525e+01	-3.953572e+02
2.670000e-06	-3.009848e-06	-6.528388e-09	-2.046382e+01	-4.280315e+02
2.680000e-06	-3.158251e-06	-7.002401e-09	-2.147281e+01	-4.586138e+02
2.690000e-06	-3.305408e-06	-7.432994e-09	-2.247332e+01	-4.871592e+02
2.700000e-06	-3.451466e-06	-7.829557e-09	-2.346636e+01	-5.137850e+02
2.710000e-06	-3.596295e-06	-8.211777e-09	-2.445105e+01	-5.386512e+02
2.720000e-06	-3.739878e-06	-8.582700e-09	-2.542727e+01	-5.619398e+02
2.730000e-06	-3.882140e-06	-8.928159e-09	-2.639450e+01	-5.838350e+02
2.740000e-06	-4.022777e-06	-9.242818e-09	-2.735069e+01	-6.045071e+02
2.750000e-06	-4.161768e-06	-9.537522e-09	-2.829568e+01	-6.241003e+02
2.760000e-06	-4.299310e-06	-9.824107e-09	-2.923082e+01	-6.427264e+02
2.770000e-06	-4.435380e-06	-1.010346e-08	-3.015596e+01	-6.604638e+02
2.780000e-06	-4.569937e-06	-1.036512e-08	-3.107081e+01	-6.773607e+02
2.790000e-06	-4.702827e-06	-1.060210e-08	-3.197431e+01	-6.934428e+02
2.800000e-06	-4.834022e-06	-1.082334e-08	-3.286630e+01	-7.087221e+02
2.810000e-06	-4.963584e-06	-1.104294e-08	-3.374719e+01	-7.232062e+02
2.820000e-06	-5.091457e-06	-1.125888e-08	-3.461660e+01	-7.369070e+02
2.830000e-06	-5.217569e-06	-1.145846e-08	-3.547402e+01	-7.498461e+02
2.840000e-06	-5.341771e-06	-1.163868e-08	-3.631847e+01	-7.620583e+02
2.850000e-06	-5.464054e-06	-1.181018e-08	-3.714987e+01	-7.735912e+02
2.860000e-06	-5.584484e-06	-1.198266e-08	-3.796867e+01	-7.845022e+02
2.870000e-06	-5.702808e-06	-1.215013e-08	-3.877314e+01	-7.948534e+02
2.880000e-06	-5.818699e-06	-1.230257e-08	-3.956108e+01	-8.047061e+02
2.890000e-06	-5.932239e-06	-1.244072e-08	-4.033304e+01	-8.141146e+02
2.900000e-06	-6.043450e-06	-1.257491e-08	-4.108916e+01	-8.231216e+02
2.910000e-06	-6.152377e-06	-1.271122e-08	-4.182975e+01	-8.317557e+02
2.920000e-06	-6.259225e-06	-1.284048e-08	-4.255620e+01	-8.400307e+02
2.930000e-06	-6.363881e-06	-1.295507e-08	-4.326775e+01	-8.479476e+02
2.940000e-06	-6.466102e-06	-1.306047e-08	-4.396275e+01	-8.554983e+02
