# Temperatura_=_20.0
# Concentracion g/m^3_=_12600.0
# C_Vs_to_Am_M_A/Vsm_=_65563218390.804596
# pendiente_HvsI_1/m_=_3716.3
# ordenada_HvsI_A/m_=_1297.0
# frecuencia_Hz_=_302311.02847019205

Tiempo_(s)	Campo_(V.s)	Magnetizacion_(V.s)	Campo_(kA/m)	Magnetizacion_(A/m)
0.000000e+00	-8.170899e-06	-1.349203e-08	-5.693885e+01	-8.830634e+02
1.000000e-08	-8.167512e-06	-1.348887e-08	-5.691525e+01	-8.827680e+02
2.000000e-08	-8.161524e-06	-1.348170e-08	-5.687352e+01	-8.823503e+02
3.000000e-08	-8.152928e-06	-1.347547e-08	-5.681362e+01	-8.818242e+02
4.000000e-08	-8.141407e-06	-1.346875e-08	-5.673333e+01	-8.812038e+02
5.000000e-08	-8.126918e-06	-1.345761e-08	-5.663237e+01	-8.805015e+02
6.000000e-08	-8.109648e-06	-1.343988e-08	-5.651202e+01	-8.797271e+02
7.000000e-08	-8.089837e-06	-1.341704e-08	-5.637397e+01	-8.788873e+02
8.000000e-08	-8.067457e-06	-1.342164e-08	-5.621802e+01	-8.779853e+02
9.000000e-08	-8.042033e-06	-1.343356e-08	-5.604085e+01	-8.770219e+02
1.000000e-07	-8.013379e-06	-1.341240e-08	-5.584118e+01	-8.759956e+02
1.100000e-07	-7.981680e-06	-1.337451e-08	-5.562028e+01	-8.749043e+02
1.200000e-07	-7.947053e-06	-1.334365e-08	-5.537898e+01	-8.737454e+02
1.300000e-07	-7.909813e-06	-1.330774e-08	-5.511947e+01	-8.725167e+02
1.400000e-07	-7.870404e-06	-1.326773e-08	-5.484485e+01	-8.712162e+02
1.500000e-07	-7.828690e-06	-1.330826e-08	-5.455417e+01	-8.698417e+02
1.600000e-07	-7.784199e-06	-1.328331e-08	-5.424413e+01	-8.683902e+02
1.700000e-07	-7.736934e-06	-1.320412e-08	-5.391477e+01	-8.668566e+02
1.800000e-07	-7.686718e-06	-1.321528e-08	-5.356484e+01	-8.652329e+02
1.900000e-07	-7.633335e-06	-1.318487e-08	-5.319284e+01	-8.635076e+02
2.000000e-07	-7.577127e-06	-1.315692e-08	-5.280116e+01	-8.616654e+02
2.100000e-07	-7.518185e-06	-1.313096e-08	-5.239042e+01	-8.596882e+02
2.200000e-07	-7.456553e-06	-1.307427e-08	-5.196094e+01	-8.575558e+02
2.300000e-07	-7.392254e-06	-1.302658e-08	-5.151287e+01	-8.552480e+02
2.400000e-07	-7.325144e-06	-1.298838e-08	-5.104521e+01	-8.527466e+02
2.500000e-07	-7.255237e-06	-1.297737e-08	-5.055806e+01	-8.500375e+02
2.600000e-07	-7.182510e-06	-1.293151e-08	-5.005127e+01	-8.471124e+02
2.700000e-07	-7.106882e-06	-1.286222e-08	-4.952426e+01	-8.439698e+02
2.800000e-07	-7.028414e-06	-1.279573e-08	-4.897745e+01	-8.406157e+02
2.900000e-07	-6.947254e-06	-1.275728e-08	-4.841189e+01	-8.370621e+02
3.000000e-07	-6.863623e-06	-1.273031e-08	-4.782911e+01	-8.333257e+02
3.100000e-07	-6.777645e-06	-1.265228e-08	-4.722997e+01	-8.294251e+02
3.200000e-07	-6.689277e-06	-1.257115e-08	-4.661418e+01	-8.253783e+02
3.300000e-07	-6.598496e-06	-1.251465e-08	-4.598157e+01	-8.211995e+02
3.400000e-07	-6.505362e-06	-1.247024e-08	-4.533257e+01	-8.168966e+02
3.500000e-07	-6.409885e-06	-1.240593e-08	-4.466724e+01	-8.124699e+02
3.600000e-07	-6.312012e-06	-1.232431e-08	-4.398521e+01	-8.079117e+02
3.700000e-07	-6.211769e-06	-1.224109e-08	-4.328667e+01	-8.032067e+02
3.800000e-07	-6.109288e-06	-1.216164e-08	-4.257253e+01	-7.983340e+02
3.900000e-07	-6.004706e-06	-1.209933e-08	-4.184375e+01	-7.932701e+02
4.000000e-07	-5.898024e-06	-1.203081e-08	-4.110034e+01	-7.879919e+02
4.100000e-07	-5.789273e-06	-1.193507e-08	-4.034251e+01	-7.824794e+02
4.200000e-07	-5.678446e-06	-1.182247e-08	-3.957021e+01	-7.767190e+02
4.300000e-07	-5.565527e-06	-1.173728e-08	-3.878334e+01	-7.707043e+02
4.400000e-07	-5.450459e-06	-1.166855e-08	-3.798148e+01	-7.644366e+02
4.500000e-07	-5.333285e-06	-1.157511e-08	-3.716496e+01	-7.579237e+02
4.600000e-07	-5.214169e-06	-1.145393e-08	-3.633490e+01	-7.511777e+02
4.700000e-07	-5.093212e-06	-1.134277e-08	-3.549201e+01	-7.442117e+02
4.800000e-07	-4.970468e-06	-1.124976e-08	-3.463667e+01	-7.370362e+02
4.900000e-07	-4.845928e-06	-1.114750e-08	-3.376881e+01	-7.296559e+02
5.000000e-07	-4.719628e-06	-1.102845e-08	-3.288869e+01	-7.220670e+02
5.100000e-07	-4.591588e-06	-1.089559e-08	-3.199644e+01	-7.142561e+02
5.200000e-07	-4.461846e-06	-1.076171e-08	-3.109234e+01	-7.062004e+02
5.300000e-07	-4.330351e-06	-1.063832e-08	-3.017602e+01	-6.978690e+02
5.400000e-07	-4.197250e-06	-1.051800e-08	-2.924851e+01	-6.892266e+02
5.500000e-07	-4.062693e-06	-1.037625e-08	-2.831084e+01	-6.802369e+02
5.600000e-07	-3.926568e-06	-1.021604e-08	-2.736226e+01	-6.708668e+02
5.700000e-07	-3.788976e-06	-1.005984e-08	-2.640345e+01	-6.610901e+02
5.800000e-07	-3.649868e-06	-9.916354e-09	-2.543408e+01	-6.508901e+02
5.900000e-07	-3.509135e-06	-9.767335e-09	-2.445338e+01	-6.402605e+02
6.000000e-07	-3.366995e-06	-9.594413e-09	-2.346288e+01	-6.292050e+02
6.100000e-07	-3.223644e-06	-9.407989e-09	-2.246394e+01	-6.177344e+02
6.200000e-07	-3.079023e-06	-9.226582e-09	-2.145615e+01	-6.058628e+02
6.300000e-07	-2.933187e-06	-9.053084e-09	-2.043989e+01	-5.936031e+02
6.400000e-07	-2.786357e-06	-8.867788e-09	-1.941671e+01	-5.809616e+02
6.500000e-07	-2.638624e-06	-8.660361e-09	-1.838723e+01	-5.679344e+02
6.600000e-07	-2.490040e-06	-8.442366e-09	-1.735182e+01	-5.545045e+02
6.700000e-07	-2.340700e-06	-8.228880e-09	-1.631115e+01	-5.406410e+02
6.800000e-07	-2.190545e-06	-8.016877e-09	-1.526480e+01	-5.263010e+02
6.900000e-07	-2.039580e-06	-7.790057e-09	-1.421280e+01	-5.114328e+02
7.000000e-07	-1.887884e-06	-7.542515e-09	-1.315571e+01	-4.959817e+02
7.100000e-07	-1.735437e-06	-7.284453e-09	-1.209338e+01	-4.798959e+02
7.200000e-07	-1.582460e-06	-7.030952e-09	-1.102736e+01	-4.631325e+02
7.300000e-07	-1.429150e-06	-6.776653e-09	-9.959020e+00	-4.456623e+02
7.400000e-07	-1.275445e-06	-6.504911e-09	-8.887926e+00	-4.274732e+02
7.500000e-07	-1.121250e-06	-6.210357e-09	-7.813425e+00	-4.085696e+02
7.600000e-07	-9.665739e-07	-5.907342e-09	-6.735563e+00	-3.889700e+02
7.700000e-07	-8.114345e-07	-5.606748e-09	-5.654475e+00	-3.687012e+02
7.800000e-07	-6.558751e-07	-5.297820e-09	-4.570461e+00	-3.477901e+02
7.900000e-07	-5.000219e-07	-4.967257e-09	-3.484399e+00	-3.262553e+02
8.000000e-07	-3.439646e-07	-4.618843e-09	-2.396915e+00	-3.040976e+02
8.100000e-07	-1.877524e-07	-4.264200e-09	-1.308351e+00	-2.812931e+02
8.200000e-07	-3.137513e-08	-3.904368e-09	-2.186374e-01	-2.577892e+02
8.300000e-07	1.251096e-07	-3.534598e-09	8.718250e-01	-2.335037e+02
8.400000e-07	2.815624e-07	-3.146166e-09	1.962066e+00	-2.083296e+02
8.500000e-07	4.379459e-07	-2.738424e-09	3.051823e+00	-1.821438e+02
8.600000e-07	5.941872e-07	-2.320090e-09	4.140589e+00	-1.548198e+02
8.700000e-07	7.502008e-07	-1.893343e-09	5.227769e+00	-1.262439e+02
8.800000e-07	9.059426e-07	-1.448258e-09	6.313055e+00	-9.633147e+01
8.900000e-07	1.061309e-06	-9.731012e-10	7.395727e+00	-6.504327e+01
9.000000e-07	1.216104e-06	-4.731631e-10	8.474413e+00	-3.239902e+01
9.100000e-07	1.370232e-06	3.988445e-11	9.548455e+00	1.513570e+00
9.200000e-07	1.523845e-06	5.658970e-10	1.061890e+01	3.653537e+01
9.300000e-07	1.677022e-06	1.112103e-09	1.168631e+01	7.243871e+01
9.400000e-07	1.829664e-06	1.677576e-09	1.275000e+01	1.089366e+02
9.500000e-07	1.981633e-06	2.248108e-09	1.380899e+01	1.456978e+02
9.600000e-07	2.132830e-06	2.808775e-09	1.486261e+01	1.823656e+02
9.700000e-07	2.283187e-06	3.357384e-09	1.591037e+01	2.185797e+02
9.800000e-07	2.432703e-06	3.895396e-09	1.695227e+01	2.539976e+02
9.900000e-07	2.581453e-06	4.418960e-09	1.798884e+01	2.883152e+02
1.000000e-06	2.729284e-06	4.919329e-09	1.901900e+01	3.212823e+02
1.010000e-06	2.875899e-06	5.390575e-09	2.004068e+01	3.527145e+02
1.020000e-06	3.021369e-06	5.833770e-09	2.105439e+01	3.824973e+02
1.030000e-06	3.165799e-06	6.253020e-09	2.206085e+01	4.105856e+02
1.040000e-06	3.309066e-06	6.654579e-09	2.305920e+01	4.369970e+02
1.050000e-06	3.451095e-06	7.034669e-09	2.404893e+01	4.618000e+02
1.060000e-06	3.591877e-06	7.389163e-09	2.502997e+01	4.851002e+02
1.070000e-06	3.731183e-06	7.720983e-09	2.600072e+01	5.070247e+02
1.080000e-06	3.868951e-06	8.038263e-09	2.696076e+01	5.277072e+02
1.090000e-06	4.005353e-06	8.343218e-09	2.791127e+01	5.472750e+02
1.100000e-06	4.140281e-06	8.629021e-09	2.885152e+01	5.658400e+02
1.110000e-06	4.273736e-06	8.895834e-09	2.978150e+01	5.834925e+02
1.120000e-06	4.405735e-06	9.148637e-09	3.070133e+01	6.002995e+02
1.130000e-06	4.536138e-06	9.390599e-09	3.161005e+01	6.163068e+02
1.140000e-06	4.664935e-06	9.622619e-09	3.250756e+01	6.315434e+02
1.150000e-06	4.792109e-06	9.841700e-09	3.339378e+01	6.460276e+02
1.160000e-06	4.917672e-06	1.004602e-08	3.426876e+01	6.597738e+02
1.170000e-06	5.041624e-06	1.023825e-08	3.513252e+01	6.727979e+02
1.180000e-06	5.163775e-06	1.042327e-08	3.598373e+01	6.851224e+02
1.190000e-06	5.284027e-06	1.060292e-08	3.682170e+01	6.967783e+02
1.200000e-06	5.402381e-06	1.077242e-08	3.764645e+01	7.078053e+02
1.210000e-06	5.518717e-06	1.093001e-08	3.845714e+01	7.182498e+02
1.220000e-06	5.632813e-06	1.108111e-08	3.925222e+01	7.281620e+02
1.230000e-06	5.744675e-06	1.123019e-08	4.003172e+01	7.375912e+02
1.240000e-06	5.854488e-06	1.137546e-08	4.079696e+01	7.465822e+02
1.250000e-06	5.962265e-06	1.151057e-08	4.154800e+01	7.551715e+02
1.260000e-06	6.067849e-06	1.163429e-08	4.228376e+01	7.633861e+02
1.270000e-06	6.171186e-06	1.175388e-08	4.300387e+01	7.712419e+02
1.280000e-06	6.272302e-06	1.187172e-08	4.370849e+01	7.787461e+02
1.290000e-06	6.371103e-06	1.198254e-08	4.439698e+01	7.858987e+02
1.300000e-06	6.467452e-06	1.208155e-08	4.506839e+01	7.926965e+02
1.310000e-06	6.561449e-06	1.217266e-08	4.572341e+01	7.991367e+02
1.320000e-06	6.653250e-06	1.226289e-08	4.636313e+01	8.052199e+02
1.330000e-06	6.742674e-06	1.235238e-08	4.698627e+01	8.109528e+02
1.340000e-06	6.829630e-06	1.243645e-08	4.759223e+01	8.163492e+02
1.350000e-06	6.914276e-06	1.251168e-08	4.818208e+01	8.214302e+02
1.360000e-06	6.996480e-06	1.258216e-08	4.875492e+01	8.262219e+02
1.370000e-06	7.076077e-06	1.265282e-08	4.930959e+01	8.307538e+02
1.380000e-06	7.153089e-06	1.272150e-08	4.984625e+01	8.350549e+02
1.390000e-06	7.227384e-06	1.278548e-08	5.036397e+01	8.391509e+02
1.400000e-06	7.298986e-06	1.284309e-08	5.086293e+01	8.430619e+02
1.410000e-06	7.368069e-06	1.289736e-08	5.134434e+01	8.468000e+02
1.420000e-06	7.434543e-06	1.295225e-08	5.180756e+01	8.503692e+02
1.430000e-06	7.498324e-06	1.300457e-08	5.225202e+01	8.537662e+02
1.440000e-06	7.559609e-06	1.305121e-08	5.267908e+01	8.569819e+02
1.450000e-06	7.618329e-06	1.309327e-08	5.308827e+01	8.600043e+02
1.460000e-06	7.674304e-06	1.313452e-08	5.347833e+01	8.628211e+02
1.470000e-06	7.727418e-06	1.317516e-08	5.384846e+01	8.654231e+02
1.480000e-06	7.777322e-06	1.321267e-08	5.419621e+01	8.678057e+02
1.490000e-06	7.824197e-06	1.324546e-08	5.452286e+01	8.699709e+02
1.500000e-06	7.868374e-06	1.327423e-08	5.483071e+01	8.719272e+02
1.510000e-06	7.909738e-06	1.329997e-08	5.511895e+01	8.736888e+02
1.520000e-06	7.948243e-06	1.332330e-08	5.538727e+01	8.752740e+02
1.530000e-06	7.983960e-06	1.334559e-08	5.563616e+01	8.767026e+02
1.540000e-06	8.016841e-06	1.336403e-08	5.586530e+01	8.779938e+02
1.550000e-06	8.046900e-06	1.337867e-08	5.607476e+01	8.791632e+02
1.560000e-06	8.074158e-06	1.339480e-08	5.626471e+01	8.802217e+02
1.570000e-06	8.098447e-06	1.341239e-08	5.643397e+01	8.811742e+02
1.580000e-06	8.119852e-06	1.342692e-08	5.658313e+01	8.820198e+02
1.590000e-06	8.138391e-06	1.343630e-08	5.671232e+01	8.827526e+02
1.600000e-06	8.153894e-06	1.344189e-08	5.682035e+01	8.833634e+02
1.610000e-06	8.166308e-06	1.344817e-08	5.690686e+01	8.838423e+02
1.620000e-06	8.175519e-06	1.345303e-08	5.697104e+01	8.841800e+02
1.630000e-06	8.181740e-06	1.345359e-08	5.701440e+01	8.843704e+02
1.640000e-06	8.185159e-06	1.345138e-08	5.703822e+01	8.844116e+02
1.650000e-06	8.185630e-06	1.344999e-08	5.704150e+01	8.843064e+02
1.660000e-06	8.183318e-06	1.344776e-08	5.702539e+01	8.840624e+02
1.670000e-06	8.178325e-06	1.344413e-08	5.699060e+01	8.836909e+02
1.680000e-06	8.170567e-06	1.343853e-08	5.693653e+01	8.832055e+02
1.690000e-06	8.160105e-06	1.343082e-08	5.686363e+01	8.826203e+02
1.700000e-06	8.146814e-06	1.342542e-08	5.677102e+01	8.819486e+02
1.710000e-06	8.130743e-06	1.342359e-08	5.665902e+01	8.812013e+02
1.720000e-06	8.112223e-06	1.342077e-08	5.652997e+01	8.803864e+02
1.730000e-06	8.091184e-06	1.337807e-08	5.638336e+01	8.795084e+02
1.740000e-06	8.066949e-06	1.333517e-08	5.621447e+01	8.785689e+02
1.750000e-06	8.038911e-06	1.332920e-08	5.601909e+01	8.775674e+02
1.760000e-06	8.007364e-06	1.332667e-08	5.579926e+01	8.765017e+02
1.770000e-06	7.973161e-06	1.331453e-08	5.556092e+01	8.753694e+02
1.780000e-06	7.936745e-06	1.333181e-08	5.530715e+01	8.741681e+02
1.790000e-06	7.898164e-06	1.329348e-08	5.503830e+01	8.728958e+02
1.800000e-06	7.857321e-06	1.322864e-08	5.475368e+01	8.715504e+02
1.810000e-06	7.813821e-06	1.324743e-08	5.445056e+01	8.701295e+02
1.820000e-06	7.767698e-06	1.322543e-08	5.412915e+01	8.686287e+02
1.830000e-06	7.718814e-06	1.323646e-08	5.378850e+01	8.670413e+02
1.840000e-06	7.666760e-06	1.321381e-08	5.342576e+01	8.653573e+02
1.850000e-06	7.611793e-06	1.315147e-08	5.304272e+01	8.635628e+02
1.860000e-06	7.554062e-06	1.315564e-08	5.264042e+01	8.616407e+02
1.870000e-06	7.493659e-06	1.312952e-08	5.221951e+01	8.595715e+02
1.880000e-06	7.430507e-06	1.313367e-08	5.177944e+01	8.573347e+02
1.890000e-06	7.364399e-06	1.307490e-08	5.131876e+01	8.549111e+02
1.900000e-06	7.295448e-06	1.297202e-08	5.083828e+01	8.522847e+02
1.910000e-06	7.223637e-06	1.294691e-08	5.033786e+01	8.494448e+02
1.920000e-06	7.149083e-06	1.293922e-08	4.981833e+01	8.463871e+02
1.930000e-06	7.071681e-06	1.291019e-08	4.927896e+01	8.431148e+02
1.940000e-06	6.991469e-06	1.281543e-08	4.872000e+01	8.396376e+02
1.950000e-06	6.908747e-06	1.273927e-08	4.814356e+01	8.359705e+02
1.960000e-06	6.823462e-06	1.270134e-08	4.754924e+01	8.321320e+02
1.970000e-06	6.735650e-06	1.266123e-08	4.693732e+01	8.281404e+02
1.980000e-06	6.645410e-06	1.261344e-08	4.630849e+01	8.240119e+02
1.990000e-06	6.552869e-06	1.252493e-08	4.566362e+01	8.197570e+02
2.000000e-06	6.458019e-06	1.243248e-08	4.500266e+01	8.153793e+02
2.010000e-06	6.360909e-06	1.237288e-08	4.432595e+01	8.108739e+02
2.020000e-06	6.261580e-06	1.234270e-08	4.363378e+01	8.062286e+02
2.030000e-06	6.159977e-06	1.227361e-08	4.292575e+01	8.014242e+02
2.040000e-06	6.056119e-06	1.215174e-08	4.220202e+01	7.964381e+02
2.050000e-06	5.950107e-06	1.205220e-08	4.146328e+01	7.912465e+02
2.060000e-06	5.842109e-06	1.199711e-08	4.071069e+01	7.858278e+02
2.070000e-06	5.732140e-06	1.193750e-08	3.994438e+01	7.801658e+02
2.080000e-06	5.620016e-06	1.183897e-08	3.916304e+01	7.742510e+02
2.090000e-06	5.505654e-06	1.171657e-08	3.836611e+01	7.680818e+02
2.100000e-06	5.389237e-06	1.160790e-08	3.755486e+01	7.616637e+02
2.110000e-06	5.270800e-06	1.152521e-08	3.672953e+01	7.550075e+02
2.120000e-06	5.150385e-06	1.144504e-08	3.589042e+01	7.481263e+02
2.130000e-06	5.028070e-06	1.133243e-08	3.503807e+01	7.410319e+02
2.140000e-06	4.903898e-06	1.119180e-08	3.417278e+01	7.337317e+02
2.150000e-06	4.778042e-06	1.107210e-08	3.329575e+01	7.262256e+02
2.160000e-06	4.650418e-06	1.098338e-08	3.240641e+01	7.185039e+02
2.170000e-06	4.521032e-06	1.087980e-08	3.150478e+01	7.105474e+02
2.180000e-06	4.390045e-06	1.073318e-08	3.059200e+01	7.023282e+02
2.190000e-06	4.257463e-06	1.057498e-08	2.966810e+01	6.938121e+02
2.200000e-06	4.123339e-06	1.044251e-08	2.873346e+01	6.849629e+02
2.210000e-06	3.987629e-06	1.032929e-08	2.778777e+01	6.757456e+02
2.220000e-06	3.850319e-06	1.019503e-08	2.683092e+01	6.661309e+02
2.230000e-06	3.711516e-06	1.002205e-08	2.586368e+01	6.560983e+02
2.240000e-06	3.571318e-06	9.838897e-09	2.488670e+01	6.456373e+02
2.250000e-06	3.429848e-06	9.681405e-09	2.390087e+01	6.347479e+02
2.260000e-06	3.287098e-06	9.536947e-09	2.290612e+01	6.234385e+02
2.270000e-06	3.142947e-06	9.367155e-09	2.190160e+01	6.117225e+02
2.280000e-06	2.997559e-06	9.164069e-09	2.088847e+01	5.996139e+02
2.290000e-06	2.851152e-06	8.959449e-09	1.986823e+01	5.871219e+02
2.300000e-06	2.703843e-06	8.776620e-09	1.884171e+01	5.742473e+02
2.310000e-06	2.555611e-06	8.596829e-09	1.780875e+01	5.609783e+02
2.320000e-06	2.406462e-06	8.388383e-09	1.676941e+01	5.472894e+02
2.330000e-06	2.256615e-06	8.150274e-09	1.572520e+01	5.331422e+02
2.340000e-06	2.106090e-06	7.912641e-09	1.467627e+01	5.184877e+02
2.350000e-06	1.954715e-06	7.693193e-09	1.362142e+01	5.032719e+02
2.360000e-06	1.802525e-06	7.470737e-09	1.256088e+01	4.874410e+02
2.370000e-06	1.649678e-06	7.214414e-09	1.149577e+01	4.709478e+02
2.380000e-06	1.496302e-06	6.931535e-09	1.042697e+01	4.537575e+02
2.390000e-06	1.342555e-06	6.655355e-09	9.355586e+00	4.358510e+02
2.400000e-06	1.188413e-06	6.393217e-09	8.281446e+00	4.172263e+02
2.410000e-06	1.033808e-06	6.119871e-09	7.204083e+00	3.978970e+02
2.420000e-06	8.787606e-07	5.813153e-09	6.123637e+00	3.778875e+02
2.430000e-06	7.234197e-07	5.481953e-09	5.041145e+00	3.572256e+02
2.440000e-06	5.678998e-07	5.154439e-09	3.957406e+00	3.359343e+02
2.450000e-06	4.121442e-07	4.836625e-09	2.872024e+00	3.140224e+02
2.460000e-06	2.561662e-07	4.503452e-09	1.785092e+00	2.914765e+02
2.470000e-06	1.000341e-07	4.133854e-09	6.970867e-01	2.682554e+02
2.480000e-06	-5.612739e-08	3.745555e-09	-3.911233e-01	2.442882e+02
2.490000e-06	-2.122697e-07	3.364553e-09	-1.479200e+00	2.194770e+02
2.500000e-06	-3.683477e-07	2.985276e-09	-2.566828e+00	1.937036e+02
2.510000e-06	-5.242925e-07	2.581167e-09	-3.653529e+00	1.668412e+02
2.520000e-06	-6.801104e-07	2.142741e-09	-4.739344e+00	1.387690e+02
2.530000e-06	-8.356938e-07	1.688164e-09	-5.823526e+00	1.093889e+02
2.540000e-06	-9.908930e-07	1.232008e-09	-6.905031e+00	7.864212e+01
2.550000e-06	-1.145707e-06	7.647237e-10	-7.983854e+00	4.652382e+01
2.560000e-06	-1.300105e-06	2.642996e-10	-9.059769e+00	1.309426e+01
2.570000e-06	-1.453998e-06	-2.754038e-10	-1.013218e+01	-2.151551e+01
2.580000e-06	-1.607412e-06	-8.318778e-10	-1.120124e+01	-5.710397e+01
2.590000e-06	-1.760403e-06	-1.385523e-09	-1.226736e+01	-9.340599e+01
2.600000e-06	-1.912859e-06	-1.941830e-09	-1.332975e+01	-1.301056e+02
2.610000e-06	-2.064433e-06	-2.511568e-09	-1.438599e+01	-1.668536e+02
2.620000e-06	-2.214901e-06	-3.086415e-09	-1.543452e+01	-2.032884e+02
2.630000e-06	-2.364470e-06	-3.641280e-09	-1.647679e+01	-2.390581e+02
2.640000e-06	-2.513322e-06	-4.162755e-09	-1.751407e+01	-2.738413e+02
2.650000e-06	-2.661296e-06	-4.661819e-09	-1.854522e+01	-3.073651e+02
2.660000e-06	-2.808284e-06	-5.152473e-09	-1.956951e+01	-3.394180e+02
2.670000e-06	-2.954238e-06	-5.627427e-09	-2.058658e+01	-3.698581e+02
2.680000e-06	-3.099164e-06	-6.067347e-09	-2.159650e+01	-3.986136e+02
2.690000e-06	-3.242925e-06	-6.469331e-09	-2.259830e+01	-4.256783e+02
2.700000e-06	-3.385268e-06	-6.849810e-09	-2.359022e+01	-4.511026e+02
2.710000e-06	-3.526268e-06	-7.222264e-09	-2.457277e+01	-4.749791e+02
2.720000e-06	-3.666028e-06	-7.579888e-09	-2.554669e+01	-4.974284e+02
2.730000e-06	-3.804430e-06	-7.907320e-09	-2.651114e+01	-5.185832e+02
2.740000e-06	-3.941450e-06	-8.207328e-09	-2.746596e+01	-5.385748e+02
2.750000e-06	-4.077004e-06	-8.495179e-09	-2.841057e+01	-5.575220e+02
2.760000e-06	-4.210994e-06	-8.779601e-09	-2.934428e+01	-5.755239e+02
2.770000e-06	-4.343587e-06	-9.053219e-09	-3.026825e+01	-5.926567e+02
2.780000e-06	-4.474724e-06	-9.301314e-09	-3.118208e+01	-6.089741e+02
2.790000e-06	-4.604296e-06	-9.526750e-09	-3.208500e+01	-6.245111e+02
2.800000e-06	-4.732334e-06	-9.747760e-09	-3.297723e+01	-6.392894e+02
2.810000e-06	-4.858691e-06	-9.969887e-09	-3.385775e+01	-6.533240e+02
2.820000e-06	-4.983367e-06	-1.017993e-08	-3.472656e+01	-6.666298e+02
2.830000e-06	-5.106318e-06	-1.036621e-08	-3.558334e+01	-6.792262e+02
2.840000e-06	-5.227467e-06	-1.053682e-08	-3.642757e+01	-6.911407e+02
2.850000e-06	-5.346668e-06	-1.070874e-08	-3.725821e+01	-7.024097e+02
2.860000e-06	-5.463760e-06	-1.088235e-08	-3.807417e+01	-7.130775e+02
2.870000e-06	-5.578621e-06	-1.104427e-08	-3.887458e+01	-7.231930e+02
2.880000e-06	-5.691138e-06	-1.118843e-08	-3.965865e+01	-7.328065e+02
2.890000e-06	-5.801443e-06	-1.132334e-08	-4.042732e+01	-7.419650e+02
2.900000e-06	-5.909713e-06	-1.145978e-08	-4.118179e+01	-7.507086e+02
2.910000e-06	-6.016003e-06	-1.159540e-08	-4.192247e+01	-7.590681e+02
2.920000e-06	-6.120087e-06	-1.171834e-08	-4.264778e+01	-7.670638e+02
2.930000e-06	-6.221836e-06	-1.182574e-08	-4.335682e+01	-7.747060e+02
2.940000e-06	-6.321310e-06	-1.192851e-08	-4.405001e+01	-7.819972e+02
