# Temperatura_=_20.0
# Concentracion g/m^3_=_12600.0
# C_Vs_to_Am_M_A/Vsm_=_65563218390.804596
# pendiente_HvsI_1/m_=_3716.3
# ordenada_HvsI_A/m_=_1297.0
# frecuencia_Hz_=_302309.52677839505

Tiempo_(s)	Campo_(V.s)	Magnetizacion_(V.s)	Campo_(kA/m)	Magnetizacion_(A/m)
0.000000e+00	-8.240311e-06	-1.401021e-08	-5.693317e+01	-9.182696e+02
1.000000e-08	-8.236943e-06	-1.400839e-08	-5.690991e+01	-9.179206e+02
2.000000e-08	-8.230916e-06	-1.400008e-08	-5.686826e+01	-9.174505e+02
3.000000e-08	-8.222226e-06	-1.399304e-08	-5.680823e+01	-9.168768e+02
4.000000e-08	-8.210647e-06	-1.398810e-08	-5.672823e+01	-9.162163e+02
5.000000e-08	-8.196105e-06	-1.397992e-08	-5.662775e+01	-9.154833e+02
6.000000e-08	-8.178687e-06	-1.396400e-08	-5.650741e+01	-9.146880e+02
7.000000e-08	-8.158705e-06	-1.394311e-08	-5.636935e+01	-9.138364e+02
8.000000e-08	-8.136136e-06	-1.394857e-08	-5.621342e+01	-9.129294e+02
9.000000e-08	-8.110497e-06	-1.396624e-08	-5.603628e+01	-9.119648e+02
1.000000e-07	-8.081657e-06	-1.393568e-08	-5.583702e+01	-9.109372e+02
1.100000e-07	-8.049738e-06	-1.388883e-08	-5.561649e+01	-9.098405e+02
1.200000e-07	-8.014794e-06	-1.386149e-08	-5.537506e+01	-9.086681e+02
1.300000e-07	-7.977246e-06	-1.383389e-08	-5.511563e+01	-9.074144e+02
1.400000e-07	-7.937556e-06	-1.378586e-08	-5.484141e+01	-9.060750e+02
1.500000e-07	-7.895516e-06	-1.380461e-08	-5.455095e+01	-9.046460e+02
1.600000e-07	-7.850646e-06	-1.381031e-08	-5.424094e+01	-9.031237e+02
1.700000e-07	-7.802966e-06	-1.371033e-08	-5.391152e+01	-9.015032e+02
1.800000e-07	-7.752312e-06	-1.372297e-08	-5.356154e+01	-8.997777e+02
1.900000e-07	-7.698507e-06	-1.371235e-08	-5.318980e+01	-8.979375e+02
2.000000e-07	-7.641860e-06	-1.365756e-08	-5.279841e+01	-8.959695e+02
2.100000e-07	-7.582436e-06	-1.363192e-08	-5.238785e+01	-8.938580e+02
2.200000e-07	-7.520350e-06	-1.357779e-08	-5.195889e+01	-8.915856e+02
2.300000e-07	-7.455549e-06	-1.354928e-08	-5.151118e+01	-8.891347e+02
2.400000e-07	-7.387869e-06	-1.349586e-08	-5.104357e+01	-8.864900e+02
2.500000e-07	-7.317369e-06	-1.346976e-08	-5.055647e+01	-8.836399e+02
2.600000e-07	-7.244003e-06	-1.342909e-08	-5.004958e+01	-8.805784e+02
2.700000e-07	-7.167758e-06	-1.336356e-08	-4.952280e+01	-8.773065e+02
2.800000e-07	-7.088663e-06	-1.330216e-08	-4.897632e+01	-8.738317e+02
2.900000e-07	-7.006893e-06	-1.325561e-08	-4.841136e+01	-8.701671e+02
3.000000e-07	-6.922652e-06	-1.323076e-08	-4.782934e+01	-8.663300e+02
3.100000e-07	-6.835959e-06	-1.315021e-08	-4.723036e+01	-8.623387e+02
3.200000e-07	-6.746839e-06	-1.306654e-08	-4.661462e+01	-8.582098e+02
3.300000e-07	-6.655335e-06	-1.301573e-08	-4.598241e+01	-8.539554e+02
3.400000e-07	-6.561441e-06	-1.296389e-08	-4.533369e+01	-8.495806e+02
3.500000e-07	-6.465109e-06	-1.289306e-08	-4.466812e+01	-8.450824e+02
3.600000e-07	-6.366385e-06	-1.281518e-08	-4.398603e+01	-8.404490e+02
3.700000e-07	-6.265397e-06	-1.274219e-08	-4.328829e+01	-8.356618e+02
3.800000e-07	-6.162119e-06	-1.265673e-08	-4.257473e+01	-8.306967e+02
3.900000e-07	-6.056640e-06	-1.258309e-08	-4.184596e+01	-8.255278e+02
4.000000e-07	-5.949078e-06	-1.251510e-08	-4.110281e+01	-8.201304e+02
4.100000e-07	-5.839424e-06	-1.242285e-08	-4.034520e+01	-8.144844e+02
4.200000e-07	-5.727644e-06	-1.231102e-08	-3.957290e+01	-8.085768e+02
4.300000e-07	-5.613703e-06	-1.222080e-08	-3.878567e+01	-8.024024e+02
4.400000e-07	-5.497591e-06	-1.214963e-08	-3.798344e+01	-7.959646e+02
4.500000e-07	-5.379427e-06	-1.205366e-08	-3.716703e+01	-7.892731e+02
4.600000e-07	-5.259334e-06	-1.193149e-08	-3.633729e+01	-7.823414e+02
4.700000e-07	-5.137322e-06	-1.181693e-08	-3.549430e+01	-7.751832e+02
4.800000e-07	-5.013417e-06	-1.171757e-08	-3.463822e+01	-7.678085e+02
4.900000e-07	-4.887777e-06	-1.161125e-08	-3.377017e+01	-7.602204e+02
5.000000e-07	-4.760410e-06	-1.149180e-08	-3.289017e+01	-7.524126e+02
5.100000e-07	-4.631230e-06	-1.136009e-08	-3.199766e+01	-7.443681e+02
5.200000e-07	-4.500338e-06	-1.122227e-08	-3.109331e+01	-7.360606e+02
5.300000e-07	-4.367782e-06	-1.109122e-08	-3.017747e+01	-7.274558e+02
5.400000e-07	-4.233679e-06	-1.096485e-08	-2.925093e+01	-7.185158e+02
5.500000e-07	-4.097965e-06	-1.082172e-08	-2.831327e+01	-7.092029e+02
5.600000e-07	-3.960636e-06	-1.066047e-08	-2.736445e+01	-6.994843e+02
5.700000e-07	-3.821823e-06	-1.049920e-08	-2.640538e+01	-6.893353e+02
5.800000e-07	-3.681395e-06	-1.034872e-08	-2.543515e+01	-6.787423e+02
5.900000e-07	-3.539384e-06	-1.019415e-08	-2.445398e+01	-6.677030e+02
6.000000e-07	-3.395965e-06	-1.001895e-08	-2.346308e+01	-6.562248e+02
6.100000e-07	-3.251290e-06	-9.827741e-09	-2.246350e+01	-6.443221e+02
6.200000e-07	-3.105442e-06	-9.639112e-09	-2.145583e+01	-6.320112e+02
6.300000e-07	-2.958453e-06	-9.457652e-09	-2.044026e+01	-6.193050e+02
6.400000e-07	-2.810469e-06	-9.265164e-09	-1.941782e+01	-6.062082e+02
6.500000e-07	-2.661628e-06	-9.051487e-09	-1.838947e+01	-5.927125e+02
6.600000e-07	-2.511922e-06	-8.826303e-09	-1.735514e+01	-5.787951e+02
6.700000e-07	-2.361268e-06	-8.603968e-09	-1.631425e+01	-5.644180e+02
6.800000e-07	-2.209784e-06	-8.381294e-09	-1.526763e+01	-5.495306e+02
6.900000e-07	-2.057556e-06	-8.146173e-09	-1.421587e+01	-5.340745e+02
7.000000e-07	-1.904535e-06	-7.892620e-09	-1.315863e+01	-5.179894e+02
7.100000e-07	-1.750771e-06	-7.626830e-09	-1.209626e+01	-5.012201e+02
7.200000e-07	-1.596458e-06	-7.361594e-09	-1.103010e+01	-4.837227e+02
7.300000e-07	-1.441738e-06	-7.095397e-09	-9.961117e+00	-4.654693e+02
7.400000e-07	-1.286542e-06	-6.811534e-09	-8.888854e+00	-4.464505e+02
7.500000e-07	-1.130781e-06	-6.504665e-09	-7.812687e+00	-4.266740e+02
7.600000e-07	-9.745809e-07	-6.189224e-09	-6.733482e+00	-4.061608e+02
7.700000e-07	-8.180763e-07	-5.872416e-09	-5.652175e+00	-3.849377e+02
7.800000e-07	-6.612471e-07	-5.545856e-09	-4.568626e+00	-3.630281e+02
7.900000e-07	-5.042285e-07	-5.197403e-09	-3.483768e+00	-3.404423e+02
8.000000e-07	-3.470736e-07	-4.830844e-09	-2.397968e+00	-3.171678e+02
8.100000e-07	-1.897189e-07	-4.456680e-09	-1.310788e+00	-2.931628e+02
8.200000e-07	-3.221915e-08	-4.077884e-09	-2.226055e-01	-2.683524e+02
8.300000e-07	1.253111e-07	-3.688864e-09	8.657877e-01	-2.426311e+02
8.400000e-07	2.828128e-07	-3.277153e-09	1.953983e+00	-2.158684e+02
8.500000e-07	4.402094e-07	-2.842330e-09	3.041453e+00	-1.879217e+02
8.600000e-07	5.974149e-07	-2.394657e-09	4.127603e+00	-1.586510e+02
8.700000e-07	7.544784e-07	-1.936909e-09	5.212771e+00	-1.279381e+02
8.800000e-07	9.113620e-07	-1.456172e-09	6.296696e+00	-9.570510e+01
8.900000e-07	1.067951e-06	-9.428473e-10	7.378586e+00	-6.193155e+01
9.000000e-07	1.224168e-06	-4.034067e-10	8.457908e+00	-2.666835e+01
9.100000e-07	1.379916e-06	1.516370e-10	9.533986e+00	9.954434e+00
9.200000e-07	1.535161e-06	7.201674e-10	1.060659e+01	4.772631e+01
9.300000e-07	1.689872e-06	1.308204e-09	1.167550e+01	8.636247e+01
9.400000e-07	1.843921e-06	1.916193e-09	1.273985e+01	1.255169e+02
9.500000e-07	1.997156e-06	2.528874e-09	1.379856e+01	1.648013e+02
9.600000e-07	2.149588e-06	3.125602e-09	1.485173e+01	2.038085e+02
9.700000e-07	2.301305e-06	3.702962e-09	1.589996e+01	2.421373e+02
9.800000e-07	2.452176e-06	4.265994e-09	1.694234e+01	2.794169e+02
9.900000e-07	2.602081e-06	4.812449e-09	1.797805e+01	3.153286e+02
1.000000e-06	2.751036e-06	5.330891e-09	1.900720e+01	3.496221e+02
1.010000e-06	2.899008e-06	5.813162e-09	2.002956e+01	3.821258e+02
1.020000e-06	3.045911e-06	6.265872e-09	2.104452e+01	4.127497e+02
1.030000e-06	3.191610e-06	6.697668e-09	2.205117e+01	4.414811e+02
1.040000e-06	3.336095e-06	7.110078e-09	2.304943e+01	4.683749e+02
1.050000e-06	3.479389e-06	7.496290e-09	2.403947e+01	4.935383e+02
1.060000e-06	3.621360e-06	7.854712e-09	2.502036e+01	5.171138e+02
1.070000e-06	3.761916e-06	8.190464e-09	2.599147e+01	5.392605e+02
1.080000e-06	3.901044e-06	8.513095e-09	2.695273e+01	5.601377e+02
1.090000e-06	4.038662e-06	8.824284e-09	2.790354e+01	5.798908e+02
1.100000e-06	4.174793e-06	9.115062e-09	2.884408e+01	5.986421e+02
1.110000e-06	4.309426e-06	9.381854e-09	2.977428e+01	6.164856e+02
1.120000e-06	4.442518e-06	9.632316e-09	3.069383e+01	6.334867e+02
1.130000e-06	4.574089e-06	9.875953e-09	3.160286e+01	6.496862e+02
1.140000e-06	4.703988e-06	1.011188e-08	3.250035e+01	6.651063e+02
1.150000e-06	4.832240e-06	1.033201e-08	3.338646e+01	6.797589e+02
1.160000e-06	4.958851e-06	1.053600e-08	3.426122e+01	6.936533e+02
1.170000e-06	5.083779e-06	1.073088e-08	3.512436e+01	7.068032e+02
1.180000e-06	5.206996e-06	1.092079e-08	3.597569e+01	7.192312e+02
1.190000e-06	5.328333e-06	1.110367e-08	3.681402e+01	7.309711e+02
1.200000e-06	5.447697e-06	1.127332e-08	3.763871e+01	7.420674e+02
1.210000e-06	5.565056e-06	1.143126e-08	3.844956e+01	7.525724e+02
1.220000e-06	5.680244e-06	1.158311e-08	3.924541e+01	7.625418e+02
1.230000e-06	5.793194e-06	1.173355e-08	4.002579e+01	7.720297e+02
1.240000e-06	5.903966e-06	1.187925e-08	4.079112e+01	7.810839e+02
1.250000e-06	6.012628e-06	1.201283e-08	4.154188e+01	7.897423e+02
1.260000e-06	6.119206e-06	1.213711e-08	4.227824e+01	7.980307e+02
1.270000e-06	6.223560e-06	1.225884e-08	4.299923e+01	8.059629e+02
1.280000e-06	6.325579e-06	1.237903e-08	4.370409e+01	8.135423e+02
1.290000e-06	6.425220e-06	1.249117e-08	4.439252e+01	8.207655e+02
1.300000e-06	6.522459e-06	1.259070e-08	4.506435e+01	8.276261e+02
1.310000e-06	6.617296e-06	1.268305e-08	4.571960e+01	8.341192e+02
1.320000e-06	6.709840e-06	1.277418e-08	4.635899e+01	8.402448e+02
1.330000e-06	6.800051e-06	1.286413e-08	4.698227e+01	8.460110e+02
1.340000e-06	6.887766e-06	1.294821e-08	4.758830e+01	8.514341e+02
1.350000e-06	6.973046e-06	1.302415e-08	4.817751e+01	8.565386e+02
1.360000e-06	7.055914e-06	1.309626e-08	4.875006e+01	8.613551e+02
1.370000e-06	7.136197e-06	1.316824e-08	4.930474e+01	8.659163e+02
1.380000e-06	7.213885e-06	1.323819e-08	4.984149e+01	8.702542e+02
1.390000e-06	7.288951e-06	1.330245e-08	5.036013e+01	8.743959e+02
1.400000e-06	7.361296e-06	1.336037e-08	5.085997e+01	8.783608e+02
1.410000e-06	7.431004e-06	1.341656e-08	5.134159e+01	8.821591e+02
1.420000e-06	7.498078e-06	1.347356e-08	5.180501e+01	8.857915e+02
1.430000e-06	7.562435e-06	1.352739e-08	5.224966e+01	8.892501e+02
1.440000e-06	7.624205e-06	1.357531e-08	5.267643e+01	8.925215e+02
1.450000e-06	7.683428e-06	1.361762e-08	5.308561e+01	8.955895e+02
1.460000e-06	7.739888e-06	1.365864e-08	5.347571e+01	8.984387e+02
1.470000e-06	7.793473e-06	1.370070e-08	5.384593e+01	9.010582e+02
1.480000e-06	7.843933e-06	1.374031e-08	5.419456e+01	9.034437e+02
1.490000e-06	7.891250e-06	1.377294e-08	5.452148e+01	9.055986e+02
1.500000e-06	7.935769e-06	1.380027e-08	5.482906e+01	9.075345e+02
1.510000e-06	7.977473e-06	1.382665e-08	5.511721e+01	9.092694e+02
1.520000e-06	8.016280e-06	1.385201e-08	5.538532e+01	9.108257e+02
1.530000e-06	8.052287e-06	1.387512e-08	5.563410e+01	9.122271e+02
1.540000e-06	8.085468e-06	1.389409e-08	5.586335e+01	9.134952e+02
1.550000e-06	8.115815e-06	1.391013e-08	5.607302e+01	9.146475e+02
1.560000e-06	8.143306e-06	1.392750e-08	5.626296e+01	9.156947e+02
1.570000e-06	8.167790e-06	1.394504e-08	5.643212e+01	9.166405e+02
1.580000e-06	8.189343e-06	1.395833e-08	5.658103e+01	9.174815e+02
1.590000e-06	8.208085e-06	1.396730e-08	5.671052e+01	9.182088e+02
1.600000e-06	8.223847e-06	1.397356e-08	5.681943e+01	9.188101e+02
1.610000e-06	8.236462e-06	1.397890e-08	5.690659e+01	9.192725e+02
1.620000e-06	8.245800e-06	1.398298e-08	5.697110e+01	9.195852e+02
1.630000e-06	8.252066e-06	1.398440e-08	5.701439e+01	9.197411e+02
1.640000e-06	8.255490e-06	1.398226e-08	5.703805e+01	9.197393e+02
1.650000e-06	8.255989e-06	1.398048e-08	5.704150e+01	9.195845e+02
1.660000e-06	8.253731e-06	1.397741e-08	5.702590e+01	9.192873e+02
1.670000e-06	8.248730e-06	1.397366e-08	5.699134e+01	9.188624e+02
1.680000e-06	8.240918e-06	1.396842e-08	5.693737e+01	9.183270e+02
1.690000e-06	8.230377e-06	1.395973e-08	5.686454e+01	9.176984e+02
1.700000e-06	8.216942e-06	1.395206e-08	5.677172e+01	9.169921e+02
1.710000e-06	8.200722e-06	1.394779e-08	5.665965e+01	9.162201e+02
1.720000e-06	8.182042e-06	1.394352e-08	5.653059e+01	9.153899e+02
1.730000e-06	8.160753e-06	1.389613e-08	5.638350e+01	9.145045e+02
1.740000e-06	8.136257e-06	1.384126e-08	5.621425e+01	9.135627e+02
1.750000e-06	8.108009e-06	1.384648e-08	5.601909e+01	9.125603e+02
1.760000e-06	8.076256e-06	1.384807e-08	5.579970e+01	9.114912e+02
1.770000e-06	8.041817e-06	1.382534e-08	5.556176e+01	9.103490e+02
1.780000e-06	8.005089e-06	1.384097e-08	5.530801e+01	9.091276e+02
1.790000e-06	7.966138e-06	1.383536e-08	5.503889e+01	9.078220e+02
1.800000e-06	7.924983e-06	1.375330e-08	5.475454e+01	9.064283e+02
1.810000e-06	7.881139e-06	1.379114e-08	5.445162e+01	9.049429e+02
1.820000e-06	7.834542e-06	1.379799e-08	5.412968e+01	9.033613e+02
1.830000e-06	7.785214e-06	1.377065e-08	5.378887e+01	9.016778e+02
1.840000e-06	7.732729e-06	1.378110e-08	5.342624e+01	8.998837e+02
1.850000e-06	7.677272e-06	1.370893e-08	5.304308e+01	8.979673e+02
1.860000e-06	7.619032e-06	1.371590e-08	5.264069e+01	8.959139e+02
1.870000e-06	7.558100e-06	1.366823e-08	5.221971e+01	8.937066e+02
1.880000e-06	7.494358e-06	1.364900e-08	5.177931e+01	8.913275e+02
1.890000e-06	7.427603e-06	1.363235e-08	5.131809e+01	8.887603e+02
1.900000e-06	7.357947e-06	1.350857e-08	5.083683e+01	8.859916e+02
1.910000e-06	7.285407e-06	1.348275e-08	5.033565e+01	8.830132e+02
1.920000e-06	7.210143e-06	1.346465e-08	4.981564e+01	8.798232e+02
1.930000e-06	7.132042e-06	1.343718e-08	4.927603e+01	8.764264e+02
1.940000e-06	7.051156e-06	1.334578e-08	4.871718e+01	8.728342e+02
1.950000e-06	6.967761e-06	1.325641e-08	4.814099e+01	8.690624e+02
1.960000e-06	6.881735e-06	1.323693e-08	4.754664e+01	8.651292e+02
1.970000e-06	6.793159e-06	1.317758e-08	4.693465e+01	8.610523e+02
1.980000e-06	6.702140e-06	1.313858e-08	4.630579e+01	8.568459e+02
1.990000e-06	6.608796e-06	1.305589e-08	4.566087e+01	8.525180e+02
2.000000e-06	6.513102e-06	1.296230e-08	4.499971e+01	8.480689e+02
2.010000e-06	6.415082e-06	1.288453e-08	4.432248e+01	8.434902e+02
2.020000e-06	6.314842e-06	1.284513e-08	4.362991e+01	8.387658e+02
2.030000e-06	6.212343e-06	1.279216e-08	4.292173e+01	8.338733e+02
2.040000e-06	6.107630e-06	1.266978e-08	4.219826e+01	8.287873e+02
2.050000e-06	6.000757e-06	1.256812e-08	4.145986e+01	8.234821e+02
2.060000e-06	5.891872e-06	1.250159e-08	4.070757e+01	8.179354e+02
2.070000e-06	5.780945e-06	1.244295e-08	3.994116e+01	8.121313e+02
2.080000e-06	5.667821e-06	1.234026e-08	3.915958e+01	8.060615e+02
2.090000e-06	5.552444e-06	1.222272e-08	3.836242e+01	7.997261e+02
2.100000e-06	5.434944e-06	1.211159e-08	3.755060e+01	7.931325e+02
2.110000e-06	5.315414e-06	1.202511e-08	3.672476e+01	7.862931e+02
2.120000e-06	5.193945e-06	1.194108e-08	3.588551e+01	7.792221e+02
2.130000e-06	5.070623e-06	1.182963e-08	3.503347e+01	7.719313e+02
2.140000e-06	4.945412e-06	1.168906e-08	3.416837e+01	7.644270e+02
2.150000e-06	4.818405e-06	1.155864e-08	3.329087e+01	7.567066e+02
2.160000e-06	4.689686e-06	1.146228e-08	3.240154e+01	7.487575e+02
2.170000e-06	4.559368e-06	1.135442e-08	3.150115e+01	7.405567e+02
2.180000e-06	4.427398e-06	1.121078e-08	3.058936e+01	7.320728e+02
2.190000e-06	4.293753e-06	1.104678e-08	2.966599e+01	7.232688e+02
2.200000e-06	4.158538e-06	1.090483e-08	2.873178e+01	7.141064e+02
2.210000e-06	4.021694e-06	1.078231e-08	2.778631e+01	7.045503e+02
2.220000e-06	3.883201e-06	1.064618e-08	2.682945e+01	6.945724e+02
2.230000e-06	3.743158e-06	1.047024e-08	2.586187e+01	6.841545e+02
2.240000e-06	3.601618e-06	1.027991e-08	2.488396e+01	6.732898e+02
2.250000e-06	3.458761e-06	1.011403e-08	2.389694e+01	6.619823e+02
2.260000e-06	3.314718e-06	9.963864e-09	2.290173e+01	6.502441e+02
2.270000e-06	3.169404e-06	9.789469e-09	2.189775e+01	6.380914e+02
2.280000e-06	3.022867e-06	9.579275e-09	2.088531e+01	6.255391e+02
2.290000e-06	2.875272e-06	9.365900e-09	1.986556e+01	6.125956e+02
2.300000e-06	2.726728e-06	9.172405e-09	1.883925e+01	5.992582e+02
2.310000e-06	2.577214e-06	8.984541e-09	1.780625e+01	5.855099e+02
2.320000e-06	2.426801e-06	8.769438e-09	1.676703e+01	5.713185e+02
2.330000e-06	2.275634e-06	8.521481e-09	1.572260e+01	5.566380e+02
2.340000e-06	2.123698e-06	8.269805e-09	1.467285e+01	5.414122e+02
2.350000e-06	1.971013e-06	8.038448e-09	1.361793e+01	5.255810e+02
2.360000e-06	1.817692e-06	7.809049e-09	1.255862e+01	5.090862e+02
2.370000e-06	1.663744e-06	7.545021e-09	1.149498e+01	4.918787e+02
2.380000e-06	1.509214e-06	7.251292e-09	1.042732e+01	4.739242e+02
2.390000e-06	1.354181e-06	6.961895e-09	9.356179e+00	4.552058e+02
2.400000e-06	1.198645e-06	6.686577e-09	8.281564e+00	4.357248e+02
2.410000e-06	1.042642e-06	6.400627e-09	7.203727e+00	4.154976e+02
2.420000e-06	8.863439e-07	6.079316e-09	6.123843e+00	3.945499e+02
2.430000e-06	7.298512e-07	5.730644e-09	5.042619e+00	3.729075e+02
2.440000e-06	5.730995e-07	5.384771e-09	3.959605e+00	3.505871e+02
2.450000e-06	4.160501e-07	5.049187e-09	2.874534e+00	3.275862e+02
2.460000e-06	2.588071e-07	4.696266e-09	1.788126e+00	3.038749e+02
2.470000e-06	1.014674e-07	4.305348e-09	7.010491e-01	2.793916e+02
2.480000e-06	-5.590183e-08	3.894141e-09	-3.862317e-01	2.540422e+02
2.490000e-06	-2.132458e-07	3.490358e-09	-1.473338e+00	2.277050e+02
2.500000e-06	-3.705680e-07	3.088624e-09	-2.560293e+00	2.002404e+02
2.510000e-06	-5.277598e-07	2.659808e-09	-3.646348e+00	1.715052e+02
2.520000e-06	-6.847949e-07	2.189920e-09	-4.731320e+00	1.413706e+02
2.530000e-06	-8.416699e-07	1.697093e-09	-5.815186e+00	1.097405e+02
2.540000e-06	-9.982483e-07	1.202872e-09	-6.897002e+00	7.656993e+01
2.550000e-06	-1.154444e-06	6.988137e-10	-7.976172e+00	4.188063e+01
2.560000e-06	-1.310250e-06	1.575173e-10	-9.052655e+00	5.770962e+00
2.570000e-06	-1.465582e-06	-4.261913e-10	-1.012586e+01	-3.157986e+01
2.580000e-06	-1.620343e-06	-1.026160e-09	-1.119512e+01	-6.991502e+01
2.590000e-06	-1.774507e-06	-1.621469e-09	-1.226025e+01	-1.089106e+02
2.600000e-06	-1.927990e-06	-2.217126e-09	-1.332069e+01	-1.481923e+02
2.610000e-06	-2.080749e-06	-2.824455e-09	-1.437611e+01	-1.873574e+02
2.620000e-06	-2.232722e-06	-3.432465e-09	-1.542611e+01	-2.259995e+02
2.630000e-06	-2.383797e-06	-4.016072e-09	-1.646990e+01	-2.637329e+02
2.640000e-06	-2.533933e-06	-4.563931e-09	-1.750721e+01	-3.002162e+02
2.650000e-06	-2.683148e-06	-5.085876e-09	-1.853815e+01	-3.351707e+02
2.660000e-06	-2.831427e-06	-5.595731e-09	-1.956263e+01	-3.683931e+02
2.670000e-06	-2.978631e-06	-6.086998e-09	-2.057968e+01	-3.997613e+02
2.680000e-06	-3.124710e-06	-6.538834e-09	-2.158895e+01	-4.292334e+02
2.690000e-06	-3.269616e-06	-6.948033e-09	-2.259012e+01	-4.568392e+02
2.700000e-06	-3.413253e-06	-7.332990e-09	-2.358252e+01	-4.826672e+02
2.710000e-06	-3.555566e-06	-7.710042e-09	-2.456578e+01	-5.068484e+02
2.720000e-06	-3.696559e-06	-8.072501e-09	-2.553992e+01	-5.295374e+02
2.730000e-06	-3.836178e-06	-8.404085e-09	-2.650456e+01	-5.508953e+02
2.740000e-06	-3.974354e-06	-8.706919e-09	-2.745923e+01	-5.710742e+02
2.750000e-06	-4.111147e-06	-8.996434e-09	-2.840435e+01	-5.902066e+02
2.760000e-06	-4.246448e-06	-9.283008e-09	-2.933916e+01	-6.083976e+02
2.770000e-06	-4.380175e-06	-9.557886e-09	-3.026309e+01	-6.257239e+02
2.780000e-06	-4.512375e-06	-9.808158e-09	-3.117648e+01	-6.422351e+02
2.790000e-06	-4.643023e-06	-1.003639e-08	-3.207914e+01	-6.579599e+02
2.800000e-06	-4.772089e-06	-1.025821e-08	-3.297087e+01	-6.729132e+02
2.810000e-06	-4.899449e-06	-1.048002e-08	-3.385081e+01	-6.871046e+02
2.820000e-06	-5.025033e-06	-1.069054e-08	-3.471848e+01	-7.005451e+02
2.830000e-06	-5.148931e-06	-1.088110e-08	-3.557451e+01	-7.132535e+02
2.840000e-06	-5.271051e-06	-1.105638e-08	-3.641825e+01	-7.252593e+02
2.850000e-06	-5.391205e-06	-1.122959e-08	-3.724840e+01	-7.366029e+02
2.860000e-06	-5.509284e-06	-1.140225e-08	-3.806423e+01	-7.473340e+02
2.870000e-06	-5.625199e-06	-1.156389e-08	-3.886509e+01	-7.575074e+02
2.880000e-06	-5.738832e-06	-1.170942e-08	-3.965019e+01	-7.671786e+02
2.890000e-06	-5.850200e-06	-1.184495e-08	-4.041965e+01	-7.763983e+02
2.900000e-06	-5.959431e-06	-1.198022e-08	-4.117434e+01	-7.852087e+02
2.910000e-06	-6.066575e-06	-1.211503e-08	-4.191461e+01	-7.936405e+02
2.920000e-06	-6.171554e-06	-1.223869e-08	-4.263992e+01	-8.017120e+02
2.930000e-06	-6.274214e-06	-1.234748e-08	-4.334920e+01	-8.094304e+02
2.940000e-06	-6.374520e-06	-1.245201e-08	-4.404223e+01	-8.167946e+02
