# Temperatura_=_20.0
# Concentracion g/m^3_=_12600.0
# C_Vs_to_Am_M_A/Vsm_=_65563218390.804596
# pendiente_HvsI_1/m_=_3716.3
# ordenada_HvsI_A/m_=_1297.0
# frecuencia_Hz_=_301808.0585348328

Tiempo_(s)	Campo_(V.s)	Magnetizacion_(V.s)	Campo_(kA/m)	Magnetizacion_(A/m)
0.000000e+00	-5.363376e-06	-2.614129e-09	-3.829392e+01	-1.725518e+02
1.000000e-08	-5.362138e-06	-2.615928e-09	-3.828508e+01	-1.725259e+02
2.000000e-08	-5.358912e-06	-2.617255e-09	-3.826205e+01	-1.724560e+02
3.000000e-08	-5.354012e-06	-2.617267e-09	-3.822707e+01	-1.723419e+02
4.000000e-08	-5.347547e-06	-2.615338e-09	-3.818091e+01	-1.721847e+02
5.000000e-08	-5.339393e-06	-2.611126e-09	-3.812269e+01	-1.719869e+02
6.000000e-08	-5.329242e-06	-2.606194e-09	-3.805021e+01	-1.717523e+02
7.000000e-08	-5.317087e-06	-2.599572e-09	-3.796343e+01	-1.714859e+02
8.000000e-08	-5.303004e-06	-2.593561e-09	-3.786288e+01	-1.711936e+02
9.000000e-08	-5.286767e-06	-2.611644e-09	-3.774694e+01	-1.708812e+02
1.000000e-07	-5.268439e-06	-2.625019e-09	-3.761608e+01	-1.705543e+02
1.100000e-07	-5.248186e-06	-2.611864e-09	-3.747148e+01	-1.702175e+02
1.200000e-07	-5.226037e-06	-2.595607e-09	-3.731334e+01	-1.698739e+02
1.300000e-07	-5.202174e-06	-2.548094e-09	-3.714296e+01	-1.695246e+02
1.400000e-07	-5.176666e-06	-2.530602e-09	-3.696084e+01	-1.691689e+02
1.500000e-07	-5.149580e-06	-2.591354e-09	-3.676744e+01	-1.688040e+02
1.600000e-07	-5.121015e-06	-2.572423e-09	-3.656350e+01	-1.684251e+02
1.700000e-07	-5.090995e-06	-2.542681e-09	-3.634915e+01	-1.680266e+02
1.800000e-07	-5.059274e-06	-2.553185e-09	-3.612267e+01	-1.676018e+02
1.900000e-07	-5.025452e-06	-2.511405e-09	-3.588118e+01	-1.671439e+02
2.000000e-07	-4.989907e-06	-2.540186e-09	-3.562740e+01	-1.666465e+02
2.100000e-07	-4.952868e-06	-2.568079e-09	-3.536294e+01	-1.661045e+02
2.200000e-07	-4.913977e-06	-2.499028e-09	-3.508527e+01	-1.655137e+02
2.300000e-07	-4.873194e-06	-2.482154e-09	-3.479408e+01	-1.648717e+02
2.400000e-07	-4.830473e-06	-2.510276e-09	-3.448905e+01	-1.641776e+02
2.500000e-07	-4.785982e-06	-2.504418e-09	-3.417139e+01	-1.634318e+02
2.600000e-07	-4.739722e-06	-2.465106e-09	-3.384110e+01	-1.626359e+02
2.700000e-07	-4.691277e-06	-2.416724e-09	-3.349521e+01	-1.617922e+02
2.800000e-07	-4.640651e-06	-2.440604e-09	-3.313375e+01	-1.609033e+02
2.900000e-07	-4.588207e-06	-2.464353e-09	-3.275930e+01	-1.599718e+02
3.000000e-07	-4.534158e-06	-2.420057e-09	-3.237339e+01	-1.590001e+02
3.100000e-07	-4.478536e-06	-2.364291e-09	-3.197626e+01	-1.579898e+02
3.200000e-07	-4.421143e-06	-2.351853e-09	-3.156648e+01	-1.569421e+02
3.300000e-07	-4.361975e-06	-2.392389e-09	-3.114403e+01	-1.558578e+02
3.400000e-07	-4.301399e-06	-2.392457e-09	-3.071152e+01	-1.547370e+02
3.500000e-07	-4.239397e-06	-2.322481e-09	-3.026883e+01	-1.535796e+02
3.600000e-07	-4.175881e-06	-2.267753e-09	-2.981534e+01	-1.523856e+02
3.700000e-07	-4.110737e-06	-2.289532e-09	-2.935022e+01	-1.511548e+02
3.800000e-07	-4.043909e-06	-2.326812e-09	-2.887308e+01	-1.498873e+02
3.900000e-07	-3.975653e-06	-2.277578e-09	-2.838573e+01	-1.485833e+02
4.000000e-07	-3.906099e-06	-2.194136e-09	-2.788913e+01	-1.472432e+02
4.100000e-07	-3.835270e-06	-2.181540e-09	-2.738341e+01	-1.458672e+02
4.200000e-07	-3.763196e-06	-2.229538e-09	-2.686881e+01	-1.444555e+02
4.300000e-07	-3.689632e-06	-2.232267e-09	-2.634358e+01	-1.430078e+02
4.400000e-07	-3.614426e-06	-2.144515e-09	-2.580661e+01	-1.415232e+02
4.500000e-07	-3.537785e-06	-2.073016e-09	-2.525940e+01	-1.400004e+02
4.600000e-07	-3.459784e-06	-2.097319e-09	-2.470248e+01	-1.384373e+02
4.700000e-07	-3.380344e-06	-2.140583e-09	-2.413529e+01	-1.368315e+02
4.800000e-07	-3.299550e-06	-2.092079e-09	-2.355843e+01	-1.351801e+02
4.900000e-07	-3.217613e-06	-1.984845e-09	-2.297341e+01	-1.334802e+02
5.000000e-07	-3.134649e-06	-1.950566e-09	-2.238105e+01	-1.317292e+02
5.100000e-07	-3.050734e-06	-2.000535e-09	-2.178191e+01	-1.299247e+02
5.200000e-07	-2.965818e-06	-2.013529e-09	-2.117562e+01	-1.280650e+02
5.300000e-07	-2.879906e-06	-1.926323e-09	-2.056222e+01	-1.261496e+02
5.400000e-07	-2.793136e-06	-1.832712e-09	-1.994269e+01	-1.241783e+02
5.500000e-07	-2.705501e-06	-1.833797e-09	-1.931699e+01	-1.221519e+02
5.600000e-07	-2.616763e-06	-1.875521e-09	-1.868341e+01	-1.200720e+02
5.700000e-07	-2.526748e-06	-1.844729e-09	-1.804071e+01	-1.179403e+02
5.800000e-07	-2.435642e-06	-1.742034e-09	-1.739022e+01	-1.157587e+02
5.900000e-07	-2.343739e-06	-1.678708e-09	-1.673404e+01	-1.135288e+02
6.000000e-07	-2.251085e-06	-1.697485e-09	-1.607250e+01	-1.112517e+02
6.100000e-07	-2.157655e-06	-1.710311e-09	-1.540542e+01	-1.089278e+02
6.200000e-07	-2.063496e-06	-1.647076e-09	-1.473314e+01	-1.065567e+02
6.300000e-07	-1.968608e-06	-1.557837e-09	-1.405565e+01	-1.041371e+02
6.400000e-07	-1.872959e-06	-1.523731e-09	-1.337273e+01	-1.016671e+02
6.500000e-07	-1.776624e-06	-1.533705e-09	-1.268490e+01	-9.914382e+01
6.600000e-07	-1.679634e-06	-1.513612e-09	-1.199241e+01	-9.656438e+01
6.700000e-07	-1.581880e-06	-1.439656e-09	-1.129445e+01	-9.392559e+01
6.800000e-07	-1.483405e-06	-1.368253e-09	-1.059135e+01	-9.122443e+01
6.900000e-07	-1.384388e-06	-1.342202e-09	-9.884382e+00	-8.845823e+01
7.000000e-07	-1.284919e-06	-1.330719e-09	-9.174185e+00	-8.562490e+01
7.100000e-07	-1.185099e-06	-1.285335e-09	-8.461481e+00	-8.272297e+01
7.200000e-07	-1.085070e-06	-1.212354e-09	-7.747283e+00	-7.975173e+01
7.300000e-07	-9.847598e-07	-1.156598e-09	-7.031079e+00	-7.671116e+01
7.400000e-07	-8.840884e-07	-1.126798e-09	-6.312295e+00	-7.360190e+01
7.500000e-07	-7.830778e-07	-1.093348e-09	-5.591091e+00	-7.042518e+01
7.600000e-07	-6.817645e-07	-1.038120e-09	-4.867724e+00	-6.718269e+01
7.700000e-07	-5.802127e-07	-9.734155e-10	-4.142656e+00	-6.387646e+01
7.800000e-07	-4.784685e-07	-9.173805e-10	-3.416214e+00	-6.050879e+01
7.900000e-07	-3.765818e-07	-8.728909e-10	-2.688753e+00	-5.708206e+01
8.000000e-07	-2.746290e-07	-8.278385e-10	-1.960821e+00	-5.359867e+01
8.100000e-07	-1.726148e-07	-7.730918e-10	-1.232451e+00	-5.006088e+01
8.200000e-07	-7.051160e-08	-7.116920e-10	-5.034452e-01	-4.647068e+01
8.300000e-07	3.169550e-08	-6.499913e-10	2.263025e-01	-4.282962e+01
8.400000e-07	1.339367e-07	-5.941363e-10	9.562937e-01	-3.913871e+01
8.500000e-07	2.360997e-07	-5.435448e-10	1.685727e+00	-3.539817e+01
8.600000e-07	3.382048e-07	-4.875668e-10	2.414746e+00	-3.160738e+01
8.700000e-07	4.402712e-07	-4.216301e-10	3.143488e+00	-2.776476e+01
8.800000e-07	5.422356e-07	-3.545629e-10	3.871504e+00	-2.386779e+01
8.900000e-07	6.440037e-07	-2.958479e-10	4.598117e+00	-1.991307e+01
9.000000e-07	7.455461e-07	-2.455495e-10	5.323119e+00	-1.589652e+01
9.100000e-07	8.468232e-07	-1.897743e-10	6.046226e+00	-1.181374e+01
9.200000e-07	9.477761e-07	-1.207183e-10	6.767019e+00	-7.660389e+00
9.300000e-07	1.048400e-06	-4.858448e-11	7.485463e+00	-3.432691e+00
9.400000e-07	1.148669e-06	1.522563e-11	8.201369e+00	8.719979e-01
9.500000e-07	1.248618e-06	7.462986e-11	8.914999e+00	5.254671e+00
9.600000e-07	1.348283e-06	1.435846e-10	9.626593e+00	9.714195e+00
9.700000e-07	1.447524e-06	2.219837e-10	1.033517e+01	1.424695e+01
9.800000e-07	1.546092e-06	2.971367e-10	1.103893e+01	1.884664e+01
9.900000e-07	1.643894e-06	3.637285e-10	1.173722e+01	2.350428e+01
1.000000e-06	1.740963e-06	4.279277e-10	1.243028e+01	2.820839e+01
1.010000e-06	1.837356e-06	4.993404e-10	1.311852e+01	3.294539e+01
1.020000e-06	1.933020e-06	5.769236e-10	1.380155e+01	3.770015e+01
1.030000e-06	2.027866e-06	6.508423e-10	1.447874e+01	4.245662e+01
1.040000e-06	2.122015e-06	7.183922e-10	1.515096e+01	4.719854e+01
1.050000e-06	2.215506e-06	7.869090e-10	1.581847e+01	5.191011e+01
1.060000e-06	2.308246e-06	8.616601e-10	1.648063e+01	5.657660e+01
1.070000e-06	2.400247e-06	9.386649e-10	1.713751e+01	6.118481e+01
1.080000e-06	2.491525e-06	1.010106e-09	1.778922e+01	6.572333e+01
1.090000e-06	2.581878e-06	1.075777e-09	1.843433e+01	7.018268e+01
1.100000e-06	2.671076e-06	1.138686e-09	1.907119e+01	7.455525e+01
1.110000e-06	2.759144e-06	1.202935e-09	1.969999e+01	7.883506e+01
1.120000e-06	2.846261e-06	1.269467e-09	2.032199e+01	8.301751e+01
1.130000e-06	2.932482e-06	1.335481e-09	2.093760e+01	8.709900e+01
1.140000e-06	3.017737e-06	1.396133e-09	2.154631e+01	9.107663e+01
1.150000e-06	3.102079e-06	1.453129e-09	2.214850e+01	9.494791e+01
1.160000e-06	3.185492e-06	1.511735e-09	2.274407e+01	9.871057e+01
1.170000e-06	3.267909e-06	1.570950e-09	2.333251e+01	1.023626e+02
1.180000e-06	3.349133e-06	1.626243e-09	2.391245e+01	1.059020e+02
1.190000e-06	3.429050e-06	1.675292e-09	2.448305e+01	1.093273e+02
1.200000e-06	3.507727e-06	1.720484e-09	2.504479e+01	1.126374e+02
1.210000e-06	3.585157e-06	1.767361e-09	2.559764e+01	1.158320e+02
1.220000e-06	3.661324e-06	1.816623e-09	2.614145e+01	1.189115e+02
1.230000e-06	3.736051e-06	1.863529e-09	2.667500e+01	1.218770e+02
1.240000e-06	3.809177e-06	1.905402e-09	2.719711e+01	1.247308e+02
1.250000e-06	3.880766e-06	1.943987e-09	2.770825e+01	1.274756e+02
1.260000e-06	3.950994e-06	1.986338e-09	2.820967e+01	1.301148e+02
1.270000e-06	4.019891e-06	2.030742e-09	2.870159e+01	1.326520e+02
1.280000e-06	4.087457e-06	2.071277e-09	2.918400e+01	1.350908e+02
1.290000e-06	4.153587e-06	2.104009e-09	2.965616e+01	1.374343e+02
1.300000e-06	4.217996e-06	2.132294e-09	3.011603e+01	1.396852e+02
1.310000e-06	4.280826e-06	2.164441e-09	3.056463e+01	1.418457e+02
1.320000e-06	4.342258e-06	2.200642e-09	3.100325e+01	1.439173e+02
1.330000e-06	4.402301e-06	2.234579e-09	3.143195e+01	1.459009e+02
1.340000e-06	4.460863e-06	2.262065e-09	3.185008e+01	1.477972e+02
1.350000e-06	4.517681e-06	2.287630e-09	3.225575e+01	1.496068e+02
1.360000e-06	4.572763e-06	2.318608e-09	3.264904e+01	1.513306e+02
1.370000e-06	4.626217e-06	2.350468e-09	3.303069e+01	1.529698e+02
1.380000e-06	4.677864e-06	2.375289e-09	3.339945e+01	1.545265e+02
1.390000e-06	4.727442e-06	2.392379e-09	3.375342e+01	1.560033e+02
1.400000e-06	4.775056e-06	2.408614e-09	3.409338e+01	1.574035e+02
1.410000e-06	4.821005e-06	2.430025e-09	3.442145e+01	1.587309e+02
1.420000e-06	4.865427e-06	2.453503e-09	3.473863e+01	1.599893e+02
1.430000e-06	4.908206e-06	2.472712e-09	3.504406e+01	1.611826e+02
1.440000e-06	4.949064e-06	2.486605e-09	3.533578e+01	1.623142e+02
1.450000e-06	4.988114e-06	2.502873e-09	3.561460e+01	1.633867e+02
1.460000e-06	5.025582e-06	2.524705e-09	3.588211e+01	1.644020e+02
1.470000e-06	5.061426e-06	2.545130e-09	3.613804e+01	1.653607e+02
1.480000e-06	5.095474e-06	2.557240e-09	3.638113e+01	1.662629e+02
1.490000e-06	5.127609e-06	2.564074e-09	3.661058e+01	1.671078e+02
1.500000e-06	5.157938e-06	2.573817e-09	3.682712e+01	1.678941e+02
1.510000e-06	5.186599e-06	2.588119e-09	3.703176e+01	1.686208e+02
1.520000e-06	5.213513e-06	2.600300e-09	3.722392e+01	1.692870e+02
1.530000e-06	5.238384e-06	2.607756e-09	3.740149e+01	1.698925e+02
1.540000e-06	5.261276e-06	2.615257e-09	3.756494e+01	1.704381e+02
1.550000e-06	5.282384e-06	2.625609e-09	3.771565e+01	1.709253e+02
1.560000e-06	5.301741e-06	2.637443e-09	3.785386e+01	1.713568e+02
1.570000e-06	5.319216e-06	2.645559e-09	3.797863e+01	1.717358e+02
1.580000e-06	5.334649e-06	2.648429e-09	3.808881e+01	1.720657e+02
1.590000e-06	5.348155e-06	2.651243e-09	3.818525e+01	1.723501e+02
1.600000e-06	5.359617e-06	2.656778e-09	3.826708e+01	1.725921e+02
1.610000e-06	5.368827e-06	2.661564e-09	3.833284e+01	1.727941e+02
1.620000e-06	5.376006e-06	2.662492e-09	3.838410e+01	1.729573e+02
1.630000e-06	5.381392e-06	2.661270e-09	3.842256e+01	1.730820e+02
1.640000e-06	5.384994e-06	2.662650e-09	3.844828e+01	1.731678e+02
1.650000e-06	5.386636e-06	2.667420e-09	3.846000e+01	1.732132e+02
1.660000e-06	5.386307e-06	2.669823e-09	3.845765e+01	1.732166e+02
1.670000e-06	5.384206e-06	2.666968e-09	3.844265e+01	1.731767e+02
1.680000e-06	5.380475e-06	2.663169e-09	3.841601e+01	1.730925e+02
1.690000e-06	5.374977e-06	2.663006e-09	3.837676e+01	1.729644e+02
1.700000e-06	5.367548e-06	2.663637e-09	3.832371e+01	1.727938e+02
1.710000e-06	5.358431e-06	2.660242e-09	3.825862e+01	1.725837e+02
1.720000e-06	5.347769e-06	2.655577e-09	3.818249e+01	1.723383e+02
1.730000e-06	5.335327e-06	2.657534e-09	3.809366e+01	1.720630e+02
1.740000e-06	5.320874e-06	2.627325e-09	3.799046e+01	1.717635e+02
1.750000e-06	5.304332e-06	2.598504e-09	3.787236e+01	1.714459e+02
1.760000e-06	5.285351e-06	2.595387e-09	3.773683e+01	1.711154e+02
1.770000e-06	5.263740e-06	2.600576e-09	3.758254e+01	1.707762e+02
1.780000e-06	5.240102e-06	2.660547e-09	3.741376e+01	1.704308e+02
1.790000e-06	5.215409e-06	2.659392e-09	3.723746e+01	1.700796e+02
1.800000e-06	5.189882e-06	2.596741e-09	3.705520e+01	1.697214e+02
1.810000e-06	5.162610e-06	2.616260e-09	3.686048e+01	1.693525e+02
1.820000e-06	5.133254e-06	2.602310e-09	3.665088e+01	1.689681e+02
1.830000e-06	5.102269e-06	2.601321e-09	3.642965e+01	1.685619e+02
1.840000e-06	5.069467e-06	2.634752e-09	3.619545e+01	1.681271e+02
1.850000e-06	5.034695e-06	2.553582e-09	3.594718e+01	1.676572e+02
1.860000e-06	4.998241e-06	2.540827e-09	3.568690e+01	1.671461e+02
1.870000e-06	4.959936e-06	2.586114e-09	3.541341e+01	1.665887e+02
1.880000e-06	4.919883e-06	2.529217e-09	3.512743e+01	1.659817e+02
1.890000e-06	4.878152e-06	2.496229e-09	3.482948e+01	1.653230e+02
1.900000e-06	4.834598e-06	2.482398e-09	3.451851e+01	1.646122e+02
1.910000e-06	4.789511e-06	2.507075e-09	3.419659e+01	1.638501e+02
1.920000e-06	4.742602e-06	2.534148e-09	3.386166e+01	1.630386e+02
1.930000e-06	4.693675e-06	2.422728e-09	3.351233e+01	1.621800e+02
1.940000e-06	4.643003e-06	2.386133e-09	3.315054e+01	1.612772e+02
1.950000e-06	4.590459e-06	2.444457e-09	3.277538e+01	1.603325e+02
1.960000e-06	4.536025e-06	2.469525e-09	3.238673e+01	1.593482e+02
1.970000e-06	4.479770e-06	2.431999e-09	3.198507e+01	1.583258e+02
1.980000e-06	4.421843e-06	2.312499e-09	3.157148e+01	1.572664e+02
1.990000e-06	4.362474e-06	2.309123e-09	3.114759e+01	1.561703e+02
2.000000e-06	4.301605e-06	2.394702e-09	3.071300e+01	1.550378e+02
2.010000e-06	4.239032e-06	2.404268e-09	3.026623e+01	1.538687e+02
2.020000e-06	4.174755e-06	2.310998e-09	2.980730e+01	1.526628e+02
2.030000e-06	4.109013e-06	2.199154e-09	2.933791e+01	1.514202e+02
2.040000e-06	4.041933e-06	2.251925e-09	2.885896e+01	1.501410e+02
2.050000e-06	3.973483e-06	2.332036e-09	2.837024e+01	1.488254e+02
2.060000e-06	3.903519e-06	2.280865e-09	2.787070e+01	1.474737e+02
2.070000e-06	3.832015e-06	2.155998e-09	2.736017e+01	1.460863e+02
2.080000e-06	3.759222e-06	2.102578e-09	2.684044e+01	1.446631e+02
2.090000e-06	3.685151e-06	2.195272e-09	2.631158e+01	1.432037e+02
2.100000e-06	3.609628e-06	2.229534e-09	2.577236e+01	1.417070e+02
2.110000e-06	3.532658e-06	2.125187e-09	2.522280e+01	1.401715e+02
2.120000e-06	3.454176e-06	2.010470e-09	2.466244e+01	1.385950e+02
2.130000e-06	3.374352e-06	2.023699e-09	2.409251e+01	1.369748e+02
2.140000e-06	3.293388e-06	2.110319e-09	2.351444e+01	1.353082e+02
2.150000e-06	3.211339e-06	2.082414e-09	2.292861e+01	1.335922e+02
2.160000e-06	3.128230e-06	1.960569e-09	2.233522e+01	1.318241e+02
2.170000e-06	3.044099e-06	1.890652e-09	2.173453e+01	1.300021e+02
2.180000e-06	2.958931e-06	1.938286e-09	2.112645e+01	1.281246e+02
2.190000e-06	2.872460e-06	1.976672e-09	2.050906e+01	1.261911e+02
2.200000e-06	2.784734e-06	1.899465e-09	1.988270e+01	1.242020e+02
2.210000e-06	2.696078e-06	1.790148e-09	1.924971e+01	1.221583e+02
2.220000e-06	2.606525e-06	1.763070e-09	1.861031e+01	1.200616e+02
2.230000e-06	2.516064e-06	1.806123e-09	1.796442e+01	1.179136e+02
2.240000e-06	2.424776e-06	1.792503e-09	1.731264e+01	1.157163e+02
2.250000e-06	2.332717e-06	1.700179e-09	1.665534e+01	1.134712e+02
2.260000e-06	2.239948e-06	1.625219e-09	1.599299e+01	1.111790e+02
2.270000e-06	2.146340e-06	1.623367e-09	1.532464e+01	1.088401e+02
2.280000e-06	2.051605e-06	1.635071e-09	1.464823e+01	1.064536e+02
2.290000e-06	1.955856e-06	1.586255e-09	1.396460e+01	1.040181e+02
2.300000e-06	1.859488e-06	1.504034e-09	1.327654e+01	1.015312e+02
2.310000e-06	1.762615e-06	1.455054e-09	1.258488e+01	9.899027e+01
2.320000e-06	1.665227e-06	1.447959e-09	1.188954e+01	9.639212e+01
2.330000e-06	1.567312e-06	1.428390e-09	1.119044e+01	9.373361e+01
2.340000e-06	1.468893e-06	1.369018e-09	1.048774e+01	9.101182e+01
2.350000e-06	1.370049e-06	1.302727e-09	9.782002e+00	8.822426e+01
2.360000e-06	1.270770e-06	1.263689e-09	9.073163e+00	8.536902e+01
2.370000e-06	1.171089e-06	1.239002e-09	8.361447e+00	8.244487e+01
2.380000e-06	1.071118e-06	1.197922e-09	7.647667e+00	7.945133e+01
2.390000e-06	9.708781e-07	1.140167e-09	6.931965e+00	7.638859e+01
2.400000e-06	8.703033e-07	1.084393e-09	6.213871e+00	7.325750e+01
2.410000e-06	7.693901e-07	1.039769e-09	5.493362e+00	7.005945e+01
2.420000e-06	6.682425e-07	9.984925e-10	4.771179e+00	6.679625e+01
2.430000e-06	5.668724e-07	9.504807e-10	4.047408e+00	6.347004e+01
2.440000e-06	4.652919e-07	8.945470e-10	3.322134e+00	6.008313e+01
2.450000e-06	3.635402e-07	8.358096e-10	2.595638e+00	5.663795e+01
2.460000e-06	2.616071e-07	7.824807e-10	1.867846e+00	5.313685e+01
2.470000e-06	1.595057e-07	7.354623e-10	1.138854e+00	4.958202e+01
2.480000e-06	5.726767e-08	6.854925e-10	4.088850e-01	4.597534e+01
2.490000e-06	-4.496103e-08	6.261019e-10	-3.210169e-01	4.231820e+01
2.500000e-06	-1.471785e-07	5.622552e-10	-1.050838e+00	3.861136e+01
2.510000e-06	-2.494589e-07	5.044931e-10	-1.781109e+00	3.485480e+01
2.520000e-06	-3.516167e-07	4.536458e-10	-2.510505e+00	3.104758e+01
2.530000e-06	-4.535023e-07	3.997523e-10	-3.237957e+00	2.718783e+01
2.540000e-06	-5.551805e-07	3.351440e-10	-3.963929e+00	2.327272e+01
2.550000e-06	-6.567181e-07	2.660179e-10	-4.688896e+00	1.929860e+01
2.560000e-06	-7.580263e-07	2.060178e-10	-5.412226e+00	1.526127e+01
2.570000e-06	-8.590239e-07	1.538502e-10	-6.133338e+00	1.115628e+01
2.580000e-06	-9.597288e-07	9.604000e-11	-6.852360e+00	6.979412e+00
2.590000e-06	-1.060041e-06	2.380006e-11	-7.568576e+00	2.727201e+00
2.600000e-06	-1.159949e-06	-5.156059e-11	-8.281912e+00	-1.602526e+00
2.610000e-06	-1.259469e-06	-1.157239e-10	-8.992470e+00	-6.010124e+00
2.620000e-06	-1.358569e-06	-1.751163e-10	-9.700033e+00	-1.049369e+01
2.630000e-06	-1.457237e-06	-2.437869e-10	-1.040451e+01	-1.504877e+01
2.640000e-06	-1.555385e-06	-3.218208e-10	-1.110528e+01	-1.966817e+01
2.650000e-06	-1.652914e-06	-3.975808e-10	-1.180163e+01	-2.434209e+01
2.660000e-06	-1.749871e-06	-4.644416e-10	-1.249389e+01	-2.905833e+01
2.670000e-06	-1.846319e-06	-5.289471e-10	-1.318252e+01	-3.380274e+01
2.680000e-06	-1.942190e-06	-6.004779e-10	-1.386702e+01	-3.855981e+01
2.690000e-06	-2.037398e-06	-6.772820e-10	-1.454680e+01	-4.331335e+01
2.700000e-06	-2.131740e-06	-7.510085e-10	-1.522039e+01	-4.804718e+01
2.710000e-06	-2.225129e-06	-8.201506e-10	-1.588718e+01	-5.274579e+01
2.720000e-06	-2.317627e-06	-8.883035e-10	-1.654761e+01	-5.739489e+01
2.730000e-06	-2.409235e-06	-9.575770e-10	-1.720167e+01	-6.198183e+01
2.740000e-06	-2.500018e-06	-1.028396e-09	-1.784986e+01	-6.649583e+01
2.750000e-06	-2.589983e-06	-1.096998e-09	-1.849220e+01	-7.092802e+01
2.760000e-06	-2.679026e-06	-1.160429e-09	-1.912795e+01	-7.527134e+01
2.770000e-06	-2.767218e-06	-1.219385e-09	-1.975764e+01	-7.952029e+01
2.780000e-06	-2.854547e-06	-1.280004e-09	-2.038115e+01	-8.367063e+01
2.790000e-06	-2.940786e-06	-1.343209e-09	-2.099689e+01	-8.771902e+01
2.800000e-06	-3.025836e-06	-1.404569e-09	-2.160414e+01	-9.166270e+01
2.810000e-06	-3.109758e-06	-1.462152e-09	-2.220334e+01	-9.549929e+01
2.820000e-06	-3.192670e-06	-1.517329e-09	-2.279532e+01	-9.922659e+01
2.830000e-06	-3.274560e-06	-1.572772e-09	-2.338000e+01	-1.028426e+02
2.840000e-06	-3.355383e-06	-1.628650e-09	-2.395707e+01	-1.063454e+02
2.850000e-06	-3.435080e-06	-1.682694e-09	-2.452610e+01	-1.097338e+02
2.860000e-06	-3.513384e-06	-1.730941e-09	-2.508518e+01	-1.130068e+02
2.870000e-06	-3.590147e-06	-1.774916e-09	-2.563326e+01	-1.161643e+02
2.880000e-06	-3.665459e-06	-1.818747e-09	-2.617098e+01	-1.192069e+02
2.890000e-06	-3.739378e-06	-1.864801e-09	-2.669875e+01	-1.221362e+02
2.900000e-06	-3.812033e-06	-1.910547e-09	-2.721750e+01	-1.249546e+02
2.910000e-06	-3.883285e-06	-1.953129e-09	-2.772624e+01	-1.276651e+02
2.920000e-06	-3.952912e-06	-1.991699e-09	-2.822336e+01	-1.302712e+02
2.930000e-06	-4.021095e-06	-2.028302e-09	-2.871018e+01	-1.327763e+02
2.940000e-06	-4.087898e-06	-2.067163e-09	-2.918715e+01	-1.351841e+02
