# Temperatura_=_20.0
# Concentracion g/m^3_=_12600.0
# C_Vs_to_Am_M_A/Vsm_=_65563218390.804596
# pendiente_HvsI_1/m_=_3716.3
# ordenada_HvsI_A/m_=_1297.0
# frecuencia_Hz_=_301804.2194825393

Tiempo_(s)	Campo_(V.s)	Magnetizacion_(V.s)	Campo_(kA/m)	Magnetizacion_(A/m)
0.000000e+00	-5.368180e-06	-2.657178e-09	-3.828215e+01	-1.752803e+02
1.000000e-08	-5.365138e-06	-2.661219e-09	-3.826046e+01	-1.751699e+02
2.000000e-08	-5.360385e-06	-2.661175e-09	-3.822656e+01	-1.750087e+02
3.000000e-08	-5.354028e-06	-2.655831e-09	-3.818123e+01	-1.748035e+02
4.000000e-08	-5.345997e-06	-2.649557e-09	-3.812396e+01	-1.745625e+02
5.000000e-08	-5.335984e-06	-2.647515e-09	-3.805255e+01	-1.742945e+02
6.000000e-08	-5.323987e-06	-2.646730e-09	-3.796700e+01	-1.740076e+02
7.000000e-08	-5.310165e-06	-2.642271e-09	-3.786843e+01	-1.737089e+02
8.000000e-08	-5.294207e-06	-2.644651e-09	-3.775463e+01	-1.734027e+02
9.000000e-08	-5.276098e-06	-2.648835e-09	-3.762548e+01	-1.730906e+02
1.000000e-07	-5.256020e-06	-2.646425e-09	-3.748230e+01	-1.727709e+02
1.100000e-07	-5.233998e-06	-2.634894e-09	-3.732526e+01	-1.724389e+02
1.200000e-07	-5.210275e-06	-2.600030e-09	-3.715608e+01	-1.720874e+02
1.300000e-07	-5.184953e-06	-2.577298e-09	-3.697550e+01	-1.717078e+02
1.400000e-07	-5.158074e-06	-2.606173e-09	-3.678382e+01	-1.712907e+02
1.500000e-07	-5.129718e-06	-2.601612e-09	-3.658161e+01	-1.708278e+02
1.600000e-07	-5.099925e-06	-2.582149e-09	-3.636914e+01	-1.703126e+02
1.700000e-07	-5.068423e-06	-2.571246e-09	-3.614449e+01	-1.697413e+02
1.800000e-07	-5.034741e-06	-2.538775e-09	-3.590429e+01	-1.691134e+02
1.900000e-07	-4.999351e-06	-2.564474e-09	-3.565192e+01	-1.684320e+02
2.000000e-07	-4.962540e-06	-2.573424e-09	-3.538940e+01	-1.677030e+02
2.100000e-07	-4.923902e-06	-2.507933e-09	-3.511387e+01	-1.669346e+02
2.200000e-07	-4.883311e-06	-2.502679e-09	-3.482440e+01	-1.661359e+02
2.300000e-07	-4.840739e-06	-2.550053e-09	-3.452080e+01	-1.653162e+02
2.400000e-07	-4.796440e-06	-2.551872e-09	-3.420489e+01	-1.644830e+02
2.500000e-07	-4.750381e-06	-2.493514e-09	-3.387643e+01	-1.636416e+02
2.600000e-07	-4.702232e-06	-2.418210e-09	-3.353307e+01	-1.627939e+02
2.700000e-07	-4.651895e-06	-2.437255e-09	-3.317410e+01	-1.619383e+02
2.800000e-07	-4.599600e-06	-2.505014e-09	-3.280117e+01	-1.610700e+02
2.900000e-07	-4.545696e-06	-2.493964e-09	-3.241676e+01	-1.601811e+02
3.000000e-07	-4.490224e-06	-2.392383e-09	-3.202117e+01	-1.592624e+02
3.100000e-07	-4.432944e-06	-2.325649e-09	-3.161270e+01	-1.583038e+02
3.200000e-07	-4.373852e-06	-2.386427e-09	-3.119129e+01	-1.572960e+02
3.300000e-07	-4.313305e-06	-2.449433e-09	-3.075951e+01	-1.562314e+02
3.400000e-07	-4.251347e-06	-2.390196e-09	-3.031767e+01	-1.551054e+02
3.500000e-07	-4.187941e-06	-2.277384e-09	-2.986550e+01	-1.539163e+02
3.600000e-07	-4.122919e-06	-2.258809e-09	-2.940181e+01	-1.526656e+02
3.700000e-07	-4.056157e-06	-2.343781e-09	-2.892571e+01	-1.513579e+02
3.800000e-07	-3.987947e-06	-2.361723e-09	-2.843928e+01	-1.499994e+02
3.900000e-07	-3.918488e-06	-2.246369e-09	-2.794395e+01	-1.485976e+02
4.000000e-07	-3.847821e-06	-2.155841e-09	-2.744000e+01	-1.471595e+02
4.100000e-07	-3.775906e-06	-2.204303e-09	-2.692715e+01	-1.456912e+02
4.200000e-07	-3.702465e-06	-2.286296e-09	-2.640342e+01	-1.441964e+02
4.300000e-07	-3.627317e-06	-2.237812e-09	-2.586752e+01	-1.426761e+02
4.400000e-07	-3.550698e-06	-2.101904e-09	-2.532112e+01	-1.411287e+02
4.500000e-07	-3.472744e-06	-2.053945e-09	-2.476521e+01	-1.395499e+02
4.600000e-07	-3.393352e-06	-2.131148e-09	-2.419904e+01	-1.379336e+02
4.700000e-07	-3.312658e-06	-2.172407e-09	-2.362359e+01	-1.362727e+02
4.800000e-07	-3.230854e-06	-2.070406e-09	-2.304022e+01	-1.345601e+02
4.900000e-07	-3.147990e-06	-1.950333e-09	-2.244929e+01	-1.327897e+02
5.000000e-07	-3.064138e-06	-1.955898e-09	-2.185131e+01	-1.309575e+02
5.100000e-07	-2.979324e-06	-2.032057e-09	-2.124648e+01	-1.290616e+02
5.200000e-07	-2.893527e-06	-2.015549e-09	-2.063463e+01	-1.271028e+02
5.300000e-07	-2.806744e-06	-1.892275e-09	-2.001576e+01	-1.250841e+02
5.400000e-07	-2.719041e-06	-1.812324e-09	-1.939032e+01	-1.230104e+02
5.500000e-07	-2.630309e-06	-1.847589e-09	-1.875754e+01	-1.208875e+02
5.600000e-07	-2.540322e-06	-1.889770e-09	-1.811582e+01	-1.187213e+02
5.700000e-07	-2.449215e-06	-1.823547e-09	-1.746611e+01	-1.165167e+02
5.800000e-07	-2.357319e-06	-1.706179e-09	-1.681077e+01	-1.142769e+02
5.900000e-07	-2.264671e-06	-1.665427e-09	-1.615007e+01	-1.120030e+02
6.000000e-07	-2.171206e-06	-1.702936e-09	-1.548354e+01	-1.096935e+02
6.100000e-07	-2.076970e-06	-1.705316e-09	-1.481152e+01	-1.073446e+02
6.200000e-07	-1.982101e-06	-1.620735e-09	-1.413497e+01	-1.049506e+02
6.300000e-07	-1.886533e-06	-1.529066e-09	-1.345345e+01	-1.025049e+02
6.400000e-07	-1.790194e-06	-1.511181e-09	-1.276642e+01	-1.000001e+02
6.500000e-07	-1.693128e-06	-1.530165e-09	-1.207422e+01	-9.742970e+01
6.600000e-07	-1.595300e-06	-1.498221e-09	-1.137658e+01	-9.478816e+01
6.700000e-07	-1.496860e-06	-1.410686e-09	-1.067457e+01	-9.207186e+01
6.800000e-07	-1.397897e-06	-1.340357e-09	-9.968839e+00	-8.927920e+01
6.900000e-07	-1.298452e-06	-1.324188e-09	-9.259659e+00	-8.641058e+01
7.000000e-07	-1.198628e-06	-1.315448e-09	-8.547790e+00	-8.346818e+01
7.100000e-07	-1.098469e-06	-1.261508e-09	-7.833523e+00	-8.045539e+01
7.200000e-07	-9.980033e-07	-1.179431e-09	-7.117070e+00	-7.737624e+01
7.300000e-07	-8.972192e-07	-1.122929e-09	-6.398347e+00	-7.423473e+01
7.400000e-07	-7.961200e-07	-1.101695e-09	-5.677378e+00	-7.103428e+01
7.500000e-07	-6.947190e-07	-1.073227e-09	-4.954256e+00	-6.777730e+01
7.600000e-07	-5.930558e-07	-1.008078e-09	-4.229264e+00	-6.446501e+01
7.700000e-07	-4.911984e-07	-9.298722e-10	-3.502888e+00	-6.109745e+01
7.800000e-07	-3.891771e-07	-8.777227e-10	-2.775342e+00	-5.767369e+01
7.900000e-07	-2.870432e-07	-8.471157e-10	-2.046994e+00	-5.419219e+01
8.000000e-07	-1.848347e-07	-8.030882e-10	-1.318114e+00	-5.065120e+01
8.100000e-07	-8.253356e-08	-7.317802e-10	-5.885723e-01	-4.704922e+01
8.200000e-07	1.986991e-08	-6.585126e-10	1.416985e-01	-4.338525e+01
8.300000e-07	1.222638e-07	-6.081738e-10	8.719012e-01	-3.965900e+01
8.400000e-07	2.246172e-07	-5.681507e-10	1.601815e+00	-3.587086e+01
8.500000e-07	3.269245e-07	-5.087927e-10	2.331400e+00	-3.202171e+01
8.600000e-07	4.291364e-07	-4.313791e-10	3.060304e+00	-2.811265e+01
8.700000e-07	5.312666e-07	-3.642081e-10	3.788626e+00	-2.414457e+01
8.800000e-07	6.332440e-07	-3.156312e-10	4.515859e+00	-2.011781e+01
8.900000e-07	7.349821e-07	-2.665092e-10	5.241384e+00	-1.603189e+01
9.000000e-07	8.364761e-07	-1.988966e-10	5.965169e+00	-1.188537e+01
9.100000e-07	9.377107e-07	-1.230394e-10	6.687104e+00	-7.675968e+00
9.200000e-07	1.038598e-06	-5.989369e-11	7.406566e+00	-3.400837e+00
9.300000e-07	1.139075e-06	-5.573942e-12	8.123092e+00	9.429261e-01
9.400000e-07	1.239174e-06	6.063030e-11	8.836931e+00	5.357655e+00
9.500000e-07	1.338906e-06	1.430882e-10	9.548154e+00	9.844418e+00
9.600000e-07	1.438201e-06	2.203250e-10	1.025626e+01	1.440236e+01
9.700000e-07	1.536959e-06	2.825188e-10	1.096053e+01	1.902815e+01
9.800000e-07	1.635046e-06	3.467943e-10	1.166002e+01	2.371568e+01
9.900000e-07	1.732405e-06	4.257825e-10	1.235432e+01	2.845591e+01
1.000000e-06	1.829007e-06	5.081635e-10	1.304321e+01	3.323710e+01
1.010000e-06	1.924828e-06	5.761812e-10	1.372654e+01	3.804519e+01
1.020000e-06	2.019853e-06	6.361836e-10	1.440420e+01	4.286444e+01
1.030000e-06	2.114162e-06	7.093058e-10	1.507674e+01	4.767818e+01
1.040000e-06	2.207792e-06	7.954265e-10	1.574445e+01	5.246959e+01
1.050000e-06	2.300678e-06	8.735176e-10	1.640684e+01	5.722243e+01
1.060000e-06	2.392817e-06	9.355805e-10	1.706392e+01	6.192167e+01
1.070000e-06	2.484214e-06	1.000682e-09	1.771569e+01	6.655392e+01
1.080000e-06	2.574743e-06	1.081472e-09	1.836129e+01	7.110766e+01
1.090000e-06	2.664216e-06	1.161560e-09	1.899935e+01	7.557330e+01
1.100000e-06	2.752565e-06	1.221758e-09	1.962939e+01	7.994300e+01
1.110000e-06	2.839881e-06	1.272726e-09	2.025207e+01	8.421052e+01
1.120000e-06	2.926291e-06	1.337175e-09	2.086829e+01	8.837086e+01
1.130000e-06	3.011759e-06	1.411921e-09	2.147778e+01	9.242001e+01
1.140000e-06	3.096294e-06	1.476577e-09	2.208063e+01	9.635476e+01
1.150000e-06	3.179952e-06	1.526331e-09	2.267722e+01	1.001725e+02
1.160000e-06	3.262585e-06	1.577497e-09	2.326650e+01	1.038715e+02
1.170000e-06	3.343965e-06	1.639560e-09	2.384685e+01	1.074503e+02
1.180000e-06	3.424091e-06	1.701654e-09	2.441825e+01	1.109086e+02
1.190000e-06	3.503033e-06	1.748854e-09	2.498121e+01	1.142470e+02
1.200000e-06	3.580748e-06	1.786925e-09	2.553542e+01	1.174671e+02
1.210000e-06	3.657172e-06	1.831699e-09	2.608043e+01	1.205713e+02
1.220000e-06	3.732200e-06	1.885491e-09	2.661547e+01	1.235631e+02
1.230000e-06	3.805679e-06	1.934713e-09	2.713947e+01	1.264467e+02
1.240000e-06	3.877632e-06	1.970395e-09	2.765259e+01	1.292262e+02
1.250000e-06	3.948173e-06	2.004078e-09	2.815564e+01	1.319060e+02
1.260000e-06	4.017253e-06	2.047418e-09	2.864827e+01	1.344898e+02
1.270000e-06	4.084960e-06	2.095629e-09	2.913111e+01	1.369807e+02
1.280000e-06	4.151202e-06	2.134310e-09	2.960350e+01	1.393805e+02
1.290000e-06	4.215809e-06	2.160978e-09	3.006424e+01	1.416902e+02
1.300000e-06	4.278861e-06	2.188658e-09	3.051388e+01	1.439096e+02
1.310000e-06	4.340409e-06	2.225378e-09	3.095280e+01	1.460379e+02
1.320000e-06	4.400564e-06	2.264462e-09	3.138178e+01	1.480740e+02
1.330000e-06	4.459386e-06	2.293506e-09	3.180126e+01	1.500167e+02
1.340000e-06	4.516524e-06	2.314070e-09	3.220873e+01	1.518657e+02
1.350000e-06	4.571854e-06	2.339378e-09	3.260330e+01	1.536213e+02
1.360000e-06	4.625586e-06	2.373195e-09	3.298648e+01	1.552850e+02
1.370000e-06	4.677548e-06	2.404919e-09	3.335704e+01	1.568599e+02
1.380000e-06	4.727437e-06	2.425329e-09	3.371281e+01	1.583496e+02
1.390000e-06	4.775310e-06	2.439776e-09	3.405421e+01	1.597591e+02
1.400000e-06	4.821474e-06	2.459053e-09	3.438342e+01	1.610936e+02
1.410000e-06	4.866097e-06	2.483926e-09	3.470164e+01	1.623581e+02
1.420000e-06	4.909145e-06	2.505077e-09	3.500863e+01	1.635574e+02
1.430000e-06	4.950312e-06	2.517167e-09	3.530221e+01	1.646953e+02
1.440000e-06	4.989605e-06	2.527329e-09	3.558242e+01	1.657745e+02
1.450000e-06	5.027250e-06	2.545695e-09	3.585088e+01	1.667966e+02
1.460000e-06	5.063361e-06	2.569638e-09	3.610839e+01	1.677620e+02
1.470000e-06	5.097775e-06	2.586559e-09	3.635381e+01	1.686707e+02
1.480000e-06	5.130210e-06	2.592796e-09	3.658511e+01	1.695219e+02
1.490000e-06	5.160799e-06	2.598825e-09	3.680325e+01	1.703154e+02
1.500000e-06	5.189678e-06	2.612953e-09	3.700920e+01	1.710511e+02
1.510000e-06	5.216884e-06	2.629055e-09	3.720321e+01	1.717297e+02
1.520000e-06	5.242104e-06	2.639021e-09	3.738307e+01	1.723529e+02
1.530000e-06	5.265208e-06	2.642815e-09	3.754783e+01	1.729229e+02
1.540000e-06	5.286492e-06	2.649278e-09	3.769961e+01	1.734428e+02
1.550000e-06	5.306115e-06	2.664320e-09	3.783955e+01	1.739153e+02
1.560000e-06	5.323870e-06	2.678980e-09	3.796616e+01	1.743431e+02
1.570000e-06	5.339520e-06	2.684531e-09	3.807777e+01	1.747279e+02
1.580000e-06	5.353191e-06	2.684777e-09	3.817526e+01	1.750704e+02
1.590000e-06	5.364911e-06	2.689980e-09	3.825884e+01	1.753696e+02
1.600000e-06	5.374444e-06	2.699242e-09	3.832682e+01	1.756237e+02
1.610000e-06	5.381860e-06	2.703277e-09	3.837970e+01	1.758295e+02
1.620000e-06	5.387418e-06	2.700148e-09	3.841934e+01	1.759834e+02
1.630000e-06	5.391218e-06	2.696797e-09	3.844644e+01	1.760820e+02
1.640000e-06	5.393119e-06	2.700373e-09	3.846000e+01	1.761230e+02
1.650000e-06	5.392990e-06	2.706122e-09	3.845908e+01	1.761052e+02
1.660000e-06	5.391066e-06	2.705686e-09	3.844536e+01	1.760299e+02
1.670000e-06	5.387502e-06	2.701097e-09	3.841994e+01	1.759004e+02
1.680000e-06	5.382200e-06	2.698787e-09	3.838213e+01	1.757223e+02
1.690000e-06	5.374974e-06	2.700903e-09	3.833060e+01	1.755029e+02
1.700000e-06	5.366012e-06	2.700467e-09	3.826669e+01	1.752509e+02
1.710000e-06	5.355516e-06	2.694109e-09	3.819184e+01	1.749750e+02
1.720000e-06	5.343308e-06	2.687201e-09	3.810478e+01	1.746829e+02
1.730000e-06	5.329129e-06	2.668696e-09	3.800367e+01	1.743808e+02
1.740000e-06	5.312801e-06	2.649655e-09	3.788723e+01	1.740721e+02
1.750000e-06	5.294092e-06	2.637947e-09	3.775380e+01	1.737573e+02
1.760000e-06	5.272808e-06	2.635405e-09	3.760202e+01	1.734336e+02
1.770000e-06	5.249310e-06	2.667760e-09	3.743445e+01	1.730953e+02
1.780000e-06	5.224610e-06	2.680603e-09	3.725831e+01	1.727345e+02
1.790000e-06	5.199201e-06	2.651799e-09	3.707711e+01	1.723422e+02
1.800000e-06	5.172082e-06	2.645064e-09	3.688372e+01	1.719093e+02
1.810000e-06	5.142812e-06	2.622174e-09	3.667498e+01	1.714280e+02
1.820000e-06	5.111991e-06	2.628659e-09	3.645519e+01	1.708927e+02
1.830000e-06	5.079406e-06	2.646578e-09	3.622281e+01	1.703007e+02
1.840000e-06	5.044787e-06	2.585928e-09	3.597594e+01	1.696529e+02
1.850000e-06	5.008535e-06	2.591721e-09	3.571741e+01	1.689534e+02
1.860000e-06	4.970497e-06	2.631784e-09	3.544615e+01	1.682089e+02
1.870000e-06	4.930620e-06	2.565001e-09	3.516178e+01	1.674283e+02
1.880000e-06	4.889007e-06	2.486809e-09	3.486502e+01	1.666208e+02
1.890000e-06	4.845498e-06	2.462553e-09	3.455474e+01	1.657952e+02
1.900000e-06	4.800471e-06	2.531043e-09	3.423365e+01	1.649583e+02
1.910000e-06	4.753708e-06	2.602476e-09	3.390016e+01	1.641143e+02
1.920000e-06	4.704932e-06	2.509179e-09	3.355233e+01	1.632638e+02
1.930000e-06	4.654429e-06	2.393906e-09	3.319217e+01	1.624040e+02
1.940000e-06	4.602105e-06	2.408496e-09	3.281903e+01	1.615290e+02
1.950000e-06	4.547849e-06	2.528310e-09	3.243212e+01	1.606304e+02
1.960000e-06	4.491699e-06	2.572366e-09	3.203169e+01	1.596982e+02
1.970000e-06	4.433803e-06	2.412352e-09	3.161882e+01	1.587227e+02
1.980000e-06	4.374486e-06	2.291657e-09	3.119581e+01	1.576950e+02
1.990000e-06	4.313733e-06	2.364152e-09	3.076256e+01	1.566086e+02
2.000000e-06	4.251332e-06	2.480712e-09	3.031757e+01	1.554597e+02
2.010000e-06	4.187247e-06	2.443848e-09	2.986055e+01	1.542479e+02
2.020000e-06	4.121631e-06	2.253164e-09	2.939263e+01	1.529759e+02
2.030000e-06	4.054634e-06	2.206263e-09	2.891485e+01	1.516489e+02
2.040000e-06	3.986247e-06	2.337474e-09	2.842716e+01	1.502738e+02
2.050000e-06	3.916408e-06	2.399743e-09	2.792912e+01	1.488579e+02
2.060000e-06	3.844979e-06	2.274687e-09	2.741973e+01	1.474082e+02
2.070000e-06	3.772173e-06	2.105801e-09	2.690053e+01	1.459297e+02
2.080000e-06	3.698153e-06	2.134379e-09	2.637267e+01	1.444255e+02
2.090000e-06	3.622754e-06	2.263427e-09	2.583498e+01	1.428956e+02
2.100000e-06	3.545969e-06	2.256381e-09	2.528740e+01	1.413372e+02
2.110000e-06	3.467609e-06	2.093258e-09	2.472859e+01	1.397455e+02
2.120000e-06	3.387824e-06	1.986525e-09	2.415962e+01	1.381137e+02
2.130000e-06	3.306918e-06	2.064617e-09	2.358266e+01	1.364348e+02
2.140000e-06	3.224861e-06	2.147585e-09	2.299748e+01	1.347019e+02
2.150000e-06	3.141737e-06	2.076810e-09	2.240470e+01	1.329095e+02
2.160000e-06	3.057661e-06	1.926032e-09	2.180513e+01	1.310543e+02
2.170000e-06	2.972587e-06	1.886082e-09	2.119843e+01	1.291353e+02
2.180000e-06	2.886182e-06	1.965095e-09	2.058226e+01	1.271543e+02
2.190000e-06	2.798482e-06	1.983311e-09	1.995684e+01	1.251150e+02
2.200000e-06	2.709845e-06	1.874666e-09	1.932474e+01	1.230228e+02
2.210000e-06	2.620282e-06	1.760820e-09	1.868604e+01	1.208835e+02
2.220000e-06	2.529785e-06	1.765714e-09	1.804068e+01	1.187027e+02
2.230000e-06	2.438458e-06	1.818469e-09	1.738940e+01	1.164850e+02
2.240000e-06	2.346371e-06	1.785713e-09	1.673270e+01	1.142327e+02
2.250000e-06	2.253581e-06	1.672659e-09	1.607098e+01	1.119460e+02
2.260000e-06	2.159895e-06	1.599918e-09	1.540288e+01	1.096226e+02
2.270000e-06	2.065102e-06	1.618465e-09	1.472688e+01	1.072580e+02
2.280000e-06	1.969391e-06	1.638765e-09	1.404433e+01	1.048461e+02
2.290000e-06	1.873023e-06	1.579746e-09	1.335711e+01	1.023798e+02
2.300000e-06	1.776135e-06	1.480105e-09	1.266617e+01	9.985195e+01
2.310000e-06	1.678750e-06	1.431533e-09	1.197169e+01	9.725634e+01
2.320000e-06	1.580850e-06	1.441080e-09	1.127353e+01	9.458809e+01
2.330000e-06	1.482389e-06	1.430328e-09	1.057137e+01	9.184427e+01
2.340000e-06	1.383399e-06	1.355799e-09	9.865449e+00	8.902401e+01
2.350000e-06	1.283991e-06	1.268566e-09	9.156535e+00	8.612839e+01
2.360000e-06	1.184267e-06	1.231246e-09	8.445376e+00	8.316008e+01
2.370000e-06	1.084276e-06	1.227722e-09	7.732309e+00	8.012279e+01
2.380000e-06	9.840411e-07	1.192640e-09	7.017501e+00	7.702061e+01
2.390000e-06	8.835415e-07	1.109412e-09	6.300807e+00	7.385738e+01
2.400000e-06	7.826679e-07	1.032547e-09	5.581446e+00	7.063619e+01
2.410000e-06	6.814025e-07	1.001959e-09	4.859292e+00	6.735906e+01
2.420000e-06	5.798723e-07	9.854679e-10	4.135249e+00	6.402676e+01
2.430000e-06	4.781829e-07	9.314156e-10	3.410070e+00	6.063895e+01
2.440000e-06	3.762505e-07	8.437130e-10	2.683158e+00	5.719444e+01
2.450000e-06	2.740591e-07	7.760930e-10	1.954400e+00	5.369156e+01
2.460000e-06	1.716710e-07	7.500788e-10	1.224239e+00	5.012862e+01
2.470000e-06	6.922966e-08	7.210469e-10	4.936981e-01	4.650425e+01
2.480000e-06	-3.325635e-08	6.516706e-10	-2.371613e-01	4.281771e+01
2.490000e-06	-1.357532e-07	5.657871e-10	-9.680983e-01	3.906895e+01
2.500000e-06	-2.382107e-07	5.080133e-10	-1.698754e+00	3.525858e+01
2.510000e-06	-3.406532e-07	4.754562e-10	-2.429303e+00	3.138759e+01
2.520000e-06	-4.428801e-07	4.240503e-10	-3.158315e+00	2.745704e+01
2.530000e-06	-5.448687e-07	3.410293e-10	-3.885627e+00	2.346768e+01
2.540000e-06	-6.466501e-07	2.623604e-10	-4.611462e+00	1.941957e+01
2.550000e-06	-7.481309e-07	2.128643e-10	-5.335153e+00	1.531189e+01
2.560000e-06	-8.492977e-07	1.696600e-10	-6.056605e+00	1.114289e+01
2.570000e-06	-9.500464e-07	1.003310e-10	-6.775074e+00	6.910026e+00
2.580000e-06	-1.050366e-06	1.515557e-11	-7.490485e+00	2.610376e+00
2.590000e-06	-1.150383e-06	-5.152234e-11	-8.203739e+00	-1.758841e+00
2.600000e-06	-1.250055e-06	-9.979078e-11	-8.914529e+00	-6.199586e+00
2.610000e-06	-1.349296e-06	-1.621162e-10	-9.622244e+00	-1.071231e+01
2.620000e-06	-1.448094e-06	-2.480302e-10	-1.032681e+01	-1.529533e+01
2.630000e-06	-1.546349e-06	-3.290550e-10	-1.102750e+01	-1.994436e+01
2.640000e-06	-1.644023e-06	-3.898885e-10	-1.172403e+01	-2.465222e+01
2.650000e-06	-1.741191e-06	-4.505476e-10	-1.241697e+01	-2.940888e+01
2.660000e-06	-1.837796e-06	-5.294668e-10	-1.310589e+01	-3.420172e+01
2.670000e-06	-1.933904e-06	-6.151174e-10	-1.379127e+01	-3.901599e+01
2.680000e-06	-2.029466e-06	-6.843718e-10	-1.447275e+01	-4.383553e+01
2.690000e-06	-2.124166e-06	-7.427892e-10	-1.514809e+01	-4.864354e+01
2.700000e-06	-2.217760e-06	-8.148927e-10	-1.581554e+01	-5.342331e+01
2.710000e-06	-2.310305e-06	-9.015445e-10	-1.647550e+01	-5.815898e+01
2.720000e-06	-2.402053e-06	-9.778678e-10	-1.712978e+01	-6.283607e+01
2.730000e-06	-2.493094e-06	-1.035210e-09	-1.777902e+01	-6.744183e+01
2.740000e-06	-2.583263e-06	-1.093819e-09	-1.842205e+01	-7.196543e+01
2.750000e-06	-2.672398e-06	-1.168381e-09	-1.905770e+01	-7.639794e+01
2.760000e-06	-2.760724e-06	-1.245788e-09	-1.968758e+01	-8.073213e+01
2.770000e-06	-2.848373e-06	-1.305766e-09	-2.031263e+01	-8.496221e+01
2.780000e-06	-2.934995e-06	-1.354207e-09	-2.093035e+01	-8.908358e+01
2.790000e-06	-3.020313e-06	-1.412204e-09	-2.153878e+01	-9.309253e+01
2.800000e-06	-3.104424e-06	-1.483292e-09	-2.213861e+01	-9.698610e+01
2.810000e-06	-3.187514e-06	-1.549336e-09	-2.273115e+01	-1.007619e+02
2.820000e-06	-3.269606e-06	-1.597408e-09	-2.331657e+01	-1.044184e+02
2.830000e-06	-3.350674e-06	-1.640186e-09	-2.389469e+01	-1.079545e+02
2.840000e-06	-3.430624e-06	-1.696054e-09	-2.446484e+01	-1.113702e+02
2.850000e-06	-3.509078e-06	-1.757499e-09	-2.502432e+01	-1.146664e+02
2.860000e-06	-3.586016e-06	-1.806112e-09	-2.557299e+01	-1.178451e+02
2.870000e-06	-3.661601e-06	-1.839305e-09	-2.611200e+01	-1.209091e+02
2.880000e-06	-3.735789e-06	-1.875822e-09	-2.664106e+01	-1.238621e+02
2.890000e-06	-3.808679e-06	-1.927612e-09	-2.716087e+01	-1.267083e+02
2.900000e-06	-3.880247e-06	-1.981228e-09	-2.767124e+01	-1.294521e+02
2.910000e-06	-3.950248e-06	-2.020161e-09	-2.817044e+01	-1.320975e+02
2.920000e-06	-4.018659e-06	-2.048001e-09	-2.865830e+01	-1.346482e+02
2.930000e-06	-4.085683e-06	-2.083803e-09	-2.913627e+01	-1.371067e+02
2.940000e-06	-4.151305e-06	-2.130771e-09	-2.960424e+01	-1.394746e+02
