# Temperatura_=_20.0
# Concentracion g/m^3_=_12600.0
# C_Vs_to_Am_M_A/Vsm_=_65563218390.804596
# pendiente_HvsI_1/m_=_3716.3
# ordenada_HvsI_A/m_=_1297.0
# frecuencia_Hz_=_301807.34975411824

Tiempo_(s)	Campo_(V.s)	Magnetizacion_(V.s)	Campo_(kA/m)	Magnetizacion_(A/m)
0.000000e+00	-5.355424e-06	-2.846632e-09	-3.829149e+01	-1.879698e+02
1.000000e-08	-5.354186e-06	-2.847460e-09	-3.828264e+01	-1.879069e+02
2.000000e-08	-5.351008e-06	-2.849070e-09	-3.825992e+01	-1.877902e+02
3.000000e-08	-5.346143e-06	-2.849876e-09	-3.822513e+01	-1.876211e+02
4.000000e-08	-5.339743e-06	-2.845952e-09	-3.817937e+01	-1.874029e+02
5.000000e-08	-5.331726e-06	-2.838825e-09	-3.812205e+01	-1.871407e+02
6.000000e-08	-5.321711e-06	-2.832398e-09	-3.805044e+01	-1.868411e+02
7.000000e-08	-5.309638e-06	-2.824420e-09	-3.796412e+01	-1.865111e+02
8.000000e-08	-5.295675e-06	-2.815029e-09	-3.786429e+01	-1.861582e+02
9.000000e-08	-5.279576e-06	-2.834508e-09	-3.774917e+01	-1.857888e+02
1.000000e-07	-5.261318e-06	-2.853096e-09	-3.761863e+01	-1.854081e+02
1.100000e-07	-5.241104e-06	-2.839534e-09	-3.747410e+01	-1.850190e+02
1.200000e-07	-5.218991e-06	-2.823431e-09	-3.731599e+01	-1.846219e+02
1.300000e-07	-5.195185e-06	-2.770068e-09	-3.714578e+01	-1.842149e+02
1.400000e-07	-5.169802e-06	-2.736486e-09	-3.696429e+01	-1.837934e+02
1.500000e-07	-5.142836e-06	-2.816564e-09	-3.677148e+01	-1.833512e+02
1.600000e-07	-5.114387e-06	-2.802697e-09	-3.656807e+01	-1.828810e+02
1.700000e-07	-5.084524e-06	-2.744528e-09	-3.635455e+01	-1.823752e+02
1.800000e-07	-5.052934e-06	-2.753888e-09	-3.612868e+01	-1.818268e+02
1.900000e-07	-5.019165e-06	-2.704071e-09	-3.588723e+01	-1.812304e+02
2.000000e-07	-4.983715e-06	-2.742314e-09	-3.563376e+01	-1.805824e+02
2.100000e-07	-4.946783e-06	-2.789081e-09	-3.536969e+01	-1.798820e+02
2.200000e-07	-4.908013e-06	-2.685985e-09	-3.509248e+01	-1.791303e+02
2.300000e-07	-4.867282e-06	-2.658148e-09	-3.480126e+01	-1.783309e+02
2.400000e-07	-4.824557e-06	-2.720582e-09	-3.449577e+01	-1.774887e+02
2.500000e-07	-4.780110e-06	-2.729982e-09	-3.417798e+01	-1.766093e+02
2.600000e-07	-4.733939e-06	-2.676368e-09	-3.384785e+01	-1.756984e+02
2.700000e-07	-4.685691e-06	-2.581590e-09	-3.350287e+01	-1.747605e+02
2.800000e-07	-4.635225e-06	-2.600604e-09	-3.314204e+01	-1.737987e+02
2.900000e-07	-4.582881e-06	-2.672598e-09	-3.276778e+01	-1.728138e+02
3.000000e-07	-4.528931e-06	-2.647463e-09	-3.238203e+01	-1.718046e+02
3.100000e-07	-4.473373e-06	-2.558224e-09	-3.198479e+01	-1.707676e+02
3.200000e-07	-4.416001e-06	-2.502942e-09	-3.157458e+01	-1.696976e+02
3.300000e-07	-4.356849e-06	-2.553252e-09	-3.115164e+01	-1.685884e+02
3.400000e-07	-4.296244e-06	-2.601111e-09	-3.071831e+01	-1.674337e+02
3.500000e-07	-4.234241e-06	-2.546676e-09	-3.027499e+01	-1.662275e+02
3.600000e-07	-4.170804e-06	-2.451184e-09	-2.982141e+01	-1.649651e+02
3.700000e-07	-4.105779e-06	-2.432163e-09	-2.935648e+01	-1.636436e+02
3.800000e-07	-4.039105e-06	-2.497984e-09	-2.887976e+01	-1.622620e+02
3.900000e-07	-3.970960e-06	-2.499308e-09	-2.839252e+01	-1.608216e+02
4.000000e-07	-3.901511e-06	-2.403853e-09	-2.789596e+01	-1.593251e+02
4.100000e-07	-3.830841e-06	-2.338947e-09	-2.739066e+01	-1.577765e+02
4.200000e-07	-3.758924e-06	-2.366732e-09	-2.687646e+01	-1.561805e+02
4.300000e-07	-3.685505e-06	-2.414446e-09	-2.635151e+01	-1.545414e+02
4.400000e-07	-3.610509e-06	-2.364866e-09	-2.581528e+01	-1.528627e+02
4.500000e-07	-3.534071e-06	-2.260985e-09	-2.526875e+01	-1.511466e+02
4.600000e-07	-3.456237e-06	-2.225858e-09	-2.471223e+01	-1.493934e+02
4.700000e-07	-3.376989e-06	-2.268249e-09	-2.414560e+01	-1.476016e+02
4.800000e-07	-3.296444e-06	-2.278381e-09	-2.356970e+01	-1.457683e+02
4.900000e-07	-3.214787e-06	-2.194743e-09	-2.298585e+01	-1.438891e+02
5.000000e-07	-3.132035e-06	-2.111807e-09	-2.239417e+01	-1.419591e+02
5.100000e-07	-3.048275e-06	-2.111688e-09	-2.179528e+01	-1.399733e+02
5.200000e-07	-2.963523e-06	-2.148264e-09	-2.118930e+01	-1.379274e+02
5.300000e-07	-2.877760e-06	-2.118149e-09	-2.057610e+01	-1.358182e+02
5.400000e-07	-2.791049e-06	-2.024052e-09	-1.995611e+01	-1.336441e+02
5.500000e-07	-2.703450e-06	-1.964809e-09	-1.932977e+01	-1.314050e+02
5.600000e-07	-2.614885e-06	-1.972016e-09	-1.869653e+01	-1.291026e+02
5.700000e-07	-2.525081e-06	-1.976718e-09	-1.805442e+01	-1.267395e+02
5.800000e-07	-2.434093e-06	-1.913588e-09	-1.740386e+01	-1.243195e+02
5.900000e-07	-2.342318e-06	-1.825841e-09	-1.674767e+01	-1.218465e+02
6.000000e-07	-2.249860e-06	-1.792188e-09	-1.608659e+01	-1.193238e+02
6.100000e-07	-2.156603e-06	-1.801464e-09	-1.541979e+01	-1.167541e+02
6.200000e-07	-2.062584e-06	-1.780209e-09	-1.474756e+01	-1.141387e+02
6.300000e-07	-1.967865e-06	-1.706790e-09	-1.407031e+01	-1.114774e+02
6.400000e-07	-1.872461e-06	-1.635788e-09	-1.338817e+01	-1.087684e+02
6.500000e-07	-1.776461e-06	-1.610792e-09	-1.270177e+01	-1.060087e+02
6.600000e-07	-1.679757e-06	-1.602411e-09	-1.201033e+01	-1.031940e+02
6.700000e-07	-1.582257e-06	-1.557927e-09	-1.131320e+01	-1.003196e+02
6.800000e-07	-1.484046e-06	-1.482670e-09	-1.061099e+01	-9.738065e+01
6.900000e-07	-1.385196e-06	-1.424595e-09	-9.904207e+00	-9.437276e+01
7.000000e-07	-1.285866e-06	-1.399979e-09	-9.193995e+00	-9.129235e+01
7.100000e-07	-1.186190e-06	-1.371414e-09	-8.481305e+00	-8.813702e+01
7.200000e-07	-1.086245e-06	-1.309548e-09	-7.766695e+00	-8.490566e+01
7.300000e-07	-9.860333e-07	-1.238432e-09	-7.050177e+00	-8.159855e+01
7.400000e-07	-8.854921e-07	-1.191328e-09	-6.331303e+00	-7.821720e+01
7.500000e-07	-7.846842e-07	-1.159148e-09	-5.610523e+00	-7.476412e+01
7.600000e-07	-6.835805e-07	-1.109423e-09	-4.887627e+00	-7.124256e+01
7.700000e-07	-5.821769e-07	-1.036151e-09	-4.162588e+00	-6.765611e+01
7.800000e-07	-4.805769e-07	-9.679861e-10	-3.436144e+00	-6.400846e+01
7.900000e-07	-3.788021e-07	-9.237406e-10	-2.708450e+00	-6.030304e+01
8.000000e-07	-2.769408e-07	-8.820160e-10	-1.980138e+00	-5.654282e+01
8.100000e-07	-1.750373e-07	-8.179129e-10	-1.251524e+00	-5.273012e+01
8.200000e-07	-7.302240e-08	-7.423286e-10	-5.221130e-01	-4.886653e+01
8.300000e-07	2.908362e-08	-6.820800e-10	2.079490e-01	-4.495285e+01
8.400000e-07	1.311751e-07	-6.349147e-10	9.379070e-01	-4.098907e+01
8.500000e-07	2.332109e-07	-5.758817e-10	1.667467e+00	-3.697440e+01
8.600000e-07	3.351955e-07	-4.976198e-10	2.396661e+00	-3.290731e+01
8.700000e-07	4.371093e-07	-4.241013e-10	3.125348e+00	-2.878561e+01
8.800000e-07	5.389440e-07	-3.714484e-10	3.853471e+00	-2.460653e+01
8.900000e-07	6.406620e-07	-3.194498e-10	4.580759e+00	-2.036680e+01
9.000000e-07	7.421520e-07	-2.486373e-10	5.306416e+00	-1.606286e+01
9.100000e-07	8.433445e-07	-1.708062e-10	6.029946e+00	-1.169106e+01
9.200000e-07	9.442517e-07	-1.080030e-10	6.751437e+00	-7.247904e+00
9.300000e-07	1.044764e-06	-5.577383e-11	7.470106e+00	-2.730414e+00
9.400000e-07	1.144876e-06	1.202956e-11	8.185911e+00	1.863531e+00
9.500000e-07	1.244737e-06	1.006308e-10	8.899919e+00	6.534793e+00
9.600000e-07	1.344306e-06	1.855858e-10	9.611841e+00	1.128261e+01
9.700000e-07	1.443419e-06	2.495733e-10	1.032050e+01	1.610427e+01
9.800000e-07	1.541835e-06	3.103065e-10	1.102418e+01	2.099488e+01
9.900000e-07	1.639402e-06	3.926262e-10	1.172179e+01	2.594725e+01
1.000000e-06	1.736199e-06	4.852406e-10	1.241389e+01	3.095188e+01
1.010000e-06	1.832377e-06	5.604817e-10	1.310157e+01	3.599720e+01
1.020000e-06	1.927889e-06	6.178308e-10	1.378448e+01	4.106983e+01
1.030000e-06	2.022635e-06	6.853267e-10	1.446192e+01	4.615504e+01
1.040000e-06	2.116666e-06	7.764711e-10	1.513425e+01	5.123725e+01
1.050000e-06	2.209985e-06	8.679535e-10	1.580148e+01	5.630060e+01
1.060000e-06	2.302578e-06	9.376591e-10	1.646352e+01	6.132950e+01
1.070000e-06	2.394513e-06	9.998036e-10	1.712086e+01	6.630911e+01
1.080000e-06	2.485727e-06	1.077218e-09	1.777305e+01	7.122576e+01
1.090000e-06	2.575966e-06	1.167847e-09	1.841826e+01	7.606720e+01
1.100000e-06	2.665052e-06	1.246688e-09	1.905522e+01	8.082283e+01
1.110000e-06	2.753085e-06	1.303249e-09	1.968467e+01	8.548364e+01
1.120000e-06	2.840176e-06	1.359644e-09	2.030737e+01	9.004226e+01
1.130000e-06	2.926320e-06	1.435179e-09	2.092330e+01	9.449274e+01
1.140000e-06	3.011497e-06	1.515889e-09	2.153232e+01	9.883041e+01
1.150000e-06	3.095758e-06	1.582018e-09	2.213479e+01	1.030517e+02
1.160000e-06	3.179118e-06	1.634758e-09	2.273082e+01	1.071540e+02
1.170000e-06	3.261402e-06	1.690770e-09	2.331915e+01	1.111354e+02
1.180000e-06	3.342460e-06	1.757532e-09	2.389872e+01	1.149947e+02
1.190000e-06	3.422261e-06	1.823326e-09	2.446930e+01	1.187315e+02
1.200000e-06	3.500812e-06	1.875382e-09	2.503094e+01	1.223459e+02
1.210000e-06	3.578167e-06	1.917513e-09	2.558404e+01	1.258386e+02
1.220000e-06	3.654316e-06	1.963330e-09	2.612850e+01	1.292109e+02
1.230000e-06	3.729016e-06	2.017824e-09	2.666261e+01	1.324644e+02
1.240000e-06	3.802056e-06	2.073494e-09	2.718485e+01	1.356013e+02
1.250000e-06	3.873590e-06	2.118653e-09	2.769632e+01	1.386240e+02
1.260000e-06	3.943800e-06	2.158349e-09	2.819832e+01	1.415350e+02
1.270000e-06	4.012608e-06	2.202456e-09	2.869030e+01	1.443366e+02
1.280000e-06	4.080098e-06	2.252454e-09	2.917286e+01	1.470310e+02
1.290000e-06	4.146113e-06	2.297787e-09	2.964487e+01	1.496203e+02
1.300000e-06	4.210418e-06	2.330786e-09	3.010465e+01	1.521059e+02
1.310000e-06	4.273233e-06	2.357666e-09	3.055378e+01	1.544892e+02
1.320000e-06	4.334626e-06	2.390718e-09	3.099275e+01	1.567714e+02
1.330000e-06	4.394625e-06	2.432017e-09	3.142174e+01	1.589534e+02
1.340000e-06	4.453213e-06	2.469422e-09	3.184065e+01	1.610367e+02
1.350000e-06	4.510017e-06	2.497144e-09	3.224680e+01	1.630229e+02
1.360000e-06	4.565012e-06	2.523578e-09	3.264002e+01	1.649140e+02
1.370000e-06	4.618416e-06	2.555734e-09	3.302185e+01	1.667129e+02
1.380000e-06	4.670037e-06	2.589579e-09	3.339095e+01	1.684229e+02
1.390000e-06	4.719570e-06	2.615567e-09	3.374511e+01	1.700475e+02
1.400000e-06	4.767165e-06	2.631392e-09	3.408542e+01	1.715910e+02
1.410000e-06	4.813127e-06	2.647787e-09	3.441405e+01	1.730572e+02
1.420000e-06	4.857558e-06	2.672313e-09	3.473173e+01	1.744497e+02
1.430000e-06	4.900334e-06	2.698523e-09	3.503758e+01	1.757717e+02
1.440000e-06	4.941172e-06	2.716950e-09	3.532958e+01	1.770255e+02
1.450000e-06	4.980215e-06	2.730193e-09	3.560873e+01	1.782122e+02
1.460000e-06	5.017669e-06	2.748452e-09	3.587653e+01	1.793324e+02
1.470000e-06	5.053536e-06	2.772679e-09	3.613298e+01	1.803856e+02
1.480000e-06	5.087599e-06	2.792200e-09	3.637653e+01	1.813710e+02
1.490000e-06	5.119703e-06	2.802687e-09	3.660608e+01	1.822874e+02
1.500000e-06	5.150030e-06	2.810461e-09	3.682291e+01	1.831340e+02
1.510000e-06	5.178712e-06	2.823281e-09	3.702799e+01	1.839105e+02
1.520000e-06	5.205645e-06	2.838834e-09	3.722057e+01	1.846173e+02
1.530000e-06	5.230561e-06	2.850111e-09	3.739871e+01	1.852560e+02
1.540000e-06	5.253454e-06	2.857040e-09	3.756240e+01	1.858293e+02
1.550000e-06	5.274573e-06	2.863769e-09	3.771340e+01	1.863406e+02
1.560000e-06	5.293995e-06	2.873498e-09	3.785228e+01	1.867940e+02
1.570000e-06	5.311516e-06	2.884660e-09	3.797755e+01	1.871936e+02
1.580000e-06	5.326995e-06	2.892610e-09	3.808823e+01	1.875435e+02
1.590000e-06	5.340495e-06	2.896007e-09	3.818475e+01	1.878467e+02
1.600000e-06	5.351958e-06	2.897392e-09	3.826671e+01	1.881054e+02
1.610000e-06	5.361248e-06	2.900434e-09	3.833314e+01	1.883205e+02
1.620000e-06	5.368441e-06	2.904907e-09	3.838457e+01	1.884914e+02
1.630000e-06	5.373761e-06	2.907340e-09	3.842260e+01	1.886164e+02
1.640000e-06	5.377348e-06	2.908111e-09	3.844825e+01	1.886934e+02
1.650000e-06	5.378991e-06	2.909467e-09	3.846000e+01	1.887197e+02
1.660000e-06	5.378645e-06	2.910563e-09	3.845753e+01	1.886933e+02
1.670000e-06	5.376573e-06	2.908379e-09	3.844271e+01	1.886129e+02
1.680000e-06	5.372922e-06	2.904736e-09	3.841660e+01	1.884790e+02
1.690000e-06	5.367515e-06	2.901849e-09	3.837794e+01	1.882935e+02
1.700000e-06	5.360117e-06	2.899296e-09	3.832505e+01	1.880605e+02
1.710000e-06	5.351032e-06	2.895383e-09	3.826009e+01	1.877854e+02
1.720000e-06	5.340408e-06	2.892346e-09	3.818413e+01	1.874751e+02
1.730000e-06	5.328012e-06	2.898747e-09	3.809549e+01	1.871369e+02
1.740000e-06	5.313618e-06	2.864867e-09	3.799258e+01	1.867779e+02
1.750000e-06	5.297084e-06	2.827083e-09	3.787436e+01	1.864044e+02
1.760000e-06	5.278155e-06	2.823069e-09	3.773902e+01	1.860206e+02
1.770000e-06	5.256611e-06	2.826480e-09	3.758497e+01	1.856289e+02
1.780000e-06	5.233006e-06	2.901258e-09	3.741620e+01	1.852289e+02
1.790000e-06	5.208408e-06	2.905035e-09	3.724032e+01	1.848177e+02
1.800000e-06	5.183044e-06	2.807183e-09	3.705897e+01	1.843902e+02
1.810000e-06	5.155890e-06	2.840068e-09	3.686481e+01	1.839398e+02
1.820000e-06	5.126547e-06	2.834729e-09	3.665501e+01	1.834588e+02
1.830000e-06	5.095673e-06	2.825128e-09	3.643426e+01	1.829399e+02
1.840000e-06	5.063022e-06	2.882576e-09	3.620080e+01	1.823765e+02
1.850000e-06	5.028307e-06	2.764729e-09	3.595259e+01	1.817636e+02
1.860000e-06	4.991969e-06	2.739826e-09	3.569278e+01	1.810987e+02
1.870000e-06	4.953788e-06	2.835187e-09	3.541978e+01	1.803814e+02
1.880000e-06	4.913751e-06	2.753155e-09	3.513351e+01	1.796139e+02
1.890000e-06	4.871999e-06	2.673005e-09	3.483498e+01	1.788000e+02
1.900000e-06	4.828421e-06	2.644068e-09	3.452340e+01	1.779451e+02
1.910000e-06	4.783362e-06	2.690102e-09	3.420123e+01	1.770549e+02
1.920000e-06	4.736545e-06	2.779314e-09	3.386648e+01	1.761348e+02
1.930000e-06	4.687756e-06	2.651568e-09	3.351764e+01	1.751889e+02
1.940000e-06	4.637222e-06	2.556156e-09	3.315632e+01	1.742196e+02
1.950000e-06	4.584808e-06	2.601218e-09	3.278156e+01	1.732270e+02
1.960000e-06	4.530467e-06	2.660607e-09	3.239301e+01	1.722092e+02
1.970000e-06	4.474242e-06	2.688858e-09	3.199100e+01	1.711621e+02
1.980000e-06	4.416314e-06	2.549582e-09	3.157682e+01	1.700801e+02
1.990000e-06	4.356946e-06	2.473798e-09	3.115234e+01	1.689569e+02
2.000000e-06	4.296125e-06	2.545815e-09	3.071747e+01	1.677862e+02
2.010000e-06	4.233724e-06	2.603467e-09	3.027129e+01	1.665622e+02
2.020000e-06	4.169684e-06	2.570726e-09	2.981340e+01	1.652810e+02
2.030000e-06	4.104156e-06	2.414250e-09	2.934488e+01	1.639400e+02
2.040000e-06	4.037248e-06	2.393003e-09	2.886648e+01	1.625393e+02
2.050000e-06	3.968862e-06	2.482953e-09	2.837752e+01	1.610803e+02
2.060000e-06	3.899017e-06	2.496604e-09	2.787813e+01	1.595665e+02
2.070000e-06	3.827631e-06	2.407514e-09	2.736771e+01	1.580021e+02
2.080000e-06	3.754867e-06	2.282399e-09	2.684744e+01	1.563917e+02
2.090000e-06	3.680875e-06	2.311553e-09	2.631840e+01	1.547394e+02
2.100000e-06	3.605535e-06	2.380904e-09	2.577972e+01	1.530484e+02
2.110000e-06	3.528755e-06	2.349212e-09	2.523074e+01	1.513203e+02
2.120000e-06	3.450451e-06	2.233183e-09	2.467086e+01	1.495549e+02
2.130000e-06	3.370785e-06	2.158124e-09	2.410124e+01	1.477500e+02
2.140000e-06	3.289945e-06	2.210196e-09	2.352324e+01	1.459024e+02
2.150000e-06	3.208009e-06	2.239903e-09	2.293739e+01	1.440073e+02
2.160000e-06	3.125023e-06	2.176273e-09	2.234404e+01	1.420598e+02
2.170000e-06	3.041068e-06	2.072005e-09	2.174375e+01	1.400550e+02
2.180000e-06	2.956108e-06	2.043376e-09	2.113629e+01	1.379890e+02
2.190000e-06	2.869894e-06	2.080052e-09	2.051985e+01	1.358589e+02
2.200000e-06	2.782363e-06	2.066197e-09	1.989400e+01	1.336637e+02
2.210000e-06	2.693854e-06	1.985089e-09	1.926116e+01	1.314039e+02
2.220000e-06	2.604506e-06	1.901979e-09	1.862232e+01	1.290815e+02
2.230000e-06	2.514158e-06	1.894161e-09	1.797633e+01	1.266997e+02
2.240000e-06	2.422897e-06	1.906671e-09	1.732381e+01	1.242621e+02
2.250000e-06	2.330919e-06	1.863860e-09	1.666616e+01	1.217726e+02
2.260000e-06	2.238227e-06	1.778810e-09	1.600341e+01	1.192345e+02
2.270000e-06	2.144659e-06	1.723702e-09	1.533439e+01	1.166500e+02
2.280000e-06	2.050121e-06	1.721956e-09	1.465845e+01	1.140198e+02
2.290000e-06	1.954677e-06	1.709835e-09	1.397602e+01	1.113434e+02
2.300000e-06	1.858509e-06	1.647390e-09	1.328841e+01	1.086184e+02
2.310000e-06	1.761845e-06	1.566720e-09	1.259726e+01	1.058413e+02
2.320000e-06	1.664663e-06	1.525874e-09	1.190240e+01	1.030079e+02
2.330000e-06	1.566842e-06	1.515318e-09	1.120298e+01	1.001132e+02
2.340000e-06	1.468511e-06	1.478449e-09	1.049991e+01	9.715240e+01
2.350000e-06	1.369739e-06	1.402813e-09	9.793691e+00	9.412144e+01
2.360000e-06	1.270520e-06	1.336330e-09	9.084265e+00	9.101705e+01
2.370000e-06	1.171013e-06	1.307580e-09	8.372787e+00	8.783723e+01
2.380000e-06	1.071220e-06	1.282810e-09	7.659263e+00	8.458133e+01
2.390000e-06	9.711678e-07	1.223352e-09	6.943888e+00	8.125004e+01
2.400000e-06	8.708339e-07	1.144836e-09	6.226497e+00	7.784522e+01
2.410000e-06	7.701057e-07	1.091138e-09	5.506286e+00	7.436965e+01
2.420000e-06	6.691455e-07	1.062127e-09	4.784417e+00	7.082672e+01
2.430000e-06	5.680513e-07	1.017076e-09	4.061589e+00	6.722011e+01
2.440000e-06	4.667397e-07	9.394155e-10	3.337207e+00	6.355343e+01
2.450000e-06	3.652108e-07	8.646537e-10	2.611272e+00	5.983000e+01
2.460000e-06	2.635137e-07	8.226097e-10	1.884133e+00	5.605258e+01
2.470000e-06	1.616960e-07	7.891190e-10	1.156133e+00	5.222329e+01
2.480000e-06	5.977463e-08	7.236262e-10	4.273910e-01	4.834346e+01
2.490000e-06	-4.217776e-08	6.380763e-10	-3.015726e-01	4.441361e+01
2.500000e-06	-1.441758e-07	5.753180e-10	-1.030863e+00	4.043349e+01
2.510000e-06	-2.462548e-07	5.369494e-10	-1.760732e+00	3.640207e+01
2.520000e-06	-3.481786e-07	4.840540e-10	-2.489490e+00	3.231760e+01
2.530000e-06	-4.498870e-07	3.996608e-10	-3.216709e+00	2.817768e+01
2.540000e-06	-5.514569e-07	3.189279e-10	-3.942939e+00	2.397937e+01
2.550000e-06	-6.528181e-07	2.690754e-10	-4.667675e+00	1.971930e+01
2.560000e-06	-7.539398e-07	2.259492e-10	-5.390699e+00	1.539385e+01
2.570000e-06	-8.547612e-07	1.547499e-10	-6.111576e+00	1.099937e+01
2.580000e-06	-9.552449e-07	6.537631e-11	-6.830039e+00	6.532513e+00
2.590000e-06	-1.055483e-06	-6.273246e-12	-7.546744e+00	1.990525e+00
2.600000e-06	-1.155397e-06	-5.635377e-11	-8.261132e+00	-2.628350e+00
2.610000e-06	-1.254829e-06	-1.182736e-10	-8.972076e+00	-7.324492e+00
2.620000e-06	-1.353749e-06	-2.081864e-10	-9.679356e+00	-1.209654e+01
2.630000e-06	-1.452213e-06	-2.992160e-10	-1.038338e+01	-1.694111e+01
2.640000e-06	-1.550201e-06	-3.646126e-10	-1.108400e+01	-2.185257e+01
2.650000e-06	-1.647670e-06	-4.200401e-10	-1.178090e+01	-2.682297e+01
2.660000e-06	-1.744598e-06	-4.971650e-10	-1.247394e+01	-3.184214e+01
2.670000e-06	-1.841035e-06	-5.928451e-10	-1.316347e+01	-3.689788e+01
2.680000e-06	-1.936956e-06	-6.753575e-10	-1.384931e+01	-4.197631e+01
2.690000e-06	-2.032120e-06	-7.351161e-10	-1.452974e+01	-4.706238e+01
2.700000e-06	-2.126282e-06	-7.990636e-10	-1.520300e+01	-5.214036e+01
2.710000e-06	-2.219427e-06	-8.858668e-10	-1.586899e+01	-5.719441e+01
2.720000e-06	-2.311728e-06	-9.788937e-10	-1.652895e+01	-6.220914e+01
2.730000e-06	-2.403266e-06	-1.052382e-09	-1.718344e+01	-6.717004e+01
2.740000e-06	-2.494031e-06	-1.111598e-09	-1.783242e+01	-7.206388e+01
2.750000e-06	-2.583878e-06	-1.180310e-09	-1.847483e+01	-7.687892e+01
2.760000e-06	-2.672769e-06	-1.261946e-09	-1.911041e+01	-8.160507e+01
2.770000e-06	-2.760907e-06	-1.339702e-09	-1.974059e+01	-8.623387e+01
2.780000e-06	-2.848212e-06	-1.401977e-09	-2.036483e+01	-9.075841e+01
2.790000e-06	-2.934313e-06	-1.457301e-09	-2.098045e+01	-9.517319e+01
2.800000e-06	-3.019217e-06	-1.521143e-09	-2.158752e+01	-9.947390e+01
2.810000e-06	-3.103094e-06	-1.593465e-09	-2.218724e+01	-1.036573e+02
2.820000e-06	-3.185973e-06	-1.661695e-09	-2.277983e+01	-1.077210e+02
2.830000e-06	-3.267866e-06	-1.717391e-09	-2.336537e+01	-1.116633e+02
2.840000e-06	-3.348748e-06	-1.767163e-09	-2.394368e+01	-1.154834e+02
2.850000e-06	-3.428397e-06	-1.823392e-09	-2.451317e+01	-1.191809e+02
2.860000e-06	-3.506497e-06	-1.885076e-09	-2.507159e+01	-1.227562e+02
2.870000e-06	-3.583116e-06	-1.941333e-09	-2.561942e+01	-1.262101e+02
2.880000e-06	-3.658390e-06	-1.984839e-09	-2.615763e+01	-1.295441e+02
2.890000e-06	-3.732302e-06	-2.024681e-09	-2.668611e+01	-1.327600e+02
2.900000e-06	-3.804926e-06	-2.074087e-09	-2.720537e+01	-1.358600e+02
2.910000e-06	-3.876127e-06	-2.130182e-09	-2.771446e+01	-1.388466e+02
2.920000e-06	-3.945680e-06	-2.177323e-09	-2.821176e+01	-1.417223e+02
2.930000e-06	-4.013738e-06	-2.210666e-09	-2.869838e+01	-1.444894e+02
2.940000e-06	-4.080446e-06	-2.244924e-09	-2.917535e+01	-1.471499e+02
