# Temperatura_=_20.0
# Concentracion g/m^3_=_12600.0
# C_Vs_to_Am_M_A/Vsm_=_65563218390.804596
# pendiente_HvsI_1/m_=_3716.3
# ordenada_HvsI_A/m_=_1297.0
# frecuencia_Hz_=_301804.7843940122

Tiempo_(s)	Campo_(V.s)	Magnetizacion_(V.s)	Campo_(kA/m)	Magnetizacion_(A/m)
0.000000e+00	-5.369016e-06	-2.845051e-09	-3.828179e+01	-1.870008e+02
1.000000e-08	-5.365889e-06	-2.844969e-09	-3.825949e+01	-1.869310e+02
2.000000e-08	-5.361048e-06	-2.842364e-09	-3.822497e+01	-1.868150e+02
3.000000e-08	-5.354635e-06	-2.838805e-09	-3.817925e+01	-1.866549e+02
4.000000e-08	-5.346600e-06	-2.835584e-09	-3.812196e+01	-1.864542e+02
5.000000e-08	-5.336635e-06	-2.832578e-09	-3.805090e+01	-1.862169e+02
6.000000e-08	-5.324621e-06	-2.828798e-09	-3.796525e+01	-1.859473e+02
7.000000e-08	-5.310711e-06	-2.827832e-09	-3.786606e+01	-1.856495e+02
8.000000e-08	-5.294669e-06	-2.830589e-09	-3.775168e+01	-1.853267e+02
9.000000e-08	-5.276438e-06	-2.833647e-09	-3.762170e+01	-1.849812e+02
1.000000e-07	-5.256270e-06	-2.833888e-09	-3.747789e+01	-1.846134e+02
1.100000e-07	-5.234240e-06	-2.819212e-09	-3.732082e+01	-1.842228e+02
1.200000e-07	-5.210440e-06	-2.787915e-09	-3.715112e+01	-1.838072e+02
1.300000e-07	-5.184953e-06	-2.781110e-09	-3.696940e+01	-1.833643e+02
1.400000e-07	-5.157881e-06	-2.769764e-09	-3.677637e+01	-1.828911e+02
1.500000e-07	-5.129384e-06	-2.771122e-09	-3.657318e+01	-1.823854e+02
1.600000e-07	-5.099511e-06	-2.790727e-09	-3.636018e+01	-1.818459e+02
1.700000e-07	-5.067901e-06	-2.751500e-09	-3.613480e+01	-1.812725e+02
1.800000e-07	-5.034060e-06	-2.738757e-09	-3.589351e+01	-1.806667e+02
1.900000e-07	-4.998525e-06	-2.760547e-09	-3.564014e+01	-1.800311e+02
2.000000e-07	-4.961611e-06	-2.731394e-09	-3.537694e+01	-1.793694e+02
2.100000e-07	-4.922833e-06	-2.701968e-09	-3.510045e+01	-1.786854e+02
2.200000e-07	-4.882092e-06	-2.705168e-09	-3.480996e+01	-1.779826e+02
2.300000e-07	-4.839377e-06	-2.723816e-09	-3.450539e+01	-1.772632e+02
2.400000e-07	-4.794903e-06	-2.727784e-09	-3.418828e+01	-1.765275e+02
2.500000e-07	-4.748728e-06	-2.659301e-09	-3.385905e+01	-1.757735e+02
2.600000e-07	-4.700446e-06	-2.596875e-09	-3.351479e+01	-1.749968e+02
2.700000e-07	-4.649956e-06	-2.631194e-09	-3.315480e+01	-1.741909e+02
2.800000e-07	-4.597574e-06	-2.689107e-09	-3.278130e+01	-1.733473e+02
2.900000e-07	-4.543505e-06	-2.659342e-09	-3.239578e+01	-1.724568e+02
3.000000e-07	-4.487854e-06	-2.559205e-09	-3.199899e+01	-1.715101e+02
3.100000e-07	-4.430418e-06	-2.509684e-09	-3.158946e+01	-1.704991e+02
3.200000e-07	-4.371178e-06	-2.562785e-09	-3.116707e+01	-1.694175e+02
3.300000e-07	-4.310523e-06	-2.622634e-09	-3.073459e+01	-1.682615e+02
3.400000e-07	-4.248463e-06	-2.561954e-09	-3.029210e+01	-1.670306e+02
3.500000e-07	-4.184997e-06	-2.440200e-09	-2.983958e+01	-1.657271e+02
3.600000e-07	-4.119876e-06	-2.432174e-09	-2.937526e+01	-1.643560e+02
3.700000e-07	-4.053015e-06	-2.521371e-09	-2.889853e+01	-1.629242e+02
3.800000e-07	-3.984784e-06	-2.526450e-09	-2.841203e+01	-1.614398e+02
3.900000e-07	-3.915300e-06	-2.405834e-09	-2.791660e+01	-1.599105e+02
4.000000e-07	-3.844575e-06	-2.315652e-09	-2.741232e+01	-1.583434e+02
4.100000e-07	-3.772525e-06	-2.371147e-09	-2.689860e+01	-1.567433e+02
4.200000e-07	-3.698886e-06	-2.450868e-09	-2.637354e+01	-1.551127e+02
4.300000e-07	-3.623677e-06	-2.393076e-09	-2.583729e+01	-1.534515e+02
4.400000e-07	-3.547088e-06	-2.247415e-09	-2.529120e+01	-1.517568e+02
4.500000e-07	-3.469117e-06	-2.203497e-09	-2.473526e+01	-1.500241e+02
4.600000e-07	-3.389716e-06	-2.290754e-09	-2.416912e+01	-1.482471e+02
4.700000e-07	-3.308977e-06	-2.328415e-09	-2.359344e+01	-1.464195e+02
4.800000e-07	-3.227092e-06	-2.214066e-09	-2.300959e+01	-1.445352e+02
4.900000e-07	-3.144165e-06	-2.082247e-09	-2.241831e+01	-1.425898e+02
5.000000e-07	-3.060279e-06	-2.095073e-09	-2.182019e+01	-1.405805e+02
5.100000e-07	-2.975426e-06	-2.182046e-09	-2.121518e+01	-1.385066e+02
5.200000e-07	-2.889569e-06	-2.161676e-09	-2.060300e+01	-1.363698e+02
5.300000e-07	-2.802759e-06	-2.022243e-09	-1.998404e+01	-1.341733e+02
5.400000e-07	-2.715126e-06	-1.934784e-09	-1.935920e+01	-1.319214e+02
5.500000e-07	-2.626379e-06	-1.977674e-09	-1.872643e+01	-1.296188e+02
5.600000e-07	-2.536247e-06	-2.024415e-09	-1.808377e+01	-1.272698e+02
5.700000e-07	-2.445088e-06	-1.949923e-09	-1.743380e+01	-1.248774e+02
5.800000e-07	-2.353187e-06	-1.818581e-09	-1.677853e+01	-1.224430e+02
5.900000e-07	-2.260492e-06	-1.776171e-09	-1.611760e+01	-1.199662e+02
6.000000e-07	-2.166968e-06	-1.821515e-09	-1.545076e+01	-1.174447e+02
6.100000e-07	-2.072707e-06	-1.824485e-09	-1.477867e+01	-1.148744e+02
6.200000e-07	-1.977801e-06	-1.727841e-09	-1.410198e+01	-1.122506e+02
6.300000e-07	-1.882242e-06	-1.625288e-09	-1.342063e+01	-1.095680e+02
6.400000e-07	-1.785951e-06	-1.608014e-09	-1.273406e+01	-1.068216e+02
6.500000e-07	-1.688824e-06	-1.631801e-09	-1.204154e+01	-1.040076e+02
6.600000e-07	-1.590872e-06	-1.595990e-09	-1.134312e+01	-1.011234e+02
6.700000e-07	-1.492269e-06	-1.495503e-09	-1.064008e+01	-9.816798e+01
6.800000e-07	-1.393156e-06	-1.418116e-09	-9.933387e+00	-9.514195e+01
6.900000e-07	-1.293651e-06	-1.404465e-09	-9.223900e+00	-9.204712e+01
7.000000e-07	-1.193824e-06	-1.396770e-09	-8.512124e+00	-8.888612e+01
7.100000e-07	-1.093646e-06	-1.335784e-09	-7.797838e+00	-8.566186e+01
7.200000e-07	-9.931299e-07	-1.245395e-09	-7.081146e+00	-8.237692e+01
7.300000e-07	-8.923449e-07	-1.186619e-09	-6.362536e+00	-7.903315e+01
7.400000e-07	-7.913163e-07	-1.168447e-09	-5.642189e+00	-7.563138e+01
7.500000e-07	-6.899592e-07	-1.138917e-09	-4.919500e+00	-7.217127e+01
7.600000e-07	-5.882919e-07	-1.066307e-09	-4.194598e+00	-6.865151e+01
7.700000e-07	-4.864452e-07	-9.823168e-10	-3.468418e+00	-6.507008e+01
7.800000e-07	-3.844541e-07	-9.298234e-10	-2.741208e+00	-6.142475e+01
7.900000e-07	-2.823083e-07	-8.998858e-10	-2.012895e+00	-5.771349e+01
8.000000e-07	-1.800775e-07	-8.497954e-10	-1.283976e+00	-5.393495e+01
8.100000e-07	-7.777037e-08	-7.694613e-10	-5.545129e-01	-5.008875e+01
8.200000e-07	2.463778e-08	-6.910953e-10	1.756706e-01	-4.617559e+01
8.300000e-07	1.270530e-07	-6.396817e-10	9.059043e-01	-4.219720e+01
8.400000e-07	2.293979e-07	-5.964219e-10	1.635637e+00	-3.815597e+01
8.500000e-07	3.316752e-07	-5.307484e-10	2.364888e+00	-3.405455e+01
8.600000e-07	4.339253e-07	-4.483698e-10	3.093944e+00	-2.989529e+01
8.700000e-07	5.360878e-07	-3.794441e-10	3.822376e+00	-2.567971e+01
8.800000e-07	6.380907e-07	-3.296182e-10	4.549671e+00	-2.140809e+01
8.900000e-07	7.398106e-07	-2.751389e-10	5.274946e+00	-1.707924e+01
9.000000e-07	8.412267e-07	-2.012717e-10	5.998056e+00	-1.269052e+01
9.100000e-07	9.423996e-07	-1.226306e-10	6.719432e+00	-8.238117e+00
9.200000e-07	1.043261e-06	-5.961474e-11	7.438587e+00	-3.717630e+00
9.300000e-07	1.143753e-06	-6.580199e-13	8.155112e+00	8.752325e-01
9.400000e-07	1.243842e-06	7.480929e-11	8.868757e+00	5.543793e+00
9.500000e-07	1.343543e-06	1.618779e-10	9.579638e+00	1.028958e+01
9.600000e-07	1.442820e-06	2.374221e-10	1.028749e+01	1.511158e+01
9.700000e-07	1.541539e-06	2.994159e-10	1.099138e+01	2.000578e+01
9.800000e-07	1.639524e-06	3.709696e-10	1.169002e+01	2.496490e+01
9.900000e-07	1.736770e-06	4.578897e-10	1.238340e+01	2.997848e+01
1.000000e-06	1.833345e-06	5.414295e-10	1.307199e+01	3.503331e+01
1.010000e-06	1.929170e-06	6.074404e-10	1.375523e+01	4.011407e+01
1.020000e-06	2.024195e-06	6.719306e-10	1.443278e+01	4.520414e+01
1.030000e-06	2.118481e-06	7.552972e-10	1.510504e+01	5.028654e+01
1.040000e-06	2.212109e-06	8.473690e-10	1.577262e+01	5.534475e+01
1.050000e-06	2.305023e-06	9.244851e-10	1.643512e+01	6.036345e+01
1.060000e-06	2.397250e-06	9.881707e-10	1.709270e+01	6.532905e+01
1.070000e-06	2.488707e-06	1.061944e-09	1.774481e+01	7.022992e+01
1.080000e-06	2.579193e-06	1.151150e-09	1.838998e+01	7.505643e+01
1.090000e-06	2.668626e-06	1.231814e-09	1.902765e+01	7.980069e+01
1.100000e-06	2.757002e-06	1.291540e-09	1.965779e+01	8.445624e+01
1.110000e-06	2.844358e-06	1.349928e-09	2.028065e+01	8.901753e+01
1.120000e-06	2.930783e-06	1.426229e-09	2.089686e+01	9.347956e+01
1.130000e-06	3.016278e-06	1.506994e-09	2.150646e+01	9.783750e+01
1.140000e-06	3.100798e-06	1.571289e-09	2.210909e+01	1.020865e+02
1.150000e-06	3.184364e-06	1.623603e-09	2.270493e+01	1.062218e+02
1.160000e-06	3.266903e-06	1.682808e-09	2.329344e+01	1.102385e+02
1.170000e-06	3.348236e-06	1.751352e-09	2.387336e+01	1.141326e+02
1.180000e-06	3.428304e-06	1.813730e-09	2.444426e+01	1.179004e+02
1.190000e-06	3.507135e-06	1.861587e-09	2.500633e+01	1.215397e+02
1.200000e-06	3.584656e-06	1.906259e-09	2.555906e+01	1.250497e+02
1.210000e-06	3.660910e-06	1.960591e-09	2.610277e+01	1.284309e+02
1.220000e-06	3.735873e-06	2.019159e-09	2.663726e+01	1.316856e+02
1.230000e-06	3.809275e-06	2.068585e-09	2.716063e+01	1.348173e+02
1.240000e-06	3.881119e-06	2.107419e-09	2.767289e+01	1.378305e+02
1.250000e-06	3.951543e-06	2.148382e-09	2.817502e+01	1.407301e+02
1.260000e-06	4.020584e-06	2.196940e-09	2.866729e+01	1.435207e+02
1.270000e-06	4.088308e-06	2.244813e-09	2.915017e+01	1.462066e+02
1.280000e-06	4.154591e-06	2.282955e-09	2.962278e+01	1.487909e+02
1.290000e-06	4.219225e-06	2.314417e-09	3.008363e+01	1.512758e+02
1.300000e-06	4.282252e-06	2.348161e-09	3.053302e+01	1.536621e+02
1.310000e-06	4.343861e-06	2.386065e-09	3.097229e+01	1.559498e+02
1.320000e-06	4.404102e-06	2.423640e-09	3.140183e+01	1.581384e+02
1.330000e-06	4.462848e-06	2.455075e-09	3.182069e+01	1.602271e+02
1.340000e-06	4.519848e-06	2.480520e-09	3.222711e+01	1.622158e+02
1.350000e-06	4.575128e-06	2.508144e-09	3.262126e+01	1.641049e+02
1.360000e-06	4.628782e-06	2.540805e-09	3.300382e+01	1.658963e+02
1.370000e-06	4.680646e-06	2.572544e-09	3.337362e+01	1.675931e+02
1.380000e-06	4.730486e-06	2.596866e-09	3.372898e+01	1.691996e+02
1.390000e-06	4.778315e-06	2.614566e-09	3.407001e+01	1.707209e+02
1.400000e-06	4.824462e-06	2.634991e-09	3.439905e+01	1.721627e+02
1.410000e-06	4.869101e-06	2.662177e-09	3.471732e+01	1.735306e+02
1.420000e-06	4.912081e-06	2.686493e-09	3.502378e+01	1.748296e+02
1.430000e-06	4.953213e-06	2.700528e-09	3.531706e+01	1.760636e+02
1.440000e-06	4.992513e-06	2.710606e-09	3.559727e+01	1.772352e+02
1.450000e-06	5.030113e-06	2.727934e-09	3.586536e+01	1.783452e+02
1.460000e-06	5.066114e-06	2.751142e-09	3.612206e+01	1.793933e+02
1.470000e-06	5.100333e-06	2.767765e-09	3.636604e+01	1.803780e+02
1.480000e-06	5.132560e-06	2.775007e-09	3.659583e+01	1.812973e+02
1.490000e-06	5.163011e-06	2.784271e-09	3.681295e+01	1.821489e+02
1.500000e-06	5.191843e-06	2.801815e-09	3.701852e+01	1.829313e+02
1.510000e-06	5.218923e-06	2.818428e-09	3.721161e+01	1.836438e+02
1.520000e-06	5.243998e-06	2.826745e-09	3.739039e+01	1.842872e+02
1.530000e-06	5.267069e-06	2.830698e-09	3.755489e+01	1.848636e+02
1.540000e-06	5.288361e-06	2.839022e-09	3.770671e+01	1.853763e+02
1.550000e-06	5.307946e-06	2.852481e-09	3.784635e+01	1.858296e+02
1.560000e-06	5.325659e-06	2.861691e-09	3.797264e+01	1.862285e+02
1.570000e-06	5.341305e-06	2.863038e-09	3.808421e+01	1.865777e+02
1.580000e-06	5.354938e-06	2.863737e-09	3.818141e+01	1.868813e+02
1.590000e-06	5.366497e-06	2.870712e-09	3.826383e+01	1.871426e+02
1.600000e-06	5.375840e-06	2.878731e-09	3.833044e+01	1.873633e+02
1.610000e-06	5.383139e-06	2.880575e-09	3.838249e+01	1.875439e+02
1.620000e-06	5.388588e-06	2.877879e-09	3.842134e+01	1.876836e+02
1.630000e-06	5.392265e-06	2.878428e-09	3.844756e+01	1.877811e+02
1.640000e-06	5.394010e-06	2.883480e-09	3.846000e+01	1.878343e+02
1.650000e-06	5.393756e-06	2.886011e-09	3.845819e+01	1.878415e+02
1.660000e-06	5.391722e-06	2.883022e-09	3.844369e+01	1.878018e+02
1.670000e-06	5.388073e-06	2.878024e-09	3.841767e+01	1.877151e+02
1.680000e-06	5.382698e-06	2.878058e-09	3.837934e+01	1.875829e+02
1.690000e-06	5.375391e-06	2.879055e-09	3.832724e+01	1.874077e+02
1.700000e-06	5.366347e-06	2.875015e-09	3.826275e+01	1.871933e+02
1.710000e-06	5.355756e-06	2.868338e-09	3.818724e+01	1.869437e+02
1.720000e-06	5.343439e-06	2.861910e-09	3.809942e+01	1.866634e+02
1.730000e-06	5.329127e-06	2.848307e-09	3.799737e+01	1.863563e+02
1.740000e-06	5.312676e-06	2.831952e-09	3.788007e+01	1.860251e+02
1.750000e-06	5.293849e-06	2.813132e-09	3.774583e+01	1.856714e+02
1.760000e-06	5.272412e-06	2.814066e-09	3.759299e+01	1.852954e+02
1.770000e-06	5.248813e-06	2.837442e-09	3.742472e+01	1.848960e+02
1.780000e-06	5.224081e-06	2.842772e-09	3.724838e+01	1.844708e+02
1.790000e-06	5.198549e-06	2.850134e-09	3.706633e+01	1.840172e+02
1.800000e-06	5.171319e-06	2.811885e-09	3.687218e+01	1.835325e+02
1.810000e-06	5.141878e-06	2.788043e-09	3.666227e+01	1.830146e+02
1.820000e-06	5.110820e-06	2.823987e-09	3.644082e+01	1.824628e+02
1.830000e-06	5.078117e-06	2.796095e-09	3.620764e+01	1.818774e+02
1.840000e-06	5.043449e-06	2.758805e-09	3.596045e+01	1.812604e+02
1.850000e-06	5.007124e-06	2.781745e-09	3.570145e+01	1.806148e+02
1.860000e-06	4.968941e-06	2.770523e-09	3.542920e+01	1.799446e+02
1.870000e-06	4.928932e-06	2.721272e-09	3.514393e+01	1.792534e+02
1.880000e-06	4.887251e-06	2.661183e-09	3.484674e+01	1.785443e+02
1.890000e-06	4.843718e-06	2.643994e-09	3.453634e+01	1.778190e+02
1.900000e-06	4.798631e-06	2.731283e-09	3.421487e+01	1.770769e+02
1.910000e-06	4.751785e-06	2.764678e-09	3.388085e+01	1.763153e+02
1.920000e-06	4.702941e-06	2.673631e-09	3.353258e+01	1.755288e+02
1.930000e-06	4.652341e-06	2.568381e-09	3.317180e+01	1.747103e+02
1.940000e-06	4.599835e-06	2.587102e-09	3.279742e+01	1.738509e+02
1.950000e-06	4.545399e-06	2.724476e-09	3.240929e+01	1.729412e+02
1.960000e-06	4.489157e-06	2.747673e-09	3.200828e+01	1.719722e+02
1.970000e-06	4.431192e-06	2.587572e-09	3.159498e+01	1.709364e+02
1.980000e-06	4.371782e-06	2.461480e-09	3.117138e+01	1.698283e+02
1.990000e-06	4.310946e-06	2.534764e-09	3.073761e+01	1.686453e+02
2.000000e-06	4.248450e-06	2.676450e-09	3.029200e+01	1.673879e+02
2.010000e-06	4.184273e-06	2.619151e-09	2.983441e+01	1.660594e+02
2.020000e-06	4.118578e-06	2.422377e-09	2.936600e+01	1.646656e+02
2.030000e-06	4.051506e-06	2.375211e-09	2.888777e+01	1.632139e+02
2.040000e-06	3.983085e-06	2.509762e-09	2.839992e+01	1.617124e+02
2.050000e-06	3.913160e-06	2.578605e-09	2.790134e+01	1.601688e+02
2.060000e-06	3.841667e-06	2.433953e-09	2.739159e+01	1.585892e+02
2.070000e-06	3.768802e-06	2.264200e-09	2.687205e+01	1.569779e+02
2.080000e-06	3.694687e-06	2.295864e-09	2.634360e+01	1.553364e+02
2.090000e-06	3.619286e-06	2.431052e-09	2.580598e+01	1.536635e+02
2.100000e-06	3.542526e-06	2.418105e-09	2.525868e+01	1.519557e+02
2.110000e-06	3.464162e-06	2.237134e-09	2.469993e+01	1.502077e+02
2.120000e-06	3.384341e-06	2.128728e-09	2.413080e+01	1.484132e+02
2.130000e-06	3.303407e-06	2.214559e-09	2.355372e+01	1.465658e+02
2.140000e-06	3.221379e-06	2.308156e-09	2.296885e+01	1.446600e+02
2.150000e-06	3.138287e-06	2.224074e-09	2.237640e+01	1.426918e+02
2.160000e-06	3.054243e-06	2.057140e-09	2.177715e+01	1.406592e+02
2.170000e-06	2.969139e-06	2.018802e-09	2.117035e+01	1.385624e+02
2.180000e-06	2.882649e-06	2.107046e-09	2.055367e+01	1.364036e+02
2.190000e-06	2.794909e-06	2.125265e-09	1.992806e+01	1.341866e+02
2.200000e-06	2.706214e-06	2.001056e-09	1.929566e+01	1.319159e+02
2.210000e-06	2.616648e-06	1.879832e-09	1.865704e+01	1.295961e+02
2.220000e-06	2.526178e-06	1.888589e-09	1.801198e+01	1.272312e+02
2.230000e-06	2.434825e-06	1.946723e-09	1.736062e+01	1.248236e+02
2.240000e-06	2.342775e-06	1.906690e-09	1.670429e+01	1.223740e+02
2.250000e-06	2.249976e-06	1.781584e-09	1.604263e+01	1.198815e+02
2.260000e-06	2.156120e-06	1.708397e-09	1.537342e+01	1.173429e+02
2.270000e-06	2.061191e-06	1.733709e-09	1.469656e+01	1.147539e+02
2.280000e-06	1.965443e-06	1.749968e-09	1.401387e+01	1.121095e+02
2.290000e-06	1.869057e-06	1.676190e-09	1.332662e+01	1.094045e+02
2.300000e-06	1.772115e-06	1.567344e-09	1.263541e+01	1.066342e+02
2.310000e-06	1.674660e-06	1.523339e-09	1.194055e+01	1.037951e+02
2.320000e-06	1.576625e-06	1.539014e-09	1.124154e+01	1.008853e+02
2.330000e-06	1.477979e-06	1.519278e-09	1.053818e+01	9.790438e+01
2.340000e-06	1.378892e-06	1.429431e-09	9.831680e+00	9.485334e+01
2.350000e-06	1.279481e-06	1.338393e-09	9.122868e+00	9.173439e+01
2.360000e-06	1.179757e-06	1.311048e-09	8.411820e+00	8.855030e+01
2.370000e-06	1.079782e-06	1.311679e-09	7.698988e+00	8.530392e+01
2.380000e-06	9.796127e-07	1.263841e-09	6.984766e+00	8.199764e+01
2.390000e-06	8.791397e-07	1.166010e-09	6.268381e+00	7.863295e+01
2.400000e-06	7.782103e-07	1.090011e-09	5.548741e+00	7.521027e+01
2.410000e-06	6.768559e-07	1.070093e-09	4.826071e+00	7.172888e+01
2.420000e-06	5.752549e-07	1.053013e-09	4.101643e+00	6.818718e+01
2.430000e-06	4.734873e-07	9.830003e-10	3.376027e+00	6.458302e+01
2.440000e-06	3.715300e-07	8.855477e-10	2.649058e+00	6.091417e+01
2.450000e-06	2.693203e-07	8.251492e-10	1.920289e+00	5.717882e+01
2.460000e-06	1.668806e-07	8.074823e-10	1.189880e+00	5.337593e+01
2.470000e-06	6.434094e-08	7.696997e-10	4.587593e-01	4.950551e+01
2.480000e-06	-3.814176e-08	6.818409e-10	-2.719557e-01	4.556864e+01
2.490000e-06	-1.405965e-07	5.902949e-10	-1.002472e+00	4.156734e+01
2.500000e-06	-2.430962e-07	5.410537e-10	-1.733308e+00	3.750414e+01
2.510000e-06	-3.454720e-07	5.110066e-10	-2.463260e+00	3.338166e+01
2.520000e-06	-4.476310e-07	4.472612e-10	-3.191668e+00	2.920199e+01
2.530000e-06	-5.496604e-07	3.525018e-10	-3.919151e+00	2.496627e+01
2.540000e-06	-6.515371e-07	2.763002e-10	-4.645545e+00	2.067426e+01
2.550000e-06	-7.531075e-07	2.338793e-10	-5.369755e+00	1.632423e+01
2.560000e-06	-8.542899e-07	1.844302e-10	-6.091199e+00	1.191307e+01
2.570000e-06	-9.550497e-07	1.013047e-10	-6.809629e+00	7.436703e+00
2.580000e-06	-1.055398e-06	1.180467e-11	-7.525129e+00	2.890657e+00
2.590000e-06	-1.155367e-06	-5.051910e-11	-8.237921e+00	-1.729106e+00
2.600000e-06	-1.255011e-06	-1.013746e-10	-8.948392e+00	-6.425359e+00
2.610000e-06	-1.354280e-06	-1.762194e-10	-9.656193e+00	-1.119880e+01
2.620000e-06	-1.453074e-06	-2.705814e-10	-1.036061e+01	-1.604739e+01
2.630000e-06	-1.551306e-06	-3.495777e-10	-1.106101e+01	-2.096595e+01
2.640000e-06	-1.648981e-06	-4.082031e-10	-1.175745e+01	-2.594604e+01
2.650000e-06	-1.746143e-06	-4.779289e-10	-1.245023e+01	-3.097617e+01
2.660000e-06	-1.842697e-06	-5.700264e-10	-1.313867e+01	-3.604227e+01
2.670000e-06	-1.938689e-06	-6.582574e-10	-1.382311e+01	-4.112847e+01
2.680000e-06	-2.034063e-06	-7.242045e-10	-1.450313e+01	-4.621792e+01
2.690000e-06	-2.128649e-06	-7.863846e-10	-1.517754e+01	-5.129370e+01
2.700000e-06	-2.222328e-06	-8.685571e-10	-1.584549e+01	-5.633964e+01
2.710000e-06	-2.314970e-06	-9.587675e-10	-1.650604e+01	-6.134101e+01
2.720000e-06	-2.406700e-06	-1.031235e-09	-1.716009e+01	-6.628489e+01
2.730000e-06	-2.497657e-06	-1.088562e-09	-1.780862e+01	-7.116039e+01
2.740000e-06	-2.587719e-06	-1.156143e-09	-1.845077e+01	-7.595852e+01
2.750000e-06	-2.676811e-06	-1.240680e-09	-1.908601e+01	-8.067195e+01
2.760000e-06	-2.765103e-06	-1.318440e-09	-1.971555e+01	-8.529461e+01
2.770000e-06	-2.852595e-06	-1.376164e-09	-2.033937e+01	-8.982118e+01
2.780000e-06	-2.939102e-06	-1.431223e-09	-2.095618e+01	-9.424676e+01
2.790000e-06	-3.024451e-06	-1.502351e-09	-2.156473e+01	-9.856652e+01
2.800000e-06	-3.108592e-06	-1.579006e-09	-2.216467e+01	-1.027756e+02
2.810000e-06	-3.191702e-06	-1.642046e-09	-2.275726e+01	-1.068693e+02
2.820000e-06	-3.273770e-06	-1.691429e-09	-2.334241e+01	-1.108428e+02
2.830000e-06	-3.354771e-06	-1.743175e-09	-2.391996e+01	-1.146923e+02
2.840000e-06	-3.434612e-06	-1.805794e-09	-2.448923e+01	-1.184146e+02
2.850000e-06	-3.513053e-06	-1.867037e-09	-2.504853e+01	-1.220079e+02
2.860000e-06	-3.590051e-06	-1.916809e-09	-2.559754e+01	-1.254719e+02
2.870000e-06	-3.665638e-06	-1.958854e-09	-2.613648e+01	-1.288078e+02
2.880000e-06	-3.739881e-06	-2.006538e-09	-2.666584e+01	-1.320183e+02
2.890000e-06	-3.812776e-06	-2.062141e-09	-2.718559e+01	-1.351073e+02
2.900000e-06	-3.884204e-06	-2.113538e-09	-2.769488e+01	-1.380795e+02
2.910000e-06	-3.954041e-06	-2.153684e-09	-2.819283e+01	-1.409398e+02
2.920000e-06	-4.022311e-06	-2.187562e-09	-2.867960e+01	-1.436927e+02
2.930000e-06	-4.089156e-06	-2.226676e-09	-2.915622e+01	-1.463422e+02
2.940000e-06	-4.154616e-06	-2.271929e-09	-2.962296e+01	-1.488910e+02
