# Temperatura_=_20.0
# Concentracion g/m^3_=_12600.0
# C_Vs_to_Am_M_A/Vsm_=_65563218390.804596
# pendiente_HvsI_1/m_=_3716.3
# ordenada_HvsI_A/m_=_1297.0
# frecuencia_Hz_=_301805.4758789244

Tiempo_(s)	Campo_(V.s)	Magnetizacion_(V.s)	Campo_(kA/m)	Magnetizacion_(A/m)
0.000000e+00	-5.359181e-06	-2.794681e-09	-3.828457e+01	-1.839259e+02
1.000000e-08	-5.356351e-06	-2.795283e-09	-3.826435e+01	-1.838687e+02
2.000000e-08	-5.351859e-06	-2.795474e-09	-3.823226e+01	-1.837523e+02
3.000000e-08	-5.345773e-06	-2.794575e-09	-3.818879e+01	-1.835814e+02
4.000000e-08	-5.338073e-06	-2.791006e-09	-3.813378e+01	-1.833636e+02
5.000000e-08	-5.328445e-06	-2.784826e-09	-3.806500e+01	-1.831081e+02
6.000000e-08	-5.316762e-06	-2.778672e-09	-3.798154e+01	-1.828247e+02
7.000000e-08	-5.303175e-06	-2.772500e-09	-3.788448e+01	-1.825226e+02
8.000000e-08	-5.287492e-06	-2.763296e-09	-3.777244e+01	-1.822094e+02
9.000000e-08	-5.269661e-06	-2.784021e-09	-3.764506e+01	-1.818897e+02
1.000000e-07	-5.249874e-06	-2.797386e-09	-3.750370e+01	-1.815646e+02
1.100000e-07	-5.228205e-06	-2.771704e-09	-3.734891e+01	-1.812316e+02
1.200000e-07	-5.204735e-06	-2.751173e-09	-3.718124e+01	-1.808848e+02
1.300000e-07	-5.179559e-06	-2.710223e-09	-3.700139e+01	-1.805159e+02
1.400000e-07	-5.152841e-06	-2.681810e-09	-3.681053e+01	-1.801150e+02
1.500000e-07	-5.124677e-06	-2.767969e-09	-3.660933e+01	-1.796720e+02
1.600000e-07	-5.095098e-06	-2.738352e-09	-3.639803e+01	-1.791784e+02
1.700000e-07	-5.063897e-06	-2.663471e-09	-3.617513e+01	-1.786278e+02
1.800000e-07	-5.030514e-06	-2.701004e-09	-3.593666e+01	-1.780174e+02
1.900000e-07	-4.995343e-06	-2.663451e-09	-3.568541e+01	-1.773481e+02
2.000000e-07	-4.958785e-06	-2.684861e-09	-3.542424e+01	-1.766242e+02
2.100000e-07	-4.920415e-06	-2.714430e-09	-3.515014e+01	-1.758532e+02
2.200000e-07	-4.880111e-06	-2.618991e-09	-3.486222e+01	-1.750441e+02
2.300000e-07	-4.837861e-06	-2.619473e-09	-3.456039e+01	-1.742068e+02
2.400000e-07	-4.793810e-06	-2.684134e-09	-3.424570e+01	-1.733502e+02
2.500000e-07	-4.748095e-06	-2.648476e-09	-3.391913e+01	-1.724809e+02
2.600000e-07	-4.700347e-06	-2.585993e-09	-3.357803e+01	-1.716023e+02
2.700000e-07	-4.650342e-06	-2.549117e-09	-3.322081e+01	-1.707143e+02
2.800000e-07	-4.598356e-06	-2.587660e-09	-3.284943e+01	-1.698127e+02
2.900000e-07	-4.544718e-06	-2.609298e-09	-3.246626e+01	-1.688902e+02
3.000000e-07	-4.489540e-06	-2.558125e-09	-3.207208e+01	-1.679372e+02
3.100000e-07	-4.432557e-06	-2.491176e-09	-3.166501e+01	-1.669429e+02
3.200000e-07	-4.373723e-06	-2.478354e-09	-3.124472e+01	-1.658967e+02
3.300000e-07	-4.313380e-06	-2.536768e-09	-3.081364e+01	-1.647900e+02
3.400000e-07	-4.251642e-06	-2.517797e-09	-3.037260e+01	-1.636167e+02
3.500000e-07	-4.188565e-06	-2.433285e-09	-2.992199e+01	-1.623742e+02
3.600000e-07	-4.123937e-06	-2.402272e-09	-2.946031e+01	-1.610636e+02
3.700000e-07	-4.057551e-06	-2.429100e-09	-2.898607e+01	-1.596894e+02
3.800000e-07	-3.989689e-06	-2.444952e-09	-2.850128e+01	-1.582586e+02
3.900000e-07	-3.920528e-06	-2.383260e-09	-2.800721e+01	-1.567795e+02
4.000000e-07	-3.850059e-06	-2.312216e-09	-2.750380e+01	-1.552610e+02
4.100000e-07	-3.778333e-06	-2.316276e-09	-2.699140e+01	-1.537104e+02
4.200000e-07	-3.705181e-06	-2.350307e-09	-2.646883e+01	-1.521331e+02
4.300000e-07	-3.630434e-06	-2.331687e-09	-2.593486e+01	-1.505312e+02
4.400000e-07	-3.554184e-06	-2.249400e-09	-2.539015e+01	-1.489038e+02
4.500000e-07	-3.476542e-06	-2.202310e-09	-2.483549e+01	-1.472466e+02
4.600000e-07	-3.397515e-06	-2.222161e-09	-2.427095e+01	-1.455530e+02
4.700000e-07	-3.317139e-06	-2.232318e-09	-2.369676e+01	-1.438145e+02
4.800000e-07	-3.235549e-06	-2.174483e-09	-2.311390e+01	-1.420226e+02
4.900000e-07	-3.152854e-06	-2.093292e-09	-2.252316e+01	-1.401691e+02
5.000000e-07	-3.069249e-06	-2.078416e-09	-2.192590e+01	-1.382480e+02
5.100000e-07	-2.984701e-06	-2.100496e-09	-2.132191e+01	-1.362558e+02
5.200000e-07	-2.899128e-06	-2.079264e-09	-2.071060e+01	-1.341920e+02
5.300000e-07	-2.812615e-06	-2.006623e-09	-2.009257e+01	-1.320591e+02
5.400000e-07	-2.725256e-06	-1.950841e-09	-1.946851e+01	-1.298619e+02
5.500000e-07	-2.636887e-06	-1.946915e-09	-1.883722e+01	-1.276072e+02
5.600000e-07	-2.547227e-06	-1.943404e-09	-1.819672e+01	-1.253023e+02
5.700000e-07	-2.456422e-06	-1.894026e-09	-1.754803e+01	-1.229540e+02
5.800000e-07	-2.364758e-06	-1.817212e-09	-1.689321e+01	-1.205680e+02
5.900000e-07	-2.272333e-06	-1.774401e-09	-1.623295e+01	-1.181477e+02
6.000000e-07	-2.179121e-06	-1.769387e-09	-1.556706e+01	-1.156939e+02
6.100000e-07	-2.085133e-06	-1.751895e-09	-1.489564e+01	-1.132048e+02
6.200000e-07	-1.990437e-06	-1.697062e-09	-1.421915e+01	-1.106762e+02
6.300000e-07	-1.895143e-06	-1.633510e-09	-1.353840e+01	-1.081021e+02
6.400000e-07	-1.799239e-06	-1.598011e-09	-1.285328e+01	-1.054756e+02
6.500000e-07	-1.702615e-06	-1.581423e-09	-1.216303e+01	-1.027893e+02
6.600000e-07	-1.605157e-06	-1.548293e-09	-1.146682e+01	-1.000370e+02
6.700000e-07	-1.506917e-06	-1.485824e-09	-1.076501e+01	-9.721323e+01
6.800000e-07	-1.408097e-06	-1.422452e-09	-1.005907e+01	-9.431474e+01
6.900000e-07	-1.308825e-06	-1.384986e-09	-9.349897e+00	-9.133991e+01
7.000000e-07	-1.209220e-06	-1.359906e-09	-8.638348e+00	-8.828896e+01
7.100000e-07	-1.109285e-06	-1.314251e-09	-7.924437e+00	-8.516348e+01
7.200000e-07	-1.009055e-06	-1.247333e-09	-7.208424e+00	-8.196598e+01
7.300000e-07	-9.085648e-07	-1.188711e-09	-6.490546e+00	-7.869933e+01
7.400000e-07	-8.077332e-07	-1.152482e-09	-5.770232e+00	-7.536625e+01
7.500000e-07	-7.065677e-07	-1.117118e-09	-5.047532e+00	-7.196892e+01
7.600000e-07	-6.050738e-07	-1.057258e-09	-4.322487e+00	-6.850878e+01
7.700000e-07	-5.033923e-07	-9.823198e-10	-3.596101e+00	-6.498650e+01
7.800000e-07	-4.016138e-07	-9.234487e-10	-2.869023e+00	-6.140216e+01
7.900000e-07	-2.996964e-07	-8.859398e-10	-2.140951e+00	-5.775548e+01
8.000000e-07	-1.976971e-07	-8.398021e-10	-1.412296e+00	-5.404615e+01
8.100000e-07	-9.562120e-08	-7.685085e-10	-6.830924e-01	-5.027416e+01
8.200000e-07	6.540481e-09	-6.930247e-10	4.672346e-02	-4.643994e+01
8.300000e-07	1.087472e-07	-6.397186e-10	7.768609e-01	-4.254446e+01
8.400000e-07	2.109847e-07	-5.970237e-10	1.507219e+00	-3.858907e+01
8.500000e-07	3.131739e-07	-5.338613e-10	2.237231e+00	-3.457528e+01
8.600000e-07	4.152663e-07	-4.524819e-10	2.966552e+00	-3.050437e+01
8.700000e-07	5.172676e-07	-3.833449e-10	3.695222e+00	-2.637699e+01
8.800000e-07	6.190958e-07	-3.347857e-10	4.422656e+00	-2.219283e+01
8.900000e-07	7.207018e-07	-2.815222e-10	5.148502e+00	-1.795038e+01
9.000000e-07	8.220457e-07	-2.086402e-10	5.872476e+00	-1.364692e+01
9.100000e-07	9.230827e-07	-1.306540e-10	6.594258e+00	-9.278738e+00
9.200000e-07	1.023779e-06	-6.843766e-11	7.313607e+00	-4.841523e+00
9.300000e-07	1.124086e-06	-1.459650e-11	8.030169e+00	-3.310311e-01
9.400000e-07	1.224010e-06	5.492800e-11	8.744001e+00	4.256187e+00
9.500000e-07	1.323611e-06	1.406054e-10	9.455522e+00	8.922006e+00
9.600000e-07	1.422830e-06	2.193724e-10	1.016432e+01	1.366602e+01
9.700000e-07	1.521547e-06	2.820333e-10	1.086953e+01	1.848501e+01
9.800000e-07	1.619585e-06	3.495418e-10	1.156988e+01	2.337266e+01
9.900000e-07	1.716767e-06	4.344870e-10	1.226413e+01	2.831950e+01
1.000000e-06	1.813159e-06	5.209867e-10	1.295273e+01	3.331327e+01
1.010000e-06	1.908842e-06	5.910112e-10	1.363626e+01	3.833940e+01
1.020000e-06	2.003861e-06	6.547286e-10	1.431505e+01	4.338175e+01
1.030000e-06	2.098151e-06	7.319281e-10	1.498863e+01	4.842343e+01
1.040000e-06	2.191696e-06	8.189168e-10	1.565690e+01	5.344764e+01
1.050000e-06	2.284550e-06	8.995053e-10	1.632022e+01	5.843835e+01
1.060000e-06	2.376695e-06	9.691656e-10	1.697847e+01	6.338089e+01
1.070000e-06	2.468097e-06	1.039769e-09	1.763143e+01	6.826221e+01
1.080000e-06	2.558572e-06	1.119671e-09	1.827776e+01	7.307102e+01
1.090000e-06	2.647941e-06	1.201809e-09	1.891619e+01	7.779766e+01
1.100000e-06	2.736219e-06	1.271272e-09	1.954682e+01	8.243381e+01
1.110000e-06	2.823542e-06	1.332124e-09	2.017063e+01	8.697222e+01
1.120000e-06	2.910012e-06	1.398580e-09	2.078835e+01	9.140633e+01
1.130000e-06	2.995555e-06	1.469912e-09	2.139945e+01	9.573004e+01
1.140000e-06	3.080112e-06	1.538061e-09	2.200350e+01	9.993763e+01
1.150000e-06	3.163743e-06	1.599067e-09	2.260094e+01	1.040238e+02
1.160000e-06	3.246409e-06	1.655557e-09	2.319148e+01	1.079838e+02
1.170000e-06	3.327875e-06	1.712321e-09	2.377345e+01	1.118140e+02
1.180000e-06	3.407974e-06	1.770714e-09	2.434566e+01	1.155116e+02
1.190000e-06	3.486845e-06	1.826588e-09	2.490909e+01	1.190758e+02
1.200000e-06	3.564554e-06	1.877100e-09	2.546423e+01	1.225072e+02
1.210000e-06	3.641013e-06	1.923652e-09	2.601043e+01	1.258085e+02
1.220000e-06	3.716138e-06	1.971881e-09	2.654711e+01	1.289838e+02
1.230000e-06	3.789703e-06	2.023117e-09	2.707263e+01	1.320383e+02
1.240000e-06	3.861644e-06	2.070610e-09	2.758656e+01	1.349784e+02
1.250000e-06	3.932221e-06	2.111464e-09	2.809074e+01	1.378100e+02
1.260000e-06	4.001444e-06	2.149823e-09	2.858526e+01	1.405390e+02
1.270000e-06	4.069267e-06	2.190973e-09	2.906976e+01	1.431698e+02
1.280000e-06	4.135703e-06	2.234987e-09	2.954436e+01	1.457058e+02
1.290000e-06	4.200555e-06	2.273060e-09	3.000765e+01	1.481485e+02
1.300000e-06	4.263807e-06	2.303389e-09	3.045951e+01	1.504980e+02
1.310000e-06	4.325591e-06	2.334517e-09	3.090087e+01	1.527532e+02
1.320000e-06	4.385948e-06	2.372391e-09	3.133205e+01	1.549124e+02
1.330000e-06	4.444856e-06	2.410485e-09	3.175287e+01	1.569738e+02
1.340000e-06	4.502136e-06	2.438707e-09	3.216206e+01	1.589363e+02
1.350000e-06	4.557680e-06	2.461470e-09	3.255886e+01	1.607999e+02
1.360000e-06	4.611544e-06	2.488713e-09	3.294364e+01	1.625660e+02
1.370000e-06	4.663613e-06	2.521070e-09	3.331562e+01	1.642377e+02
1.380000e-06	4.713629e-06	2.548948e-09	3.367291e+01	1.658195e+02
1.390000e-06	4.761615e-06	2.567478e-09	3.401571e+01	1.673171e+02
1.400000e-06	4.807893e-06	2.584553e-09	3.434631e+01	1.687365e+02
1.410000e-06	4.852615e-06	2.607662e-09	3.466579e+01	1.700838e+02
1.420000e-06	4.895766e-06	2.632739e-09	3.497406e+01	1.713640e+02
1.430000e-06	4.937084e-06	2.650678e-09	3.526922e+01	1.725809e+02
1.440000e-06	4.976535e-06	2.662719e-09	3.555105e+01	1.737367e+02
1.450000e-06	5.014387e-06	2.678997e-09	3.582145e+01	1.748320e+02
1.460000e-06	5.050666e-06	2.701985e-09	3.608062e+01	1.758656e+02
1.470000e-06	5.085191e-06	2.722052e-09	3.632726e+01	1.768356e+02
1.480000e-06	5.117722e-06	2.732883e-09	3.655965e+01	1.777397e+02
1.490000e-06	5.148411e-06	2.740230e-09	3.677888e+01	1.785759e+02
1.500000e-06	5.177456e-06	2.750883e-09	3.698637e+01	1.793434e+02
1.510000e-06	5.204798e-06	2.764620e-09	3.718169e+01	1.800427e+02
1.520000e-06	5.230139e-06	2.777221e-09	3.736273e+01	1.806762e+02
1.530000e-06	5.253397e-06	2.785043e-09	3.752888e+01	1.812481e+02
1.540000e-06	5.274846e-06	2.790892e-09	3.768210e+01	1.817638e+02
1.550000e-06	5.294646e-06	2.800217e-09	3.782355e+01	1.822297e+02
1.560000e-06	5.312614e-06	2.810953e-09	3.795191e+01	1.826519e+02
1.570000e-06	5.328523e-06	2.818407e-09	3.806556e+01	1.830357e+02
1.580000e-06	5.342451e-06	2.822101e-09	3.816506e+01	1.833848e+02
1.590000e-06	5.354421e-06	2.825773e-09	3.825056e+01	1.837008e+02
1.600000e-06	5.364183e-06	2.830824e-09	3.832030e+01	1.839828e+02
1.610000e-06	5.371796e-06	2.834543e-09	3.837469e+01	1.842276e+02
1.620000e-06	5.377568e-06	2.835807e-09	3.841592e+01	1.844304e+02
1.630000e-06	5.381580e-06	2.836927e-09	3.844458e+01	1.845854e+02
1.640000e-06	5.383652e-06	2.838960e-09	3.845938e+01	1.846867e+02
1.650000e-06	5.383739e-06	2.841845e-09	3.846000e+01	1.847298e+02
1.660000e-06	5.382054e-06	2.841944e-09	3.844796e+01	1.847119e+02
1.670000e-06	5.378715e-06	2.840551e-09	3.842411e+01	1.846332e+02
1.680000e-06	5.373652e-06	2.841260e-09	3.838794e+01	1.844965e+02
1.690000e-06	5.366650e-06	2.840173e-09	3.833792e+01	1.843078e+02
1.700000e-06	5.357889e-06	2.837223e-09	3.827534e+01	1.840753e+02
1.710000e-06	5.347589e-06	2.833597e-09	3.820175e+01	1.838086e+02
1.720000e-06	5.335595e-06	2.829433e-09	3.811608e+01	1.835175e+02
1.730000e-06	5.321635e-06	2.833573e-09	3.801635e+01	1.832107e+02
1.740000e-06	5.305584e-06	2.794788e-09	3.790169e+01	1.828947e+02
1.750000e-06	5.287162e-06	2.761534e-09	3.777009e+01	1.825731e+02
1.760000e-06	5.266070e-06	2.774338e-09	3.761941e+01	1.822455e+02
1.770000e-06	5.242767e-06	2.783380e-09	3.745293e+01	1.819084e+02
1.780000e-06	5.218253e-06	2.857102e-09	3.727782e+01	1.815547e+02
1.790000e-06	5.193031e-06	2.858226e-09	3.709763e+01	1.811754e+02
1.800000e-06	5.166241e-06	2.743238e-09	3.690626e+01	1.807605e+02
1.810000e-06	5.137198e-06	2.805965e-09	3.669878e+01	1.803003e+02
1.820000e-06	5.106529e-06	2.822661e-09	3.647969e+01	1.797867e+02
1.830000e-06	5.074231e-06	2.782379e-09	3.624896e+01	1.792149e+02
1.840000e-06	5.039851e-06	2.823559e-09	3.600336e+01	1.785831e+02
1.850000e-06	5.003835e-06	2.722209e-09	3.574607e+01	1.778935e+02
1.860000e-06	4.966080e-06	2.694258e-09	3.547636e+01	1.771518e+02
1.870000e-06	4.926479e-06	2.760826e-09	3.519346e+01	1.763659e+02
1.880000e-06	4.885233e-06	2.654411e-09	3.489881e+01	1.755456e+02
1.890000e-06	4.842092e-06	2.590842e-09	3.459062e+01	1.747004e+02
1.900000e-06	4.797428e-06	2.618174e-09	3.427155e+01	1.738386e+02
1.910000e-06	4.751114e-06	2.647893e-09	3.394070e+01	1.729656e+02
1.920000e-06	4.702716e-06	2.670530e-09	3.359495e+01	1.720839e+02
1.930000e-06	4.652574e-06	2.537203e-09	3.323676e+01	1.711916e+02
1.940000e-06	4.600588e-06	2.515307e-09	3.286538e+01	1.702834e+02
1.950000e-06	4.546584e-06	2.589063e-09	3.247959e+01	1.693512e+02
1.960000e-06	4.490720e-06	2.602836e-09	3.208051e+01	1.683846e+02
1.970000e-06	4.433192e-06	2.566704e-09	3.166955e+01	1.673728e+02
1.980000e-06	4.374270e-06	2.444250e-09	3.124862e+01	1.663058e+02
1.990000e-06	4.313822e-06	2.472235e-09	3.081680e+01	1.651758e+02
2.000000e-06	4.251708e-06	2.540615e-09	3.037307e+01	1.639778e+02
2.010000e-06	4.187967e-06	2.495032e-09	2.991773e+01	1.627106e+02
2.020000e-06	4.122671e-06	2.425117e-09	2.945127e+01	1.613766e+02
2.030000e-06	4.055940e-06	2.355707e-09	2.897456e+01	1.599811e+02
2.040000e-06	3.987782e-06	2.413453e-09	2.848765e+01	1.585320e+02
2.050000e-06	3.918161e-06	2.438545e-09	2.799030e+01	1.570378e+02
2.060000e-06	3.847028e-06	2.361088e-09	2.748215e+01	1.555070e+02
2.070000e-06	3.774496e-06	2.286553e-09	2.696400e+01	1.539463e+02
2.080000e-06	3.700714e-06	2.261503e-09	2.643692e+01	1.523600e+02
2.090000e-06	3.625620e-06	2.321988e-09	2.590047e+01	1.507493e+02
2.100000e-06	3.549173e-06	2.304980e-09	2.535435e+01	1.491118e+02
2.110000e-06	3.471195e-06	2.219328e-09	2.479730e+01	1.474424e+02
2.120000e-06	3.391706e-06	2.154797e-09	2.422945e+01	1.457337e+02
2.130000e-06	3.311067e-06	2.162597e-09	2.365338e+01	1.439770e+02
2.140000e-06	3.229347e-06	2.193823e-09	2.306960e+01	1.421638e+02
2.150000e-06	3.146520e-06	2.136977e-09	2.247790e+01	1.402867e+02
2.160000e-06	3.062692e-06	2.062412e-09	2.187906e+01	1.383404e+02
2.170000e-06	2.977848e-06	2.026814e-09	2.127295e+01	1.363225e+02
2.180000e-06	2.891728e-06	2.037024e-09	2.065774e+01	1.342335e+02
2.190000e-06	2.804310e-06	2.024534e-09	2.003325e+01	1.320769e+02
2.200000e-06	2.715906e-06	1.960157e-09	1.940171e+01	1.298583e+02
2.210000e-06	2.626667e-06	1.898441e-09	1.876422e+01	1.275847e+02
2.220000e-06	2.536511e-06	1.870519e-09	1.812016e+01	1.252635e+02
2.230000e-06	2.445428e-06	1.871668e-09	1.746949e+01	1.229011e+02
2.240000e-06	2.353577e-06	1.838936e-09	1.681333e+01	1.205025e+02
2.250000e-06	2.260994e-06	1.770888e-09	1.615194e+01	1.180702e+02
2.260000e-06	2.167569e-06	1.711436e-09	1.548454e+01	1.156041e+02
2.270000e-06	2.073145e-06	1.690419e-09	1.481000e+01	1.131014e+02
2.280000e-06	1.977726e-06	1.681699e-09	1.412835e+01	1.105572e+02
2.290000e-06	1.881627e-06	1.641407e-09	1.344184e+01	1.079651e+02
2.300000e-06	1.785010e-06	1.573155e-09	1.275164e+01	1.053180e+02
2.310000e-06	1.687887e-06	1.516435e-09	1.205782e+01	1.026087e+02
2.320000e-06	1.590217e-06	1.495818e-09	1.136009e+01	9.983131e+01
2.330000e-06	1.491930e-06	1.476889e-09	1.065795e+01	9.698111e+01
2.340000e-06	1.393141e-06	1.422454e-09	9.952229e+00	9.405536e+01
2.350000e-06	1.293931e-06	1.345418e-09	9.243497e+00	9.105316e+01
2.360000e-06	1.194400e-06	1.295603e-09	8.532475e+00	8.797527e+01
2.370000e-06	1.094619e-06	1.277078e-09	7.819669e+00	8.482367e+01
2.380000e-06	9.945270e-07	1.243563e-09	7.104637e+00	8.160107e+01
2.390000e-06	8.941273e-07	1.172258e-09	6.387408e+00	7.831033e+01
2.400000e-06	7.934414e-07	1.096606e-09	5.668135e+00	7.495401e+01
2.410000e-06	6.924792e-07	1.055807e-09	4.946888e+00	7.153405e+01
2.420000e-06	5.912558e-07	1.031137e-09	4.223775e+00	6.805160e+01
2.430000e-06	4.898475e-07	9.772239e-10	3.499340e+00	6.450710e+01
2.440000e-06	3.882462e-07	8.930572e-10	2.773528e+00	6.090045e+01
2.450000e-06	2.863925e-07	8.251892e-10	2.045912e+00	5.723135e+01
2.460000e-06	1.843238e-07	7.927564e-10	1.316760e+00	5.349954e+01
2.470000e-06	8.214031e-08	7.576848e-10	5.867885e-01	4.970517e+01
2.480000e-06	-2.007749e-08	6.864868e-10	-1.434283e-01	4.584886e+01
2.490000e-06	-1.223069e-07	6.034515e-10	-8.737277e-01	4.193174e+01
2.500000e-06	-2.244672e-07	5.486922e-10	-1.603534e+00	3.795524e+01
2.510000e-06	-3.265279e-07	5.119176e-10	-2.332629e+00	3.392086e+01
2.520000e-06	-4.284345e-07	4.522824e-10	-3.060622e+00	2.982967e+01
2.530000e-06	-5.301383e-07	3.663901e-10	-3.787168e+00	2.568203e+01
2.540000e-06	-6.316610e-07	2.916586e-10	-4.512419e+00	2.147721e+01
2.550000e-06	-7.329983e-07	2.421461e-10	-5.236345e+00	1.721327e+01
2.560000e-06	-8.340391e-07	1.902562e-10	-5.958154e+00	1.288709e+01
2.570000e-06	-9.346594e-07	1.138356e-10	-6.676959e+00	8.494678e+00
2.580000e-06	-1.034926e-06	2.883379e-11	-7.393240e+00	4.031679e+00
2.590000e-06	-1.134883e-06	-3.702432e-11	-8.107306e+00	-5.059612e-01
2.600000e-06	-1.234489e-06	-9.011791e-11	-8.818865e+00	-5.121217e+00
2.610000e-06	-1.333648e-06	-1.582931e-10	-9.527228e+00	-9.815224e+00
2.620000e-06	-1.432321e-06	-2.457762e-10	-1.023212e+01	-1.458662e+01
2.630000e-06	-1.530550e-06	-3.275846e-10	-1.093385e+01	-1.943110e+01
2.640000e-06	-1.628270e-06	-3.919990e-10	-1.163193e+01	-2.434120e+01
2.650000e-06	-1.725396e-06	-4.579690e-10	-1.232577e+01	-2.930643e+01
2.660000e-06	-1.821988e-06	-5.400547e-10	-1.301580e+01	-3.431360e+01
2.670000e-06	-1.918010e-06	-6.273163e-10	-1.370175e+01	-3.934751e+01
2.680000e-06	-2.013436e-06	-7.022673e-10	-1.438345e+01	-4.439164e+01
2.690000e-06	-2.108039e-06	-7.675982e-10	-1.505927e+01	-4.942906e+01
2.700000e-06	-2.201501e-06	-8.402565e-10	-1.572694e+01	-5.444317e+01
2.710000e-06	-2.293993e-06	-9.243974e-10	-1.638768e+01	-5.941836e+01
2.720000e-06	-2.385713e-06	-1.005245e-09	-1.704290e+01	-6.434051e+01
2.730000e-06	-2.476675e-06	-1.074281e-09	-1.769271e+01	-6.919722e+01
2.740000e-06	-2.566791e-06	-1.139075e-09	-1.833647e+01	-7.397779e+01
2.750000e-06	-2.655962e-06	-1.209677e-09	-1.897349e+01	-7.867308e+01
2.760000e-06	-2.744340e-06	-1.286030e-09	-1.960484e+01	-8.327520e+01
2.770000e-06	-2.831952e-06	-1.358220e-09	-2.023071e+01	-8.777715e+01
2.780000e-06	-2.918493e-06	-1.420379e-09	-2.084894e+01	-9.217259e+01
2.790000e-06	-3.003828e-06	-1.477906e-09	-2.145855e+01	-9.645555e+01
2.800000e-06	-3.088009e-06	-1.540043e-09	-2.205992e+01	-1.006204e+02
2.810000e-06	-3.171157e-06	-1.608725e-09	-2.265391e+01	-1.046621e+02
2.820000e-06	-3.253284e-06	-1.673512e-09	-2.324060e+01	-1.085762e+02
2.830000e-06	-3.334349e-06	-1.726441e-09	-2.381970e+01	-1.123593e+02
2.840000e-06	-3.414301e-06	-1.775387e-09	-2.439086e+01	-1.160094e+02
2.850000e-06	-3.492876e-06	-1.831245e-09	-2.495218e+01	-1.195261e+02
2.860000e-06	-3.569968e-06	-1.892424e-09	-2.550290e+01	-1.229108e+02
2.870000e-06	-3.645635e-06	-1.943523e-09	-2.604345e+01	-1.261666e+02
2.880000e-06	-3.719914e-06	-1.980989e-09	-2.657408e+01	-1.292981e+02
2.890000e-06	-3.792893e-06	-2.019916e-09	-2.709542e+01	-1.323111e+02
2.900000e-06	-3.864441e-06	-2.071343e-09	-2.760654e+01	-1.352118e+02
2.910000e-06	-3.934423e-06	-2.125172e-09	-2.810648e+01	-1.380062e+02
2.920000e-06	-4.002871e-06	-2.163769e-09	-2.859545e+01	-1.406998e+02
2.930000e-06	-4.069884e-06	-2.191227e-09	-2.907417e+01	-1.432966e+02
2.940000e-06	-4.135567e-06	-2.227091e-09	-2.954340e+01	-1.457992e+02
