# Temperatura_=_20.0
# Concentracion g/m^3_=_12600.0
# C_Vs_to_Am_M_A/Vsm_=_65563218390.804596
# pendiente_HvsI_1/m_=_3716.3
# ordenada_HvsI_A/m_=_1297.0
# frecuencia_Hz_=_135502.34447683807

Tiempo_(s)	Campo_(V.s)	Magnetizacion_(V.s)	Campo_(kA/m)	Magnetizacion_(A/m)
0.000000e+00	-7.885620e-06	-6.012091e-09	-5.704946e+01	-3.888368e+02
1.000000e-08	-7.885808e-06	-6.008873e-09	-5.705082e+01	-3.892937e+02
2.000000e-08	-7.885711e-06	-6.005180e-09	-5.705012e+01	-3.897746e+02
3.000000e-08	-7.885193e-06	-6.007171e-09	-5.704637e+01	-3.902643e+02
4.000000e-08	-7.884014e-06	-6.009977e-09	-5.703784e+01	-3.907458e+02
5.000000e-08	-7.881913e-06	-6.007442e-09	-5.702264e+01	-3.912003e+02
6.000000e-08	-7.878957e-06	-6.003286e-09	-5.700126e+01	-3.916080e+02
7.000000e-08	-7.875439e-06	-5.995456e-09	-5.697580e+01	-3.919485e+02
8.000000e-08	-7.871547e-06	-5.974786e-09	-5.694765e+01	-3.922009e+02
9.000000e-08	-7.867306e-06	-5.956496e-09	-5.691697e+01	-3.923449e+02
1.000000e-07	-7.862442e-06	-6.015149e-09	-5.688177e+01	-3.923606e+02
1.100000e-07	-7.856666e-06	-6.129216e-09	-5.683999e+01	-3.922296e+02
1.200000e-07	-7.849975e-06	-6.152250e-09	-5.679158e+01	-3.919352e+02
1.300000e-07	-7.842611e-06	-5.944597e-09	-5.673831e+01	-3.914628e+02
1.400000e-07	-7.834922e-06	-5.692830e-09	-5.668268e+01	-3.908005e+02
1.500000e-07	-7.827130e-06	-5.906565e-09	-5.662631e+01	-3.899394e+02
1.600000e-07	-7.819031e-06	-6.231834e-09	-5.656771e+01	-3.888737e+02
1.700000e-07	-7.810491e-06	-6.071460e-09	-5.650593e+01	-3.876013e+02
1.800000e-07	-7.801386e-06	-5.820339e-09	-5.644006e+01	-3.861234e+02
1.900000e-07	-7.791387e-06	-5.876370e-09	-5.636772e+01	-3.844453e+02
2.000000e-07	-7.780270e-06	-5.930774e-09	-5.628730e+01	-3.825755e+02
2.100000e-07	-7.768516e-06	-6.044817e-09	-5.620226e+01	-3.805265e+02
2.200000e-07	-7.756596e-06	-6.133991e-09	-5.611602e+01	-3.783136e+02
2.300000e-07	-7.743954e-06	-5.877321e-09	-5.602457e+01	-3.759557e+02
2.400000e-07	-7.730428e-06	-5.620108e-09	-5.592671e+01	-3.734741e+02
2.500000e-07	-7.716537e-06	-5.848223e-09	-5.582621e+01	-3.708924e+02
2.600000e-07	-7.702272e-06	-5.949963e-09	-5.572301e+01	-3.682360e+02
2.700000e-07	-7.686747e-06	-5.460663e-09	-5.561069e+01	-3.655318e+02
2.800000e-07	-7.670121e-06	-5.185626e-09	-5.549041e+01	-3.628072e+02
2.900000e-07	-7.653319e-06	-5.477358e-09	-5.536885e+01	-3.600899e+02
3.000000e-07	-7.636111e-06	-5.487312e-09	-5.524436e+01	-3.574072e+02
3.100000e-07	-7.618399e-06	-5.116857e-09	-5.511622e+01	-3.547853e+02
3.200000e-07	-7.600285e-06	-5.029965e-09	-5.498517e+01	-3.522490e+02
3.300000e-07	-7.581480e-06	-5.110756e-09	-5.484913e+01	-3.498211e+02
3.400000e-07	-7.561985e-06	-5.070617e-09	-5.470809e+01	-3.475220e+02
3.500000e-07	-7.542201e-06	-5.192876e-09	-5.456495e+01	-3.453689e+02
3.600000e-07	-7.522226e-06	-5.258394e-09	-5.442044e+01	-3.433762e+02
3.700000e-07	-7.501816e-06	-4.897755e-09	-5.427279e+01	-3.415546e+02
3.800000e-07	-7.480791e-06	-4.845324e-09	-5.412068e+01	-3.399115e+02
3.900000e-07	-7.459224e-06	-5.195619e-09	-5.396465e+01	-3.384501e+02
4.000000e-07	-7.437192e-06	-5.285471e-09	-5.380525e+01	-3.371704e+02
4.100000e-07	-7.414591e-06	-5.013731e-09	-5.364174e+01	-3.360687e+02
4.200000e-07	-7.391399e-06	-4.870943e-09	-5.347396e+01	-3.351376e+02
4.300000e-07	-7.367734e-06	-4.999885e-09	-5.330275e+01	-3.343669e+02
4.400000e-07	-7.343787e-06	-5.242274e-09	-5.312951e+01	-3.337434e+02
4.500000e-07	-7.319443e-06	-5.156572e-09	-5.295339e+01	-3.332514e+02
4.600000e-07	-7.294321e-06	-4.842335e-09	-5.277164e+01	-3.328733e+02
4.700000e-07	-7.268444e-06	-4.846700e-09	-5.258443e+01	-3.325899e+02
4.800000e-07	-7.241881e-06	-5.111837e-09	-5.239226e+01	-3.323808e+02
4.900000e-07	-7.214599e-06	-5.143669e-09	-5.219488e+01	-3.322252e+02
5.000000e-07	-7.186860e-06	-4.967899e-09	-5.199420e+01	-3.321022e+02
5.100000e-07	-7.158823e-06	-4.853804e-09	-5.179137e+01	-3.319914e+02
5.200000e-07	-7.130455e-06	-4.902520e-09	-5.158613e+01	-3.318733e+02
5.300000e-07	-7.101565e-06	-5.055520e-09	-5.137713e+01	-3.317297e+02
5.400000e-07	-7.072101e-06	-5.074640e-09	-5.116396e+01	-3.315441e+02
5.500000e-07	-7.042148e-06	-4.896457e-09	-5.094726e+01	-3.313021e+02
5.600000e-07	-7.011633e-06	-4.793502e-09	-5.072650e+01	-3.309917e+02
5.700000e-07	-6.980551e-06	-4.935794e-09	-5.050163e+01	-3.306033e+02
5.800000e-07	-6.949037e-06	-5.046584e-09	-5.027364e+01	-3.301298e+02
5.900000e-07	-6.917277e-06	-4.925062e-09	-5.004387e+01	-3.295670e+02
6.000000e-07	-6.885240e-06	-4.763870e-09	-4.981209e+01	-3.289133e+02
6.100000e-07	-6.852770e-06	-4.827699e-09	-4.957719e+01	-3.281694e+02
6.200000e-07	-6.819814e-06	-4.962068e-09	-4.933876e+01	-3.273388e+02
6.300000e-07	-6.786090e-06	-4.915252e-09	-4.909478e+01	-3.264267e+02
6.400000e-07	-6.751461e-06	-4.771704e-09	-4.884426e+01	-3.254406e+02
6.500000e-07	-6.716224e-06	-4.773230e-09	-4.858932e+01	-3.243893e+02
6.600000e-07	-6.680580e-06	-4.857799e-09	-4.833146e+01	-3.232830e+02
6.700000e-07	-6.644568e-06	-4.855653e-09	-4.807092e+01	-3.221326e+02
6.800000e-07	-6.608149e-06	-4.773189e-09	-4.780745e+01	-3.209497e+02
6.900000e-07	-6.571206e-06	-4.738600e-09	-4.754018e+01	-3.197457e+02
7.000000e-07	-6.533759e-06	-4.768515e-09	-4.726926e+01	-3.185322e+02
7.100000e-07	-6.495895e-06	-4.791878e-09	-4.699533e+01	-3.173198e+02
7.200000e-07	-6.457567e-06	-4.748896e-09	-4.671804e+01	-3.161184e+02
7.300000e-07	-6.418795e-06	-4.689396e-09	-4.643754e+01	-3.149367e+02
7.400000e-07	-6.379642e-06	-4.694423e-09	-4.615428e+01	-3.137819e+02
7.500000e-07	-6.340163e-06	-4.723670e-09	-4.586867e+01	-3.126598e+02
7.600000e-07	-6.300424e-06	-4.690279e-09	-4.558117e+01	-3.115743e+02
7.700000e-07	-6.260292e-06	-4.630904e-09	-4.529083e+01	-3.105278e+02
7.800000e-07	-6.219767e-06	-4.625241e-09	-4.499765e+01	-3.095206e+02
7.900000e-07	-6.178778e-06	-4.655451e-09	-4.470111e+01	-3.085515e+02
8.000000e-07	-6.137034e-06	-4.642560e-09	-4.439910e+01	-3.076177e+02
8.100000e-07	-6.094522e-06	-4.584073e-09	-4.409155e+01	-3.067147e+02
8.200000e-07	-6.051424e-06	-4.548614e-09	-4.377975e+01	-3.058369e+02
8.300000e-07	-6.007860e-06	-4.565890e-09	-4.346459e+01	-3.049775e+02
8.400000e-07	-5.963893e-06	-4.580470e-09	-4.314649e+01	-3.041291e+02
8.500000e-07	-5.919637e-06	-4.534956e-09	-4.282632e+01	-3.032835e+02
8.600000e-07	-5.875032e-06	-4.476488e-09	-4.250363e+01	-3.024322e+02
8.700000e-07	-5.830069e-06	-4.475693e-09	-4.217833e+01	-3.015668e+02
8.800000e-07	-5.784721e-06	-4.511364e-09	-4.185026e+01	-3.006791e+02
8.900000e-07	-5.738983e-06	-4.499923e-09	-4.151936e+01	-2.997616e+02
9.000000e-07	-5.692892e-06	-4.436951e-09	-4.118591e+01	-2.988071e+02
9.100000e-07	-5.646363e-06	-4.395912e-09	-4.084929e+01	-2.978097e+02
9.200000e-07	-5.599344e-06	-4.410412e-09	-4.050912e+01	-2.967645e+02
9.300000e-07	-5.551888e-06	-4.427246e-09	-4.016580e+01	-2.956676e+02
9.400000e-07	-5.504249e-06	-4.391536e-09	-3.982115e+01	-2.945166e+02
9.500000e-07	-5.456322e-06	-4.330349e-09	-3.947441e+01	-2.933104e+02
9.600000e-07	-5.407862e-06	-4.312938e-09	-3.912382e+01	-2.920492e+02
9.700000e-07	-5.358797e-06	-4.338085e-09	-3.876886e+01	-2.907342e+02
9.800000e-07	-5.309184e-06	-4.338637e-09	-3.840993e+01	-2.893682e+02
9.900000e-07	-5.258992e-06	-4.285582e-09	-3.804681e+01	-2.879546e+02
1.000000e-06	-5.208239e-06	-4.232415e-09	-3.767963e+01	-2.864981e+02
1.010000e-06	-5.156976e-06	-4.226388e-09	-3.730876e+01	-2.850037e+02
1.020000e-06	-5.105276e-06	-4.239135e-09	-3.693473e+01	-2.834770e+02
1.030000e-06	-5.053243e-06	-4.218484e-09	-3.655829e+01	-2.819242e+02
1.040000e-06	-5.000855e-06	-4.168539e-09	-3.617928e+01	-2.803510e+02
1.050000e-06	-4.948097e-06	-4.132713e-09	-3.579760e+01	-2.787635e+02
1.060000e-06	-4.894974e-06	-4.134554e-09	-3.541327e+01	-2.771671e+02
1.070000e-06	-4.841528e-06	-4.137159e-09	-3.502661e+01	-2.755668e+02
1.080000e-06	-4.787658e-06	-4.104441e-09	-3.463688e+01	-2.739668e+02
1.090000e-06	-4.733427e-06	-4.055658e-09	-3.424454e+01	-2.723705e+02
1.100000e-06	-4.678940e-06	-4.030202e-09	-3.385035e+01	-2.707804e+02
1.110000e-06	-4.624060e-06	-4.024842e-09	-3.345332e+01	-2.691979e+02
1.120000e-06	-4.568861e-06	-4.007928e-09	-3.305397e+01	-2.676235e+02
1.130000e-06	-4.513413e-06	-3.969600e-09	-3.265283e+01	-2.660564e+02
1.140000e-06	-4.457739e-06	-3.931451e-09	-3.225005e+01	-2.644950e+02
1.150000e-06	-4.401850e-06	-3.909174e-09	-3.184571e+01	-2.629366e+02
1.160000e-06	-4.345671e-06	-3.894013e-09	-3.143928e+01	-2.613776e+02
1.170000e-06	-4.289295e-06	-3.872154e-09	-3.103142e+01	-2.598139e+02
1.180000e-06	-4.232751e-06	-3.839704e-09	-3.062234e+01	-2.582405e+02
1.190000e-06	-4.175810e-06	-3.805608e-09	-3.021039e+01	-2.566523e+02
1.200000e-06	-4.118377e-06	-3.782307e-09	-2.979489e+01	-2.550438e+02
1.210000e-06	-4.060638e-06	-3.767557e-09	-2.937717e+01	-2.534094e+02
1.220000e-06	-4.002559e-06	-3.742899e-09	-2.895699e+01	-2.517437e+02
1.230000e-06	-3.943914e-06	-3.702669e-09	-2.853272e+01	-2.500415e+02
1.240000e-06	-3.884739e-06	-3.661764e-09	-2.810461e+01	-2.482982e+02
1.250000e-06	-3.825262e-06	-3.634248e-09	-2.767431e+01	-2.465097e+02
1.260000e-06	-3.765523e-06	-3.614208e-09	-2.724213e+01	-2.446725e+02
1.270000e-06	-3.705568e-06	-3.587093e-09	-2.680838e+01	-2.427842e+02
1.280000e-06	-3.645491e-06	-3.551848e-09	-2.637374e+01	-2.408429e+02
1.290000e-06	-3.585211e-06	-3.518427e-09	-2.593764e+01	-2.388481e+02
1.300000e-06	-3.524741e-06	-3.495742e-09	-2.550016e+01	-2.367996e+02
1.310000e-06	-3.464147e-06	-3.478387e-09	-2.506179e+01	-2.346987e+02
1.320000e-06	-3.403434e-06	-3.450659e-09	-2.462255e+01	-2.325470e+02
1.330000e-06	-3.342572e-06	-3.410143e-09	-2.418224e+01	-2.303472e+02
1.340000e-06	-3.281366e-06	-3.371607e-09	-2.373943e+01	-2.281025e+02
1.350000e-06	-3.219789e-06	-3.345298e-09	-2.329395e+01	-2.258167e+02
1.360000e-06	-3.157986e-06	-3.319933e-09	-2.284683e+01	-2.234937e+02
1.370000e-06	-3.095979e-06	-3.282509e-09	-2.239823e+01	-2.211380e+02
1.380000e-06	-3.033769e-06	-3.240014e-09	-2.194817e+01	-2.187538e+02
1.390000e-06	-2.971336e-06	-3.207519e-09	-2.149648e+01	-2.163454e+02
1.400000e-06	-2.908756e-06	-3.181346e-09	-2.104375e+01	-2.139167e+02
1.410000e-06	-2.846026e-06	-3.150522e-09	-2.058992e+01	-2.114714e+02
1.420000e-06	-2.783137e-06	-3.112781e-09	-2.013494e+01	-2.090124e+02
1.430000e-06	-2.720074e-06	-3.073975e-09	-1.967870e+01	-2.065421e+02
1.440000e-06	-2.656825e-06	-3.037383e-09	-1.922112e+01	-2.040622e+02
1.450000e-06	-2.593383e-06	-3.003580e-09	-1.876214e+01	-2.015736e+02
1.460000e-06	-2.529729e-06	-2.967823e-09	-1.830163e+01	-1.990762e+02
1.470000e-06	-2.465947e-06	-2.926877e-09	-1.784019e+01	-1.965694e+02
1.480000e-06	-2.401956e-06	-2.885600e-09	-1.737724e+01	-1.940516e+02
1.490000e-06	-2.337860e-06	-2.847193e-09	-1.691353e+01	-1.915203e+02
1.500000e-06	-2.273676e-06	-2.810708e-09	-1.644918e+01	-1.889727e+02
1.510000e-06	-2.209287e-06	-2.774709e-09	-1.598335e+01	-1.864052e+02
1.520000e-06	-2.144789e-06	-2.734752e-09	-1.551674e+01	-1.838136e+02
1.530000e-06	-2.080192e-06	-2.691717e-09	-1.504940e+01	-1.811937e+02
1.540000e-06	-2.015418e-06	-2.649740e-09	-1.458078e+01	-1.785409e+02
1.550000e-06	-1.950516e-06	-2.609329e-09	-1.411124e+01	-1.758506e+02
1.560000e-06	-1.885511e-06	-2.568734e-09	-1.364095e+01	-1.731183e+02
1.570000e-06	-1.820328e-06	-2.522356e-09	-1.316938e+01	-1.703399e+02
1.580000e-06	-1.755052e-06	-2.472909e-09	-1.269713e+01	-1.675114e+02
1.590000e-06	-1.689578e-06	-2.427081e-09	-1.222346e+01	-1.646294e+02
1.600000e-06	-1.623913e-06	-2.390507e-09	-1.174839e+01	-1.616914e+02
1.610000e-06	-1.558106e-06	-2.351655e-09	-1.127231e+01	-1.586951e+02
1.620000e-06	-1.492143e-06	-2.303804e-09	-1.079508e+01	-1.556393e+02
1.630000e-06	-1.426136e-06	-2.250617e-09	-1.031755e+01	-1.525235e+02
1.640000e-06	-1.359772e-06	-2.202736e-09	-9.837433e+00	-1.493478e+02
1.650000e-06	-1.293091e-06	-2.160344e-09	-9.355021e+00	-1.461132e+02
1.660000e-06	-1.226390e-06	-2.113573e-09	-8.872465e+00	-1.428214e+02
1.670000e-06	-1.159645e-06	-2.059387e-09	-8.389594e+00	-1.394748e+02
1.680000e-06	-1.092916e-06	-2.005414e-09	-7.906830e+00	-1.360762e+02
1.690000e-06	-1.026082e-06	-1.958174e-09	-7.423316e+00	-1.326289e+02
1.700000e-06	-9.591121e-07	-1.911581e-09	-6.938812e+00	-1.291365e+02
1.710000e-06	-8.920966e-07	-1.861251e-09	-6.453980e+00	-1.256029e+02
1.720000e-06	-8.250431e-07	-1.807481e-09	-5.968873e+00	-1.220317e+02
1.730000e-06	-7.579684e-07	-1.756861e-09	-5.483613e+00	-1.184266e+02
1.740000e-06	-6.907614e-07	-1.708615e-09	-4.997396e+00	-1.147912e+02
1.750000e-06	-6.234621e-07	-1.658441e-09	-4.510511e+00	-1.111284e+02
1.760000e-06	-5.561448e-07	-1.603702e-09	-4.023496e+00	-1.074409e+02
1.770000e-06	-4.887425e-07	-1.546216e-09	-3.535866e+00	-1.037304e+02
1.780000e-06	-4.211965e-07	-1.490023e-09	-3.047197e+00	-9.999818e+01
1.790000e-06	-3.536217e-07	-1.436999e-09	-2.558319e+00	-9.624478e+01
1.800000e-06	-2.862003e-07	-1.381172e-09	-2.070550e+00	-9.246983e+01
1.810000e-06	-2.187945e-07	-1.322988e-09	-1.582895e+00	-8.867219e+01
1.820000e-06	-1.512152e-07	-1.264518e-09	-1.093985e+00	-8.484991e+01
1.830000e-06	-8.361706e-08	-1.206338e-09	-6.049376e-01	-8.100031e+01
1.840000e-06	-1.605229e-08	-1.149912e-09	-1.161322e-01	-7.712000e+01
1.850000e-06	5.147432e-08	-1.090945e-09	3.723971e-01	-7.320497e+01
1.860000e-06	1.188922e-07	-1.028196e-09	8.601397e-01	-6.925072e+01
1.870000e-06	1.863094e-07	-9.641863e-10	1.347878e+00	-6.525237e+01
1.880000e-06	2.537099e-07	-9.005803e-10	1.835495e+00	-6.120477e+01
1.890000e-06	3.210924e-07	-8.385578e-10	2.322981e+00	-5.710268e+01
1.900000e-06	3.885216e-07	-7.754054e-10	2.810806e+00	-5.294088e+01
1.910000e-06	4.559509e-07	-7.077746e-10	3.298631e+00	-4.871434e+01
1.920000e-06	5.233498e-07	-6.402110e-10	3.786237e+00	-4.441836e+01
1.930000e-06	5.906790e-07	-5.766613e-10	4.273338e+00	-4.004869e+01
1.940000e-06	6.579803e-07	-5.141630e-10	4.760237e+00	-3.560166e+01
1.950000e-06	7.252578e-07	-4.485647e-10	5.246964e+00	-3.107428e+01
1.960000e-06	7.923890e-07	-3.782291e-10	5.732633e+00	-2.646433e+01
1.970000e-06	8.594223e-07	-3.043572e-10	6.217593e+00	-2.177042e+01
1.980000e-06	9.263622e-07	-2.295599e-10	6.701878e+00	-1.699207e+01
1.990000e-06	9.931047e-07	-1.562990e-10	7.184735e+00	-1.212966e+01
2.000000e-06	1.059754e-06	-8.323459e-11	7.666917e+00	-7.184516e+00
2.010000e-06	1.126376e-06	-9.404764e-12	8.148902e+00	-2.158811e+00
2.020000e-06	1.192926e-06	6.428199e-11	8.630366e+00	2.944427e+00
2.030000e-06	1.259389e-06	1.381685e-10	9.111203e+00	8.121398e+00
2.040000e-06	1.325737e-06	2.144307e-10	9.591206e+00	1.336760e+01
2.050000e-06	1.391949e-06	2.943977e-10	1.007022e+01	1.867793e+01
2.060000e-06	1.458041e-06	3.752902e-10	1.054838e+01	2.404678e+01
2.070000e-06	1.524017e-06	4.562107e-10	1.102568e+01	2.946812e+01
2.080000e-06	1.589783e-06	5.382248e-10	1.150147e+01	3.493565e+01
2.090000e-06	1.655362e-06	6.249649e-10	1.197591e+01	4.044288e+01
2.100000e-06	1.720808e-06	7.125005e-10	1.244939e+01	4.598324e+01
2.110000e-06	1.786040e-06	7.952951e-10	1.292132e+01	5.155018e+01
2.120000e-06	1.851070e-06	8.773868e-10	1.339179e+01	5.713725e+01
2.130000e-06	1.915932e-06	9.590771e-10	1.386104e+01	6.273818e+01
2.140000e-06	1.980716e-06	1.041569e-09	1.432972e+01	6.834695e+01
2.150000e-06	2.045449e-06	1.124145e-09	1.479804e+01	7.395781e+01
2.160000e-06	2.110035e-06	1.209196e-09	1.526530e+01	7.956535e+01
2.170000e-06	2.174382e-06	1.296955e-09	1.573083e+01	8.516445e+01
2.180000e-06	2.238563e-06	1.385393e-09	1.619515e+01	9.075036e+01
2.190000e-06	2.302721e-06	1.475236e-09	1.665931e+01	9.631862e+01
2.200000e-06	2.366768e-06	1.563316e-09	1.712267e+01	1.018651e+02
2.210000e-06	2.430562e-06	1.649040e-09	1.758419e+01	1.073857e+02
2.220000e-06	2.494173e-06	1.732826e-09	1.804440e+01	1.128770e+02
2.230000e-06	2.557684e-06	1.813918e-09	1.850387e+01	1.183352e+02
2.240000e-06	2.621052e-06	1.895491e-09	1.896232e+01	1.237570e+02
2.250000e-06	2.684253e-06	1.978582e-09	1.941955e+01	1.291389e+02
2.260000e-06	2.747216e-06	2.060337e-09	1.987506e+01	1.344777e+02
2.270000e-06	2.809979e-06	2.140922e-09	2.032913e+01	1.397698e+02
2.280000e-06	2.872597e-06	2.220835e-09	2.078215e+01	1.450118e+02
2.290000e-06	2.935026e-06	2.303301e-09	2.123380e+01	1.502003e+02
2.300000e-06	2.997296e-06	2.383396e-09	2.168430e+01	1.553315e+02
2.310000e-06	3.059373e-06	2.458020e-09	2.213340e+01	1.604019e+02
2.320000e-06	3.121246e-06	2.531706e-09	2.258103e+01	1.654077e+02
2.330000e-06	3.182904e-06	2.606688e-09	2.302710e+01	1.703451e+02
2.340000e-06	3.244221e-06	2.679038e-09	2.347070e+01	1.752105e+02
2.350000e-06	3.305340e-06	2.746698e-09	2.391287e+01	1.800001e+02
2.360000e-06	3.366305e-06	2.813990e-09	2.435394e+01	1.847105e+02
2.370000e-06	3.427025e-06	2.881063e-09	2.479322e+01	1.893383e+02
2.380000e-06	3.487545e-06	2.945074e-09	2.523106e+01	1.938806e+02
2.390000e-06	3.547909e-06	3.007647e-09	2.566777e+01	1.983347e+02
2.400000e-06	3.608104e-06	3.068023e-09	2.610326e+01	2.026984e+02
2.410000e-06	3.668152e-06	3.130356e-09	2.653768e+01	2.069699e+02
2.420000e-06	3.727992e-06	3.191841e-09	2.697060e+01	2.111482e+02
2.430000e-06	3.787544e-06	3.249430e-09	2.740144e+01	2.152326e+02
2.440000e-06	3.846777e-06	3.302730e-09	2.782997e+01	2.192233e+02
2.450000e-06	3.905640e-06	3.355490e-09	2.825582e+01	2.231210e+02
2.460000e-06	3.964122e-06	3.410340e-09	2.867892e+01	2.269271e+02
2.470000e-06	4.022243e-06	3.463858e-09	2.909940e+01	2.306437e+02
2.480000e-06	4.079920e-06	3.513877e-09	2.951667e+01	2.342735e+02
2.490000e-06	4.137161e-06	3.564198e-09	2.993079e+01	2.378197e+02
2.500000e-06	4.194060e-06	3.618019e-09	3.034243e+01	2.412861e+02
2.510000e-06	4.250644e-06	3.672750e-09	3.075180e+01	2.446769e+02
2.520000e-06	4.306944e-06	3.722749e-09	3.115910e+01	2.479964e+02
2.530000e-06	4.362985e-06	3.769627e-09	3.156454e+01	2.512493e+02
2.540000e-06	4.418763e-06	3.816924e-09	3.196807e+01	2.544405e+02
2.550000e-06	4.474225e-06	3.863868e-09	3.236932e+01	2.575745e+02
2.560000e-06	4.529374e-06	3.908899e-09	3.276830e+01	2.606560e+02
2.570000e-06	4.584215e-06	3.950197e-09	3.316505e+01	2.636892e+02
2.580000e-06	4.638772e-06	3.992257e-09	3.355975e+01	2.666781e+02
2.590000e-06	4.693058e-06	4.035283e-09	3.395249e+01	2.696261e+02
2.600000e-06	4.747103e-06	4.078744e-09	3.434348e+01	2.725360e+02
2.610000e-06	4.800847e-06	4.119992e-09	3.473230e+01	2.754101e+02
2.620000e-06	4.854192e-06	4.159943e-09	3.511823e+01	2.782500e+02
2.630000e-06	4.907119e-06	4.199181e-09	3.550114e+01	2.810564e+02
2.640000e-06	4.959690e-06	4.237231e-09	3.588147e+01	2.838296e+02
2.650000e-06	5.011864e-06	4.273399e-09	3.625893e+01	2.865690e+02
2.660000e-06	5.063711e-06	4.310867e-09	3.663402e+01	2.892733e+02
2.670000e-06	5.115144e-06	4.349134e-09	3.700612e+01	2.919408e+02
2.680000e-06	5.166024e-06	4.387295e-09	3.737422e+01	2.945693e+02
2.690000e-06	5.216353e-06	4.422986e-09	3.773833e+01	2.971559e+02
2.700000e-06	5.266110e-06	4.458355e-09	3.809830e+01	2.996978e+02
2.710000e-06	5.315420e-06	4.493248e-09	3.845504e+01	3.021917e+02
2.720000e-06	5.364262e-06	4.526628e-09	3.880840e+01	3.046345e+02
2.730000e-06	5.412663e-06	4.556971e-09	3.915856e+01	3.070231e+02
2.740000e-06	5.460740e-06	4.586450e-09	3.950638e+01	3.093547e+02
2.750000e-06	5.508461e-06	4.621336e-09	3.985162e+01	3.116266e+02
2.760000e-06	5.555800e-06	4.655381e-09	4.019410e+01	3.138370e+02
2.770000e-06	5.602696e-06	4.685637e-09	4.053337e+01	3.159842e+02
2.780000e-06	5.649181e-06	4.714715e-09	4.086968e+01	3.180676e+02
2.790000e-06	5.695347e-06	4.745996e-09	4.120367e+01	3.200869e+02
2.800000e-06	5.741123e-06	4.778010e-09	4.153484e+01	3.220428e+02
2.810000e-06	5.786428e-06	4.805345e-09	4.186261e+01	3.239367e+02
2.820000e-06	5.831324e-06	4.831266e-09	4.218741e+01	3.257706e+02
2.830000e-06	5.875829e-06	4.856242e-09	4.250938e+01	3.275474e+02
2.840000e-06	5.920057e-06	4.881740e-09	4.282936e+01	3.292705e+02
2.850000e-06	5.964080e-06	4.911076e-09	4.314785e+01	3.309439e+02
2.860000e-06	6.007839e-06	4.939786e-09	4.346443e+01	3.325719e+02
2.870000e-06	6.051160e-06	4.966149e-09	4.377784e+01	3.341593e+02
2.880000e-06	6.093959e-06	4.988330e-09	4.408747e+01	3.357111e+02
2.890000e-06	6.136266e-06	5.014709e-09	4.439355e+01	3.372321e+02
2.900000e-06	6.177931e-06	5.043369e-09	4.469498e+01	3.387271e+02
