# Temperatura_=_20.0
# Concentracion g/m^3_=_12600.0
# C_Vs_to_Am_M_A/Vsm_=_65563218390.804596
# pendiente_HvsI_1/m_=_3716.3
# ordenada_HvsI_A/m_=_1297.0
# frecuencia_Hz_=_135503.60799845282

Tiempo_(s)	Campo_(V.s)	Magnetizacion_(V.s)	Campo_(kA/m)	Magnetizacion_(A/m)
0.000000e+00	-7.933790e-06	-5.610353e-09	-5.705305e+01	-3.599948e+02
1.000000e-08	-7.933806e-06	-5.606661e-09	-5.705316e+01	-3.599235e+02
2.000000e-08	-7.933477e-06	-5.609743e-09	-5.705079e+01	-3.598258e+02
3.000000e-08	-7.932554e-06	-5.613102e-09	-5.704416e+01	-3.597039e+02
4.000000e-08	-7.930824e-06	-5.613846e-09	-5.703172e+01	-3.595609e+02
5.000000e-08	-7.928235e-06	-5.612681e-09	-5.701310e+01	-3.594004e+02
6.000000e-08	-7.924911e-06	-5.606216e-09	-5.698919e+01	-3.592263e+02
7.000000e-08	-7.921108e-06	-5.583063e-09	-5.696185e+01	-3.590433e+02
8.000000e-08	-7.917001e-06	-5.554230e-09	-5.693231e+01	-3.588563e+02
9.000000e-08	-7.912335e-06	-5.610976e-09	-5.689876e+01	-3.586704e+02
1.000000e-07	-7.906938e-06	-5.721342e-09	-5.685995e+01	-3.584908e+02
1.100000e-07	-7.900666e-06	-5.784420e-09	-5.681484e+01	-3.583227e+02
1.200000e-07	-7.893485e-06	-5.622684e-09	-5.676320e+01	-3.581713e+02
1.300000e-07	-7.885856e-06	-5.362209e-09	-5.670834e+01	-3.580412e+02
1.400000e-07	-7.878074e-06	-5.474660e-09	-5.665238e+01	-3.579370e+02
1.500000e-07	-7.869970e-06	-5.821248e-09	-5.659410e+01	-3.578625e+02
1.600000e-07	-7.861449e-06	-5.699910e-09	-5.653283e+01	-3.578209e+02
1.700000e-07	-7.852512e-06	-5.490322e-09	-5.646857e+01	-3.578148e+02
1.800000e-07	-7.842749e-06	-5.478134e-09	-5.639836e+01	-3.578458e+02
1.900000e-07	-7.831902e-06	-5.502132e-09	-5.632035e+01	-3.579148e+02
2.000000e-07	-7.820341e-06	-5.652559e-09	-5.623722e+01	-3.580216e+02
2.100000e-07	-7.808573e-06	-5.751002e-09	-5.615259e+01	-3.581653e+02
2.200000e-07	-7.796293e-06	-5.551669e-09	-5.606429e+01	-3.583438e+02
2.300000e-07	-7.783043e-06	-5.315909e-09	-5.596900e+01	-3.585542e+02
2.400000e-07	-7.769277e-06	-5.545315e-09	-5.587001e+01	-3.587928e+02
2.500000e-07	-7.755186e-06	-5.698847e-09	-5.576868e+01	-3.590550e+02
2.600000e-07	-7.740122e-06	-5.377135e-09	-5.566035e+01	-3.593354e+02
2.700000e-07	-7.723990e-06	-5.178246e-09	-5.554434e+01	-3.596281e+02
2.800000e-07	-7.707286e-06	-5.474156e-09	-5.542422e+01	-3.599267e+02
2.900000e-07	-7.690081e-06	-5.592541e-09	-5.530050e+01	-3.602244e+02
3.000000e-07	-7.672372e-06	-5.469704e-09	-5.517315e+01	-3.605142e+02
3.100000e-07	-7.654186e-06	-5.426781e-09	-5.504237e+01	-3.607890e+02
3.200000e-07	-7.635402e-06	-5.420077e-09	-5.490730e+01	-3.610416e+02
3.300000e-07	-7.615990e-06	-5.345576e-09	-5.476770e+01	-3.612653e+02
3.400000e-07	-7.596223e-06	-5.474187e-09	-5.462555e+01	-3.614537e+02
3.500000e-07	-7.576268e-06	-5.597009e-09	-5.448205e+01	-3.616006e+02
3.600000e-07	-7.555898e-06	-5.337577e-09	-5.433557e+01	-3.617007e+02
3.700000e-07	-7.534921e-06	-5.131079e-09	-5.418472e+01	-3.617492e+02
3.800000e-07	-7.513397e-06	-5.378760e-09	-5.402994e+01	-3.617424e+02
3.900000e-07	-7.491502e-06	-5.604845e-09	-5.387249e+01	-3.616771e+02
4.000000e-07	-7.469120e-06	-5.451842e-09	-5.371154e+01	-3.615512e+02
4.100000e-07	-7.446044e-06	-5.189085e-09	-5.354559e+01	-3.613634e+02
4.200000e-07	-7.422426e-06	-5.208410e-09	-5.337575e+01	-3.611135e+02
4.300000e-07	-7.398501e-06	-5.484722e-09	-5.320370e+01	-3.608021e+02
4.400000e-07	-7.374210e-06	-5.518804e-09	-5.302903e+01	-3.604308e+02
4.500000e-07	-7.349243e-06	-5.266452e-09	-5.284948e+01	-3.600017e+02
4.600000e-07	-7.323371e-06	-5.144065e-09	-5.266343e+01	-3.595180e+02
4.700000e-07	-7.296712e-06	-5.302918e-09	-5.247172e+01	-3.589833e+02
4.800000e-07	-7.269503e-06	-5.432259e-09	-5.227606e+01	-3.584018e+02
4.900000e-07	-7.241857e-06	-5.402860e-09	-5.207726e+01	-3.577782e+02
5.000000e-07	-7.213868e-06	-5.220945e-09	-5.187598e+01	-3.571174e+02
5.100000e-07	-7.185457e-06	-5.147203e-09	-5.167167e+01	-3.564244e+02
5.200000e-07	-7.156536e-06	-5.298694e-09	-5.146370e+01	-3.557044e+02
5.300000e-07	-7.127126e-06	-5.438500e-09	-5.125221e+01	-3.549624e+02
5.400000e-07	-7.097149e-06	-5.297374e-09	-5.103664e+01	-3.542031e+02
5.500000e-07	-7.066646e-06	-5.126494e-09	-5.081729e+01	-3.534312e+02
5.600000e-07	-7.035701e-06	-5.174148e-09	-5.059475e+01	-3.526507e+02
5.700000e-07	-7.004276e-06	-5.334588e-09	-5.036877e+01	-3.518652e+02
5.800000e-07	-6.972466e-06	-5.310451e-09	-5.014002e+01	-3.510779e+02
5.900000e-07	-6.940284e-06	-5.148405e-09	-4.990860e+01	-3.502910e+02
6.000000e-07	-6.907713e-06	-5.103374e-09	-4.967438e+01	-3.495066e+02
6.100000e-07	-6.874518e-06	-5.219819e-09	-4.943566e+01	-3.487257e+02
6.200000e-07	-6.840545e-06	-5.262090e-09	-4.919136e+01	-3.479489e+02
6.300000e-07	-6.805994e-06	-5.171271e-09	-4.894290e+01	-3.471761e+02
6.400000e-07	-6.770830e-06	-5.107069e-09	-4.869003e+01	-3.464066e+02
6.500000e-07	-6.735172e-06	-5.132673e-09	-4.843361e+01	-3.456392e+02
6.600000e-07	-6.699111e-06	-5.167397e-09	-4.817428e+01	-3.448723e+02
6.700000e-07	-6.662582e-06	-5.148752e-09	-4.791160e+01	-3.441039e+02
6.800000e-07	-6.625693e-06	-5.104569e-09	-4.764633e+01	-3.433316e+02
6.900000e-07	-6.588371e-06	-5.077676e-09	-4.737794e+01	-3.425528e+02
7.000000e-07	-6.550576e-06	-5.092344e-09	-4.710615e+01	-3.417648e+02
7.100000e-07	-6.512206e-06	-5.097150e-09	-4.683022e+01	-3.409650e+02
7.200000e-07	-6.473274e-06	-5.069657e-09	-4.655026e+01	-3.401507e+02
7.300000e-07	-6.433999e-06	-5.036402e-09	-4.626783e+01	-3.393192e+02
7.400000e-07	-6.394406e-06	-5.035401e-09	-4.598311e+01	-3.384685e+02
7.500000e-07	-6.354536e-06	-5.026658e-09	-4.569640e+01	-3.375963e+02
7.600000e-07	-6.314321e-06	-5.002163e-09	-4.540721e+01	-3.367009e+02
7.700000e-07	-6.273725e-06	-4.973918e-09	-4.511528e+01	-3.357810e+02
7.800000e-07	-6.232455e-06	-4.967838e-09	-4.481850e+01	-3.348357e+02
7.900000e-07	-6.190374e-06	-4.958878e-09	-4.451588e+01	-3.338643e+02
8.000000e-07	-6.147689e-06	-4.936361e-09	-4.420893e+01	-3.328668e+02
8.100000e-07	-6.104476e-06	-4.904056e-09	-4.389818e+01	-3.318433e+02
8.200000e-07	-6.060859e-06	-4.896685e-09	-4.358452e+01	-3.307945e+02
8.300000e-07	-6.016836e-06	-4.901890e-09	-4.326795e+01	-3.297213e+02
8.400000e-07	-5.972452e-06	-4.887235e-09	-4.294878e+01	-3.286250e+02
8.500000e-07	-5.927631e-06	-4.843586e-09	-4.262646e+01	-3.275069e+02
8.600000e-07	-5.882382e-06	-4.818664e-09	-4.230107e+01	-3.263688e+02
8.700000e-07	-5.836828e-06	-4.823294e-09	-4.197348e+01	-3.252124e+02
8.800000e-07	-5.790902e-06	-4.826859e-09	-4.164322e+01	-3.240395e+02
8.900000e-07	-5.744613e-06	-4.793867e-09	-4.131035e+01	-3.228518e+02
9.000000e-07	-5.697979e-06	-4.749802e-09	-4.097500e+01	-3.216511e+02
9.100000e-07	-5.650951e-06	-4.734109e-09	-4.063681e+01	-3.204388e+02
9.200000e-07	-5.603544e-06	-4.743796e-09	-4.029591e+01	-3.192164e+02
9.300000e-07	-5.555848e-06	-4.738850e-09	-3.995292e+01	-3.179848e+02
9.400000e-07	-5.507619e-06	-4.698600e-09	-3.960609e+01	-3.167451e+02
9.500000e-07	-5.458722e-06	-4.660190e-09	-3.925447e+01	-3.154977e+02
9.600000e-07	-5.409282e-06	-4.657988e-09	-3.889894e+01	-3.142428e+02
9.700000e-07	-5.359363e-06	-4.668330e-09	-3.853996e+01	-3.129804e+02
9.800000e-07	-5.308940e-06	-4.644255e-09	-3.817737e+01	-3.117101e+02
9.900000e-07	-5.257999e-06	-4.593119e-09	-3.781104e+01	-3.104311e+02
1.000000e-06	-5.206515e-06	-4.558768e-09	-3.744081e+01	-3.091425e+02
1.010000e-06	-5.154534e-06	-4.561833e-09	-3.706701e+01	-3.078430e+02
1.020000e-06	-5.102204e-06	-4.560019e-09	-3.669069e+01	-3.065312e+02
1.030000e-06	-5.049537e-06	-4.529776e-09	-3.631196e+01	-3.052055e+02
1.040000e-06	-4.996587e-06	-4.486641e-09	-3.593119e+01	-3.038642e+02
1.050000e-06	-4.943279e-06	-4.469785e-09	-3.554785e+01	-3.025054e+02
1.060000e-06	-4.889571e-06	-4.473067e-09	-3.516162e+01	-3.011274e+02
1.070000e-06	-4.835552e-06	-4.459946e-09	-3.477316e+01	-2.997285e+02
1.080000e-06	-4.781214e-06	-4.415588e-09	-3.438241e+01	-2.983068e+02
1.090000e-06	-4.726559e-06	-4.375814e-09	-3.398938e+01	-2.968609e+02
1.100000e-06	-4.671590e-06	-4.360880e-09	-3.359409e+01	-2.953893e+02
1.110000e-06	-4.616269e-06	-4.352136e-09	-3.319627e+01	-2.938908e+02
1.120000e-06	-4.560711e-06	-4.325004e-09	-3.279674e+01	-2.923644e+02
1.130000e-06	-4.504907e-06	-4.287725e-09	-3.239545e+01	-2.908092e+02
1.140000e-06	-4.448829e-06	-4.259021e-09	-3.199218e+01	-2.892248e+02
1.150000e-06	-4.392579e-06	-4.246466e-09	-3.158768e+01	-2.876107e+02
1.160000e-06	-4.336025e-06	-4.233474e-09	-3.118099e+01	-2.859670e+02
1.170000e-06	-4.279010e-06	-4.203784e-09	-3.077099e+01	-2.842935e+02
1.180000e-06	-4.221566e-06	-4.165052e-09	-3.035790e+01	-2.825908e+02
1.190000e-06	-4.163664e-06	-4.134667e-09	-2.994152e+01	-2.808592e+02
1.200000e-06	-4.105323e-06	-4.119574e-09	-2.952198e+01	-2.790992e+02
1.210000e-06	-4.046713e-06	-4.100473e-09	-2.910050e+01	-2.773116e+02
1.220000e-06	-3.987822e-06	-4.070955e-09	-2.867701e+01	-2.754971e+02
1.230000e-06	-3.928573e-06	-4.034061e-09	-2.825094e+01	-2.736565e+02
1.240000e-06	-3.869011e-06	-4.005200e-09	-2.782263e+01	-2.717904e+02
1.250000e-06	-3.809173e-06	-3.981929e-09	-2.739232e+01	-2.698995e+02
1.260000e-06	-3.749165e-06	-3.954414e-09	-2.696079e+01	-2.679845e+02
1.270000e-06	-3.688909e-06	-3.921075e-09	-2.652749e+01	-2.660458e+02
1.280000e-06	-3.628368e-06	-3.885958e-09	-2.609213e+01	-2.640838e+02
1.290000e-06	-3.567672e-06	-3.857241e-09	-2.565565e+01	-2.620987e+02
1.300000e-06	-3.506834e-06	-3.835140e-09	-2.521816e+01	-2.600905e+02
1.310000e-06	-3.445770e-06	-3.809876e-09	-2.477903e+01	-2.580591e+02
1.320000e-06	-3.384471e-06	-3.778318e-09	-2.433822e+01	-2.560043e+02
1.330000e-06	-3.322957e-06	-3.745647e-09	-2.389587e+01	-2.539255e+02
1.340000e-06	-3.261161e-06	-3.717203e-09	-2.345149e+01	-2.518223e+02
1.350000e-06	-3.199054e-06	-3.691979e-09	-2.300487e+01	-2.496939e+02
1.360000e-06	-3.136680e-06	-3.662032e-09	-2.255633e+01	-2.475394e+02
1.370000e-06	-3.074143e-06	-3.624847e-09	-2.210661e+01	-2.453581e+02
1.380000e-06	-3.011370e-06	-3.585391e-09	-2.165520e+01	-2.431490e+02
1.390000e-06	-2.948392e-06	-3.551561e-09	-2.120232e+01	-2.409111e+02
1.400000e-06	-2.885279e-06	-3.522804e-09	-2.074846e+01	-2.386434e+02
1.410000e-06	-2.822046e-06	-3.491378e-09	-2.029374e+01	-2.363450e+02
1.420000e-06	-2.758698e-06	-3.454067e-09	-1.983820e+01	-2.340150e+02
1.430000e-06	-2.695173e-06	-3.418405e-09	-1.938139e+01	-2.316526e+02
1.440000e-06	-2.631546e-06	-3.387668e-09	-1.892383e+01	-2.292571e+02
1.450000e-06	-2.567803e-06	-3.356438e-09	-1.846545e+01	-2.268279e+02
1.460000e-06	-2.503855e-06	-3.319063e-09	-1.800559e+01	-2.243644e+02
1.470000e-06	-2.439717e-06	-3.276264e-09	-1.754436e+01	-2.218662e+02
1.480000e-06	-2.375418e-06	-3.236175e-09	-1.708198e+01	-2.193331e+02
1.490000e-06	-2.310914e-06	-3.200051e-09	-1.661812e+01	-2.167649e+02
1.500000e-06	-2.246102e-06	-3.163208e-09	-1.615205e+01	-2.141616e+02
1.510000e-06	-2.181075e-06	-3.122854e-09	-1.568443e+01	-2.115231e+02
1.520000e-06	-2.115851e-06	-3.081408e-09	-1.521540e+01	-2.088495e+02
1.530000e-06	-2.050471e-06	-3.042518e-09	-1.474524e+01	-2.061409e+02
1.540000e-06	-1.985036e-06	-3.006532e-09	-1.427468e+01	-2.033975e+02
1.550000e-06	-1.919349e-06	-2.967593e-09	-1.380232e+01	-2.006194e+02
1.560000e-06	-1.853515e-06	-2.922435e-09	-1.332890e+01	-1.978067e+02
1.570000e-06	-1.787568e-06	-2.876955e-09	-1.285467e+01	-1.949595e+02
1.580000e-06	-1.721479e-06	-2.835827e-09	-1.237940e+01	-1.920778e+02
1.590000e-06	-1.655356e-06	-2.795852e-09	-1.190391e+01	-1.891615e+02
1.600000e-06	-1.589005e-06	-2.754182e-09	-1.142677e+01	-1.862104e+02
1.610000e-06	-1.522519e-06	-2.710307e-09	-1.094866e+01	-1.832242e+02
1.620000e-06	-1.455972e-06	-2.665290e-09	-1.047010e+01	-1.802025e+02
1.630000e-06	-1.389203e-06	-2.621976e-09	-9.989965e+00	-1.771448e+02
1.640000e-06	-1.322318e-06	-2.579907e-09	-9.508980e+00	-1.740504e+02
1.650000e-06	-1.255327e-06	-2.535479e-09	-9.027237e+00	-1.709186e+02
1.660000e-06	-1.188215e-06	-2.482794e-09	-8.544629e+00	-1.677486e+02
1.670000e-06	-1.121142e-06	-2.428934e-09	-8.062297e+00	-1.645394e+02
1.680000e-06	-1.054043e-06	-2.379566e-09	-7.579778e+00	-1.612901e+02
1.690000e-06	-9.867833e-07	-2.332027e-09	-7.096103e+00	-1.579995e+02
1.700000e-06	-9.194226e-07	-2.281461e-09	-6.611703e+00	-1.546668e+02
1.710000e-06	-8.520190e-07	-2.229134e-09	-6.126994e+00	-1.512908e+02
1.720000e-06	-7.846535e-07	-2.179294e-09	-5.642558e+00	-1.478705e+02
1.730000e-06	-7.172908e-07	-2.131750e-09	-5.158143e+00	-1.444049e+02
1.740000e-06	-6.498849e-07	-2.083442e-09	-4.673417e+00	-1.408930e+02
1.750000e-06	-5.823956e-07	-2.030104e-09	-4.188092e+00	-1.373340e+02
1.760000e-06	-5.148194e-07	-1.973543e-09	-3.702142e+00	-1.337272e+02
1.770000e-06	-4.471813e-07	-1.917210e-09	-3.215746e+00	-1.300717e+02
1.780000e-06	-3.794393e-07	-1.862174e-09	-2.728603e+00	-1.263670e+02
1.790000e-06	-3.116380e-07	-1.807065e-09	-2.241035e+00	-1.226126e+02
1.800000e-06	-2.438859e-07	-1.749855e-09	-1.753819e+00	-1.188080e+02
1.810000e-06	-1.761469e-07	-1.691715e-09	-1.266698e+00	-1.149527e+02
1.820000e-06	-1.083711e-07	-1.635464e-09	-7.793124e-01	-1.110465e+02
1.830000e-06	-4.058421e-08	-1.582351e-09	-2.918470e-01	-1.070891e+02
1.840000e-06	2.717982e-08	-1.526387e-09	1.954540e-01	-1.030802e+02
1.850000e-06	9.481631e-08	-1.464024e-09	6.818380e-01	-9.901949e+01
1.860000e-06	1.624358e-07	-1.398069e-09	1.168100e+00	-9.490660e+01
1.870000e-06	2.301014e-07	-1.334268e-09	1.654693e+00	-9.074120e+01
1.880000e-06	2.978213e-07	-1.271195e-09	2.141676e+00	-8.652283e+01
1.890000e-06	3.655526e-07	-1.206304e-09	2.628742e+00	-8.225097e+01
1.900000e-06	4.332640e-07	-1.138579e-09	3.115665e+00	-7.792500e+01
1.910000e-06	5.009792e-07	-1.070872e-09	3.602615e+00	-7.354420e+01
1.920000e-06	5.685896e-07	-1.009255e-09	4.088811e+00	-6.910775e+01
1.930000e-06	6.360904e-07	-9.484228e-10	4.574219e+00	-6.461473e+01
1.940000e-06	7.035731e-07	-8.857070e-10	5.059497e+00	-6.006418e+01
1.950000e-06	7.710571e-07	-8.170194e-10	5.544784e+00	-5.545505e+01
1.960000e-06	8.384066e-07	-7.438779e-10	6.029105e+00	-5.078627e+01
1.970000e-06	9.056470e-07	-6.693031e-10	6.512640e+00	-4.605681e+01
1.980000e-06	9.728057e-07	-5.960402e-10	6.995588e+00	-4.126568e+01
1.990000e-06	1.039857e-06	-5.222070e-10	7.477763e+00	-3.641199e+01
2.000000e-06	1.106785e-06	-4.459731e-10	7.959051e+00	-3.149504e+01
2.010000e-06	1.173675e-06	-3.697901e-10	8.440071e+00	-2.651432e+01
2.020000e-06	1.240552e-06	-2.985735e-10	8.920993e+00	-2.146961e+01
2.030000e-06	1.307339e-06	-2.253764e-10	9.401263e+00	-1.636106e+01
2.040000e-06	1.374043e-06	-1.471369e-10	9.880946e+00	-1.118917e+01
2.050000e-06	1.440686e-06	-6.732917e-11	1.036018e+01	-5.954929e+00
2.060000e-06	1.507296e-06	1.134944e-11	1.083919e+01	-6.598267e-01
2.070000e-06	1.573790e-06	8.966658e-11	1.131735e+01	4.694103e+00
2.080000e-06	1.640157e-06	1.716484e-10	1.179461e+01	1.010424e+01
2.090000e-06	1.706363e-06	2.567578e-10	1.227070e+01	1.556734e+01
2.100000e-06	1.772341e-06	3.440556e-10	1.274517e+01	2.107956e+01
2.110000e-06	1.838073e-06	4.289857e-10	1.321785e+01	2.663639e+01
2.120000e-06	1.903605e-06	5.109498e-10	1.368910e+01	3.223273e+01
2.130000e-06	1.968986e-06	5.920038e-10	1.415927e+01	3.786287e+01
2.140000e-06	2.034251e-06	6.758726e-10	1.462859e+01	4.352053e+01
2.150000e-06	2.099445e-06	7.612743e-10	1.509741e+01	4.919895e+01
2.160000e-06	2.164467e-06	8.483981e-10	1.556500e+01	5.489089e+01
2.170000e-06	2.229260e-06	9.356556e-10	1.603094e+01	6.058874e+01
2.180000e-06	2.293914e-06	1.024791e-09	1.649587e+01	6.628460e+01
2.190000e-06	2.358342e-06	1.113734e-09	1.695918e+01	7.197035e+01
2.200000e-06	2.422527e-06	1.201555e-09	1.742074e+01	7.763779e+01
2.210000e-06	2.486478e-06	1.285854e-09	1.788063e+01	8.327868e+01
2.220000e-06	2.550239e-06	1.365995e-09	1.833914e+01	8.888491e+01
2.230000e-06	2.613826e-06	1.445523e-09	1.879641e+01	9.444855e+01
2.240000e-06	2.677222e-06	1.527242e-09	1.925229e+01	9.996199e+01
2.250000e-06	2.740547e-06	1.608104e-09	1.970767e+01	1.054180e+02
2.260000e-06	2.803671e-06	1.685816e-09	2.016161e+01	1.108098e+02
2.270000e-06	2.866636e-06	1.762802e-09	2.061440e+01	1.161314e+02
2.280000e-06	2.929541e-06	1.842835e-09	2.106676e+01	1.213770e+02
2.290000e-06	2.992246e-06	1.925026e-09	2.151768e+01	1.265420e+02
2.300000e-06	3.054723e-06	2.004182e-09	2.196696e+01	1.316222e+02
2.310000e-06	3.117077e-06	2.079475e-09	2.241536e+01	1.366143e+02
2.320000e-06	3.179252e-06	2.153265e-09	2.286247e+01	1.415158e+02
2.330000e-06	3.241116e-06	2.225370e-09	2.330734e+01	1.463248e+02
2.340000e-06	3.302803e-06	2.295529e-09	2.375094e+01	1.510404e+02
2.350000e-06	3.364310e-06	2.364397e-09	2.419324e+01	1.556623e+02
2.360000e-06	3.425561e-06	2.429349e-09	2.463371e+01	1.601908e+02
2.370000e-06	3.486665e-06	2.490863e-09	2.507312e+01	1.646271e+02
2.380000e-06	3.547493e-06	2.554271e-09	2.551054e+01	1.689726e+02
2.390000e-06	3.607959e-06	2.619858e-09	2.594536e+01	1.732295e+02
2.400000e-06	3.668302e-06	2.681755e-09	2.637930e+01	1.774003e+02
2.410000e-06	3.728417e-06	2.742174e-09	2.681159e+01	1.814876e+02
2.420000e-06	3.788182e-06	2.799292e-09	2.724137e+01	1.854944e+02
2.430000e-06	3.847723e-06	2.852551e-09	2.766954e+01	1.894240e+02
2.440000e-06	3.907038e-06	2.904334e-09	2.809608e+01	1.932794e+02
2.450000e-06	3.966165e-06	2.957375e-09	2.852127e+01	1.970638e+02
2.460000e-06	4.025002e-06	3.009635e-09	2.894438e+01	2.007801e+02
2.470000e-06	4.083484e-06	3.059500e-09	2.936493e+01	2.044313e+02
2.480000e-06	4.141519e-06	3.110255e-09	2.978227e+01	2.080198e+02
2.490000e-06	4.199112e-06	3.163880e-09	3.019643e+01	2.115481e+02
2.500000e-06	4.256408e-06	3.218864e-09	3.060845e+01	2.150180e+02
2.510000e-06	4.313253e-06	3.271300e-09	3.101723e+01	2.184313e+02
2.520000e-06	4.369609e-06	3.318011e-09	3.142250e+01	2.217892e+02
2.530000e-06	4.425574e-06	3.362496e-09	3.182495e+01	2.250927e+02
2.540000e-06	4.481274e-06	3.407408e-09	3.222550e+01	2.283424e+02
2.550000e-06	4.536764e-06	3.452094e-09	3.262453e+01	2.315385e+02
2.560000e-06	4.592055e-06	3.494604e-09	3.302214e+01	2.346812e+02
2.570000e-06	4.647116e-06	3.534286e-09	3.341809e+01	2.377702e+02
2.580000e-06	4.701852e-06	3.574052e-09	3.381170e+01	2.408051e+02
2.590000e-06	4.756328e-06	3.616894e-09	3.420345e+01	2.437855e+02
2.600000e-06	4.810539e-06	3.660934e-09	3.459329e+01	2.467106e+02
2.610000e-06	4.864388e-06	3.701231e-09	3.498053e+01	2.495799e+02
2.620000e-06	4.917798e-06	3.739954e-09	3.536461e+01	2.523928e+02
2.630000e-06	4.970824e-06	3.779332e-09	3.574592e+01	2.551487e+02
2.640000e-06	5.023518e-06	3.816876e-09	3.612485e+01	2.578473e+02
2.650000e-06	5.075861e-06	3.853225e-09	3.650126e+01	2.604883e+02
2.660000e-06	5.127728e-06	3.890960e-09	3.687425e+01	2.630717e+02
2.670000e-06	5.179063e-06	3.928911e-09	3.724340e+01	2.655977e+02
2.680000e-06	5.229949e-06	3.962869e-09	3.760933e+01	2.680666e+02
2.690000e-06	5.280404e-06	3.996730e-09	3.797216e+01	2.704792e+02
2.700000e-06	5.330258e-06	4.032379e-09	3.833067e+01	2.728363e+02
2.710000e-06	5.379508e-06	4.065708e-09	3.868483e+01	2.751391e+02
2.720000e-06	5.428347e-06	4.097151e-09	3.903604e+01	2.773888e+02
2.730000e-06	5.476802e-06	4.126130e-09	3.938448e+01	2.795871e+02
2.740000e-06	5.524835e-06	4.155200e-09	3.972989e+01	2.817354e+02
2.750000e-06	5.572427e-06	4.186094e-09	4.007214e+01	2.838356e+02
2.760000e-06	5.619667e-06	4.218773e-09	4.041185e+01	2.858895e+02
2.770000e-06	5.666570e-06	4.248777e-09	4.074914e+01	2.878990e+02
2.780000e-06	5.713148e-06	4.279449e-09	4.108408e+01	2.898657e+02
2.790000e-06	5.759338e-06	4.311027e-09	4.141624e+01	2.917916e+02
2.800000e-06	5.805046e-06	4.338906e-09	4.174494e+01	2.936781e+02
2.810000e-06	5.850336e-06	4.365193e-09	4.207062e+01	2.955270e+02
2.820000e-06	5.895273e-06	4.392741e-09	4.239377e+01	2.973394e+02
2.830000e-06	5.939875e-06	4.419246e-09	4.271451e+01	2.991167e+02
2.840000e-06	5.984120e-06	4.445934e-09	4.303268e+01	3.008597e+02
2.850000e-06	6.028036e-06	4.472059e-09	4.334849e+01	3.025692e+02
2.860000e-06	6.071682e-06	4.495572e-09	4.366236e+01	3.042458e+02
2.870000e-06	6.114962e-06	4.515275e-09	4.397358e+01	3.058898e+02
2.880000e-06	6.157789e-06	4.536012e-09	4.428156e+01	3.075015e+02
2.890000e-06	6.200001e-06	4.561066e-09	4.458512e+01	3.090809e+02
2.900000e-06	6.241484e-06	4.584139e-09	4.488342e+01	3.106278e+02
