# Temperatura_=_20.0
# Concentracion g/m^3_=_12600.0
# C_Vs_to_Am_M_A/Vsm_=_65563218390.804596
# pendiente_HvsI_1/m_=_3716.3
# ordenada_HvsI_A/m_=_1297.0
# frecuencia_Hz_=_135503.29614578377

Tiempo_(s)	Campo_(V.s)	Magnetizacion_(V.s)	Campo_(kA/m)	Magnetizacion_(A/m)
0.000000e+00	-7.901460e-06	-5.447182e-09	-5.703648e+01	-3.628096e+02
1.000000e-08	-7.901613e-06	-5.443771e-09	-5.703759e+01	-3.626708e+02
2.000000e-08	-7.901435e-06	-5.440950e-09	-5.703630e+01	-3.624881e+02
3.000000e-08	-7.900761e-06	-5.442300e-09	-5.703144e+01	-3.622634e+02
4.000000e-08	-7.899306e-06	-5.442491e-09	-5.702094e+01	-3.619994e+02
5.000000e-08	-7.897032e-06	-5.439519e-09	-5.700451e+01	-3.616996e+02
6.000000e-08	-7.894033e-06	-5.434478e-09	-5.698287e+01	-3.613684e+02
7.000000e-08	-7.890496e-06	-5.423023e-09	-5.695734e+01	-3.610108e+02
8.000000e-08	-7.886590e-06	-5.397501e-09	-5.692915e+01	-3.606327e+02
9.000000e-08	-7.882273e-06	-5.405566e-09	-5.689798e+01	-3.602401e+02
1.000000e-07	-7.877274e-06	-5.470524e-09	-5.686190e+01	-3.598397e+02
1.100000e-07	-7.871355e-06	-5.527462e-09	-5.681917e+01	-3.594382e+02
1.200000e-07	-7.864470e-06	-5.493048e-09	-5.676947e+01	-3.590426e+02
1.300000e-07	-7.856869e-06	-5.287698e-09	-5.671460e+01	-3.586596e+02
1.400000e-07	-7.849135e-06	-5.247351e-09	-5.665878e+01	-3.582957e+02
1.500000e-07	-7.841316e-06	-5.502751e-09	-5.660234e+01	-3.579570e+02
1.600000e-07	-7.833092e-06	-5.536595e-09	-5.654297e+01	-3.576492e+02
1.700000e-07	-7.824449e-06	-5.368405e-09	-5.648058e+01	-3.573771e+02
1.800000e-07	-7.815244e-06	-5.343397e-09	-5.641413e+01	-3.571447e+02
1.900000e-07	-7.805043e-06	-5.364168e-09	-5.634049e+01	-3.569551e+02
2.000000e-07	-7.793832e-06	-5.411512e-09	-5.625957e+01	-3.568105e+02
2.100000e-07	-7.782097e-06	-5.522325e-09	-5.617486e+01	-3.567120e+02
2.200000e-07	-7.770041e-06	-5.514121e-09	-5.608784e+01	-3.566594e+02
2.300000e-07	-7.757237e-06	-5.233148e-09	-5.599541e+01	-3.566518e+02
2.400000e-07	-7.743637e-06	-5.233003e-09	-5.589724e+01	-3.566868e+02
2.500000e-07	-7.729677e-06	-5.566092e-09	-5.579647e+01	-3.567611e+02
2.600000e-07	-7.715098e-06	-5.587786e-09	-5.569123e+01	-3.568705e+02
2.700000e-07	-7.699350e-06	-5.300123e-09	-5.557755e+01	-3.570099e+02
2.800000e-07	-7.682719e-06	-5.358281e-09	-5.545751e+01	-3.571733e+02
2.900000e-07	-7.665710e-06	-5.654813e-09	-5.533473e+01	-3.573542e+02
3.000000e-07	-7.648304e-06	-5.682269e-09	-5.520908e+01	-3.575455e+02
3.100000e-07	-7.630445e-06	-5.511135e-09	-5.508017e+01	-3.577397e+02
3.200000e-07	-7.612026e-06	-5.501563e-09	-5.494721e+01	-3.579294e+02
3.300000e-07	-7.593019e-06	-5.563524e-09	-5.481001e+01	-3.581067e+02
3.400000e-07	-7.573489e-06	-5.648018e-09	-5.466903e+01	-3.582643e+02
3.500000e-07	-7.553617e-06	-5.692886e-09	-5.452558e+01	-3.583950e+02
3.600000e-07	-7.533429e-06	-5.455027e-09	-5.437986e+01	-3.584920e+02
3.700000e-07	-7.512727e-06	-5.366734e-09	-5.423042e+01	-3.585492e+02
3.800000e-07	-7.491517e-06	-5.593223e-09	-5.407732e+01	-3.585610e+02
3.900000e-07	-7.469870e-06	-5.662365e-09	-5.392106e+01	-3.585229e+02
4.000000e-07	-7.447733e-06	-5.468878e-09	-5.376127e+01	-3.584311e+02
4.100000e-07	-7.424863e-06	-5.376676e-09	-5.359618e+01	-3.582827e+02
4.200000e-07	-7.401390e-06	-5.447843e-09	-5.342674e+01	-3.580759e+02
4.300000e-07	-7.377594e-06	-5.608064e-09	-5.325497e+01	-3.578098e+02
4.400000e-07	-7.353434e-06	-5.587009e-09	-5.308057e+01	-3.574845e+02
4.500000e-07	-7.328727e-06	-5.367892e-09	-5.290222e+01	-3.571011e+02
4.600000e-07	-7.303337e-06	-5.333156e-09	-5.271895e+01	-3.566614e+02
4.700000e-07	-7.277132e-06	-5.552676e-09	-5.252979e+01	-3.561681e+02
4.800000e-07	-7.250191e-06	-5.583076e-09	-5.233531e+01	-3.556247e+02
4.900000e-07	-7.222790e-06	-5.428431e-09	-5.213752e+01	-3.550351e+02
5.000000e-07	-7.195030e-06	-5.351898e-09	-5.193713e+01	-3.544038e+02
5.100000e-07	-7.166904e-06	-5.409116e-09	-5.173411e+01	-3.537355e+02
5.200000e-07	-7.138356e-06	-5.490461e-09	-5.152804e+01	-3.530352e+02
5.300000e-07	-7.109284e-06	-5.493238e-09	-5.131818e+01	-3.523081e+02
5.400000e-07	-7.079591e-06	-5.377067e-09	-5.110384e+01	-3.515590e+02
5.500000e-07	-7.049324e-06	-5.306607e-09	-5.088536e+01	-3.507929e+02
5.600000e-07	-7.018567e-06	-5.376099e-09	-5.066334e+01	-3.500143e+02
5.700000e-07	-6.987391e-06	-5.452322e-09	-5.043830e+01	-3.492273e+02
5.800000e-07	-6.955857e-06	-5.383096e-09	-5.021067e+01	-3.484355e+02
5.900000e-07	-6.924006e-06	-5.259378e-09	-4.998076e+01	-3.476421e+02
6.000000e-07	-6.891723e-06	-5.258675e-09	-4.974772e+01	-3.468496e+02
6.100000e-07	-6.858946e-06	-5.364301e-09	-4.951112e+01	-3.460598e+02
6.200000e-07	-6.825554e-06	-5.384977e-09	-4.927008e+01	-3.452739e+02
6.300000e-07	-6.791364e-06	-5.267809e-09	-4.902328e+01	-3.444925e+02
6.400000e-07	-6.756475e-06	-5.201007e-09	-4.877144e+01	-3.437155e+02
6.500000e-07	-6.721083e-06	-5.262402e-09	-4.851596e+01	-3.429422e+02
6.600000e-07	-6.685305e-06	-5.322872e-09	-4.825770e+01	-3.421715e+02
6.700000e-07	-6.649127e-06	-5.272661e-09	-4.799655e+01	-3.414016e+02
6.800000e-07	-6.612490e-06	-5.181330e-09	-4.773208e+01	-3.406305e+02
6.900000e-07	-6.575388e-06	-5.160831e-09	-4.746426e+01	-3.398558e+02
7.000000e-07	-6.537855e-06	-5.235490e-09	-4.719333e+01	-3.390749e+02
7.100000e-07	-6.499833e-06	-5.264258e-09	-4.691887e+01	-3.382851e+02
7.200000e-07	-6.461287e-06	-5.182063e-09	-4.664063e+01	-3.374835e+02
7.300000e-07	-6.422326e-06	-5.099643e-09	-4.635939e+01	-3.366674e+02
7.400000e-07	-6.383047e-06	-5.141575e-09	-4.607586e+01	-3.358343e+02
7.500000e-07	-6.343452e-06	-5.196117e-09	-4.579004e+01	-3.349818e+02
7.600000e-07	-6.303583e-06	-5.144764e-09	-4.550225e+01	-3.341076e+02
7.700000e-07	-6.263398e-06	-5.048119e-09	-4.521217e+01	-3.332100e+02
7.800000e-07	-6.222682e-06	-5.040202e-09	-4.491827e+01	-3.322877e+02
7.900000e-07	-6.181239e-06	-5.097490e-09	-4.461911e+01	-3.313394e+02
8.000000e-07	-6.139152e-06	-5.102054e-09	-4.431531e+01	-3.303646e+02
8.100000e-07	-6.096433e-06	-5.021656e-09	-4.400694e+01	-3.293631e+02
8.200000e-07	-6.053141e-06	-4.967301e-09	-4.369444e+01	-3.283349e+02
8.300000e-07	-6.009462e-06	-5.001074e-09	-4.337915e+01	-3.272807e+02
8.400000e-07	-5.965371e-06	-5.038027e-09	-4.306087e+01	-3.262012e+02
8.500000e-07	-5.920915e-06	-4.984188e-09	-4.273997e+01	-3.250977e+02
8.600000e-07	-5.876126e-06	-4.904884e-09	-4.241666e+01	-3.239714e+02
8.700000e-07	-5.830888e-06	-4.900558e-09	-4.209011e+01	-3.228240e+02
8.800000e-07	-5.785283e-06	-4.943514e-09	-4.176092e+01	-3.216572e+02
8.900000e-07	-5.739407e-06	-4.932491e-09	-4.142976e+01	-3.204726e+02
9.000000e-07	-5.693144e-06	-4.862125e-09	-4.109581e+01	-3.192719e+02
9.100000e-07	-5.646452e-06	-4.828970e-09	-4.075877e+01	-3.180568e+02
9.200000e-07	-5.599379e-06	-4.848853e-09	-4.041897e+01	-3.168289e+02
9.300000e-07	-5.551931e-06	-4.858905e-09	-4.007646e+01	-3.155894e+02
9.400000e-07	-5.504067e-06	-4.812370e-09	-3.973096e+01	-3.143395e+02
9.500000e-07	-5.455777e-06	-4.761226e-09	-3.938238e+01	-3.130801e+02
9.600000e-07	-5.406972e-06	-4.752775e-09	-3.903009e+01	-3.118117e+02
9.700000e-07	-5.357627e-06	-4.765790e-09	-3.867389e+01	-3.105346e+02
9.800000e-07	-5.307761e-06	-4.746150e-09	-3.831393e+01	-3.092489e+02
9.900000e-07	-5.257350e-06	-4.700662e-09	-3.795005e+01	-3.079543e+02
1.000000e-06	-5.206561e-06	-4.670338e-09	-3.758342e+01	-3.066502e+02
1.010000e-06	-5.155187e-06	-4.664983e-09	-3.721258e+01	-3.053357e+02
1.020000e-06	-5.103173e-06	-4.650703e-09	-3.683712e+01	-3.040099e+02
1.030000e-06	-5.050937e-06	-4.620972e-09	-3.646005e+01	-3.026715e+02
1.040000e-06	-4.998450e-06	-4.590198e-09	-3.608118e+01	-3.013191e+02
1.050000e-06	-4.945514e-06	-4.566518e-09	-3.569906e+01	-2.999512e+02
1.060000e-06	-4.892185e-06	-4.547794e-09	-3.531411e+01	-2.985663e+02
1.070000e-06	-4.838571e-06	-4.530804e-09	-3.492709e+01	-2.971627e+02
1.080000e-06	-4.784589e-06	-4.508715e-09	-3.453743e+01	-2.957389e+02
1.090000e-06	-4.730217e-06	-4.481395e-09	-3.414495e+01	-2.942935e+02
1.100000e-06	-4.675569e-06	-4.451501e-09	-3.375047e+01	-2.928250e+02
1.110000e-06	-4.620552e-06	-4.424764e-09	-3.335333e+01	-2.913322e+02
1.120000e-06	-4.565240e-06	-4.404851e-09	-3.295407e+01	-2.898140e+02
1.130000e-06	-4.509715e-06	-4.383149e-09	-3.255326e+01	-2.882694e+02
1.140000e-06	-4.453914e-06	-4.349415e-09	-3.215046e+01	-2.866978e+02
1.150000e-06	-4.397899e-06	-4.315569e-09	-3.174611e+01	-2.850985e+02
1.160000e-06	-4.341665e-06	-4.294208e-09	-3.134019e+01	-2.834713e+02
1.170000e-06	-4.285121e-06	-4.278524e-09	-3.093203e+01	-2.818159e+02
1.180000e-06	-4.228224e-06	-4.254131e-09	-3.052132e+01	-2.801323e+02
1.190000e-06	-4.170949e-06	-4.219067e-09	-3.010788e+01	-2.784207e+02
1.200000e-06	-4.113131e-06	-4.191483e-09	-2.969053e+01	-2.766813e+02
1.210000e-06	-4.054965e-06	-4.171983e-09	-2.927066e+01	-2.749144e+02
1.220000e-06	-3.996450e-06	-4.150183e-09	-2.884827e+01	-2.731205e+02
1.230000e-06	-3.937486e-06	-4.115304e-09	-2.842264e+01	-2.712999e+02
1.240000e-06	-3.878132e-06	-4.077087e-09	-2.799420e+01	-2.694531e+02
1.250000e-06	-3.818509e-06	-4.045021e-09	-2.756381e+01	-2.675805e+02
1.260000e-06	-3.758719e-06	-4.017902e-09	-2.713221e+01	-2.656824e+02
1.270000e-06	-3.698660e-06	-3.990527e-09	-2.669868e+01	-2.637591e+02
1.280000e-06	-3.638389e-06	-3.961034e-09	-2.626362e+01	-2.618108e+02
1.290000e-06	-3.577967e-06	-3.929951e-09	-2.582746e+01	-2.598376e+02
1.300000e-06	-3.517385e-06	-3.903203e-09	-2.539015e+01	-2.578393e+02
1.310000e-06	-3.456624e-06	-3.876785e-09	-2.495155e+01	-2.558158e+02
1.320000e-06	-3.395627e-06	-3.847485e-09	-2.451124e+01	-2.537668e+02
1.330000e-06	-3.334401e-06	-3.814493e-09	-2.406929e+01	-2.516920e+02
1.340000e-06	-3.272938e-06	-3.776601e-09	-2.362562e+01	-2.495907e+02
1.350000e-06	-3.211213e-06	-3.739675e-09	-2.318006e+01	-2.474624e+02
1.360000e-06	-3.149196e-06	-3.712006e-09	-2.273239e+01	-2.453065e+02
1.370000e-06	-3.086922e-06	-3.686584e-09	-2.228286e+01	-2.431222e+02
1.380000e-06	-3.024499e-06	-3.652266e-09	-2.183227e+01	-2.409089e+02
1.390000e-06	-2.961893e-06	-3.610660e-09	-2.138034e+01	-2.386657e+02
1.400000e-06	-2.899095e-06	-3.572522e-09	-2.092704e+01	-2.363921e+02
1.410000e-06	-2.836158e-06	-3.542566e-09	-2.047273e+01	-2.340872e+02
1.420000e-06	-2.773029e-06	-3.511420e-09	-2.001703e+01	-2.317506e+02
1.430000e-06	-2.709714e-06	-3.469355e-09	-1.956000e+01	-2.293817e+02
1.440000e-06	-2.646268e-06	-3.423480e-09	-1.910202e+01	-2.269801e+02
1.450000e-06	-2.582700e-06	-3.386681e-09	-1.864315e+01	-2.245454e+02
1.460000e-06	-2.518990e-06	-3.355980e-09	-1.818326e+01	-2.220773e+02
1.470000e-06	-2.455130e-06	-3.316939e-09	-1.772229e+01	-2.195758e+02
1.480000e-06	-2.391140e-06	-3.272111e-09	-1.726038e+01	-2.170406e+02
1.490000e-06	-2.326942e-06	-3.232100e-09	-1.679697e+01	-2.144719e+02
1.500000e-06	-2.262494e-06	-3.199216e-09	-1.633176e+01	-2.118697e+02
1.510000e-06	-2.197897e-06	-3.165144e-09	-1.586546e+01	-2.092341e+02
1.520000e-06	-2.133262e-06	-3.123989e-09	-1.539890e+01	-2.065652e+02
1.530000e-06	-2.068458e-06	-3.078359e-09	-1.493111e+01	-2.038632e+02
1.540000e-06	-2.003446e-06	-3.031902e-09	-1.446182e+01	-2.011281e+02
1.550000e-06	-1.938330e-06	-2.989430e-09	-1.399179e+01	-1.983599e+02
1.560000e-06	-1.873069e-06	-2.947086e-09	-1.352070e+01	-1.955588e+02
1.570000e-06	-1.807623e-06	-2.903261e-09	-1.304828e+01	-1.927245e+02
1.580000e-06	-1.742057e-06	-2.859459e-09	-1.257499e+01	-1.898568e+02
1.590000e-06	-1.676296e-06	-2.818221e-09	-1.210030e+01	-1.869555e+02
1.600000e-06	-1.610330e-06	-2.780914e-09	-1.162413e+01	-1.840200e+02
1.610000e-06	-1.544251e-06	-2.742477e-09	-1.114714e+01	-1.810498e+02
1.620000e-06	-1.478058e-06	-2.696882e-09	-1.066932e+01	-1.780442e+02
1.630000e-06	-1.411632e-06	-2.643784e-09	-1.018983e+01	-1.750023e+02
1.640000e-06	-1.344947e-06	-2.594590e-09	-9.708464e+00	-1.719231e+02
1.650000e-06	-1.278193e-06	-2.550502e-09	-9.226604e+00	-1.688057e+02
1.660000e-06	-1.211385e-06	-2.502269e-09	-8.744349e+00	-1.656488e+02
1.670000e-06	-1.144451e-06	-2.445917e-09	-8.261190e+00	-1.624514e+02
1.680000e-06	-1.077455e-06	-2.388501e-09	-7.777578e+00	-1.592121e+02
1.690000e-06	-1.010422e-06	-2.339078e-09	-7.293707e+00	-1.559298e+02
1.700000e-06	-9.432966e-07	-2.294438e-09	-6.809162e+00	-1.526033e+02
1.710000e-06	-8.761011e-07	-2.248818e-09	-6.324113e+00	-1.492314e+02
1.720000e-06	-8.088847e-07	-2.194813e-09	-5.838913e+00	-1.458130e+02
1.730000e-06	-7.416559e-07	-2.138359e-09	-5.353623e+00	-1.423472e+02
1.740000e-06	-6.744488e-07	-2.087864e-09	-4.868491e+00	-1.388332e+02
1.750000e-06	-6.071704e-07	-2.038271e-09	-4.382844e+00	-1.352702e+02
1.760000e-06	-5.397178e-07	-1.980842e-09	-3.895939e+00	-1.316575e+02
1.770000e-06	-4.722023e-07	-1.918011e-09	-3.408580e+00	-1.279949e+02
1.780000e-06	-4.046982e-07	-1.858496e-09	-2.921303e+00	-1.242819e+02
1.790000e-06	-3.371017e-07	-1.805898e-09	-2.433360e+00	-1.205184e+02
1.800000e-06	-2.693794e-07	-1.753629e-09	-1.944508e+00	-1.167043e+02
1.810000e-06	-2.016708e-07	-1.696833e-09	-1.455755e+00	-1.128398e+02
1.820000e-06	-1.340839e-07	-1.636594e-09	-9.678808e-01	-1.089249e+02
1.830000e-06	-6.655974e-08	-1.577789e-09	-4.804597e-01	-1.049598e+02
1.840000e-06	9.270977e-10	-1.520558e-09	6.692230e-03	-1.009447e+02
1.850000e-06	6.845820e-08	-1.459305e-09	4.941637e-01	-9.687988e+01
1.860000e-06	1.360406e-07	-1.394748e-09	9.820056e-01	-9.276541e+01
1.870000e-06	2.035321e-07	-1.326283e-09	1.469191e+00	-8.860137e+01
1.880000e-06	2.710578e-07	-1.259493e-09	1.956623e+00	-8.438775e+01
1.890000e-06	3.386075e-07	-1.199272e-09	2.444229e+00	-8.012438e+01
1.900000e-06	4.060942e-07	-1.137514e-09	2.931380e+00	-7.581096e+01
1.910000e-06	4.735629e-07	-1.071328e-09	3.418401e+00	-7.144704e+01
1.920000e-06	5.410145e-07	-1.002629e-09	3.905299e+00	-6.703197e+01
1.930000e-06	6.083913e-07	-9.375994e-10	4.391657e+00	-6.256498e+01
1.940000e-06	6.756524e-07	-8.723411e-10	4.877179e+00	-5.804512e+01
1.950000e-06	7.429337e-07	-8.024473e-10	5.362847e+00	-5.347133e+01
1.960000e-06	8.101896e-07	-7.265514e-10	5.848333e+00	-4.884243e+01
1.970000e-06	8.772755e-07	-6.470325e-10	6.332590e+00	-4.415718e+01
1.980000e-06	9.443193e-07	-5.726014e-10	6.816544e+00	-3.941435e+01
1.990000e-06	1.011276e-06	-5.049075e-10	7.299870e+00	-3.461273e+01
2.000000e-06	1.078094e-06	-4.346828e-10	7.782190e+00	-2.975120e+01
2.010000e-06	1.144894e-06	-3.582443e-10	8.264391e+00	-2.482884e+01
2.020000e-06	1.211612e-06	-2.835070e-10	8.745986e+00	-1.984493e+01
2.030000e-06	1.278263e-06	-2.142483e-10	9.227107e+00	-1.479907e+01
2.040000e-06	1.344797e-06	-1.403204e-10	9.707380e+00	-9.691223e+00
2.050000e-06	1.411145e-06	-5.579476e-11	1.018631e+01	-4.521806e+00
2.060000e-06	1.477382e-06	2.955557e-11	1.066445e+01	7.082768e-01
2.070000e-06	1.543573e-06	1.105275e-10	1.114224e+01	5.997564e+00
2.080000e-06	1.609649e-06	1.910685e-10	1.161921e+01	1.134399e+01
2.090000e-06	1.675467e-06	2.759536e-10	1.209431e+01	1.674487e+01
2.100000e-06	1.741061e-06	3.628040e-10	1.256781e+01	2.219684e+01
2.110000e-06	1.806494e-06	4.452119e-10	1.304013e+01	2.769587e+01
2.120000e-06	1.871753e-06	5.234052e-10	1.351120e+01	3.323728e+01
2.130000e-06	1.936858e-06	6.054976e-10	1.398116e+01	3.881572e+01
2.140000e-06	2.001808e-06	6.917487e-10	1.445000e+01	4.442524e+01
2.150000e-06	2.066531e-06	7.785075e-10	1.491720e+01	5.005931e+01
2.160000e-06	2.131137e-06	8.647444e-10	1.538355e+01	5.571090e+01
2.170000e-06	2.195652e-06	9.513602e-10	1.584926e+01	6.137254e+01
2.180000e-06	2.260007e-06	1.040810e-09	1.631380e+01	6.703641e+01
2.190000e-06	2.324202e-06	1.131897e-09	1.677719e+01	7.269442e+01
2.200000e-06	2.388261e-06	1.217544e-09	1.723960e+01	7.833834e+01
2.210000e-06	2.452178e-06	1.300152e-09	1.770099e+01	8.395989e+01
2.220000e-06	2.515910e-06	1.382280e-09	1.816103e+01	8.955083e+01
2.230000e-06	2.579429e-06	1.466157e-09	1.861954e+01	9.510310e+01
2.240000e-06	2.642720e-06	1.549928e-09	1.907641e+01	1.006089e+02
2.250000e-06	2.705899e-06	1.630836e-09	1.953246e+01	1.060609e+02
2.260000e-06	2.768908e-06	1.711067e-09	1.998729e+01	1.114521e+02
2.270000e-06	2.831706e-06	1.792946e-09	2.044059e+01	1.167761e+02
2.280000e-06	2.894394e-06	1.875032e-09	2.089310e+01	1.220273e+02
2.290000e-06	2.957010e-06	1.955045e-09	2.134510e+01	1.272006e+02
2.300000e-06	3.019438e-06	2.032551e-09	2.179573e+01	1.322916e+02
2.310000e-06	3.081616e-06	2.107849e-09	2.224456e+01	1.372970e+02
2.320000e-06	3.143582e-06	2.183857e-09	2.269186e+01	1.422139e+02
2.330000e-06	3.205351e-06	2.258012e-09	2.313774e+01	1.470404e+02
2.340000e-06	3.266970e-06	2.330325e-09	2.358254e+01	1.517755e+02
2.350000e-06	3.328278e-06	2.399918e-09	2.402509e+01	1.564186e+02
2.360000e-06	3.389282e-06	2.469394e-09	2.446544e+01	1.609702e+02
2.370000e-06	3.450151e-06	2.538567e-09	2.490483e+01	1.654309e+02
2.380000e-06	3.510840e-06	2.603910e-09	2.534291e+01	1.698025e+02
2.390000e-06	3.571276e-06	2.668033e-09	2.577916e+01	1.740868e+02
2.400000e-06	3.631443e-06	2.729188e-09	2.621348e+01	1.782861e+02
2.410000e-06	3.691418e-06	2.789796e-09	2.664640e+01	1.824033e+02
2.420000e-06	3.751244e-06	2.848867e-09	2.707826e+01	1.864411e+02
2.430000e-06	3.810779e-06	2.905482e-09	2.750801e+01	1.904025e+02
2.440000e-06	3.870039e-06	2.957886e-09	2.793577e+01	1.942907e+02
2.450000e-06	3.929033e-06	3.009551e-09	2.836162e+01	1.981085e+02
2.460000e-06	3.987740e-06	3.063109e-09	2.878540e+01	2.018588e+02
2.470000e-06	4.046025e-06	3.116664e-09	2.920612e+01	2.055444e+02
2.480000e-06	4.103757e-06	3.170411e-09	2.962286e+01	2.091675e+02
2.490000e-06	4.161132e-06	3.224397e-09	3.003702e+01	2.127304e+02
2.500000e-06	4.218084e-06	3.277401e-09	3.044813e+01	2.162347e+02
2.510000e-06	4.274632e-06	3.332436e-09	3.085632e+01	2.196820e+02
2.520000e-06	4.330906e-06	3.384229e-09	3.126253e+01	2.230733e+02
2.530000e-06	4.386901e-06	3.430642e-09	3.166673e+01	2.264094e+02
2.540000e-06	4.442624e-06	3.475823e-09	3.206897e+01	2.296907e+02
2.550000e-06	4.498030e-06	3.522443e-09	3.246891e+01	2.329173e+02
2.560000e-06	4.553191e-06	3.569691e-09	3.286709e+01	2.360891e+02
2.570000e-06	4.608057e-06	3.613845e-09	3.326314e+01	2.392058e+02
2.580000e-06	4.662587e-06	3.655421e-09	3.365676e+01	2.422668e+02
2.590000e-06	4.716965e-06	3.697387e-09	3.404929e+01	2.452717e+02
2.600000e-06	4.771132e-06	3.744429e-09	3.444029e+01	2.482198e+02
2.610000e-06	4.824889e-06	3.787958e-09	3.482833e+01	2.511105e+02
2.620000e-06	4.878260e-06	3.827326e-09	3.521359e+01	2.539434e+02
2.630000e-06	4.931245e-06	3.866225e-09	3.559606e+01	2.567179e+02
2.640000e-06	4.983871e-06	3.903969e-09	3.597594e+01	2.594341e+02
2.650000e-06	5.036157e-06	3.942243e-09	3.635337e+01	2.620918e+02
2.660000e-06	5.088046e-06	3.978832e-09	3.672792e+01	2.646913e+02
2.670000e-06	5.139383e-06	4.015608e-09	3.709850e+01	2.672331e+02
2.680000e-06	5.190183e-06	4.053697e-09	3.746520e+01	2.697181e+02
2.690000e-06	5.240463e-06	4.089219e-09	3.782814e+01	2.721472e+02
2.700000e-06	5.290216e-06	4.123557e-09	3.818728e+01	2.745218e+02
2.710000e-06	5.339510e-06	4.157673e-09	3.854311e+01	2.768434e+02
2.720000e-06	5.388261e-06	4.193129e-09	3.889502e+01	2.791137e+02
2.730000e-06	5.436632e-06	4.228175e-09	3.924419e+01	2.813347e+02
2.740000e-06	5.484707e-06	4.260549e-09	3.959121e+01	2.835083e+02
2.750000e-06	5.532417e-06	4.292391e-09	3.993561e+01	2.856365e+02
2.760000e-06	5.579759e-06	4.324332e-09	4.027734e+01	2.877216e+02
2.770000e-06	5.626718e-06	4.356052e-09	4.061632e+01	2.897655e+02
2.780000e-06	5.673221e-06	4.388642e-09	4.095199e+01	2.917703e+02
2.790000e-06	5.719326e-06	4.421375e-09	4.128481e+01	2.937377e+02
2.800000e-06	5.765046e-06	4.452846e-09	4.161483e+01	2.956693e+02
2.810000e-06	5.810290e-06	4.482160e-09	4.194142e+01	2.975667e+02
2.820000e-06	5.855185e-06	4.509880e-09	4.226550e+01	2.994309e+02
2.830000e-06	5.899770e-06	4.534696e-09	4.258734e+01	3.012630e+02
2.840000e-06	5.944028e-06	4.560378e-09	4.290681e+01	3.030634e+02
2.850000e-06	5.987978e-06	4.588644e-09	4.322406e+01	3.048326e+02
2.860000e-06	6.031650e-06	4.616664e-09	4.353930e+01	3.065706e+02
2.870000e-06	6.074999e-06	4.642121e-09	4.385222e+01	3.082772e+02
2.880000e-06	6.117838e-06	4.665311e-09	4.416145e+01	3.099521e+02
2.890000e-06	6.159990e-06	4.689328e-09	4.446572e+01	3.115945e+02
2.900000e-06	6.201462e-06	4.714493e-09	4.476509e+01	3.132037e+02
