# Temperatura_=_20.0
# Concentracion g/m^3_=_12600.0
# C_Vs_to_Am_M_A/Vsm_=_65563218390.804596
# pendiente_HvsI_1/m_=_3716.3
# ordenada_HvsI_A/m_=_1297.0
# frecuencia_Hz_=_135505.9256865878

Tiempo_(s)	Campo_(V.s)	Magnetizacion_(V.s)	Campo_(kA/m)	Magnetizacion_(A/m)
0.000000e+00	-7.861310e-06	-5.278816e-10	-5.703981e+01	-2.949532e+01
1.000000e-08	-7.861276e-06	-5.299269e-10	-5.703956e+01	-2.998947e+01
2.000000e-08	-7.860717e-06	-5.369005e-10	-5.703551e+01	-3.051244e+01
3.000000e-08	-7.859564e-06	-5.411676e-10	-5.702715e+01	-3.104937e+01
4.000000e-08	-7.857772e-06	-5.427116e-10	-5.701414e+01	-3.158376e+01
5.000000e-08	-7.855125e-06	-5.431194e-10	-5.699494e+01	-3.209783e+01
6.000000e-08	-7.851775e-06	-5.352028e-10	-5.697063e+01	-3.257294e+01
7.000000e-08	-7.848006e-06	-5.087353e-10	-5.694328e+01	-3.299002e+01
8.000000e-08	-7.843895e-06	-4.951442e-10	-5.691346e+01	-3.332999e+01
9.000000e-08	-7.839221e-06	-5.684148e-10	-5.687954e+01	-3.357425e+01
1.000000e-07	-7.833634e-06	-6.514593e-10	-5.683900e+01	-3.370517e+01
1.100000e-07	-7.827131e-06	-6.435714e-10	-5.679182e+01	-3.370653e+01
1.200000e-07	-7.819912e-06	-4.357712e-10	-5.673944e+01	-3.356395e+01
1.300000e-07	-7.812330e-06	-2.865029e-10	-5.668443e+01	-3.326532e+01
1.400000e-07	-7.804619e-06	-5.604548e-10	-5.662848e+01	-3.280112e+01
1.500000e-07	-7.796618e-06	-7.735030e-10	-5.657042e+01	-3.216474e+01
1.600000e-07	-7.788241e-06	-5.082200e-10	-5.650964e+01	-3.135272e+01
1.700000e-07	-7.779500e-06	-4.047557e-10	-5.644622e+01	-3.036488e+01
1.800000e-07	-7.769782e-06	-5.119146e-10	-5.637571e+01	-2.920444e+01
1.900000e-07	-7.758859e-06	-5.104592e-10	-5.629645e+01	-2.787799e+01
2.000000e-07	-7.747418e-06	-6.094920e-10	-5.621344e+01	-2.639544e+01
2.100000e-07	-7.735724e-06	-6.590252e-10	-5.612859e+01	-2.476983e+01
2.200000e-07	-7.723231e-06	-4.255649e-10	-5.603795e+01	-2.301712e+01
2.300000e-07	-7.709895e-06	-3.680382e-10	-5.594118e+01	-2.115586e+01
2.400000e-07	-7.696337e-06	-6.790271e-10	-5.584281e+01	-1.920683e+01
2.500000e-07	-7.682334e-06	-5.302928e-10	-5.574121e+01	-1.719262e+01
2.600000e-07	-7.667111e-06	1.241565e-11	-5.563075e+01	-1.513714e+01
2.700000e-07	-7.650866e-06	-1.322728e-11	-5.551288e+01	-1.306509e+01
2.800000e-07	-7.634265e-06	-3.652983e-10	-5.539243e+01	-1.100150e+01
2.900000e-07	-7.617249e-06	-1.542187e-10	-5.526897e+01	-8.971151e+00
3.000000e-07	-7.599700e-06	1.634461e-10	-5.514163e+01	-6.998030e+00
3.100000e-07	-7.581617e-06	1.007891e-10	-5.501043e+01	-5.104864e+00
3.200000e-07	-7.562962e-06	1.032779e-10	-5.487507e+01	-3.312620e+00
3.300000e-07	-7.543728e-06	2.317309e-10	-5.473551e+01	-1.640075e+00
3.400000e-07	-7.524064e-06	1.422207e-11	-5.459283e+01	-1.034418e-01
3.500000e-07	-7.504146e-06	-1.197960e-11	-5.444831e+01	1.283947e+00
3.600000e-07	-7.483832e-06	3.168887e-10	-5.430092e+01	2.511880e+00
3.700000e-07	-7.463013e-06	2.755088e-10	-5.414986e+01	3.573432e+00
3.800000e-07	-7.441760e-06	-8.105291e-12	-5.399566e+01	4.465054e+00
3.900000e-07	-7.419976e-06	-7.899390e-12	-5.383760e+01	5.186568e+00
4.000000e-07	-7.397635e-06	1.740776e-10	-5.367550e+01	5.741097e+00
4.100000e-07	-7.374665e-06	2.686698e-10	-5.350884e+01	6.134906e+00
4.200000e-07	-7.351156e-06	1.649941e-10	-5.333825e+01	6.377173e+00
4.300000e-07	-7.327360e-06	-3.674096e-11	-5.316560e+01	6.479699e+00
4.400000e-07	-7.303122e-06	6.545035e-11	-5.298973e+01	6.456551e+00
4.500000e-07	-7.278232e-06	2.868201e-10	-5.280913e+01	6.323666e+00
4.600000e-07	-7.252573e-06	2.273719e-10	-5.262296e+01	6.098413e+00
4.700000e-07	-7.226225e-06	7.110191e-11	-5.243178e+01	5.799137e+00
4.800000e-07	-7.199217e-06	7.746521e-11	-5.223582e+01	5.444682e+00
4.900000e-07	-7.171629e-06	1.187018e-10	-5.203565e+01	5.053923e+00
5.000000e-07	-7.143676e-06	2.064489e-10	-5.183283e+01	4.645306e+00
5.100000e-07	-7.115432e-06	2.305322e-10	-5.162790e+01	4.236417e+00
5.200000e-07	-7.086711e-06	9.043251e-11	-5.141950e+01	3.843579e+00
5.300000e-07	-7.057469e-06	2.426018e-11	-5.120733e+01	3.481504e+00
5.400000e-07	-7.027674e-06	1.753848e-10	-5.099115e+01	3.162991e+00
5.500000e-07	-6.997282e-06	2.558868e-10	-5.077063e+01	2.898687e+00
5.600000e-07	-6.966419e-06	1.504435e-10	-5.054670e+01	2.696919e+00
5.700000e-07	-6.935179e-06	5.027879e-11	-5.032002e+01	2.563579e+00
5.800000e-07	-6.903580e-06	1.158719e-10	-5.009075e+01	2.502097e+00
5.900000e-07	-6.871632e-06	2.316235e-10	-4.985894e+01	2.513469e+00
6.000000e-07	-6.839277e-06	2.096206e-10	-4.962418e+01	2.596357e+00
6.100000e-07	-6.806416e-06	1.033104e-10	-4.938575e+01	2.747243e+00
6.200000e-07	-6.772927e-06	1.043630e-10	-4.914276e+01	2.960649e+00
6.300000e-07	-6.738526e-06	1.845468e-10	-4.889316e+01	3.229392e+00
6.400000e-07	-6.703461e-06	2.002973e-10	-4.863874e+01	3.544887e+00
6.500000e-07	-6.668070e-06	1.624758e-10	-4.838195e+01	3.897468e+00
6.600000e-07	-6.632269e-06	1.316917e-10	-4.812218e+01	4.276742e+00
6.700000e-07	-6.596023e-06	1.369801e-10	-4.785919e+01	4.671933e+00
6.800000e-07	-6.559431e-06	1.751256e-10	-4.759369e+01	5.072241e+00
6.900000e-07	-6.522367e-06	1.915010e-10	-4.732476e+01	5.467173e+00
7.000000e-07	-6.484781e-06	1.520099e-10	-4.705204e+01	5.846862e+00
7.100000e-07	-6.446760e-06	1.325463e-10	-4.677617e+01	6.202349e+00
7.200000e-07	-6.408222e-06	1.661814e-10	-4.649655e+01	6.525831e+00
7.300000e-07	-6.369288e-06	1.860340e-10	-4.621406e+01	6.810859e+00
7.400000e-07	-6.330038e-06	1.638451e-10	-4.592927e+01	7.052491e+00
7.500000e-07	-6.290439e-06	1.554044e-10	-4.564194e+01	7.247391e+00
7.600000e-07	-6.250478e-06	1.698867e-10	-4.535199e+01	7.393875e+00
7.700000e-07	-6.210136e-06	1.872994e-10	-4.505928e+01	7.491901e+00
7.800000e-07	-6.169357e-06	1.796737e-10	-4.476340e+01	7.543010e+00
7.900000e-07	-6.127955e-06	1.720748e-10	-4.446300e+01	7.550219e+00
8.000000e-07	-6.085881e-06	1.822168e-10	-4.415772e+01	7.517867e+00
8.100000e-07	-6.043151e-06	2.037978e-10	-4.384768e+01	7.451429e+00
8.200000e-07	-5.999913e-06	1.956746e-10	-4.353395e+01	7.357292e+00
8.300000e-07	-5.956258e-06	1.693518e-10	-4.321720e+01	7.242519e+00
8.400000e-07	-5.912227e-06	1.699517e-10	-4.289773e+01	7.114587e+00
8.500000e-07	-5.867843e-06	1.970415e-10	-4.257569e+01	6.981128e+00
8.600000e-07	-5.823071e-06	1.990870e-10	-4.225083e+01	6.849671e+00
8.700000e-07	-5.777851e-06	1.692768e-10	-4.192272e+01	6.727390e+00
8.800000e-07	-5.732266e-06	1.568422e-10	-4.159197e+01	6.620876e+00
8.900000e-07	-5.686400e-06	1.869048e-10	-4.125918e+01	6.535936e+00
9.000000e-07	-5.640100e-06	2.108738e-10	-4.092324e+01	6.477416e+00
9.100000e-07	-5.593358e-06	1.977022e-10	-4.058409e+01	6.449069e+00
9.200000e-07	-5.546181e-06	1.743510e-10	-4.024178e+01	6.453456e+00
9.300000e-07	-5.498669e-06	1.810586e-10	-3.989704e+01	6.491896e+00
9.400000e-07	-5.450731e-06	2.072857e-10	-3.954922e+01	6.564450e+00
9.500000e-07	-5.402298e-06	2.047283e-10	-3.919780e+01	6.669960e+00
9.600000e-07	-5.353520e-06	1.758655e-10	-3.884388e+01	6.806111e+00
9.700000e-07	-5.304396e-06	1.648601e-10	-3.848745e+01	6.969549e+00
9.800000e-07	-5.254699e-06	1.869831e-10	-3.812686e+01	7.156018e+00
9.900000e-07	-5.204446e-06	2.058462e-10	-3.776223e+01	7.360529e+00
1.000000e-06	-5.153595e-06	1.998183e-10	-3.739327e+01	7.577554e+00
1.010000e-06	-5.102062e-06	1.853864e-10	-3.701936e+01	7.801224e+00
1.020000e-06	-5.050194e-06	1.876004e-10	-3.664302e+01	8.025550e+00
1.030000e-06	-4.998011e-06	1.972960e-10	-3.626439e+01	8.244630e+00
1.040000e-06	-4.945469e-06	1.977783e-10	-3.588316e+01	8.452855e+00
1.050000e-06	-4.892631e-06	1.840282e-10	-3.549978e+01	8.645104e+00
1.060000e-06	-4.839537e-06	1.744608e-10	-3.511454e+01	8.816917e+00
1.070000e-06	-4.786033e-06	1.791837e-10	-3.472633e+01	8.964639e+00
1.080000e-06	-4.732073e-06	1.899949e-10	-3.433481e+01	9.085544e+00
1.090000e-06	-4.677723e-06	1.914018e-10	-3.394045e+01	9.177913e+00
1.100000e-06	-4.623025e-06	1.914745e-10	-3.354358e+01	9.241091e+00
1.110000e-06	-4.568100e-06	1.930125e-10	-3.314506e+01	9.275494e+00
1.120000e-06	-4.512946e-06	1.943455e-10	-3.274487e+01	9.282590e+00
1.130000e-06	-4.457411e-06	1.949264e-10	-3.234193e+01	9.264837e+00
1.140000e-06	-4.401510e-06	1.975774e-10	-3.193632e+01	9.225597e+00
1.150000e-06	-4.345390e-06	1.992069e-10	-3.152912e+01	9.169009e+00
1.160000e-06	-4.289082e-06	1.966456e-10	-3.112057e+01	9.099846e+00
1.170000e-06	-4.232544e-06	1.965389e-10	-3.071034e+01	9.023353e+00
1.180000e-06	-4.175710e-06	2.008559e-10	-3.029796e+01	8.945063e+00
1.190000e-06	-4.118612e-06	2.021179e-10	-2.988368e+01	8.870611e+00
1.200000e-06	-4.061187e-06	1.986079e-10	-2.946702e+01	8.805549e+00
1.210000e-06	-4.003366e-06	1.942594e-10	-2.904748e+01	8.755154e+00
1.220000e-06	-3.945127e-06	1.942680e-10	-2.862491e+01	8.724262e+00
1.230000e-06	-3.886386e-06	2.006687e-10	-2.819870e+01	8.717107e+00
1.240000e-06	-3.827270e-06	2.064683e-10	-2.776977e+01	8.737185e+00
1.250000e-06	-3.767848e-06	2.105157e-10	-2.733862e+01	8.787146e+00
1.260000e-06	-3.708150e-06	2.120190e-10	-2.690546e+01	8.868709e+00
1.270000e-06	-3.648254e-06	2.130788e-10	-2.647087e+01	8.982617e+00
1.280000e-06	-3.588017e-06	2.183600e-10	-2.603381e+01	9.128616e+00
1.290000e-06	-3.527628e-06	2.224093e-10	-2.559564e+01	9.305471e+00
1.300000e-06	-3.467237e-06	2.194574e-10	-2.515745e+01	9.511015e+00
1.310000e-06	-3.406680e-06	2.139295e-10	-2.471807e+01	9.742227e+00
1.320000e-06	-3.345953e-06	2.122927e-10	-2.427744e+01	9.995336e+00
1.330000e-06	-3.285004e-06	2.148451e-10	-2.383522e+01	1.026595e+01
1.340000e-06	-3.223794e-06	2.177025e-10	-2.339109e+01	1.054920e+01
1.350000e-06	-3.162290e-06	2.196844e-10	-2.294483e+01	1.083992e+01
1.360000e-06	-3.100486e-06	2.193499e-10	-2.249639e+01	1.113278e+01
1.370000e-06	-3.038389e-06	2.193033e-10	-2.204583e+01	1.142251e+01
1.380000e-06	-2.976023e-06	2.240803e-10	-2.159332e+01	1.170402e+01
1.390000e-06	-2.913539e-06	2.299927e-10	-2.113995e+01	1.197258e+01
1.400000e-06	-2.850956e-06	2.301606e-10	-2.068587e+01	1.222401e+01
1.410000e-06	-2.788300e-06	2.250570e-10	-2.023125e+01	1.245473e+01
1.420000e-06	-2.725484e-06	2.236105e-10	-1.977547e+01	1.266193e+01
1.430000e-06	-2.662478e-06	2.282596e-10	-1.931831e+01	1.284362e+01
1.440000e-06	-2.599330e-06	2.311714e-10	-1.886013e+01	1.299872e+01
1.450000e-06	-2.535988e-06	2.272624e-10	-1.840053e+01	1.312703e+01
1.460000e-06	-2.472428e-06	2.239484e-10	-1.793936e+01	1.322926e+01
1.470000e-06	-2.408661e-06	2.282065e-10	-1.747668e+01	1.330698e+01
1.480000e-06	-2.344754e-06	2.352779e-10	-1.701298e+01	1.336258e+01
1.490000e-06	-2.280688e-06	2.357563e-10	-1.654814e+01	1.339913e+01
1.500000e-06	-2.216504e-06	2.296058e-10	-1.608243e+01	1.342032e+01
1.510000e-06	-2.152158e-06	2.282960e-10	-1.561555e+01	1.343031e+01
1.520000e-06	-2.087577e-06	2.339601e-10	-1.514696e+01	1.343356e+01
1.530000e-06	-2.022881e-06	2.389832e-10	-1.467754e+01	1.343471e+01
1.540000e-06	-1.958093e-06	2.365960e-10	-1.420746e+01	1.343841e+01
1.550000e-06	-1.893211e-06	2.342970e-10	-1.373669e+01	1.344916e+01
1.560000e-06	-1.828172e-06	2.368360e-10	-1.326478e+01	1.347116e+01
1.570000e-06	-1.763006e-06	2.437745e-10	-1.279196e+01	1.350816e+01
1.580000e-06	-1.697781e-06	2.487153e-10	-1.231870e+01	1.356339e+01
1.590000e-06	-1.632515e-06	2.469666e-10	-1.184515e+01	1.363937e+01
1.600000e-06	-1.567115e-06	2.405345e-10	-1.137062e+01	1.373790e+01
1.610000e-06	-1.501454e-06	2.376413e-10	-1.089420e+01	1.386000e+01
1.620000e-06	-1.435527e-06	2.400176e-10	-1.041585e+01	1.400585e+01
1.630000e-06	-1.369451e-06	2.430098e-10	-9.936413e+00	1.417479e+01
1.640000e-06	-1.303265e-06	2.411123e-10	-9.456183e+00	1.436539e+01
1.650000e-06	-1.236932e-06	2.387150e-10	-8.974887e+00	1.457548e+01
1.660000e-06	-1.170488e-06	2.413393e-10	-8.492782e+00	1.480222e+01
1.670000e-06	-1.103962e-06	2.464274e-10	-8.010090e+00	1.504221e+01
1.680000e-06	-1.037319e-06	2.494257e-10	-7.526546e+00	1.529161e+01
1.690000e-06	-9.705539e-07	2.480142e-10	-7.042111e+00	1.554626e+01
1.700000e-06	-9.037150e-07	2.458826e-10	-6.557143e+00	1.580184e+01
1.710000e-06	-8.369267e-07	2.446763e-10	-6.072543e+00	1.605400e+01
1.720000e-06	-7.700848e-07	2.449570e-10	-5.587554e+00	1.629852e+01
1.730000e-06	-7.030372e-07	2.464763e-10	-5.101072e+00	1.653141e+01
1.740000e-06	-6.360065e-07	2.457066e-10	-4.614713e+00	1.674911e+01
1.750000e-06	-5.689125e-07	2.464066e-10	-4.127895e+00	1.694853e+01
1.760000e-06	-5.016764e-07	2.533708e-10	-3.640046e+00	1.712721e+01
1.770000e-06	-4.345138e-07	2.593284e-10	-3.152729e+00	1.728335e+01
1.780000e-06	-3.674216e-07	2.613691e-10	-2.665925e+00	1.741591e+01
1.790000e-06	-3.002781e-07	2.555763e-10	-2.178747e+00	1.752458e+01
1.800000e-06	-2.329613e-07	2.524216e-10	-1.690313e+00	1.760985e+01
1.810000e-06	-1.655550e-07	2.523100e-10	-1.201228e+00	1.767293e+01
1.820000e-06	-9.815856e-08	2.542312e-10	-7.122154e-01	1.771574e+01
1.830000e-06	-3.078796e-08	2.573080e-10	-2.233902e-01	1.774082e+01
1.840000e-06	3.648383e-08	2.586942e-10	2.647180e-01	1.775126e+01
1.850000e-06	1.037987e-07	2.588867e-10	7.531389e-01	1.775057e+01
1.860000e-06	1.710248e-07	2.654739e-10	1.240916e+00	1.774258e+01
1.870000e-06	2.381527e-07	2.753203e-10	1.727980e+00	1.773130e+01
1.880000e-06	3.054110e-07	2.812879e-10	2.215990e+00	1.772079e+01
1.890000e-06	3.726663e-07	2.800194e-10	2.703979e+00	1.771501e+01
1.900000e-06	4.398805e-07	2.773672e-10	3.191669e+00	1.771773e+01
1.910000e-06	5.070969e-07	2.775787e-10	3.679375e+00	1.773236e+01
1.920000e-06	5.742053e-07	2.785923e-10	4.166298e+00	1.776188e+01
1.930000e-06	6.412437e-07	2.764817e-10	4.652713e+00	1.780874e+01
1.940000e-06	7.082510e-07	2.723031e-10	5.138902e+00	1.787476e+01
1.950000e-06	7.751598e-07	2.742071e-10	5.624377e+00	1.796112e+01
1.960000e-06	8.419698e-07	2.806440e-10	6.109135e+00	1.806830e+01
1.970000e-06	9.087503e-07	2.881417e-10	6.593678e+00	1.819609e+01
1.980000e-06	9.754110e-07	2.908623e-10	7.077352e+00	1.834361e+01
1.990000e-06	1.041877e-06	2.907776e-10	7.559613e+00	1.850935e+01
2.000000e-06	1.108214e-06	2.890840e-10	8.040941e+00	1.869121e+01
2.010000e-06	1.174406e-06	2.881869e-10	8.521211e+00	1.888663e+01
2.020000e-06	1.240537e-06	2.866207e-10	9.001041e+00	1.909264e+01
2.030000e-06	1.306601e-06	2.857784e-10	9.480390e+00	1.930599e+01
2.040000e-06	1.372616e-06	2.879249e-10	9.959375e+00	1.952329e+01
2.050000e-06	1.438531e-06	2.927181e-10	1.043764e+01	1.974109e+01
2.060000e-06	1.504330e-06	2.967938e-10	1.091506e+01	1.995601e+01
2.070000e-06	1.570073e-06	3.016204e-10	1.139208e+01	2.016488e+01
2.080000e-06	1.635568e-06	3.061513e-10	1.186730e+01	2.036486e+01
2.090000e-06	1.700884e-06	3.099691e-10	1.234121e+01	2.055347e+01
2.100000e-06	1.766124e-06	3.101542e-10	1.281458e+01	2.072874e+01
2.110000e-06	1.831194e-06	3.066003e-10	1.328671e+01	2.088925e+01
2.120000e-06	1.896053e-06	3.034817e-10	1.375731e+01	2.103417e+01
2.130000e-06	1.960762e-06	3.009622e-10	1.422682e+01	2.116327e+01
2.140000e-06	2.025406e-06	2.968654e-10	1.469587e+01	2.127694e+01
2.150000e-06	2.089934e-06	2.958783e-10	1.516407e+01	2.137615e+01
2.160000e-06	2.154286e-06	3.019942e-10	1.563099e+01	2.146241e+01
2.170000e-06	2.218509e-06	3.094312e-10	1.609698e+01	2.153773e+01
2.180000e-06	2.282647e-06	3.133448e-10	1.656235e+01	2.160447e+01
2.190000e-06	2.346635e-06	3.152210e-10	1.702663e+01	2.166535e+01
2.200000e-06	2.410431e-06	3.152280e-10	1.748952e+01	2.172322e+01
2.210000e-06	2.474000e-06	3.131321e-10	1.795076e+01	2.178105e+01
2.220000e-06	2.537337e-06	3.108176e-10	1.841032e+01	2.184177e+01
2.230000e-06	2.600534e-06	3.110341e-10	1.886886e+01	2.190815e+01
2.240000e-06	2.663598e-06	3.124515e-10	1.932644e+01	2.198270e+01
2.250000e-06	2.726560e-06	3.133971e-10	1.978328e+01	2.206758e+01
2.260000e-06	2.789305e-06	3.166819e-10	2.023854e+01	2.216450e+01
2.270000e-06	2.851804e-06	3.206494e-10	2.069202e+01	2.227465e+01
2.280000e-06	2.914235e-06	3.249606e-10	2.114500e+01	2.239865e+01
2.290000e-06	2.976443e-06	3.305948e-10	2.159637e+01	2.253654e+01
2.300000e-06	3.038423e-06	3.342727e-10	2.204608e+01	2.268773e+01
2.310000e-06	3.100279e-06	3.343255e-10	2.249489e+01	2.285105e+01
2.320000e-06	3.161835e-06	3.349236e-10	2.294153e+01	2.302477e+01
2.330000e-06	3.223121e-06	3.356454e-10	2.338621e+01	2.320667e+01
2.340000e-06	3.284293e-06	3.356562e-10	2.383006e+01	2.339408e+01
2.350000e-06	3.345228e-06	3.351235e-10	2.427219e+01	2.358400e+01
2.360000e-06	3.405967e-06	3.367600e-10	2.471289e+01	2.377323e+01
2.370000e-06	3.466523e-06	3.388875e-10	2.515227e+01	2.395843e+01
2.380000e-06	3.526784e-06	3.405945e-10	2.558952e+01	2.413625e+01
2.390000e-06	3.586876e-06	3.425723e-10	2.602552e+01	2.430352e+01
2.400000e-06	3.646884e-06	3.451509e-10	2.646093e+01	2.445725e+01
2.410000e-06	3.706644e-06	3.458454e-10	2.689454e+01	2.459487e+01
2.420000e-06	3.766094e-06	3.423959e-10	2.732589e+01	2.471422e+01
2.430000e-06	3.825297e-06	3.385537e-10	2.775546e+01	2.481370e+01
2.440000e-06	3.884145e-06	3.366410e-10	2.818244e+01	2.489233e+01
2.450000e-06	3.942653e-06	3.364076e-10	2.860696e+01	2.494978e+01
2.460000e-06	4.000762e-06	3.352303e-10	2.902859e+01	2.498640e+01
2.470000e-06	4.058464e-06	3.353984e-10	2.944726e+01	2.500323e+01
2.480000e-06	4.115780e-06	3.395516e-10	2.986313e+01	2.500195e+01
2.490000e-06	4.172724e-06	3.470525e-10	3.027630e+01	2.498488e+01
2.500000e-06	4.229344e-06	3.537328e-10	3.068712e+01	2.495486e+01
2.510000e-06	4.285601e-06	3.551697e-10	3.109531e+01	2.491522e+01
2.520000e-06	4.341617e-06	3.563906e-10	3.150175e+01	2.486961e+01
2.530000e-06	4.397370e-06	3.600428e-10	3.190628e+01	2.482192e+01
2.540000e-06	4.452819e-06	3.614695e-10	3.230861e+01	2.477616e+01
2.550000e-06	4.507955e-06	3.600145e-10	3.270866e+01	2.473629e+01
2.560000e-06	4.562826e-06	3.583248e-10	3.310679e+01	2.470611e+01
2.570000e-06	4.617395e-06	3.601494e-10	3.350273e+01	2.468914e+01
2.580000e-06	4.671716e-06	3.639766e-10	3.389687e+01	2.468845e+01
2.590000e-06	4.725779e-06	3.668465e-10	3.428914e+01	2.470661e+01
2.600000e-06	4.779440e-06	3.696211e-10	3.467849e+01	2.474554e+01
2.610000e-06	4.832793e-06	3.715267e-10	3.506561e+01	2.480648e+01
2.620000e-06	4.885815e-06	3.727873e-10	3.545032e+01	2.488991e+01
2.630000e-06	4.938426e-06	3.740906e-10	3.583206e+01	2.499556e+01
2.640000e-06	4.990585e-06	3.727831e-10	3.621051e+01	2.512234e+01
2.650000e-06	5.042373e-06	3.705047e-10	3.658627e+01	2.526845e+01
2.660000e-06	5.093714e-06	3.700263e-10	3.695879e+01	2.543137e+01
2.670000e-06	5.144476e-06	3.734636e-10	3.732711e+01	2.560797e+01
2.680000e-06	5.194607e-06	3.776910e-10	3.769085e+01	2.579459e+01
2.690000e-06	5.244232e-06	3.803394e-10	3.805091e+01	2.598715e+01
2.700000e-06	5.293379e-06	3.820739e-10	3.840751e+01	2.618131e+01
2.710000e-06	5.342120e-06	3.841680e-10	3.876117e+01	2.637259e+01
2.720000e-06	5.390498e-06	3.871917e-10	3.911218e+01	2.655654e+01
2.730000e-06	5.438425e-06	3.868851e-10	3.945993e+01	2.672886e+01
2.740000e-06	5.485976e-06	3.830211e-10	3.980495e+01	2.688558e+01
2.750000e-06	5.533154e-06	3.805053e-10	4.014726e+01	2.702317e+01
2.760000e-06	5.580019e-06	3.806249e-10	4.048730e+01	2.713868e+01
2.770000e-06	5.626563e-06	3.814958e-10	4.082501e+01	2.722985e+01
2.780000e-06	5.672549e-06	3.867415e-10	4.115868e+01	2.729519e+01
2.790000e-06	5.718057e-06	3.887190e-10	4.148888e+01	2.733405e+01
2.800000e-06	5.763245e-06	3.860277e-10	4.181675e+01	2.734664e+01
2.810000e-06	5.808048e-06	3.852584e-10	4.214183e+01	2.733402e+01
2.820000e-06	5.852522e-06	3.869322e-10	4.246452e+01	2.729813e+01
2.830000e-06	5.896715e-06	3.869101e-10	4.278518e+01	2.724168e+01
2.840000e-06	5.940625e-06	3.842292e-10	4.310378e+01	2.716811e+01
2.850000e-06	5.984238e-06	3.815758e-10	4.342022e+01	2.708145e+01
2.860000e-06	6.027447e-06	3.807503e-10	4.373373e+01	2.698623e+01
2.870000e-06	6.070086e-06	3.811136e-10	4.404311e+01	2.688731e+01
2.880000e-06	6.112164e-06	3.801099e-10	4.434842e+01	2.678974e+01
2.890000e-06	6.153603e-06	3.806991e-10	4.464910e+01	2.669856e+01
2.900000e-06	6.194399e-06	3.811104e-10	4.494510e+01	2.661869e+01
2.910000e-06	6.234652e-06	3.838408e-10	4.523717e+01	2.655471e+01
2.920000e-06	6.274490e-06	3.854301e-10	4.552622e+01	2.651073e+01
2.930000e-06	6.313966e-06	3.846233e-10	4.581265e+01	2.649026e+01
2.940000e-06	6.353145e-06	3.824085e-10	4.609692e+01	2.649604e+01
2.950000e-06	6.392006e-06	3.828790e-10	4.637889e+01	2.652999e+01
