# Temperatura_=_20.0
# Concentracion g/m^3_=_12600.0
# C_Vs_to_Am_M_A/Vsm_=_65563218390.804596
# pendiente_HvsI_1/m_=_3716.3
# ordenada_HvsI_A/m_=_1297.0
# frecuencia_Hz_=_135503.15578751627

Tiempo_(s)	Campo_(V.s)	Magnetizacion_(V.s)	Campo_(kA/m)	Magnetizacion_(A/m)
0.000000e+00	-7.953109e-06	-5.585097e-09	-5.704178e+01	-3.604768e+02
1.000000e-08	-7.953111e-06	-5.578511e-09	-5.704180e+01	-3.604430e+02
2.000000e-08	-7.952734e-06	-5.575553e-09	-5.703909e+01	-3.603672e+02
3.000000e-08	-7.951865e-06	-5.577030e-09	-5.703286e+01	-3.602504e+02
4.000000e-08	-7.950272e-06	-5.579556e-09	-5.702144e+01	-3.600943e+02
5.000000e-08	-7.947687e-06	-5.578732e-09	-5.700289e+01	-3.599022e+02
6.000000e-08	-7.944322e-06	-5.574071e-09	-5.697876e+01	-3.596781e+02
7.000000e-08	-7.940498e-06	-5.563422e-09	-5.695133e+01	-3.594275e+02
8.000000e-08	-7.936362e-06	-5.553440e-09	-5.692167e+01	-3.591567e+02
9.000000e-08	-7.931844e-06	-5.557088e-09	-5.688927e+01	-3.588731e+02
1.000000e-07	-7.926579e-06	-5.589314e-09	-5.685150e+01	-3.585847e+02
1.100000e-07	-7.920307e-06	-5.637741e-09	-5.680652e+01	-3.583002e+02
1.200000e-07	-7.913157e-06	-5.625382e-09	-5.675524e+01	-3.580285e+02
1.300000e-07	-7.905485e-06	-5.465962e-09	-5.670021e+01	-3.577792e+02
1.400000e-07	-7.897620e-06	-5.396696e-09	-5.664380e+01	-3.575613e+02
1.500000e-07	-7.889602e-06	-5.556963e-09	-5.658630e+01	-3.573840e+02
1.600000e-07	-7.881209e-06	-5.609781e-09	-5.652610e+01	-3.572558e+02
1.700000e-07	-7.872258e-06	-5.541553e-09	-5.646190e+01	-3.571847e+02
1.800000e-07	-7.862573e-06	-5.476082e-09	-5.639244e+01	-3.571775e+02
1.900000e-07	-7.852039e-06	-5.447314e-09	-5.631688e+01	-3.572403e+02
2.000000e-07	-7.840655e-06	-5.378357e-09	-5.623523e+01	-3.573776e+02
2.100000e-07	-7.828692e-06	-5.431537e-09	-5.614943e+01	-3.575927e+02
2.200000e-07	-7.816350e-06	-5.671047e-09	-5.606091e+01	-3.578871e+02
2.300000e-07	-7.803249e-06	-5.678025e-09	-5.596695e+01	-3.582610e+02
2.400000e-07	-7.789393e-06	-5.450606e-09	-5.586757e+01	-3.587128e+02
2.500000e-07	-7.775159e-06	-5.418044e-09	-5.576548e+01	-3.592391e+02
2.600000e-07	-7.760242e-06	-5.657301e-09	-5.565849e+01	-3.598351e+02
2.700000e-07	-7.744140e-06	-5.776067e-09	-5.554300e+01	-3.604941e+02
2.800000e-07	-7.727351e-06	-5.621964e-09	-5.542259e+01	-3.612082e+02
2.900000e-07	-7.710331e-06	-5.547380e-09	-5.530052e+01	-3.619681e+02
3.000000e-07	-7.692783e-06	-5.633705e-09	-5.517466e+01	-3.627633e+02
3.100000e-07	-7.674624e-06	-5.640089e-09	-5.504442e+01	-3.635824e+02
3.200000e-07	-7.655900e-06	-5.677871e-09	-5.491012e+01	-3.644131e+02
3.300000e-07	-7.636661e-06	-5.609744e-09	-5.477214e+01	-3.652428e+02
3.400000e-07	-7.616993e-06	-5.461784e-09	-5.463107e+01	-3.660585e+02
3.500000e-07	-7.596982e-06	-5.561347e-09	-5.448755e+01	-3.668474e+02
3.600000e-07	-7.576615e-06	-5.722481e-09	-5.434147e+01	-3.675968e+02
3.700000e-07	-7.555741e-06	-5.672848e-09	-5.419175e+01	-3.682946e+02
3.800000e-07	-7.534307e-06	-5.556309e-09	-5.403802e+01	-3.689293e+02
3.900000e-07	-7.512343e-06	-5.513640e-09	-5.388049e+01	-3.694907e+02
4.000000e-07	-7.489892e-06	-5.587117e-09	-5.371947e+01	-3.699694e+02
4.100000e-07	-7.466847e-06	-5.673756e-09	-5.355419e+01	-3.703577e+02
4.200000e-07	-7.443259e-06	-5.620900e-09	-5.338501e+01	-3.706490e+02
4.300000e-07	-7.419284e-06	-5.489893e-09	-5.321305e+01	-3.708387e+02
4.400000e-07	-7.394896e-06	-5.464120e-09	-5.303813e+01	-3.709234e+02
4.500000e-07	-7.369916e-06	-5.505764e-09	-5.285897e+01	-3.709016e+02
4.600000e-07	-7.344149e-06	-5.546470e-09	-5.267416e+01	-3.707736e+02
4.700000e-07	-7.317674e-06	-5.558919e-09	-5.248428e+01	-3.705410e+02
4.800000e-07	-7.290564e-06	-5.477672e-09	-5.228984e+01	-3.702070e+02
4.900000e-07	-7.262919e-06	-5.421727e-09	-5.209156e+01	-3.697764e+02
5.000000e-07	-7.234929e-06	-5.488780e-09	-5.189081e+01	-3.692551e+02
5.100000e-07	-7.206497e-06	-5.551537e-09	-5.168689e+01	-3.686499e+02
5.200000e-07	-7.177526e-06	-5.507367e-09	-5.147910e+01	-3.679688e+02
5.300000e-07	-7.148018e-06	-5.442651e-09	-5.126746e+01	-3.672205e+02
5.400000e-07	-7.118065e-06	-5.420758e-09	-5.105263e+01	-3.664138e+02
5.500000e-07	-7.087686e-06	-5.449894e-09	-5.083475e+01	-3.655580e+02
5.600000e-07	-7.056673e-06	-5.481828e-09	-5.061231e+01	-3.646625e+02
5.700000e-07	-7.025145e-06	-5.477691e-09	-5.038618e+01	-3.637364e+02
5.800000e-07	-6.993359e-06	-5.410524e-09	-5.015820e+01	-3.627883e+02
5.900000e-07	-6.961281e-06	-5.354462e-09	-4.992813e+01	-3.618265e+02
6.000000e-07	-6.928759e-06	-5.366308e-09	-4.969487e+01	-3.608584e+02
6.100000e-07	-6.895553e-06	-5.427909e-09	-4.945671e+01	-3.598905e+02
6.200000e-07	-6.861558e-06	-5.427949e-09	-4.921290e+01	-3.589284e+02
6.300000e-07	-6.826856e-06	-5.328390e-09	-4.896400e+01	-3.579766e+02
6.400000e-07	-6.791574e-06	-5.255442e-09	-4.871095e+01	-3.570387e+02
6.500000e-07	-6.755911e-06	-5.310749e-09	-4.845517e+01	-3.561168e+02
6.600000e-07	-6.719918e-06	-5.390036e-09	-4.819701e+01	-3.552122e+02
6.700000e-07	-6.683495e-06	-5.356567e-09	-4.793578e+01	-3.543250e+02
6.800000e-07	-6.646610e-06	-5.241846e-09	-4.767123e+01	-3.534543e+02
6.900000e-07	-6.609186e-06	-5.201470e-09	-4.740281e+01	-3.525984e+02
7.000000e-07	-6.571190e-06	-5.281849e-09	-4.713030e+01	-3.517545e+02
7.100000e-07	-6.532694e-06	-5.342999e-09	-4.685419e+01	-3.509195e+02
7.200000e-07	-6.493739e-06	-5.268760e-09	-4.657480e+01	-3.500895e+02
7.300000e-07	-6.454419e-06	-5.151955e-09	-4.629279e+01	-3.492604e+02
7.400000e-07	-6.414836e-06	-5.153695e-09	-4.600889e+01	-3.484276e+02
7.500000e-07	-6.375021e-06	-5.236654e-09	-4.572332e+01	-3.475867e+02
7.600000e-07	-6.334758e-06	-5.245381e-09	-4.543454e+01	-3.467332e+02
7.700000e-07	-6.294007e-06	-5.149792e-09	-4.514227e+01	-3.458627e+02
7.800000e-07	-6.252739e-06	-5.078286e-09	-4.484629e+01	-3.449715e+02
7.900000e-07	-6.210742e-06	-5.104530e-09	-4.454507e+01	-3.440558e+02
8.000000e-07	-6.168023e-06	-5.156279e-09	-4.423868e+01	-3.431126e+02
8.100000e-07	-6.124810e-06	-5.136519e-09	-4.392874e+01	-3.421396e+02
8.200000e-07	-6.081234e-06	-5.061473e-09	-4.361620e+01	-3.411348e+02
8.300000e-07	-6.037270e-06	-5.020017e-09	-4.330088e+01	-3.400972e+02
8.400000e-07	-5.992858e-06	-5.040719e-09	-4.298235e+01	-3.390261e+02
8.500000e-07	-5.948023e-06	-5.061229e-09	-4.266078e+01	-3.379218e+02
8.600000e-07	-5.902783e-06	-5.035711e-09	-4.233631e+01	-3.367849e+02
8.700000e-07	-5.857133e-06	-4.982889e-09	-4.200890e+01	-3.356166e+02
8.800000e-07	-5.811090e-06	-4.951118e-09	-4.167866e+01	-3.344189e+02
8.900000e-07	-5.764646e-06	-4.950478e-09	-4.134555e+01	-3.331937e+02
9.000000e-07	-5.717846e-06	-4.959408e-09	-4.100989e+01	-3.319435e+02
9.100000e-07	-5.670766e-06	-4.944480e-09	-4.067222e+01	-3.306710e+02
9.200000e-07	-5.623356e-06	-4.895289e-09	-4.033218e+01	-3.293789e+02
9.300000e-07	-5.575499e-06	-4.849437e-09	-3.998894e+01	-3.280700e+02
9.400000e-07	-5.527123e-06	-4.845724e-09	-3.964198e+01	-3.267468e+02
9.500000e-07	-5.478272e-06	-4.865387e-09	-3.929160e+01	-3.254120e+02
9.600000e-07	-5.428864e-06	-4.853748e-09	-3.893724e+01	-3.240675e+02
9.700000e-07	-5.378741e-06	-4.798491e-09	-3.857774e+01	-3.227154e+02
9.800000e-07	-5.328006e-06	-4.753242e-09	-3.821385e+01	-3.213570e+02
9.900000e-07	-5.276835e-06	-4.760605e-09	-3.784685e+01	-3.199934e+02
1.000000e-06	-5.225317e-06	-4.780920e-09	-3.747735e+01	-3.186251e+02
1.010000e-06	-5.173361e-06	-4.749710e-09	-3.710470e+01	-3.172523e+02
1.020000e-06	-5.121046e-06	-4.681492e-09	-3.672948e+01	-3.158744e+02
1.030000e-06	-5.068293e-06	-4.651346e-09	-3.635112e+01	-3.144909e+02
1.040000e-06	-5.015090e-06	-4.673049e-09	-3.596954e+01	-3.131002e+02
1.050000e-06	-4.961675e-06	-4.677308e-09	-3.558644e+01	-3.117010e+02
1.060000e-06	-4.908070e-06	-4.626545e-09	-3.520196e+01	-3.102912e+02
1.070000e-06	-4.854134e-06	-4.571310e-09	-3.481512e+01	-3.088686e+02
1.080000e-06	-4.799687e-06	-4.562771e-09	-3.442462e+01	-3.074310e+02
1.090000e-06	-4.744845e-06	-4.575129e-09	-3.403127e+01	-3.059759e+02
1.100000e-06	-4.689710e-06	-4.554115e-09	-3.363583e+01	-3.045008e+02
1.110000e-06	-4.634300e-06	-4.499757e-09	-3.323841e+01	-3.030033e+02
1.120000e-06	-4.578665e-06	-4.459326e-09	-3.283939e+01	-3.014811e+02
1.130000e-06	-4.522869e-06	-4.448876e-09	-3.243920e+01	-2.999320e+02
1.140000e-06	-4.466913e-06	-4.438456e-09	-3.203787e+01	-2.983541e+02
1.150000e-06	-4.410595e-06	-4.405395e-09	-3.163394e+01	-2.967459e+02
1.160000e-06	-4.353891e-06	-4.360511e-09	-3.122725e+01	-2.951059e+02
1.170000e-06	-4.296815e-06	-4.333959e-09	-3.081788e+01	-2.934331e+02
1.180000e-06	-4.239266e-06	-4.323177e-09	-3.040513e+01	-2.917269e+02
1.190000e-06	-4.181307e-06	-4.310386e-09	-2.998943e+01	-2.899870e+02
1.200000e-06	-4.122858e-06	-4.285867e-09	-2.957022e+01	-2.882133e+02
1.210000e-06	-4.063918e-06	-4.251702e-09	-2.914748e+01	-2.864061e+02
1.220000e-06	-4.004671e-06	-4.216481e-09	-2.872255e+01	-2.845660e+02
1.230000e-06	-3.945231e-06	-4.186750e-09	-2.829623e+01	-2.826937e+02
1.240000e-06	-3.885568e-06	-4.163399e-09	-2.786831e+01	-2.807902e+02
1.250000e-06	-3.825662e-06	-4.133927e-09	-2.743865e+01	-2.788565e+02
1.260000e-06	-3.765573e-06	-4.093162e-09	-2.700768e+01	-2.768938e+02
1.270000e-06	-3.705182e-06	-4.056792e-09	-2.657453e+01	-2.749031e+02
1.280000e-06	-3.644537e-06	-4.037431e-09	-2.613957e+01	-2.728857e+02
1.290000e-06	-3.583693e-06	-4.024474e-09	-2.570319e+01	-2.708424e+02
1.300000e-06	-3.522601e-06	-3.996313e-09	-2.526502e+01	-2.687742e+02
1.310000e-06	-3.461279e-06	-3.956475e-09	-2.482520e+01	-2.666817e+02
1.320000e-06	-3.399781e-06	-3.920787e-09	-2.438412e+01	-2.645654e+02
1.330000e-06	-3.338101e-06	-3.898437e-09	-2.394174e+01	-2.624255e+02
1.340000e-06	-3.276199e-06	-3.871865e-09	-2.349776e+01	-2.602620e+02
1.350000e-06	-3.214034e-06	-3.827722e-09	-2.305190e+01	-2.580748e+02
1.360000e-06	-3.151579e-06	-3.782595e-09	-2.260395e+01	-2.558631e+02
1.370000e-06	-3.088907e-06	-3.753113e-09	-2.215445e+01	-2.536264e+02
1.380000e-06	-3.026025e-06	-3.732360e-09	-2.170345e+01	-2.513637e+02
1.390000e-06	-2.962859e-06	-3.702243e-09	-2.125040e+01	-2.490739e+02
1.400000e-06	-2.899571e-06	-3.661268e-09	-2.079648e+01	-2.467556e+02
1.410000e-06	-2.836188e-06	-3.625136e-09	-2.034189e+01	-2.444076e+02
1.420000e-06	-2.772663e-06	-3.598111e-09	-1.988626e+01	-2.420283e+02
1.430000e-06	-2.709005e-06	-3.565489e-09	-1.942969e+01	-2.396164e+02
1.440000e-06	-2.645243e-06	-3.521619e-09	-1.897237e+01	-2.371703e+02
1.450000e-06	-2.581446e-06	-3.476882e-09	-1.851481e+01	-2.346889e+02
1.460000e-06	-2.517540e-06	-3.440161e-09	-1.805646e+01	-2.321707e+02
1.470000e-06	-2.453412e-06	-3.404340e-09	-1.759651e+01	-2.296147e+02
1.480000e-06	-2.389084e-06	-3.367821e-09	-1.713514e+01	-2.270200e+02
1.490000e-06	-2.324557e-06	-3.328909e-09	-1.667233e+01	-2.243858e+02
1.500000e-06	-2.259843e-06	-3.291119e-09	-1.620818e+01	-2.217115e+02
1.510000e-06	-2.194824e-06	-3.251168e-09	-1.574185e+01	-2.189970e+02
1.520000e-06	-2.129484e-06	-3.210775e-09	-1.527321e+01	-2.162420e+02
1.530000e-06	-2.063995e-06	-3.169408e-09	-1.480351e+01	-2.134467e+02
1.540000e-06	-1.998276e-06	-3.123151e-09	-1.433216e+01	-2.106113e+02
1.550000e-06	-1.932443e-06	-3.074228e-09	-1.385999e+01	-2.077363e+02
1.560000e-06	-1.866438e-06	-3.026122e-09	-1.338658e+01	-2.048222e+02
1.570000e-06	-1.800226e-06	-2.982579e-09	-1.291169e+01	-2.018698e+02
1.580000e-06	-1.733882e-06	-2.944349e-09	-1.243585e+01	-1.988797e+02
1.590000e-06	-1.667321e-06	-2.905678e-09	-1.195847e+01	-1.958527e+02
1.600000e-06	-1.600627e-06	-2.865040e-09	-1.148012e+01	-1.927895e+02
1.610000e-06	-1.533776e-06	-2.820030e-09	-1.100064e+01	-1.896909e+02
1.620000e-06	-1.466737e-06	-2.773683e-09	-1.051982e+01	-1.865574e+02
1.630000e-06	-1.399690e-06	-2.726144e-09	-1.003895e+01	-1.833894e+02
1.640000e-06	-1.332626e-06	-2.676694e-09	-9.557944e+00	-1.801874e+02
1.650000e-06	-1.265430e-06	-2.624604e-09	-9.075998e+00	-1.769514e+02
1.660000e-06	-1.198120e-06	-2.574596e-09	-8.593230e+00	-1.736813e+02
1.670000e-06	-1.130803e-06	-2.526611e-09	-8.110417e+00	-1.703770e+02
1.680000e-06	-1.063497e-06	-2.476988e-09	-7.627677e+00	-1.670379e+02
1.690000e-06	-9.961341e-07	-2.426844e-09	-7.144535e+00	-1.636634e+02
1.700000e-06	-9.287691e-07	-2.378591e-09	-6.661375e+00	-1.602525e+02
1.710000e-06	-8.613389e-07	-2.332013e-09	-6.177749e+00	-1.568043e+02
1.720000e-06	-7.938072e-07	-2.283161e-09	-5.693393e+00	-1.533175e+02
1.730000e-06	-7.262447e-07	-2.230210e-09	-5.208817e+00	-1.497908e+02
1.740000e-06	-6.586464e-07	-2.176050e-09	-4.723985e+00	-1.462227e+02
1.750000e-06	-5.910199e-07	-2.123549e-09	-4.238950e+00	-1.426116e+02
1.760000e-06	-5.233114e-07	-2.068146e-09	-3.753327e+00	-1.389561e+02
1.770000e-06	-4.555560e-07	-2.009700e-09	-3.267367e+00	-1.352545e+02
1.780000e-06	-3.877978e-07	-1.951510e-09	-2.781388e+00	-1.315053e+02
1.790000e-06	-3.200040e-07	-1.897291e-09	-2.295153e+00	-1.277069e+02
1.800000e-06	-2.521450e-07	-1.842574e-09	-1.808450e+00	-1.238578e+02
1.810000e-06	-1.842526e-07	-1.784366e-09	-1.321508e+00	-1.199567e+02
1.820000e-06	-1.164327e-07	-1.723623e-09	-8.350861e-01	-1.160024e+02
1.830000e-06	-4.862647e-08	-1.663707e-09	-3.487618e-01	-1.119936e+02
1.840000e-06	1.919819e-08	-1.601423e-09	1.376945e-01	-1.079293e+02
1.850000e-06	8.695897e-08	-1.537871e-09	6.236925e-01	-1.038086e+02
1.860000e-06	1.546737e-07	-1.474077e-09	1.109360e+00	-9.963078e+01
1.870000e-06	2.224780e-07	-1.409171e-09	1.595671e+00	-9.539505e+01
1.880000e-06	2.903207e-07	-1.348709e-09	2.082256e+00	-9.110084e+01
1.890000e-06	3.580926e-07	-1.286105e-09	2.568334e+00	-8.674764e+01
1.900000e-06	4.258623e-07	-1.219792e-09	3.054396e+00	-8.233503e+01
1.910000e-06	4.936501e-07	-1.154070e-09	3.540588e+00	-7.786263e+01
1.920000e-06	5.613584e-07	-1.089273e-09	4.026210e+00	-7.333009e+01
1.930000e-06	6.290060e-07	-1.021450e-09	4.511396e+00	-6.873712e+01
1.940000e-06	6.966439e-07	-9.490108e-10	4.996513e+00	-6.408346e+01
1.950000e-06	7.642885e-07	-8.788007e-10	5.481677e+00	-5.936885e+01
1.960000e-06	8.318714e-07	-8.079250e-10	5.966400e+00	-5.459308e+01
1.970000e-06	8.993822e-07	-7.327831e-10	6.450605e+00	-4.975598e+01
1.980000e-06	9.668472e-07	-6.564005e-10	6.934482e+00	-4.485742e+01
1.990000e-06	1.034285e-06	-5.813020e-10	7.418161e+00	-3.989736e+01
2.000000e-06	1.101613e-06	-5.096374e-10	7.901058e+00	-3.487586e+01
2.010000e-06	1.168815e-06	-4.375325e-10	8.383048e+00	-2.979314e+01
2.020000e-06	1.235893e-06	-3.601682e-10	8.864149e+00	-2.464956e+01
2.030000e-06	1.302890e-06	-2.799987e-10	9.344669e+00	-1.944576e+01
2.040000e-06	1.369905e-06	-1.993213e-10	9.825320e+00	-1.418261e+01
2.050000e-06	1.436858e-06	-1.173088e-10	1.030552e+01	-8.861317e+00
2.060000e-06	1.503767e-06	-3.275126e-11	1.078541e+01	-3.483465e+00
2.070000e-06	1.570504e-06	5.315613e-11	1.126407e+01	1.948949e+00
2.080000e-06	1.637107e-06	1.370911e-10	1.174176e+01	7.433465e+00
2.090000e-06	1.703609e-06	2.189712e-10	1.221873e+01	1.296712e+01
2.100000e-06	1.769954e-06	3.040215e-10	1.269457e+01	1.854642e+01
2.110000e-06	1.836076e-06	3.890226e-10	1.316882e+01	2.416732e+01
2.120000e-06	1.901956e-06	4.726120e-10	1.364132e+01	2.982521e+01
2.130000e-06	1.967693e-06	5.569045e-10	1.411281e+01	3.551490e+01
2.140000e-06	2.033247e-06	6.434329e-10	1.458298e+01	4.123066e+01
2.150000e-06	2.098548e-06	7.316880e-10	1.505133e+01	4.696622e+01
2.160000e-06	2.163559e-06	8.206555e-10	1.551761e+01	5.271484e+01
2.170000e-06	2.228398e-06	9.083623e-10	1.598265e+01	5.846931e+01
2.180000e-06	2.293074e-06	9.966095e-10	1.644653e+01	6.422206e+01
2.190000e-06	2.357549e-06	1.084280e-09	1.690896e+01	6.996522e+01
2.200000e-06	2.421891e-06	1.169378e-09	1.737044e+01	7.569069e+01
2.210000e-06	2.486063e-06	1.252567e-09	1.783070e+01	8.139028e+01
2.220000e-06	2.550056e-06	1.336256e-09	1.828967e+01	8.705576e+01
2.230000e-06	2.613818e-06	1.422974e-09	1.874699e+01	9.267899e+01
2.240000e-06	2.677447e-06	1.509367e-09	1.920335e+01	9.825203e+01
2.250000e-06	2.741006e-06	1.594599e-09	1.965922e+01	1.037672e+02
2.260000e-06	2.804347e-06	1.677211e-09	2.011351e+01	1.092174e+02
2.270000e-06	2.867473e-06	1.759701e-09	2.056627e+01	1.145958e+02
2.280000e-06	2.930507e-06	1.841455e-09	2.101837e+01	1.198964e+02
2.290000e-06	2.993390e-06	1.918779e-09	2.146938e+01	1.251136e+02
2.300000e-06	3.056061e-06	1.993797e-09	2.191887e+01	1.302428e+02
2.310000e-06	3.118574e-06	2.069221e-09	2.236723e+01	1.352801e+02
2.320000e-06	3.180872e-06	2.143382e-09	2.281405e+01	1.402225e+02
2.330000e-06	3.243042e-06	2.214779e-09	2.325995e+01	1.450678e+02
2.340000e-06	3.305002e-06	2.284455e-09	2.370434e+01	1.498147e+02
2.350000e-06	3.366670e-06	2.355084e-09	2.414664e+01	1.544627e+02
2.360000e-06	3.428068e-06	2.425080e-09	2.458701e+01	1.590121e+02
2.370000e-06	3.489201e-06	2.489965e-09	2.502546e+01	1.634640e+02
2.380000e-06	3.550119e-06	2.551317e-09	2.546239e+01	1.678203e+02
2.390000e-06	3.610798e-06	2.611648e-09	2.589759e+01	1.720834e+02
2.400000e-06	3.671269e-06	2.672015e-09	2.633130e+01	1.762562e+02
2.410000e-06	3.731555e-06	2.731677e-09	2.676369e+01	1.803421e+02
2.420000e-06	3.791607e-06	2.788007e-09	2.719440e+01	1.843449e+02
2.430000e-06	3.851317e-06	2.843227e-09	2.762265e+01	1.882684e+02
2.440000e-06	3.910782e-06	2.899287e-09	2.804916e+01	1.921168e+02
2.450000e-06	3.970040e-06	2.956549e-09	2.847417e+01	1.958939e+02
2.460000e-06	4.028978e-06	3.012453e-09	2.889689e+01	1.996039e+02
2.470000e-06	4.087551e-06	3.065015e-09	2.931699e+01	2.032504e+02
2.480000e-06	4.145834e-06	3.116554e-09	2.973501e+01	2.068367e+02
2.490000e-06	4.203761e-06	3.167759e-09	3.015048e+01	2.103661e+02
2.500000e-06	4.261155e-06	3.217142e-09	3.056212e+01	2.138411e+02
2.510000e-06	4.318123e-06	3.267254e-09	3.097071e+01	2.172639e+02
2.520000e-06	4.374766e-06	3.317125e-09	3.137697e+01	2.206362e+02
2.530000e-06	4.431015e-06	3.364978e-09	3.178040e+01	2.239591e+02
2.540000e-06	4.486930e-06	3.411988e-09	3.218144e+01	2.272334e+02
2.550000e-06	4.542605e-06	3.458424e-09	3.258076e+01	2.304592e+02
2.560000e-06	4.597967e-06	3.504705e-09	3.297783e+01	2.336362e+02
2.570000e-06	4.653038e-06	3.546034e-09	3.337281e+01	2.367638e+02
2.580000e-06	4.707897e-06	3.585714e-09	3.376627e+01	2.398410e+02
2.590000e-06	4.762476e-06	3.626826e-09	3.415772e+01	2.428665e+02
2.600000e-06	4.816730e-06	3.670434e-09	3.454685e+01	2.458389e+02
2.610000e-06	4.870665e-06	3.711710e-09	3.493369e+01	2.487567e+02
2.620000e-06	4.924250e-06	3.749331e-09	3.531801e+01	2.516183e+02
2.630000e-06	4.977483e-06	3.786506e-09	3.569982e+01	2.544222e+02
2.640000e-06	5.030378e-06	3.824503e-09	3.607919e+01	2.571670e+02
2.650000e-06	5.082991e-06	3.862212e-09	3.645655e+01	2.598517e+02
2.660000e-06	5.135150e-06	3.901370e-09	3.683064e+01	2.624753e+02
2.670000e-06	5.186762e-06	3.940544e-09	3.720082e+01	2.650373e+02
2.680000e-06	5.237935e-06	3.980190e-09	3.756784e+01	2.675376e+02
2.690000e-06	5.288767e-06	4.016415e-09	3.793243e+01	2.699765e+02
2.700000e-06	5.339073e-06	4.049418e-09	3.829323e+01	2.723546e+02
2.710000e-06	5.388708e-06	4.080312e-09	3.864923e+01	2.746730e+02
2.720000e-06	5.437777e-06	4.112253e-09	3.900116e+01	2.769332e+02
2.730000e-06	5.486315e-06	4.144135e-09	3.934929e+01	2.791370e+02
2.740000e-06	5.534462e-06	4.173144e-09	3.969461e+01	2.812866e+02
2.750000e-06	5.582234e-06	4.204435e-09	4.003724e+01	2.833845e+02
2.760000e-06	5.629650e-06	4.237800e-09	4.037733e+01	2.854333e+02
2.770000e-06	5.676762e-06	4.270565e-09	4.071523e+01	2.874359e+02
2.780000e-06	5.723532e-06	4.302748e-09	4.105067e+01	2.893950e+02
2.790000e-06	5.769896e-06	4.335221e-09	4.138321e+01	2.913136e+02
2.800000e-06	5.815838e-06	4.363311e-09	4.171271e+01	2.931943e+02
2.810000e-06	5.861339e-06	4.391203e-09	4.203906e+01	2.950400e+02
2.820000e-06	5.906421e-06	4.416549e-09	4.236240e+01	2.968529e+02
2.830000e-06	5.951119e-06	4.438575e-09	4.268298e+01	2.986351e+02
2.840000e-06	5.995447e-06	4.459515e-09	4.300092e+01	3.003885e+02
2.850000e-06	6.039527e-06	4.484975e-09	4.331707e+01	3.021145e+02
2.860000e-06	6.083387e-06	4.512631e-09	4.363165e+01	3.038140e+02
2.870000e-06	6.126915e-06	4.540285e-09	4.394384e+01	3.054878e+02
2.880000e-06	6.169895e-06	4.565598e-09	4.425211e+01	3.071360e+02
2.890000e-06	6.212264e-06	4.590129e-09	4.455599e+01	3.087585e+02
2.900000e-06	6.253996e-06	4.612567e-09	4.485530e+01	3.103548e+02
