# Temperatura_=_20.0
# Concentracion g/m^3_=_12600.0
# C_Vs_to_Am_M_A/Vsm_=_65563218390.804596
# pendiente_HvsI_1/m_=_3716.3
# ordenada_HvsI_A/m_=_1297.0
# frecuencia_Hz_=_135502.24931492182

Tiempo_(s)	Campo_(V.s)	Magnetizacion_(V.s)	Campo_(kA/m)	Magnetizacion_(A/m)
0.000000e+00	-7.877558e-06	-5.665576e-09	-5.704275e+01	-3.755688e+02
1.000000e-08	-7.877687e-06	-5.663206e-09	-5.704369e+01	-3.754538e+02
2.000000e-08	-7.877362e-06	-5.661629e-09	-5.704133e+01	-3.752898e+02
3.000000e-08	-7.876458e-06	-5.664551e-09	-5.703479e+01	-3.750777e+02
4.000000e-08	-7.874732e-06	-5.665840e-09	-5.702229e+01	-3.748197e+02
5.000000e-08	-7.872112e-06	-5.662298e-09	-5.700332e+01	-3.745188e+02
6.000000e-08	-7.868923e-06	-5.653769e-09	-5.698023e+01	-3.741789e+02
7.000000e-08	-7.865281e-06	-5.632445e-09	-5.695386e+01	-3.738048e+02
8.000000e-08	-7.861230e-06	-5.606676e-09	-5.692452e+01	-3.734019e+02
9.000000e-08	-7.856725e-06	-5.649497e-09	-5.689190e+01	-3.729765e+02
1.000000e-07	-7.851469e-06	-5.768318e-09	-5.685384e+01	-3.725352e+02
1.100000e-07	-7.845191e-06	-5.819579e-09	-5.680838e+01	-3.720849e+02
1.200000e-07	-7.838042e-06	-5.638873e-09	-5.675662e+01	-3.716330e+02
1.300000e-07	-7.830439e-06	-5.340297e-09	-5.670156e+01	-3.711865e+02
1.400000e-07	-7.822738e-06	-5.519488e-09	-5.664580e+01	-3.707525e+02
1.500000e-07	-7.814790e-06	-5.881054e-09	-5.658824e+01	-3.703378e+02
1.600000e-07	-7.806300e-06	-5.763409e-09	-5.652676e+01	-3.699487e+02
1.700000e-07	-7.797364e-06	-5.479534e-09	-5.646205e+01	-3.695907e+02
1.800000e-07	-7.787770e-06	-5.506525e-09	-5.639259e+01	-3.692687e+02
1.900000e-07	-7.777103e-06	-5.570325e-09	-5.631534e+01	-3.689867e+02
2.000000e-07	-7.765685e-06	-5.706512e-09	-5.623266e+01	-3.687475e+02
2.100000e-07	-7.754021e-06	-5.848555e-09	-5.614820e+01	-3.685530e+02
2.200000e-07	-7.741780e-06	-5.659160e-09	-5.605956e+01	-3.684040e+02
2.300000e-07	-7.728607e-06	-5.299618e-09	-5.596417e+01	-3.682999e+02
2.400000e-07	-7.714989e-06	-5.480347e-09	-5.586556e+01	-3.682393e+02
2.500000e-07	-7.701055e-06	-5.883953e-09	-5.576467e+01	-3.682195e+02
2.600000e-07	-7.686074e-06	-5.678262e-09	-5.565618e+01	-3.682366e+02
2.700000e-07	-7.670076e-06	-5.341176e-09	-5.554034e+01	-3.682859e+02
2.800000e-07	-7.653549e-06	-5.593232e-09	-5.542067e+01	-3.683619e+02
2.900000e-07	-7.636497e-06	-5.934618e-09	-5.529719e+01	-3.684582e+02
3.000000e-07	-7.618984e-06	-5.790782e-09	-5.517037e+01	-3.685680e+02
3.100000e-07	-7.600991e-06	-5.614514e-09	-5.504008e+01	-3.686838e+02
3.200000e-07	-7.582370e-06	-5.718597e-09	-5.490525e+01	-3.687982e+02
3.300000e-07	-7.563193e-06	-5.739861e-09	-5.476638e+01	-3.689034e+02
3.400000e-07	-7.543622e-06	-5.813020e-09	-5.462466e+01	-3.689917e+02
3.500000e-07	-7.523731e-06	-5.913433e-09	-5.448063e+01	-3.690560e+02
3.600000e-07	-7.503447e-06	-5.603300e-09	-5.433375e+01	-3.690893e+02
3.700000e-07	-7.482640e-06	-5.500841e-09	-5.418308e+01	-3.690852e+02
3.800000e-07	-7.461338e-06	-5.780124e-09	-5.402884e+01	-3.690381e+02
3.900000e-07	-7.439555e-06	-5.899456e-09	-5.387110e+01	-3.689431e+02
4.000000e-07	-7.417204e-06	-5.655711e-09	-5.370925e+01	-3.687963e+02
4.100000e-07	-7.394242e-06	-5.512060e-09	-5.354298e+01	-3.685947e+02
4.200000e-07	-7.370804e-06	-5.586685e-09	-5.337326e+01	-3.683363e+02
4.300000e-07	-7.347021e-06	-5.788943e-09	-5.320105e+01	-3.680202e+02
4.400000e-07	-7.322901e-06	-5.751119e-09	-5.302639e+01	-3.676465e+02
4.500000e-07	-7.298134e-06	-5.520674e-09	-5.284704e+01	-3.672160e+02
4.600000e-07	-7.272528e-06	-5.502517e-09	-5.266163e+01	-3.667308e+02
4.700000e-07	-7.246141e-06	-5.690216e-09	-5.247056e+01	-3.661935e+02
4.800000e-07	-7.219068e-06	-5.709073e-09	-5.227452e+01	-3.656077e+02
4.900000e-07	-7.191558e-06	-5.612013e-09	-5.207531e+01	-3.649774e+02
5.000000e-07	-7.163674e-06	-5.544530e-09	-5.187339e+01	-3.643071e+02
5.100000e-07	-7.135418e-06	-5.526937e-09	-5.166879e+01	-3.636018e+02
5.200000e-07	-7.106745e-06	-5.604377e-09	-5.146116e+01	-3.628665e+02
5.300000e-07	-7.077562e-06	-5.663557e-09	-5.124984e+01	-3.621063e+02
5.400000e-07	-7.047911e-06	-5.570944e-09	-5.103514e+01	-3.613263e+02
5.500000e-07	-7.017793e-06	-5.447913e-09	-5.081705e+01	-3.605314e+02
5.600000e-07	-6.987066e-06	-5.495123e-09	-5.059455e+01	-3.597260e+02
5.700000e-07	-6.955837e-06	-5.594020e-09	-5.036841e+01	-3.589142e+02
5.800000e-07	-6.924268e-06	-5.558178e-09	-5.013982e+01	-3.580996e+02
5.900000e-07	-6.892305e-06	-5.426887e-09	-4.990837e+01	-3.572849e+02
6.000000e-07	-6.859958e-06	-5.417864e-09	-4.967414e+01	-3.564726e+02
6.100000e-07	-6.827137e-06	-5.514813e-09	-4.943647e+01	-3.556641e+02
6.200000e-07	-6.793516e-06	-5.531017e-09	-4.919302e+01	-3.548603e+02
6.300000e-07	-6.759212e-06	-5.421268e-09	-4.894462e+01	-3.540615e+02
6.400000e-07	-6.724394e-06	-5.384009e-09	-4.869249e+01	-3.532670e+02
6.500000e-07	-6.688975e-06	-5.433218e-09	-4.843602e+01	-3.524759e+02
6.600000e-07	-6.653192e-06	-5.462057e-09	-4.817691e+01	-3.516864e+02
6.700000e-07	-6.617081e-06	-5.412321e-09	-4.791542e+01	-3.508965e+02
6.800000e-07	-6.580420e-06	-5.354797e-09	-4.764996e+01	-3.501037e+02
6.900000e-07	-6.543220e-06	-5.348925e-09	-4.738058e+01	-3.493051e+02
7.000000e-07	-6.505521e-06	-5.397426e-09	-4.710760e+01	-3.484979e+02
7.100000e-07	-6.467421e-06	-5.390033e-09	-4.683171e+01	-3.476789e+02
7.200000e-07	-6.428979e-06	-5.310816e-09	-4.655334e+01	-3.468452e+02
7.300000e-07	-6.390092e-06	-5.268920e-09	-4.627175e+01	-3.459938e+02
7.400000e-07	-6.350693e-06	-5.320748e-09	-4.598646e+01	-3.451222e+02
7.500000e-07	-6.310987e-06	-5.333452e-09	-4.569894e+01	-3.442278e+02
7.600000e-07	-6.271004e-06	-5.252064e-09	-4.540942e+01	-3.433087e+02
7.700000e-07	-6.230576e-06	-5.186351e-09	-4.511667e+01	-3.423632e+02
7.800000e-07	-6.189664e-06	-5.218603e-09	-4.482042e+01	-3.413902e+02
7.900000e-07	-6.148069e-06	-5.264253e-09	-4.451922e+01	-3.403889e+02
8.000000e-07	-6.105813e-06	-5.219742e-09	-4.421325e+01	-3.393591e+02
8.100000e-07	-6.063046e-06	-5.128551e-09	-4.390356e+01	-3.383011e+02
8.200000e-07	-6.019785e-06	-5.115635e-09	-4.359030e+01	-3.372155e+02
8.300000e-07	-5.976031e-06	-5.178829e-09	-4.327347e+01	-3.361034e+02
8.400000e-07	-5.931925e-06	-5.180688e-09	-4.295409e+01	-3.349661e+02
8.500000e-07	-5.887493e-06	-5.082761e-09	-4.263235e+01	-3.338055e+02
8.600000e-07	-5.842616e-06	-5.015633e-09	-4.230739e+01	-3.326233e+02
8.700000e-07	-5.797329e-06	-5.063462e-09	-4.197946e+01	-3.314218e+02
8.800000e-07	-5.751729e-06	-5.113529e-09	-4.164926e+01	-3.302028e+02
8.900000e-07	-5.705781e-06	-5.056122e-09	-4.131654e+01	-3.289687e+02
9.000000e-07	-5.659424e-06	-4.956862e-09	-4.098086e+01	-3.277213e+02
9.100000e-07	-5.612744e-06	-4.950790e-09	-4.064284e+01	-3.264625e+02
9.200000e-07	-5.565636e-06	-5.007732e-09	-4.030173e+01	-3.251939e+02
9.300000e-07	-5.518132e-06	-5.004567e-09	-3.995774e+01	-3.239169e+02
9.400000e-07	-5.470234e-06	-4.917233e-09	-3.961091e+01	-3.226323e+02
9.500000e-07	-5.421773e-06	-4.861971e-09	-3.925999e+01	-3.213410e+02
9.600000e-07	-5.372815e-06	-4.887156e-09	-3.890548e+01	-3.200430e+02
9.700000e-07	-5.323419e-06	-4.917732e-09	-3.854780e+01	-3.187382e+02
9.800000e-07	-5.273583e-06	-4.871622e-09	-3.818692e+01	-3.174262e+02
9.900000e-07	-5.223125e-06	-4.800701e-09	-3.782155e+01	-3.161060e+02
1.000000e-06	-5.171982e-06	-4.780906e-09	-3.745121e+01	-3.147764e+02
1.010000e-06	-5.120390e-06	-4.800082e-09	-3.707763e+01	-3.134359e+02
1.020000e-06	-5.068442e-06	-4.787003e-09	-3.670146e+01	-3.120826e+02
1.030000e-06	-5.016118e-06	-4.735975e-09	-3.632258e+01	-3.107148e+02
1.040000e-06	-4.963532e-06	-4.693936e-09	-3.594179e+01	-3.093301e+02
1.050000e-06	-4.910605e-06	-4.683917e-09	-3.555854e+01	-3.079265e+02
1.060000e-06	-4.857326e-06	-4.678100e-09	-3.517273e+01	-3.065019e+02
1.070000e-06	-4.803762e-06	-4.650566e-09	-3.478486e+01	-3.050541e+02
1.080000e-06	-4.749736e-06	-4.610399e-09	-3.439365e+01	-3.035812e+02
1.090000e-06	-4.695297e-06	-4.581848e-09	-3.399945e+01	-3.020814e+02
1.100000e-06	-4.640624e-06	-4.564145e-09	-3.360356e+01	-3.005530e+02
1.110000e-06	-4.585707e-06	-4.543410e-09	-3.320590e+01	-2.989949e+02
1.120000e-06	-4.530502e-06	-4.517779e-09	-3.280615e+01	-2.974060e+02
1.130000e-06	-4.475009e-06	-4.489864e-09	-3.240431e+01	-2.957855e+02
1.140000e-06	-4.419201e-06	-4.458330e-09	-3.200020e+01	-2.941331e+02
1.150000e-06	-4.363125e-06	-4.424773e-09	-3.159414e+01	-2.924487e+02
1.160000e-06	-4.306796e-06	-4.399809e-09	-3.118625e+01	-2.907325e+02
1.170000e-06	-4.250167e-06	-4.381403e-09	-3.077619e+01	-2.889850e+02
1.180000e-06	-4.193207e-06	-4.353318e-09	-3.036373e+01	-2.872069e+02
1.190000e-06	-4.135950e-06	-4.315173e-09	-2.994913e+01	-2.853992e+02
1.200000e-06	-4.078388e-06	-4.288156e-09	-2.953231e+01	-2.835628e+02
1.210000e-06	-4.020448e-06	-4.272833e-09	-2.911275e+01	-2.816990e+02
1.220000e-06	-3.962127e-06	-4.252287e-09	-2.869044e+01	-2.798089e+02
1.230000e-06	-3.903370e-06	-4.212597e-09	-2.826497e+01	-2.778937e+02
1.240000e-06	-3.844247e-06	-4.169144e-09	-2.783685e+01	-2.759546e+02
1.250000e-06	-3.784754e-06	-4.137494e-09	-2.740606e+01	-2.739926e+02
1.260000e-06	-3.725013e-06	-4.115387e-09	-2.697346e+01	-2.720084e+02
1.270000e-06	-3.665048e-06	-4.087521e-09	-2.653925e+01	-2.700028e+02
1.280000e-06	-3.604838e-06	-4.048424e-09	-2.610325e+01	-2.679762e+02
1.290000e-06	-3.544493e-06	-4.011097e-09	-2.566628e+01	-2.659286e+02
1.300000e-06	-3.484001e-06	-3.988149e-09	-2.522825e+01	-2.638601e+02
1.310000e-06	-3.423417e-06	-3.968706e-09	-2.478955e+01	-2.617701e+02
1.320000e-06	-3.362600e-06	-3.936939e-09	-2.434917e+01	-2.596581e+02
1.330000e-06	-3.301520e-06	-3.895862e-09	-2.390688e+01	-2.575232e+02
1.340000e-06	-3.240222e-06	-3.858338e-09	-2.346300e+01	-2.553641e+02
1.350000e-06	-3.178595e-06	-3.827039e-09	-2.301675e+01	-2.531796e+02
1.360000e-06	-3.116617e-06	-3.796060e-09	-2.256796e+01	-2.509682e+02
1.370000e-06	-3.054451e-06	-3.759586e-09	-2.211781e+01	-2.487283e+02
1.380000e-06	-2.992165e-06	-3.718982e-09	-2.166678e+01	-2.464582e+02
1.390000e-06	-2.929675e-06	-3.678561e-09	-2.121428e+01	-2.441562e+02
1.400000e-06	-2.867042e-06	-3.644512e-09	-2.076075e+01	-2.418206e+02
1.410000e-06	-2.804275e-06	-3.616553e-09	-2.030624e+01	-2.394500e+02
1.420000e-06	-2.741341e-06	-3.585259e-09	-1.985052e+01	-2.370427e+02
1.430000e-06	-2.678211e-06	-3.542611e-09	-1.939338e+01	-2.345976e+02
1.440000e-06	-2.614909e-06	-3.498576e-09	-1.893501e+01	-2.321135e+02
1.450000e-06	-2.551393e-06	-3.461288e-09	-1.847508e+01	-2.295895e+02
1.460000e-06	-2.487672e-06	-3.427591e-09	-1.801366e+01	-2.270251e+02
1.470000e-06	-2.423855e-06	-3.386124e-09	-1.755155e+01	-2.244199e+02
1.480000e-06	-2.359866e-06	-3.337451e-09	-1.708820e+01	-2.217738e+02
1.490000e-06	-2.295676e-06	-3.294030e-09	-1.662338e+01	-2.190869e+02
1.500000e-06	-2.231292e-06	-3.262590e-09	-1.615717e+01	-2.163595e+02
1.510000e-06	-2.166716e-06	-3.232567e-09	-1.568957e+01	-2.135924e+02
1.520000e-06	-2.101987e-06	-3.190094e-09	-1.522085e+01	-2.107861e+02
1.530000e-06	-2.037168e-06	-3.136138e-09	-1.475149e+01	-2.079418e+02
1.540000e-06	-1.972210e-06	-3.085480e-09	-1.428111e+01	-2.050603e+02
1.550000e-06	-1.907179e-06	-3.044888e-09	-1.381021e+01	-2.021427e+02
1.560000e-06	-1.842097e-06	-3.001117e-09	-1.333894e+01	-1.991901e+02
1.570000e-06	-1.776820e-06	-2.950840e-09	-1.286626e+01	-1.962036e+02
1.580000e-06	-1.711355e-06	-2.900714e-09	-1.239222e+01	-1.931841e+02
1.590000e-06	-1.645776e-06	-2.858879e-09	-1.191734e+01	-1.901325e+02
1.600000e-06	-1.580094e-06	-2.821757e-09	-1.144173e+01	-1.870494e+02
1.610000e-06	-1.514306e-06	-2.778354e-09	-1.096535e+01	-1.839352e+02
1.620000e-06	-1.448325e-06	-2.724398e-09	-1.048757e+01	-1.807904e+02
1.630000e-06	-1.382092e-06	-2.671010e-09	-1.000797e+01	-1.776148e+02
1.640000e-06	-1.315749e-06	-2.624384e-09	-9.527565e+00	-1.744083e+02
1.650000e-06	-1.249300e-06	-2.577659e-09	-9.046396e+00	-1.711704e+02
1.660000e-06	-1.182727e-06	-2.523622e-09	-8.564329e+00	-1.679005e+02
1.670000e-06	-1.116088e-06	-2.463509e-09	-8.081783e+00	-1.645974e+02
1.680000e-06	-1.049357e-06	-2.407570e-09	-7.598578e+00	-1.612602e+02
1.690000e-06	-9.825470e-07	-2.360510e-09	-7.114792e+00	-1.578875e+02
1.700000e-06	-9.158235e-07	-2.316754e-09	-6.631636e+00	-1.544778e+02
1.710000e-06	-8.490795e-07	-2.266333e-09	-6.148331e+00	-1.510295e+02
1.720000e-06	-7.820852e-07	-2.210089e-09	-5.663213e+00	-1.475411e+02
1.730000e-06	-7.150251e-07	-2.155830e-09	-5.177620e+00	-1.440107e+02
1.740000e-06	-6.480376e-07	-2.105420e-09	-4.692552e+00	-1.404367e+02
1.750000e-06	-5.809693e-07	-2.052485e-09	-4.206898e+00	-1.368176e+02
1.760000e-06	-5.136986e-07	-1.992774e-09	-3.719780e+00	-1.331517e+02
1.770000e-06	-4.463578e-07	-1.928732e-09	-3.232153e+00	-1.294377e+02
1.780000e-06	-3.790802e-07	-1.869842e-09	-2.744985e+00	-1.256742e+02
1.790000e-06	-3.117991e-07	-1.817064e-09	-2.257791e+00	-1.218601e+02
1.800000e-06	-2.444040e-07	-1.762558e-09	-1.769771e+00	-1.179945e+02
1.810000e-06	-1.769337e-07	-1.701858e-09	-1.281207e+00	-1.140765e+02
1.820000e-06	-1.095612e-07	-1.638677e-09	-7.933512e-01	-1.101056e+02
1.830000e-06	-4.222207e-08	-1.578960e-09	-3.057372e-01	-1.060812e+02
1.840000e-06	2.519935e-08	-1.521007e-09	1.824728e-01	-1.020032e+02
1.850000e-06	9.258522e-08	-1.460533e-09	6.704255e-01	-9.787126e+01
1.860000e-06	1.599000e-07	-1.396169e-09	1.157863e+00	-9.368536e+01
1.870000e-06	2.272248e-07	-1.327544e-09	1.645374e+00	-8.944552e+01
1.880000e-06	2.945310e-07	-1.260774e-09	2.132750e+00	-8.515176e+01
1.890000e-06	3.618584e-07	-1.196596e-09	2.620279e+00	-8.080415e+01
1.900000e-06	4.291052e-07	-1.130534e-09	3.107224e+00	-7.640275e+01
1.910000e-06	4.962938e-07	-1.064885e-09	3.593749e+00	-7.194754e+01
1.920000e-06	5.635487e-07	-9.976110e-10	4.080753e+00	-6.743847e+01
1.930000e-06	6.307215e-07	-9.299255e-10	4.567163e+00	-6.287539e+01
1.940000e-06	6.978678e-07	-8.638745e-10	5.053381e+00	-5.825808e+01
1.950000e-06	7.649435e-07	-7.947540e-10	5.539088e+00	-5.358620e+01
1.960000e-06	8.318946e-07	-7.176121e-10	6.023892e+00	-4.885934e+01
1.970000e-06	8.986758e-07	-6.366557e-10	6.507466e+00	-4.407702e+01
1.980000e-06	9.652851e-07	-5.590273e-10	6.989796e+00	-3.923871e+01
1.990000e-06	1.031884e-06	-4.875441e-10	7.472051e+00	-3.434385e+01
2.000000e-06	1.098431e-06	-4.151330e-10	7.953929e+00	-2.939192e+01
2.010000e-06	1.164877e-06	-3.392867e-10	8.435076e+00	-2.438247e+01
2.020000e-06	1.231257e-06	-2.646355e-10	8.915741e+00	-1.931517e+01
2.030000e-06	1.297588e-06	-1.907609e-10	9.396055e+00	-1.418989e+01
2.040000e-06	1.363785e-06	-1.129040e-10	9.875401e+00	-9.006724e+00
2.050000e-06	1.429863e-06	-2.776414e-11	1.035388e+01	-3.766086e+00
2.060000e-06	1.495846e-06	5.846951e-11	1.083168e+01	1.531248e+00
2.070000e-06	1.561640e-06	1.415438e-10	1.130810e+01	6.884073e+00
2.080000e-06	1.627328e-06	2.242224e-10	1.178376e+01	1.229071e+01
2.090000e-06	1.692843e-06	3.094714e-10	1.225817e+01	1.774896e+01
2.100000e-06	1.758061e-06	3.931110e-10	1.273042e+01	2.325606e+01
2.110000e-06	1.823143e-06	4.749234e-10	1.320169e+01	2.880866e+01
2.120000e-06	1.888174e-06	5.574581e-10	1.367260e+01	3.440283e+01
2.130000e-06	1.953038e-06	6.412169e-10	1.414229e+01	4.003401e+01
2.140000e-06	2.017742e-06	7.263155e-10	1.461082e+01	4.569708e+01
2.150000e-06	2.082345e-06	8.124707e-10	1.507862e+01	5.138636e+01
2.160000e-06	2.146848e-06	9.013555e-10	1.554569e+01	5.709562e+01
2.170000e-06	2.211236e-06	9.913597e-10	1.601194e+01	6.281820e+01
2.180000e-06	2.275421e-06	1.081835e-09	1.647671e+01	6.854701e+01
2.190000e-06	2.339514e-06	1.169143e-09	1.694082e+01	7.427467e+01
2.200000e-06	2.403482e-06	1.253542e-09	1.740403e+01	7.999354e+01
2.210000e-06	2.467089e-06	1.338290e-09	1.786462e+01	8.569585e+01
2.220000e-06	2.530507e-06	1.422534e-09	1.832384e+01	9.137377e+01
2.230000e-06	2.593822e-06	1.504770e-09	1.878231e+01	9.701957e+01
2.240000e-06	2.656914e-06	1.588499e-09	1.923917e+01	1.026257e+02
2.250000e-06	2.719878e-06	1.674284e-09	1.969510e+01	1.081847e+02
2.260000e-06	2.782713e-06	1.760548e-09	2.015010e+01	1.136898e+02
2.270000e-06	2.845352e-06	1.845152e-09	2.060369e+01	1.191344e+02
2.280000e-06	2.907775e-06	1.925886e-09	2.105570e+01	1.245126e+02
2.290000e-06	2.969993e-06	2.006027e-09	2.150623e+01	1.298190e+02
2.300000e-06	3.032125e-06	2.087535e-09	2.195614e+01	1.350490e+02
2.310000e-06	3.094113e-06	2.167118e-09	2.240500e+01	1.401986e+02
2.320000e-06	3.155805e-06	2.241632e-09	2.285172e+01	1.452645e+02
2.330000e-06	3.217301e-06	2.314253e-09	2.329703e+01	1.502443e+02
2.340000e-06	3.278594e-06	2.390769e-09	2.374086e+01	1.551363e+02
2.350000e-06	3.339585e-06	2.468007e-09	2.418251e+01	1.599395e+02
2.360000e-06	3.400361e-06	2.540939e-09	2.462260e+01	1.646534e+02
2.370000e-06	3.460946e-06	2.608608e-09	2.506131e+01	1.692785e+02
2.380000e-06	3.521295e-06	2.674922e-09	2.549830e+01	1.738157e+02
2.390000e-06	3.581440e-06	2.743347e-09	2.593382e+01	1.782663e+02
2.400000e-06	3.641407e-06	2.808957e-09	2.636806e+01	1.826322e+02
2.410000e-06	3.701112e-06	2.872160e-09	2.680039e+01	1.869156e+02
2.420000e-06	3.760599e-06	2.931421e-09	2.723114e+01	1.911189e+02
2.430000e-06	3.819875e-06	2.989488e-09	2.766037e+01	1.952447e+02
2.440000e-06	3.878879e-06	3.048846e-09	2.808763e+01	1.992957e+02
2.450000e-06	3.937544e-06	3.104470e-09	2.851243e+01	2.032745e+02
2.460000e-06	3.995838e-06	3.159248e-09	2.893455e+01	2.071836e+02
2.470000e-06	4.053789e-06	3.215690e-09	2.935419e+01	2.110255e+02
2.480000e-06	4.111262e-06	3.274402e-09	2.977035e+01	2.148023e+02
2.490000e-06	4.168263e-06	3.331047e-09	3.018311e+01	2.185160e+02
2.500000e-06	4.224965e-06	3.385077e-09	3.059370e+01	2.221680e+02
2.510000e-06	4.281367e-06	3.440000e-09	3.100212e+01	2.257597e+02
2.520000e-06	4.337487e-06	3.494933e-09	3.140849e+01	2.292920e+02
2.530000e-06	4.393279e-06	3.545894e-09	3.181249e+01	2.327656e+02
2.540000e-06	4.448724e-06	3.592922e-09	3.221398e+01	2.361805e+02
2.550000e-06	4.503892e-06	3.639809e-09	3.261346e+01	2.395370e+02
2.560000e-06	4.558779e-06	3.688177e-09	3.301090e+01	2.428346e+02
2.570000e-06	4.613429e-06	3.733491e-09	3.340664e+01	2.460730e+02
2.580000e-06	4.667838e-06	3.776523e-09	3.380062e+01	2.492516e+02
2.590000e-06	4.722013e-06	3.818930e-09	3.419291e+01	2.523698e+02
2.600000e-06	4.775861e-06	3.862446e-09	3.458283e+01	2.554267e+02
2.610000e-06	4.829329e-06	3.907109e-09	3.497001e+01	2.584219e+02
2.620000e-06	4.882441e-06	3.948230e-09	3.535460e+01	2.613547e+02
2.630000e-06	4.935184e-06	3.986551e-09	3.573652e+01	2.642248e+02
2.640000e-06	4.987558e-06	4.025723e-09	3.611576e+01	2.670321e+02
2.650000e-06	5.039541e-06	4.066302e-09	3.649218e+01	2.697767e+02
2.660000e-06	5.091084e-06	4.108328e-09	3.686542e+01	2.724589e+02
2.670000e-06	5.142142e-06	4.149294e-09	3.723513e+01	2.750794e+02
2.680000e-06	5.192647e-06	4.187289e-09	3.760085e+01	2.776393e+02
2.690000e-06	5.242532e-06	4.223870e-09	3.796207e+01	2.801399e+02
2.700000e-06	5.291888e-06	4.259490e-09	3.831947e+01	2.825828e+02
2.710000e-06	5.340795e-06	4.295708e-09	3.867362e+01	2.849700e+02
2.720000e-06	5.389279e-06	4.330650e-09	3.902470e+01	2.873035e+02
2.730000e-06	5.437434e-06	4.363924e-09	3.937340e+01	2.895858e+02
2.740000e-06	5.485200e-06	4.396079e-09	3.971928e+01	2.918193e+02
2.750000e-06	5.532595e-06	4.431398e-09	4.006247e+01	2.940065e+02
2.760000e-06	5.579669e-06	4.467232e-09	4.040334e+01	2.961502e+02
2.770000e-06	5.626281e-06	4.499298e-09	4.074087e+01	2.982528e+02
2.780000e-06	5.672534e-06	4.530888e-09	4.107579e+01	3.003169e+02
2.790000e-06	5.718465e-06	4.565753e-09	4.140839e+01	3.023446e+02
2.800000e-06	5.763899e-06	4.599177e-09	4.173739e+01	3.043381e+02
2.810000e-06	5.808837e-06	4.626350e-09	4.206279e+01	3.062992e+02
2.820000e-06	5.853411e-06	4.650390e-09	4.238556e+01	3.082293e+02
2.830000e-06	5.897636e-06	4.676183e-09	4.270580e+01	3.101298e+02
2.840000e-06	5.941569e-06	4.706444e-09	4.302392e+01	3.120012e+02
2.850000e-06	5.985298e-06	4.736286e-09	4.334058e+01	3.138441e+02
2.860000e-06	6.028771e-06	4.760960e-09	4.365537e+01	3.156586e+02
2.870000e-06	6.071861e-06	4.785267e-09	4.396739e+01	3.174444e+02
2.880000e-06	6.114369e-06	4.812290e-09	4.427520e+01	3.192008e+02
2.890000e-06	6.156181e-06	4.839803e-09	4.457797e+01	3.209271e+02
2.900000e-06	6.197264e-06	4.863835e-09	4.487546e+01	3.226221e+02
