# Temperatura_=_20.0
# Concentracion g/m^3_=_12600.0
# C_Vs_to_Am_M_A/Vsm_=_65563218390.804596
# pendiente_HvsI_1/m_=_3716.3
# ordenada_HvsI_A/m_=_1297.0
# frecuencia_Hz_=_135503.37502435368

Tiempo_(s)	Campo_(V.s)	Magnetizacion_(V.s)	Campo_(kA/m)	Magnetizacion_(A/m)
0.000000e+00	-7.909946e-06	-6.162879e-09	-5.704878e+01	-4.002482e+02
1.000000e-08	-7.909968e-06	-6.161583e-09	-5.704893e+01	-4.010705e+02
2.000000e-08	-7.909573e-06	-6.165119e-09	-5.704608e+01	-4.018665e+02
3.000000e-08	-7.908490e-06	-6.168156e-09	-5.703827e+01	-4.026050e+02
4.000000e-08	-7.906529e-06	-6.168452e-09	-5.702413e+01	-4.032533e+02
5.000000e-08	-7.903576e-06	-6.167139e-09	-5.700283e+01	-4.037786e+02
6.000000e-08	-7.900005e-06	-6.158765e-09	-5.697708e+01	-4.041479e+02
7.000000e-08	-7.896185e-06	-6.128975e-09	-5.694953e+01	-4.043295e+02
8.000000e-08	-7.892035e-06	-6.100608e-09	-5.691960e+01	-4.042938e+02
9.000000e-08	-7.887376e-06	-6.174039e-09	-5.688600e+01	-4.040135e+02
1.000000e-07	-7.881888e-06	-6.307694e-09	-5.684641e+01	-4.034651e+02
1.100000e-07	-7.875372e-06	-6.334197e-09	-5.679942e+01	-4.026291e+02
1.200000e-07	-7.868052e-06	-6.075452e-09	-5.674663e+01	-4.014908e+02
1.300000e-07	-7.860374e-06	-5.768771e-09	-5.669125e+01	-4.000408e+02
1.400000e-07	-7.852598e-06	-6.059077e-09	-5.663516e+01	-3.982751e+02
1.500000e-07	-7.844520e-06	-6.461676e-09	-5.657690e+01	-3.961957e+02
1.600000e-07	-7.835939e-06	-6.227617e-09	-5.651501e+01	-3.938107e+02
1.700000e-07	-7.827054e-06	-5.930270e-09	-5.645094e+01	-3.911340e+02
1.800000e-07	-7.817449e-06	-5.992629e-09	-5.638166e+01	-3.881852e+02
1.900000e-07	-7.806564e-06	-6.038179e-09	-5.630315e+01	-3.849894e+02
2.000000e-07	-7.794867e-06	-6.206179e-09	-5.621879e+01	-3.815767e+02
2.100000e-07	-7.782938e-06	-6.328000e-09	-5.613276e+01	-3.779817e+02
2.200000e-07	-7.770505e-06	-6.052047e-09	-5.604309e+01	-3.742427e+02
2.300000e-07	-7.757173e-06	-5.790938e-09	-5.594693e+01	-3.704007e+02
2.400000e-07	-7.743389e-06	-6.092635e-09	-5.584752e+01	-3.664992e+02
2.500000e-07	-7.729245e-06	-6.178646e-09	-5.574550e+01	-3.625825e+02
2.600000e-07	-7.713874e-06	-5.582555e-09	-5.563465e+01	-3.586955e+02
2.700000e-07	-7.697285e-06	-5.307631e-09	-5.551500e+01	-3.548820e+02
2.800000e-07	-7.680377e-06	-5.601045e-09	-5.539306e+01	-3.511845e+02
2.900000e-07	-7.663177e-06	-5.487618e-09	-5.526901e+01	-3.476427e+02
3.000000e-07	-7.645492e-06	-5.018774e-09	-5.514146e+01	-3.442931e+02
3.100000e-07	-7.627339e-06	-4.900308e-09	-5.501054e+01	-3.411681e+02
3.200000e-07	-7.608501e-06	-4.982849e-09	-5.487466e+01	-3.382950e+02
3.300000e-07	-7.589091e-06	-4.943616e-09	-5.473468e+01	-3.356962e+02
3.400000e-07	-7.569419e-06	-5.186904e-09	-5.459280e+01	-3.333882e+02
3.500000e-07	-7.549456e-06	-5.270484e-09	-5.444882e+01	-3.313813e+02
3.600000e-07	-7.528975e-06	-4.774631e-09	-5.430111e+01	-3.296800e+02
3.700000e-07	-7.507915e-06	-4.749066e-09	-5.414921e+01	-3.282826e+02
3.800000e-07	-7.486435e-06	-5.202527e-09	-5.399429e+01	-3.271812e+02
3.900000e-07	-7.464544e-06	-5.308878e-09	-5.383641e+01	-3.263628e+02
4.000000e-07	-7.442052e-06	-4.968379e-09	-5.367419e+01	-3.258086e+02
4.100000e-07	-7.418875e-06	-4.753635e-09	-5.350703e+01	-3.254956e+02
4.200000e-07	-7.395204e-06	-4.885986e-09	-5.333631e+01	-3.253965e+02
4.300000e-07	-7.371314e-06	-5.239711e-09	-5.316401e+01	-3.254809e+02
4.400000e-07	-7.347008e-06	-5.144177e-09	-5.298871e+01	-3.257159e+02
4.500000e-07	-7.321818e-06	-4.720144e-09	-5.280703e+01	-3.260669e+02
4.600000e-07	-7.295796e-06	-4.712791e-09	-5.261935e+01	-3.264985e+02
4.700000e-07	-7.269132e-06	-5.057674e-09	-5.242705e+01	-3.269754e+02
4.800000e-07	-7.241938e-06	-5.114065e-09	-5.223091e+01	-3.274632e+02
4.900000e-07	-7.214340e-06	-4.922379e-09	-5.203186e+01	-3.279292e+02
5.000000e-07	-7.186387e-06	-4.750815e-09	-5.183026e+01	-3.283432e+02
5.100000e-07	-7.157998e-06	-4.778018e-09	-5.162551e+01	-3.286777e+02
5.200000e-07	-7.129065e-06	-5.002530e-09	-5.141684e+01	-3.289092e+02
5.300000e-07	-7.099648e-06	-5.067721e-09	-5.120467e+01	-3.290180e+02
5.400000e-07	-7.069704e-06	-4.819865e-09	-5.098871e+01	-3.289886e+02
5.500000e-07	-7.039160e-06	-4.670792e-09	-5.076842e+01	-3.288102e+02
5.600000e-07	-7.008072e-06	-4.864383e-09	-5.054421e+01	-3.284766e+02
5.700000e-07	-6.976646e-06	-5.034136e-09	-5.031755e+01	-3.279859e+02
5.800000e-07	-6.944937e-06	-4.893446e-09	-5.008886e+01	-3.273408e+02
5.900000e-07	-6.912866e-06	-4.670862e-09	-4.985755e+01	-3.265479e+02
6.000000e-07	-6.880286e-06	-4.726041e-09	-4.962258e+01	-3.256174e+02
6.100000e-07	-6.847122e-06	-4.912668e-09	-4.938339e+01	-3.245629e+02
6.200000e-07	-6.813305e-06	-4.888769e-09	-4.913949e+01	-3.234005e+02
6.300000e-07	-6.778665e-06	-4.702831e-09	-4.888966e+01	-3.221483e+02
6.400000e-07	-6.743410e-06	-4.678886e-09	-4.863539e+01	-3.208259e+02
6.500000e-07	-6.707804e-06	-4.783024e-09	-4.837859e+01	-3.194537e+02
6.600000e-07	-6.671841e-06	-4.810348e-09	-4.811921e+01	-3.180522e+02
6.700000e-07	-6.635459e-06	-4.729641e-09	-4.785681e+01	-3.166413e+02
6.800000e-07	-6.598577e-06	-4.675510e-09	-4.759081e+01	-3.152400e+02
6.900000e-07	-6.561219e-06	-4.693566e-09	-4.732137e+01	-3.138656e+02
7.000000e-07	-6.523343e-06	-4.738309e-09	-4.704820e+01	-3.125332e+02
7.100000e-07	-6.485040e-06	-4.705557e-09	-4.677195e+01	-3.112557e+02
7.200000e-07	-6.446267e-06	-4.635707e-09	-4.649230e+01	-3.100429e+02
7.300000e-07	-6.407046e-06	-4.630776e-09	-4.620943e+01	-3.089020e+02
7.400000e-07	-6.367593e-06	-4.671169e-09	-4.592489e+01	-3.078369e+02
7.500000e-07	-6.327849e-06	-4.639894e-09	-4.563824e+01	-3.068485e+02
7.600000e-07	-6.287694e-06	-4.574331e-09	-4.534863e+01	-3.059348e+02
7.700000e-07	-6.247093e-06	-4.567439e-09	-4.505581e+01	-3.050907e+02
7.800000e-07	-6.205970e-06	-4.602651e-09	-4.475922e+01	-3.043090e+02
7.900000e-07	-6.164051e-06	-4.586681e-09	-4.445689e+01	-3.035797e+02
8.000000e-07	-6.121418e-06	-4.520148e-09	-4.414941e+01	-3.028916e+02
8.100000e-07	-6.078346e-06	-4.485050e-09	-4.383876e+01	-3.022315e+02
8.200000e-07	-6.034898e-06	-4.514905e-09	-4.352540e+01	-3.015856e+02
8.300000e-07	-5.991028e-06	-4.535784e-09	-4.320900e+01	-3.009395e+02
8.400000e-07	-5.946745e-06	-4.481030e-09	-4.288961e+01	-3.002789e+02
8.500000e-07	-5.902071e-06	-4.410321e-09	-4.256741e+01	-2.995898e+02
8.600000e-07	-5.857007e-06	-4.412433e-09	-4.224240e+01	-2.988591e+02
8.700000e-07	-5.811499e-06	-4.459397e-09	-4.191418e+01	-2.980752e+02
8.800000e-07	-5.765628e-06	-4.442277e-09	-4.158335e+01	-2.972278e+02
8.900000e-07	-5.719475e-06	-4.360401e-09	-4.125048e+01	-2.963088e+02
9.000000e-07	-5.672938e-06	-4.315636e-09	-4.091484e+01	-2.953119e+02
9.100000e-07	-5.626018e-06	-4.347143e-09	-4.057643e+01	-2.942332e+02
9.200000e-07	-5.578678e-06	-4.370761e-09	-4.023501e+01	-2.930711e+02
9.300000e-07	-5.530984e-06	-4.327157e-09	-3.989102e+01	-2.918261e+02
9.400000e-07	-5.482860e-06	-4.257423e-09	-3.954394e+01	-2.905012e+02
9.500000e-07	-5.434132e-06	-4.246008e-09	-3.919250e+01	-2.891011e+02
9.600000e-07	-5.384848e-06	-4.279059e-09	-3.883705e+01	-2.876324e+02
9.700000e-07	-5.335095e-06	-4.280302e-09	-3.847822e+01	-2.861033e+02
9.800000e-07	-5.284846e-06	-4.219173e-09	-3.811581e+01	-2.845230e+02
9.900000e-07	-5.234032e-06	-4.161918e-09	-3.774933e+01	-2.829017e+02
1.000000e-06	-5.182710e-06	-4.159165e-09	-3.737918e+01	-2.812501e+02
1.010000e-06	-5.130917e-06	-4.178057e-09	-3.700563e+01	-2.795790e+02
1.020000e-06	-5.078749e-06	-4.156329e-09	-3.662938e+01	-2.778988e+02
1.030000e-06	-5.026295e-06	-4.102164e-09	-3.625106e+01	-2.762194e+02
1.040000e-06	-4.973450e-06	-4.064295e-09	-3.586994e+01	-2.745498e+02
1.050000e-06	-4.920195e-06	-4.067646e-09	-3.548584e+01	-2.728976e+02
1.060000e-06	-4.866630e-06	-4.074702e-09	-3.509952e+01	-2.712691e+02
1.070000e-06	-4.812671e-06	-4.042359e-09	-3.471035e+01	-2.696689e+02
1.080000e-06	-4.758316e-06	-3.986272e-09	-3.431833e+01	-2.680997e+02
1.090000e-06	-4.703666e-06	-3.954551e-09	-3.392418e+01	-2.665626e+02
1.100000e-06	-4.648694e-06	-3.950997e-09	-3.352770e+01	-2.650565e+02
1.110000e-06	-4.593467e-06	-3.941241e-09	-3.312939e+01	-2.635789e+02
1.120000e-06	-4.538025e-06	-3.903725e-09	-3.272952e+01	-2.621254e+02
1.130000e-06	-4.482266e-06	-3.858434e-09	-3.232737e+01	-2.606900e+02
1.140000e-06	-4.426181e-06	-3.833596e-09	-3.192287e+01	-2.592656e+02
1.150000e-06	-4.369818e-06	-3.826454e-09	-3.151637e+01	-2.578441e+02
1.160000e-06	-4.313266e-06	-3.812651e-09	-3.110850e+01	-2.564165e+02
1.170000e-06	-4.256472e-06	-3.775317e-09	-3.069888e+01	-2.549734e+02
1.180000e-06	-4.199254e-06	-3.730597e-09	-3.028621e+01	-2.535052e+02
1.190000e-06	-4.141481e-06	-3.704407e-09	-2.986954e+01	-2.520028e+02
1.200000e-06	-4.083299e-06	-3.697703e-09	-2.944991e+01	-2.504571e+02
1.210000e-06	-4.024892e-06	-3.677971e-09	-2.902866e+01	-2.488602e+02
1.220000e-06	-3.966125e-06	-3.634274e-09	-2.860482e+01	-2.472049e+02
1.230000e-06	-3.907037e-06	-3.590078e-09	-2.817866e+01	-2.454854e+02
1.240000e-06	-3.847638e-06	-3.567976e-09	-2.775026e+01	-2.436972e+02
1.250000e-06	-3.787905e-06	-3.554480e-09	-2.731944e+01	-2.418374e+02
1.260000e-06	-3.727924e-06	-3.525670e-09	-2.688684e+01	-2.399044e+02
1.270000e-06	-3.667754e-06	-3.482108e-09	-2.645288e+01	-2.378986e+02
1.280000e-06	-3.607362e-06	-3.442672e-09	-2.601732e+01	-2.358215e+02
1.290000e-06	-3.546716e-06	-3.419754e-09	-2.557992e+01	-2.336765e+02
1.300000e-06	-3.485931e-06	-3.405120e-09	-2.514152e+01	-2.314678e+02
1.310000e-06	-3.424996e-06	-3.376602e-09	-2.470204e+01	-2.292011e+02
1.320000e-06	-3.363893e-06	-3.332533e-09	-2.426135e+01	-2.268829e+02
1.330000e-06	-3.302546e-06	-3.294079e-09	-2.381890e+01	-2.245203e+02
1.340000e-06	-3.240822e-06	-3.274108e-09	-2.337373e+01	-2.221209e+02
1.350000e-06	-3.178854e-06	-3.253739e-09	-2.292680e+01	-2.196923e+02
1.360000e-06	-3.116640e-06	-3.215783e-09	-2.247809e+01	-2.172420e+02
1.370000e-06	-3.054127e-06	-3.169689e-09	-2.202723e+01	-2.147773e+02
1.380000e-06	-2.991423e-06	-3.134527e-09	-2.157499e+01	-2.123045e+02
1.390000e-06	-2.928627e-06	-3.108696e-09	-2.112209e+01	-2.098292e+02
1.400000e-06	-2.865769e-06	-3.079004e-09	-2.066874e+01	-2.073561e+02
1.410000e-06	-2.802788e-06	-3.038160e-09	-2.021450e+01	-2.048884e+02
1.420000e-06	-2.739593e-06	-2.995587e-09	-1.975872e+01	-2.024282e+02
1.430000e-06	-2.676247e-06	-2.962609e-09	-1.930185e+01	-1.999762e+02
1.440000e-06	-2.612793e-06	-2.935888e-09	-1.884420e+01	-1.975316e+02
1.450000e-06	-2.549134e-06	-2.902439e-09	-1.838508e+01	-1.950923e+02
1.460000e-06	-2.485258e-06	-2.858316e-09	-1.792439e+01	-1.926549e+02
1.470000e-06	-2.421187e-06	-2.812567e-09	-1.746229e+01	-1.902151e+02
1.480000e-06	-2.356980e-06	-2.775034e-09	-1.699921e+01	-1.877673e+02
1.490000e-06	-2.292573e-06	-2.741696e-09	-1.653469e+01	-1.853052e+02
1.500000e-06	-2.227886e-06	-2.703983e-09	-1.606815e+01	-1.828220e+02
1.510000e-06	-2.163040e-06	-2.661605e-09	-1.560046e+01	-1.803104e+02
1.520000e-06	-2.098087e-06	-2.616557e-09	-1.513200e+01	-1.777632e+02
1.530000e-06	-2.032961e-06	-2.572754e-09	-1.466229e+01	-1.751731e+02
1.540000e-06	-1.967666e-06	-2.530293e-09	-1.419136e+01	-1.725333e+02
1.550000e-06	-1.902235e-06	-2.486231e-09	-1.371946e+01	-1.698377e+02
1.560000e-06	-1.836724e-06	-2.438347e-09	-1.324698e+01	-1.670808e+02
1.570000e-06	-1.771074e-06	-2.390324e-09	-1.277349e+01	-1.642581e+02
1.580000e-06	-1.705272e-06	-2.349043e-09	-1.229890e+01	-1.613664e+02
1.590000e-06	-1.639356e-06	-2.313035e-09	-1.182350e+01	-1.584033e+02
1.600000e-06	-1.573352e-06	-2.273731e-09	-1.134746e+01	-1.553679e+02
1.610000e-06	-1.507279e-06	-2.225499e-09	-1.087093e+01	-1.522607e+02
1.620000e-06	-1.440994e-06	-2.174755e-09	-1.039285e+01	-1.490830e+02
1.630000e-06	-1.374472e-06	-2.134650e-09	-9.913082e+00	-1.458377e+02
1.640000e-06	-1.307818e-06	-2.098139e-09	-9.432351e+00	-1.425283e+02
1.650000e-06	-1.241088e-06	-2.051814e-09	-8.951080e+00	-1.391595e+02
1.660000e-06	-1.174299e-06	-1.991973e-09	-8.469378e+00	-1.357366e+02
1.670000e-06	-1.107416e-06	-1.933163e-09	-7.986998e+00	-1.322654e+02
1.680000e-06	-1.040445e-06	-1.886476e-09	-7.503983e+00	-1.287519e+02
1.690000e-06	-9.734370e-07	-1.843065e-09	-7.020704e+00	-1.252023e+02
1.700000e-06	-9.063406e-07	-1.791866e-09	-6.536786e+00	-1.216225e+02
1.710000e-06	-8.391847e-07	-1.736711e-09	-6.052438e+00	-1.180183e+02
1.720000e-06	-7.720381e-07	-1.684588e-09	-5.568158e+00	-1.143944e+02
1.730000e-06	-7.047822e-07	-1.639085e-09	-5.083089e+00	-1.107551e+02
1.740000e-06	-6.374397e-07	-1.590796e-09	-4.597396e+00	-1.071037e+02
1.750000e-06	-5.700914e-07	-1.532544e-09	-4.111661e+00	-1.034424e+02
1.760000e-06	-5.026989e-07	-1.472138e-09	-3.625607e+00	-9.977210e+01
1.770000e-06	-4.352344e-07	-1.417394e-09	-3.139034e+00	-9.609265e+01
1.780000e-06	-3.676983e-07	-1.365266e-09	-2.651944e+00	-9.240260e+01
1.790000e-06	-3.000878e-07	-1.306988e-09	-2.164318e+00	-8.869933e+01
1.800000e-06	-2.323984e-07	-1.245005e-09	-1.676123e+00	-8.497905e+01
1.810000e-06	-1.647192e-07	-1.186340e-09	-1.188002e+00	-8.123696e+01
1.820000e-06	-9.715951e-08	-1.132559e-09	-7.007419e-01	-7.746738e+01
1.830000e-06	-2.954402e-08	-1.078386e-09	-2.130799e-01	-7.366390e+01
1.840000e-06	3.810108e-08	-1.022254e-09	2.747958e-01	-6.981957e+01
1.850000e-06	1.056411e-07	-9.639975e-10	7.619139e-01	-6.592713e+01
1.860000e-06	1.731397e-07	-9.017195e-10	1.248733e+00	-6.197922e+01
1.870000e-06	2.406531e-07	-8.363185e-10	1.735659e+00	-5.796858e+01
1.880000e-06	3.082300e-07	-7.713453e-10	2.223042e+00	-5.388829e+01
1.890000e-06	3.757426e-07	-7.062209e-10	2.709962e+00	-4.973197e+01
1.900000e-06	4.432043e-07	-6.398961e-10	3.196515e+00	-4.549397e+01
1.910000e-06	5.106509e-07	-5.720181e-10	3.682959e+00	-4.116951e+01
1.920000e-06	5.780746e-07	-5.070760e-10	4.169238e+00	-3.675487e+01
1.930000e-06	6.454405e-07	-4.453117e-10	4.655100e+00	-3.224742e+01
1.940000e-06	7.127096e-07	-3.805276e-10	5.140264e+00	-2.764577e+01
1.950000e-06	7.799456e-07	-3.090813e-10	5.625189e+00	-2.294975e+01
1.960000e-06	8.471114e-07	-2.340772e-10	6.109608e+00	-1.816041e+01
1.970000e-06	9.141397e-07	-1.598491e-10	6.593035e+00	-1.328001e+01
1.980000e-06	9.812117e-07	-8.762037e-11	7.076777e+00	-8.311909e+00
1.990000e-06	1.048289e-06	-1.363969e-11	7.560557e+00	-3.260505e+00
2.000000e-06	1.115152e-06	6.390392e-11	8.042790e+00	1.868933e+00
2.010000e-06	1.181888e-06	1.402772e-10	8.524113e+00	7.070396e+00
2.020000e-06	1.248442e-06	2.121732e-10	9.004117e+00	1.233731e+01
2.030000e-06	1.314827e-06	2.850106e-10	9.482907e+00	1.766269e+01
2.040000e-06	1.381145e-06	3.657313e-10	9.961211e+00	2.303936e+01
2.050000e-06	1.447490e-06	4.491239e-10	1.043971e+01	2.846010e+01
2.060000e-06	1.513743e-06	5.281501e-10	1.091755e+01	3.391780e+01
2.070000e-06	1.579765e-06	6.070009e-10	1.139371e+01	3.940564e+01
2.080000e-06	1.645685e-06	6.907902e-10	1.186915e+01	4.491721e+01
2.090000e-06	1.711493e-06	7.776401e-10	1.234377e+01	5.044662e+01
2.100000e-06	1.777078e-06	8.610912e-10	1.281679e+01	5.598855e+01
2.110000e-06	1.842455e-06	9.434730e-10	1.328831e+01	6.153836e+01
2.120000e-06	1.907676e-06	1.028541e-09	1.375870e+01	6.709205e+01
2.130000e-06	1.972753e-06	1.113273e-09	1.422806e+01	7.264627e+01
2.140000e-06	2.037788e-06	1.197074e-09	1.469710e+01	7.819829e+01
2.150000e-06	2.102747e-06	1.280799e-09	1.516561e+01	8.374592e+01
2.160000e-06	2.167498e-06	1.367722e-09	1.563261e+01	8.928740e+01
2.170000e-06	2.232134e-06	1.457453e-09	1.609879e+01	9.482132e+01
2.180000e-06	2.296598e-06	1.547343e-09	1.656372e+01	1.003465e+02
2.190000e-06	2.360775e-06	1.635419e-09	1.702658e+01	1.058618e+02
2.200000e-06	2.424865e-06	1.723471e-09	1.748882e+01	1.113659e+02
2.210000e-06	2.488899e-06	1.810737e-09	1.795065e+01	1.168576e+02
2.220000e-06	2.552656e-06	1.895328e-09	1.841048e+01	1.223351e+02
2.230000e-06	2.616124e-06	1.979127e-09	1.886823e+01	1.277962e+02
2.240000e-06	2.679403e-06	2.062724e-09	1.932462e+01	1.332381e+02
2.250000e-06	2.742521e-06	2.144698e-09	1.977984e+01	1.386577e+02
2.260000e-06	2.805542e-06	2.225689e-09	2.023436e+01	1.440508e+02
2.270000e-06	2.868445e-06	2.306173e-09	2.068804e+01	1.494128e+02
2.280000e-06	2.931169e-06	2.385881e-09	2.114042e+01	1.547386e+02
2.290000e-06	2.993723e-06	2.466734e-09	2.159158e+01	1.600221e+02
2.300000e-06	3.056130e-06	2.546651e-09	2.204168e+01	1.652569e+02
2.310000e-06	3.118307e-06	2.625374e-09	2.249012e+01	1.704363e+02
2.320000e-06	3.180260e-06	2.702836e-09	2.293694e+01	1.755531e+02
2.330000e-06	3.241980e-06	2.775239e-09	2.338208e+01	1.806001e+02
2.340000e-06	3.303398e-06	2.844016e-09	2.382505e+01	1.855701e+02
2.350000e-06	3.364489e-06	2.911866e-09	2.426565e+01	1.904560e+02
2.360000e-06	3.425352e-06	2.980262e-09	2.470461e+01	1.952514e+02
2.370000e-06	3.486042e-06	3.048141e-09	2.514233e+01	1.999501e+02
2.380000e-06	3.546556e-06	3.113787e-09	2.557877e+01	2.045470e+02
2.390000e-06	3.606919e-06	3.175340e-09	2.601412e+01	2.090377e+02
2.400000e-06	3.667149e-06	3.236253e-09	2.644852e+01	2.134189e+02
2.410000e-06	3.727252e-06	3.299626e-09	2.688200e+01	2.176884e+02
2.420000e-06	3.787010e-06	3.362200e-09	2.731299e+01	2.218452e+02
2.430000e-06	3.846358e-06	3.417926e-09	2.774103e+01	2.258899e+02
2.440000e-06	3.905413e-06	3.469124e-09	2.816695e+01	2.298238e+02
2.450000e-06	3.964304e-06	3.524350e-09	2.859169e+01	2.336500e+02
2.460000e-06	4.022833e-06	3.581130e-09	2.901381e+01	2.373724e+02
2.470000e-06	4.080832e-06	3.634155e-09	2.943212e+01	2.409961e+02
2.480000e-06	4.138503e-06	3.684601e-09	2.984806e+01	2.445272e+02
2.490000e-06	4.195820e-06	3.737585e-09	3.026144e+01	2.479725e+02
2.500000e-06	4.252729e-06	3.796737e-09	3.067189e+01	2.513393e+02
2.510000e-06	4.309265e-06	3.852798e-09	3.107964e+01	2.546353e+02
2.520000e-06	4.365520e-06	3.900485e-09	3.148537e+01	2.578684e+02
2.530000e-06	4.421421e-06	3.945218e-09	3.188854e+01	2.610463e+02
2.540000e-06	4.476974e-06	3.991806e-09	3.228921e+01	2.641765e+02
2.550000e-06	4.532273e-06	4.038417e-09	3.268804e+01	2.672659e+02
2.560000e-06	4.587332e-06	4.081424e-09	3.308514e+01	2.703205e+02
2.570000e-06	4.642175e-06	4.123790e-09	3.348068e+01	2.733456e+02
2.580000e-06	4.696725e-06	4.166807e-09	3.387412e+01	2.763454e+02
2.590000e-06	4.750985e-06	4.211455e-09	3.426545e+01	2.793227e+02
2.600000e-06	4.804978e-06	4.256728e-09	3.465486e+01	2.822793e+02
2.610000e-06	4.858564e-06	4.300131e-09	3.504134e+01	2.852157e+02
2.620000e-06	4.911687e-06	4.341086e-09	3.542448e+01	2.881308e+02
2.630000e-06	4.964506e-06	4.380251e-09	3.580542e+01	2.910227e+02
2.640000e-06	5.016963e-06	4.417442e-09	3.618376e+01	2.938881e+02
2.650000e-06	5.068954e-06	4.453790e-09	3.655873e+01	2.967227e+02
2.660000e-06	5.120554e-06	4.488321e-09	3.693089e+01	2.995214e+02
2.670000e-06	5.171796e-06	4.522479e-09	3.730046e+01	3.022786e+02
2.680000e-06	5.222471e-06	4.557184e-09	3.766594e+01	3.049881e+02
2.690000e-06	5.272473e-06	4.592742e-09	3.802657e+01	3.076436e+02
2.700000e-06	5.322007e-06	4.629394e-09	3.838383e+01	3.102388e+02
2.710000e-06	5.371165e-06	4.664103e-09	3.873837e+01	3.127678e+02
2.720000e-06	5.419888e-06	4.696038e-09	3.908977e+01	3.152251e+02
2.730000e-06	5.468131e-06	4.726840e-09	3.943771e+01	3.176061e+02
2.740000e-06	5.516004e-06	4.758276e-09	3.978298e+01	3.199071e+02
2.750000e-06	5.563544e-06	4.789639e-09	4.012586e+01	3.221255e+02
2.760000e-06	5.610622e-06	4.819044e-09	4.046540e+01	3.242600e+02
2.770000e-06	5.657327e-06	4.848452e-09	4.080225e+01	3.263106e+02
2.780000e-06	5.703720e-06	4.879530e-09	4.113685e+01	3.282785e+02
2.790000e-06	5.749666e-06	4.912203e-09	4.146823e+01	3.301667e+02
2.800000e-06	5.795103e-06	4.943001e-09	4.179593e+01	3.319791e+02
2.810000e-06	5.840120e-06	4.971999e-09	4.212061e+01	3.337210e+02
2.820000e-06	5.884783e-06	4.999810e-09	4.244272e+01	3.353988e+02
2.830000e-06	5.929154e-06	5.025299e-09	4.276274e+01	3.370197e+02
2.840000e-06	5.973237e-06	5.051896e-09	4.308068e+01	3.385916e+02
2.850000e-06	6.017028e-06	5.076725e-09	4.339652e+01	3.401230e+02
2.860000e-06	6.060576e-06	5.099567e-09	4.371059e+01	3.416224e+02
2.870000e-06	6.103658e-06	5.123008e-09	4.402131e+01	3.430984e+02
2.880000e-06	6.146091e-06	5.148330e-09	4.432735e+01	3.445590e+02
2.890000e-06	6.187874e-06	5.173205e-09	4.462871e+01	3.460119e+02
2.900000e-06	6.228976e-06	5.198756e-09	4.492514e+01	3.474638e+02
