# Temperatura_=_20.0
# Concentracion g/m^3_=_12600.0
# C_Vs_to_Am_M_A/Vsm_=_65563218390.804596
# pendiente_HvsI_1/m_=_3716.3
# ordenada_HvsI_A/m_=_1297.0
# frecuencia_Hz_=_135504.2238813629

Tiempo_(s)	Campo_(V.s)	Magnetizacion_(V.s)	Campo_(kA/m)	Magnetizacion_(A/m)
0.000000e+00	-7.915881e-06	-6.019293e-09	-5.704710e+01	-4.010840e+02
1.000000e-08	-7.915959e-06	-6.014024e-09	-5.704766e+01	-4.015932e+02
2.000000e-08	-7.915542e-06	-6.018008e-09	-5.704465e+01	-4.020872e+02
3.000000e-08	-7.914403e-06	-6.022903e-09	-5.703645e+01	-4.025452e+02
4.000000e-08	-7.912447e-06	-6.021335e-09	-5.702234e+01	-4.029450e+02
5.000000e-08	-7.909613e-06	-6.017966e-09	-5.700192e+01	-4.032635e+02
6.000000e-08	-7.906198e-06	-6.011294e-09	-5.697731e+01	-4.034773e+02
7.000000e-08	-7.902521e-06	-5.986050e-09	-5.695082e+01	-4.035635e+02
8.000000e-08	-7.898510e-06	-5.952787e-09	-5.692191e+01	-4.034999e+02
9.000000e-08	-7.893877e-06	-6.010212e-09	-5.688852e+01	-4.032656e+02
1.000000e-07	-7.888297e-06	-6.128857e-09	-5.684831e+01	-4.028419e+02
1.100000e-07	-7.881679e-06	-6.170186e-09	-5.680061e+01	-4.022124e+02
1.200000e-07	-7.874397e-06	-5.947214e-09	-5.674814e+01	-4.013638e+02
1.300000e-07	-7.866834e-06	-5.634040e-09	-5.669363e+01	-4.002861e+02
1.400000e-07	-7.859149e-06	-5.836537e-09	-5.663825e+01	-3.989731e+02
1.500000e-07	-7.851100e-06	-6.251378e-09	-5.658024e+01	-3.974225e+02
1.600000e-07	-7.842542e-06	-6.087893e-09	-5.651857e+01	-3.956363e+02
1.700000e-07	-7.833532e-06	-5.821908e-09	-5.645363e+01	-3.936207e+02
1.800000e-07	-7.823666e-06	-5.839304e-09	-5.638254e+01	-3.913861e+02
1.900000e-07	-7.812733e-06	-5.867832e-09	-5.630374e+01	-3.889469e+02
2.000000e-07	-7.801185e-06	-6.028120e-09	-5.622052e+01	-3.863216e+02
2.100000e-07	-7.789390e-06	-6.170523e-09	-5.613552e+01	-3.835321e+02
2.200000e-07	-7.776944e-06	-5.936576e-09	-5.604582e+01	-3.806035e+02
2.300000e-07	-7.763641e-06	-5.669080e-09	-5.594996e+01	-3.775636e+02
2.400000e-07	-7.749954e-06	-5.952340e-09	-5.585132e+01	-3.744423e+02
2.500000e-07	-7.735844e-06	-6.103822e-09	-5.574963e+01	-3.712711e+02
2.600000e-07	-7.720636e-06	-5.683076e-09	-5.564003e+01	-3.680824e+02
2.700000e-07	-7.704341e-06	-5.449642e-09	-5.552259e+01	-3.649087e+02
2.800000e-07	-7.687598e-06	-5.723416e-09	-5.540194e+01	-3.617821e+02
2.900000e-07	-7.670539e-06	-5.681575e-09	-5.527900e+01	-3.587337e+02
3.000000e-07	-7.652883e-06	-5.312588e-09	-5.515176e+01	-3.557927e+02
3.100000e-07	-7.634679e-06	-5.239433e-09	-5.502057e+01	-3.529862e+02
3.200000e-07	-7.616004e-06	-5.345840e-09	-5.488598e+01	-3.503382e+02
3.300000e-07	-7.596781e-06	-5.250365e-09	-5.474745e+01	-3.478694e+02
3.400000e-07	-7.577188e-06	-5.321409e-09	-5.460625e+01	-3.455968e+02
3.500000e-07	-7.557271e-06	-5.461974e-09	-5.446272e+01	-3.435333e+02
3.600000e-07	-7.536833e-06	-5.255666e-09	-5.431542e+01	-3.416876e+02
3.700000e-07	-7.515839e-06	-5.154737e-09	-5.416412e+01	-3.400641e+02
3.800000e-07	-7.494350e-06	-5.318031e-09	-5.400926e+01	-3.386627e+02
3.900000e-07	-7.472284e-06	-5.407251e-09	-5.385024e+01	-3.374791e+02
4.000000e-07	-7.449786e-06	-5.320204e-09	-5.368810e+01	-3.365050e+02
4.100000e-07	-7.426812e-06	-5.198481e-09	-5.352254e+01	-3.357283e+02
4.200000e-07	-7.403314e-06	-5.140165e-09	-5.335320e+01	-3.351333e+02
4.300000e-07	-7.379434e-06	-5.271989e-09	-5.318110e+01	-3.347016e+02
4.400000e-07	-7.355025e-06	-5.309397e-09	-5.300519e+01	-3.344123e+02
4.500000e-07	-7.329872e-06	-5.181534e-09	-5.282392e+01	-3.342423e+02
4.600000e-07	-7.303913e-06	-5.126954e-09	-5.263685e+01	-3.341676e+02
4.700000e-07	-7.277271e-06	-5.179401e-09	-5.244485e+01	-3.341631e+02
4.800000e-07	-7.250106e-06	-5.194268e-09	-5.224908e+01	-3.342038e+02
4.900000e-07	-7.222498e-06	-5.256006e-09	-5.205012e+01	-3.342651e+02
5.000000e-07	-7.194460e-06	-5.226210e-09	-5.184806e+01	-3.343233e+02
5.100000e-07	-7.165986e-06	-5.084648e-09	-5.164286e+01	-3.343564e+02
5.200000e-07	-7.137049e-06	-5.078473e-09	-5.143432e+01	-3.343444e+02
5.300000e-07	-7.107623e-06	-5.227231e-09	-5.122225e+01	-3.342694e+02
5.400000e-07	-7.077666e-06	-5.230879e-09	-5.100636e+01	-3.341166e+02
5.500000e-07	-7.047172e-06	-5.086569e-09	-5.078661e+01	-3.338739e+02
5.600000e-07	-7.016223e-06	-5.025126e-09	-5.056356e+01	-3.335323e+02
5.700000e-07	-6.984827e-06	-5.124301e-09	-5.033731e+01	-3.330860e+02
5.800000e-07	-6.953067e-06	-5.176261e-09	-5.010842e+01	-3.325326e+02
5.900000e-07	-6.920977e-06	-5.078036e-09	-4.987715e+01	-3.318722e+02
6.000000e-07	-6.888354e-06	-4.998955e-09	-4.964205e+01	-3.311083e+02
6.100000e-07	-6.855096e-06	-5.043770e-09	-4.940237e+01	-3.302467e+02
6.200000e-07	-6.821155e-06	-5.077649e-09	-4.915777e+01	-3.292957e+02
6.300000e-07	-6.786542e-06	-5.027873e-09	-4.890833e+01	-3.282653e+02
6.400000e-07	-6.751417e-06	-4.990724e-09	-4.865520e+01	-3.271674e+02
6.500000e-07	-6.715852e-06	-4.995125e-09	-4.839889e+01	-3.260145e+02
6.600000e-07	-6.679932e-06	-5.002085e-09	-4.814003e+01	-3.248203e+02
6.700000e-07	-6.643610e-06	-4.981743e-09	-4.787827e+01	-3.235983e+02
6.800000e-07	-6.606801e-06	-4.955264e-09	-4.761300e+01	-3.223620e+02
6.900000e-07	-6.569555e-06	-4.944539e-09	-4.734458e+01	-3.211242e+02
7.000000e-07	-6.531770e-06	-4.961575e-09	-4.707227e+01	-3.198968e+02
7.100000e-07	-6.493466e-06	-4.932815e-09	-4.679623e+01	-3.186902e+02
7.200000e-07	-6.454714e-06	-4.874909e-09	-4.651696e+01	-3.175133e+02
7.300000e-07	-6.415604e-06	-4.865131e-09	-4.623510e+01	-3.163732e+02
7.400000e-07	-6.376226e-06	-4.907280e-09	-4.595132e+01	-3.152748e+02
7.500000e-07	-6.336489e-06	-4.885864e-09	-4.566495e+01	-3.142213e+02
7.600000e-07	-6.296320e-06	-4.808339e-09	-4.537546e+01	-3.132136e+02
7.700000e-07	-6.255701e-06	-4.774508e-09	-4.508274e+01	-3.122504e+02
7.800000e-07	-6.214535e-06	-4.820094e-09	-4.478607e+01	-3.113288e+02
7.900000e-07	-6.172695e-06	-4.840713e-09	-4.448454e+01	-3.104439e+02
8.000000e-07	-6.130212e-06	-4.778650e-09	-4.417838e+01	-3.095893e+02
8.100000e-07	-6.087189e-06	-4.698400e-09	-4.386833e+01	-3.087574e+02
8.200000e-07	-6.043719e-06	-4.707208e-09	-4.355505e+01	-3.079394e+02
8.300000e-07	-5.999876e-06	-4.764068e-09	-4.323909e+01	-3.071260e+02
8.400000e-07	-5.955597e-06	-4.747126e-09	-4.291999e+01	-3.063073e+02
8.500000e-07	-5.910897e-06	-4.649568e-09	-4.259785e+01	-3.054736e+02
8.600000e-07	-5.865836e-06	-4.603200e-09	-4.227311e+01	-3.046153e+02
8.700000e-07	-5.820414e-06	-4.652641e-09	-4.194577e+01	-3.037234e+02
8.800000e-07	-5.774596e-06	-4.685335e-09	-4.161557e+01	-3.027898e+02
8.900000e-07	-5.728395e-06	-4.624026e-09	-4.128262e+01	-3.018074e+02
9.000000e-07	-5.681863e-06	-4.543099e-09	-4.094728e+01	-3.007705e+02
9.100000e-07	-5.634927e-06	-4.537555e-09	-4.060903e+01	-2.996746e+02
9.200000e-07	-5.587586e-06	-4.574975e-09	-4.026786e+01	-2.985170e+02
9.300000e-07	-5.539911e-06	-4.567769e-09	-3.992428e+01	-2.972963e+02
9.400000e-07	-5.491726e-06	-4.499536e-09	-3.957703e+01	-2.960129e+02
9.500000e-07	-5.442982e-06	-4.451825e-09	-3.922575e+01	-2.946685e+02
9.600000e-07	-5.393753e-06	-4.459274e-09	-3.887097e+01	-2.932663e+02
9.700000e-07	-5.343983e-06	-4.477481e-09	-3.851229e+01	-2.918109e+02
9.800000e-07	-5.293666e-06	-4.450941e-09	-3.814968e+01	-2.903077e+02
9.900000e-07	-5.242846e-06	-4.394504e-09	-3.778343e+01	-2.887631e+02
1.000000e-06	-5.191485e-06	-4.356164e-09	-3.741329e+01	-2.871840e+02
1.010000e-06	-5.139692e-06	-4.353849e-09	-3.704003e+01	-2.855779e+02
1.020000e-06	-5.087630e-06	-4.355197e-09	-3.666484e+01	-2.839520e+02
1.030000e-06	-5.035150e-06	-4.334084e-09	-3.628664e+01	-2.823138e+02
1.040000e-06	-4.982221e-06	-4.286409e-09	-3.590519e+01	-2.806699e+02
1.050000e-06	-4.928940e-06	-4.249842e-09	-3.552121e+01	-2.790267e+02
1.060000e-06	-4.875308e-06	-4.242946e-09	-3.513471e+01	-2.773894e+02
1.070000e-06	-4.821352e-06	-4.242289e-09	-3.474586e+01	-2.757625e+02
1.080000e-06	-4.767149e-06	-4.211153e-09	-3.435524e+01	-2.741490e+02
1.090000e-06	-4.712587e-06	-4.160416e-09	-3.396203e+01	-2.725510e+02
1.100000e-06	-4.657676e-06	-4.124182e-09	-3.356631e+01	-2.709690e+02
1.110000e-06	-4.602545e-06	-4.118683e-09	-3.316900e+01	-2.694024e+02
1.120000e-06	-4.547115e-06	-4.113701e-09	-3.276953e+01	-2.678493e+02
1.130000e-06	-4.491424e-06	-4.076966e-09	-3.236819e+01	-2.663065e+02
1.140000e-06	-4.435440e-06	-4.024689e-09	-3.196473e+01	-2.647697e+02
1.150000e-06	-4.379149e-06	-3.995147e-09	-3.155906e+01	-2.632339e+02
1.160000e-06	-4.322643e-06	-3.992119e-09	-3.115184e+01	-2.616930e+02
1.170000e-06	-4.265805e-06	-3.977548e-09	-3.074222e+01	-2.601407e+02
1.180000e-06	-4.208494e-06	-3.931347e-09	-3.032920e+01	-2.585702e+02
1.190000e-06	-4.150747e-06	-3.885148e-09	-2.991304e+01	-2.569744e+02
1.200000e-06	-4.092681e-06	-3.868762e-09	-2.949458e+01	-2.553465e+02
1.210000e-06	-4.034289e-06	-3.861555e-09	-2.907377e+01	-2.536801e+02
1.220000e-06	-3.975509e-06	-3.833921e-09	-2.865016e+01	-2.519691e+02
1.230000e-06	-3.916408e-06	-3.786573e-09	-2.822424e+01	-2.502082e+02
1.240000e-06	-3.856957e-06	-3.746820e-09	-2.779579e+01	-2.483930e+02
1.250000e-06	-3.797162e-06	-3.723399e-09	-2.736487e+01	-2.465199e+02
1.260000e-06	-3.737118e-06	-3.704290e-09	-2.693216e+01	-2.445866e+02
1.270000e-06	-3.676880e-06	-3.673604e-09	-2.649804e+01	-2.425917e+02
1.280000e-06	-3.616528e-06	-3.630424e-09	-2.606310e+01	-2.405351e+02
1.290000e-06	-3.556006e-06	-3.591532e-09	-2.562694e+01	-2.384178e+02
1.300000e-06	-3.495241e-06	-3.570999e-09	-2.518903e+01	-2.362418e+02
1.310000e-06	-3.434312e-06	-3.553459e-09	-2.474994e+01	-2.340100e+02
1.320000e-06	-3.373209e-06	-3.520760e-09	-2.430959e+01	-2.317263e+02
1.330000e-06	-3.311821e-06	-3.475566e-09	-2.386718e+01	-2.293953e+02
1.340000e-06	-3.250106e-06	-3.434909e-09	-2.342242e+01	-2.270218e+02
1.350000e-06	-3.188066e-06	-3.407524e-09	-2.297532e+01	-2.246115e+02
1.360000e-06	-3.125855e-06	-3.383551e-09	-2.252699e+01	-2.221697e+02
1.370000e-06	-3.063427e-06	-3.345616e-09	-2.207709e+01	-2.197019e+02
1.380000e-06	-3.000790e-06	-3.296729e-09	-2.162569e+01	-2.172135e+02
1.390000e-06	-2.937971e-06	-3.253714e-09	-2.117297e+01	-2.147092e+02
1.400000e-06	-2.874941e-06	-3.228779e-09	-2.071874e+01	-2.121933e+02
1.410000e-06	-2.811836e-06	-3.203042e-09	-2.026396e+01	-2.096694e+02
1.420000e-06	-2.748632e-06	-3.160512e-09	-1.980847e+01	-2.071400e+02
1.430000e-06	-2.685320e-06	-3.108293e-09	-1.935220e+01	-2.046071e+02
1.440000e-06	-2.621812e-06	-3.068436e-09	-1.889452e+01	-2.020712e+02
1.450000e-06	-2.558103e-06	-3.040195e-09	-1.843539e+01	-1.995323e+02
1.460000e-06	-2.494284e-06	-3.004130e-09	-1.797547e+01	-1.969891e+02
1.470000e-06	-2.430338e-06	-2.954139e-09	-1.751463e+01	-1.944395e+02
1.480000e-06	-2.366160e-06	-2.904643e-09	-1.705212e+01	-1.918803e+02
1.490000e-06	-2.301619e-06	-2.866571e-09	-1.658699e+01	-1.893079e+02
1.500000e-06	-2.236868e-06	-2.836327e-09	-1.612036e+01	-1.867178e+02
1.510000e-06	-2.172047e-06	-2.799338e-09	-1.565322e+01	-1.841051e+02
1.520000e-06	-2.107035e-06	-2.751161e-09	-1.518469e+01	-1.814644e+02
1.530000e-06	-2.041801e-06	-2.703952e-09	-1.471457e+01	-1.787905e+02
1.540000e-06	-1.976376e-06	-2.662578e-09	-1.424308e+01	-1.760780e+02
1.550000e-06	-1.910874e-06	-2.618362e-09	-1.377103e+01	-1.733215e+02
1.560000e-06	-1.845277e-06	-2.566116e-09	-1.329829e+01	-1.705164e+02
1.570000e-06	-1.779557e-06	-2.511909e-09	-1.282467e+01	-1.676581e+02
1.580000e-06	-1.713689e-06	-2.463198e-09	-1.234998e+01	-1.647431e+02
1.590000e-06	-1.647610e-06	-2.423557e-09	-1.187377e+01	-1.617683e+02
1.600000e-06	-1.581401e-06	-2.388367e-09	-1.139663e+01	-1.587316e+02
1.610000e-06	-1.515110e-06	-2.346986e-09	-1.091889e+01	-1.556316e+02
1.620000e-06	-1.448684e-06	-2.294356e-09	-1.044018e+01	-1.524681e+02
1.630000e-06	-1.382123e-06	-2.239786e-09	-9.960494e+00	-1.492413e+02
1.640000e-06	-1.315484e-06	-2.194759e-09	-9.480250e+00	-1.459528e+02
1.650000e-06	-1.248689e-06	-2.153919e-09	-8.998885e+00	-1.426046e+02
1.660000e-06	-1.181722e-06	-2.099281e-09	-8.516273e+00	-1.391996e+02
1.670000e-06	-1.114685e-06	-2.034923e-09	-8.033161e+00	-1.357410e+02
1.680000e-06	-1.047685e-06	-1.975775e-09	-7.550312e+00	-1.322328e+02
1.690000e-06	-9.806435e-07	-1.930325e-09	-7.067168e+00	-1.286790e+02
1.700000e-06	-9.135320e-07	-1.886192e-09	-6.583519e+00	-1.250839e+02
1.710000e-06	-8.463491e-07	-1.830676e-09	-6.099353e+00	-1.214518e+02
1.720000e-06	-7.791553e-07	-1.771661e-09	-5.615111e+00	-1.177867e+02
1.730000e-06	-7.119514e-07	-1.720915e-09	-5.130794e+00	-1.140923e+02
1.740000e-06	-6.446395e-07	-1.677152e-09	-4.645700e+00	-1.103718e+02
1.750000e-06	-5.772718e-07	-1.623777e-09	-4.160204e+00	-1.066280e+02
1.760000e-06	-5.098848e-07	-1.556707e-09	-3.674569e+00	-1.028627e+02
1.770000e-06	-4.424107e-07	-1.492708e-09	-3.188305e+00	-9.907723e+01
1.780000e-06	-3.748238e-07	-1.439506e-09	-2.701229e+00	-9.527182e+01
1.790000e-06	-3.071733e-07	-1.385910e-09	-2.213695e+00	-9.144599e+01
1.800000e-06	-2.395376e-07	-1.324518e-09	-1.726267e+00	-8.759838e+01
1.810000e-06	-1.719467e-07	-1.262227e-09	-1.239162e+00	-8.372678e+01
1.820000e-06	-1.043537e-07	-1.204789e-09	-7.520424e-01	-7.982825e+01
1.830000e-06	-3.669506e-08	-1.150478e-09	-2.644490e-01	-7.589913e+01
1.840000e-06	3.091372e-08	-1.093414e-09	2.227848e-01	-7.193520e+01
1.850000e-06	9.842409e-08	-1.030423e-09	7.093093e-01	-6.793177e+01
1.860000e-06	1.659401e-07	-9.614903e-10	1.195875e+00	-6.388384e+01
1.870000e-06	2.334863e-07	-8.917270e-10	1.682657e+00	-5.978621e+01
1.880000e-06	3.010484e-07	-8.255567e-10	2.169555e+00	-5.563368e+01
1.890000e-06	3.686349e-07	-7.618473e-10	2.656628e+00	-5.142116e+01
1.900000e-06	4.361882e-07	-6.950330e-10	3.143462e+00	-4.714386e+01
1.910000e-06	5.036758e-07	-6.257690e-10	3.629823e+00	-4.279738e+01
1.920000e-06	5.711223e-07	-5.588352e-10	4.115887e+00	-3.837789e+01
1.930000e-06	6.385745e-07	-4.950630e-10	4.601992e+00	-3.388218e+01
1.940000e-06	7.059811e-07	-4.299508e-10	5.087769e+00	-2.930782e+01
1.950000e-06	7.732404e-07	-3.588309e-10	5.572484e+00	-2.465315e+01
1.960000e-06	8.404091e-07	-2.813234e-10	6.056546e+00	-1.991742e+01
1.970000e-06	9.075195e-07	-2.028037e-10	6.540189e+00	-1.510070e+01
1.980000e-06	9.745876e-07	-1.292874e-10	7.023525e+00	-1.020396e+01
1.990000e-06	1.041562e-06	-5.618763e-11	7.506188e+00	-5.229035e+00
2.000000e-06	1.108425e-06	2.022063e-11	7.988048e+00	-1.785210e-01
2.010000e-06	1.175214e-06	9.477285e-11	8.469370e+00	4.944235e+00
2.020000e-06	1.241941e-06	1.668129e-10	8.950254e+00	1.013525e+01
2.030000e-06	1.308603e-06	2.406138e-10	9.430665e+00	1.538997e+01
2.040000e-06	1.375219e-06	3.206263e-10	9.910744e+00	2.070344e+01
2.050000e-06	1.441762e-06	4.042643e-10	1.039029e+01	2.607033e+01
2.060000e-06	1.508180e-06	4.890072e-10	1.086895e+01	3.148513e+01
2.070000e-06	1.574394e-06	5.732089e-10	1.134613e+01	3.694219e+01
2.080000e-06	1.640527e-06	6.580879e-10	1.182273e+01	4.243587e+01
2.090000e-06	1.706576e-06	7.431815e-10	1.229872e+01	4.796062e+01
2.100000e-06	1.772355e-06	8.290451e-10	1.277277e+01	5.351104e+01
2.110000e-06	1.837990e-06	9.133293e-10	1.324577e+01	5.908199e+01
2.120000e-06	1.903502e-06	9.964206e-10	1.371790e+01	6.466859e+01
2.130000e-06	1.968795e-06	1.080401e-09	1.418844e+01	7.026625e+01
2.140000e-06	2.033824e-06	1.165960e-09	1.465709e+01	7.587074e+01
2.150000e-06	2.098696e-06	1.250513e-09	1.512460e+01	8.147809e+01
2.160000e-06	2.163370e-06	1.336862e-09	1.559068e+01	8.708467e+01
2.170000e-06	2.227860e-06	1.428167e-09	1.605544e+01	9.268705e+01
2.180000e-06	2.292253e-06	1.517645e-09	1.651950e+01	9.828202e+01
2.190000e-06	2.356469e-06	1.605044e-09	1.698228e+01	1.038665e+02
2.200000e-06	2.420543e-06	1.692486e-09	1.744404e+01	1.094374e+02
2.210000e-06	2.484432e-06	1.778638e-09	1.790447e+01	1.149918e+02
2.220000e-06	2.548040e-06	1.861942e-09	1.836287e+01	1.205265e+02
2.230000e-06	2.611487e-06	1.945609e-09	1.882011e+01	1.260383e+02
2.240000e-06	2.674812e-06	2.030099e-09	1.927647e+01	1.315237e+02
2.250000e-06	2.737949e-06	2.114645e-09	1.973148e+01	1.369790e+02
2.260000e-06	2.800961e-06	2.198401e-09	2.018558e+01	1.424002e+02
2.270000e-06	2.863847e-06	2.281727e-09	2.063879e+01	1.477830e+02
2.280000e-06	2.926555e-06	2.364330e-09	2.109070e+01	1.531227e+02
2.290000e-06	2.989055e-06	2.447207e-09	2.154112e+01	1.584146e+02
2.300000e-06	3.051379e-06	2.529506e-09	2.199026e+01	1.636534e+02
2.310000e-06	3.113534e-06	2.609427e-09	2.243819e+01	1.688339e+02
2.320000e-06	3.175526e-06	2.686184e-09	2.288495e+01	1.739505e+02
2.330000e-06	3.237291e-06	2.759116e-09	2.333007e+01	1.789978e+02
2.340000e-06	3.298842e-06	2.831958e-09	2.377365e+01	1.839704e+02
2.350000e-06	3.360130e-06	2.906550e-09	2.421533e+01	1.888630e+02
2.360000e-06	3.421105e-06	2.979967e-09	2.465475e+01	1.936706e+02
2.370000e-06	3.481827e-06	3.048583e-09	2.509236e+01	1.983887e+02
2.380000e-06	3.542341e-06	3.114677e-09	2.552846e+01	2.030132e+02
2.390000e-06	3.602736e-06	3.180690e-09	2.596371e+01	2.075408e+02
2.400000e-06	3.662928e-06	3.246020e-09	2.639749e+01	2.119686e+02
2.410000e-06	3.722849e-06	3.308961e-09	2.682932e+01	2.162948e+02
2.420000e-06	3.782538e-06	3.368444e-09	2.725948e+01	2.205183e+02
2.430000e-06	3.841944e-06	3.424276e-09	2.768760e+01	2.246389e+02
2.440000e-06	3.901172e-06	3.481297e-09	2.811443e+01	2.286574e+02
2.450000e-06	3.960172e-06	3.541674e-09	2.853963e+01	2.325755e+02
2.460000e-06	4.018865e-06	3.599589e-09	2.896261e+01	2.363956e+02
2.470000e-06	4.077193e-06	3.652792e-09	2.938296e+01	2.401212e+02
2.480000e-06	4.135035e-06	3.706148e-09	2.979981e+01	2.437564e+02
2.490000e-06	4.192515e-06	3.762473e-09	3.021404e+01	2.473060e+02
2.500000e-06	4.249551e-06	3.820021e-09	3.062509e+01	2.507751e+02
2.510000e-06	4.306084e-06	3.873256e-09	3.103250e+01	2.541695e+02
2.520000e-06	4.362262e-06	3.919760e-09	3.143735e+01	2.574950e+02
2.530000e-06	4.418235e-06	3.967380e-09	3.184073e+01	2.607576e+02
2.540000e-06	4.473948e-06	4.018756e-09	3.224224e+01	2.639633e+02
2.550000e-06	4.529390e-06	4.067987e-09	3.264179e+01	2.671175e+02
2.560000e-06	4.584561e-06	4.111662e-09	3.303939e+01	2.702257e+02
2.570000e-06	4.639429e-06	4.154678e-09	3.343481e+01	2.732924e+02
2.580000e-06	4.693990e-06	4.200657e-09	3.382801e+01	2.763217e+02
2.590000e-06	4.748273e-06	4.247924e-09	3.421921e+01	2.793170e+02
2.600000e-06	4.802313e-06	4.293090e-09	3.460866e+01	2.822807e+02
2.610000e-06	4.856039e-06	4.334792e-09	3.499585e+01	2.852143e+02
2.620000e-06	4.909417e-06	4.375325e-09	3.538052e+01	2.881185e+02
2.630000e-06	4.962339e-06	4.416127e-09	3.576191e+01	2.909930e+02
2.640000e-06	5.014881e-06	4.455199e-09	3.614056e+01	2.938366e+02
2.650000e-06	5.067054e-06	4.493293e-09	3.651656e+01	2.966475e+02
2.660000e-06	5.118819e-06	4.533407e-09	3.688961e+01	2.994229e+02
2.670000e-06	5.170137e-06	4.574606e-09	3.725944e+01	3.021595e+02
2.680000e-06	5.220993e-06	4.614400e-09	3.762595e+01	3.048536e+02
2.690000e-06	5.271351e-06	4.651464e-09	3.798885e+01	3.075012e+02
2.700000e-06	5.321052e-06	4.687929e-09	3.834704e+01	3.100979e+02
2.710000e-06	5.370230e-06	4.724758e-09	3.870145e+01	3.126396e+02
2.720000e-06	5.418979e-06	4.759908e-09	3.905276e+01	3.151221e+02
2.730000e-06	5.467225e-06	4.792485e-09	3.940045e+01	3.175419e+02
2.740000e-06	5.515093e-06	4.824463e-09	3.974542e+01	3.198957e+02
2.750000e-06	5.562698e-06	4.859095e-09	4.008850e+01	3.221809e+02
2.760000e-06	5.609942e-06	4.892705e-09	4.042897e+01	3.243957e+02
2.770000e-06	5.656798e-06	4.923763e-09	4.076664e+01	3.265392e+02
2.780000e-06	5.703219e-06	4.955511e-09	4.110119e+01	3.286113e+02
2.790000e-06	5.749195e-06	4.989220e-09	4.143252e+01	3.306129e+02
2.800000e-06	5.794773e-06	5.021541e-09	4.176099e+01	3.325457e+02
2.810000e-06	5.839932e-06	5.050376e-09	4.208643e+01	3.344127e+02
2.820000e-06	5.884661e-06	5.077157e-09	4.240878e+01	3.362173e+02
2.830000e-06	5.929035e-06	5.104214e-09	4.272857e+01	3.379639e+02
2.840000e-06	5.973135e-06	5.132193e-09	4.304638e+01	3.396576e+02
2.850000e-06	6.016993e-06	5.159024e-09	4.336245e+01	3.413038e+02
2.860000e-06	6.060629e-06	5.184976e-09	4.367692e+01	3.429086e+02
2.870000e-06	6.103924e-06	5.209417e-09	4.398893e+01	3.444778e+02
2.880000e-06	6.146636e-06	5.234863e-09	4.429674e+01	3.460176e+02
2.890000e-06	6.188660e-06	5.262477e-09	4.459960e+01	3.475337e+02
2.900000e-06	6.229953e-06	5.289337e-09	4.489718e+01	3.490316e+02
