# Temperatura_=_20.0
# Concentracion g/m^3_=_12600.0
# C_Vs_to_Am_M_A/Vsm_=_65563218390.804596
# pendiente_HvsI_1/m_=_3716.3
# ordenada_HvsI_A/m_=_1297.0
# frecuencia_Hz_=_135502.22456380664

Tiempo_(s)	Campo_(V.s)	Magnetizacion_(V.s)	Campo_(kA/m)	Magnetizacion_(A/m)
0.000000e+00	-7.994333e-06	-5.386309e-09	-5.704446e+01	-3.445256e+02
1.000000e-08	-7.994615e-06	-5.383969e-09	-5.704647e+01	-3.442667e+02
2.000000e-08	-7.994543e-06	-5.383370e-09	-5.704596e+01	-3.439597e+02
3.000000e-08	-7.994030e-06	-5.389249e-09	-5.704230e+01	-3.436134e+02
4.000000e-08	-7.992840e-06	-5.395961e-09	-5.703381e+01	-3.432384e+02
5.000000e-08	-7.990706e-06	-5.395273e-09	-5.701858e+01	-3.428469e+02
6.000000e-08	-7.987745e-06	-5.388717e-09	-5.699745e+01	-3.424527e+02
7.000000e-08	-7.984252e-06	-5.380277e-09	-5.697253e+01	-3.420705e+02
8.000000e-08	-7.980385e-06	-5.355198e-09	-5.694493e+01	-3.417160e+02
9.000000e-08	-7.976137e-06	-5.351071e-09	-5.691462e+01	-3.414054e+02
1.000000e-07	-7.971265e-06	-5.411203e-09	-5.687986e+01	-3.411551e+02
1.100000e-07	-7.965502e-06	-5.514209e-09	-5.683873e+01	-3.409809e+02
1.200000e-07	-7.958795e-06	-5.555542e-09	-5.679087e+01	-3.408983e+02
1.300000e-07	-7.951383e-06	-5.369587e-09	-5.673799e+01	-3.409216e+02
1.400000e-07	-7.943671e-06	-5.167499e-09	-5.668296e+01	-3.410637e+02
1.500000e-07	-7.935841e-06	-5.368508e-09	-5.662709e+01	-3.413356e+02
1.600000e-07	-7.927599e-06	-5.575952e-09	-5.656827e+01	-3.417463e+02
1.700000e-07	-7.918853e-06	-5.463734e-09	-5.650587e+01	-3.423024e+02
1.800000e-07	-7.909621e-06	-5.306827e-09	-5.643998e+01	-3.430078e+02
1.900000e-07	-7.899577e-06	-5.289742e-09	-5.636832e+01	-3.438637e+02
2.000000e-07	-7.888483e-06	-5.343941e-09	-5.628916e+01	-3.448682e+02
2.100000e-07	-7.876741e-06	-5.463226e-09	-5.620537e+01	-3.460167e+02
2.200000e-07	-7.864735e-06	-5.545358e-09	-5.611970e+01	-3.473015e+02
2.300000e-07	-7.852068e-06	-5.341554e-09	-5.602931e+01	-3.487121e+02
2.400000e-07	-7.838554e-06	-5.225345e-09	-5.593288e+01	-3.502353e+02
2.500000e-07	-7.824701e-06	-5.416358e-09	-5.583403e+01	-3.518554e+02
2.600000e-07	-7.810401e-06	-5.484451e-09	-5.573199e+01	-3.535547e+02
2.700000e-07	-7.794985e-06	-5.247429e-09	-5.562199e+01	-3.553134e+02
2.800000e-07	-7.778476e-06	-5.208789e-09	-5.550419e+01	-3.571105e+02
2.900000e-07	-7.761457e-06	-5.448077e-09	-5.538275e+01	-3.589238e+02
3.000000e-07	-7.744112e-06	-5.588553e-09	-5.525898e+01	-3.607305e+02
3.100000e-07	-7.726195e-06	-5.538743e-09	-5.513113e+01	-3.625077e+02
3.200000e-07	-7.707730e-06	-5.582848e-09	-5.499937e+01	-3.642327e+02
3.300000e-07	-7.688694e-06	-5.594451e-09	-5.486353e+01	-3.658838e+02
3.400000e-07	-7.669093e-06	-5.533255e-09	-5.472368e+01	-3.674402e+02
3.500000e-07	-7.649165e-06	-5.632880e-09	-5.458148e+01	-3.688831e+02
3.600000e-07	-7.628945e-06	-5.661661e-09	-5.443719e+01	-3.701952e+02
3.700000e-07	-7.608223e-06	-5.471041e-09	-5.428933e+01	-3.713620e+02
3.800000e-07	-7.586929e-06	-5.417515e-09	-5.413738e+01	-3.723711e+02
3.900000e-07	-7.565167e-06	-5.526753e-09	-5.398210e+01	-3.732131e+02
4.000000e-07	-7.542938e-06	-5.573976e-09	-5.382348e+01	-3.738816e+02
4.100000e-07	-7.520192e-06	-5.560600e-09	-5.366117e+01	-3.743730e+02
4.200000e-07	-7.496814e-06	-5.472797e-09	-5.349436e+01	-3.746868e+02
4.300000e-07	-7.472926e-06	-5.424233e-09	-5.332390e+01	-3.748254e+02
4.400000e-07	-7.448720e-06	-5.545461e-09	-5.315118e+01	-3.747938e+02
4.500000e-07	-7.423982e-06	-5.625786e-09	-5.297466e+01	-3.745998e+02
4.600000e-07	-7.398382e-06	-5.495089e-09	-5.279198e+01	-3.742535e+02
4.700000e-07	-7.371904e-06	-5.421983e-09	-5.260305e+01	-3.737671e+02
4.800000e-07	-7.344811e-06	-5.457557e-09	-5.240972e+01	-3.731543e+02
4.900000e-07	-7.317238e-06	-5.496096e-09	-5.221297e+01	-3.724303e+02
5.000000e-07	-7.289293e-06	-5.508200e-09	-5.201357e+01	-3.716113e+02
5.100000e-07	-7.261081e-06	-5.467817e-09	-5.181226e+01	-3.707138e+02
5.200000e-07	-7.232359e-06	-5.362709e-09	-5.160731e+01	-3.697547e+02
5.300000e-07	-7.202981e-06	-5.387054e-09	-5.139768e+01	-3.687504e+02
5.400000e-07	-7.173109e-06	-5.500808e-09	-5.118453e+01	-3.677170e+02
5.500000e-07	-7.142770e-06	-5.485532e-09	-5.096803e+01	-3.666693e+02
5.600000e-07	-7.111872e-06	-5.343338e-09	-5.074756e+01	-3.656210e+02
5.700000e-07	-7.080435e-06	-5.324350e-09	-5.052324e+01	-3.645843e+02
5.800000e-07	-7.048671e-06	-5.415102e-09	-5.029658e+01	-3.635695e+02
5.900000e-07	-7.016673e-06	-5.426263e-09	-5.006825e+01	-3.625851e+02
6.000000e-07	-6.984307e-06	-5.334529e-09	-4.983730e+01	-3.616375e+02
6.100000e-07	-6.951325e-06	-5.296226e-09	-4.960196e+01	-3.607311e+02
6.200000e-07	-6.917491e-06	-5.341824e-09	-4.936053e+01	-3.598682e+02
6.300000e-07	-6.882892e-06	-5.361090e-09	-4.911365e+01	-3.590491e+02
6.400000e-07	-6.847705e-06	-5.320735e-09	-4.886257e+01	-3.582724e+02
6.500000e-07	-6.812038e-06	-5.297800e-09	-4.860806e+01	-3.575346e+02
6.600000e-07	-6.776019e-06	-5.310693e-09	-4.835104e+01	-3.568311e+02
6.700000e-07	-6.739738e-06	-5.301110e-09	-4.809216e+01	-3.561557e+02
6.800000e-07	-6.702945e-06	-5.266644e-09	-4.782962e+01	-3.555014e+02
6.900000e-07	-6.665488e-06	-5.246976e-09	-4.756233e+01	-3.548604e+02
7.000000e-07	-6.627615e-06	-5.266969e-09	-4.729209e+01	-3.542242e+02
7.100000e-07	-6.589285e-06	-5.267285e-09	-4.701858e+01	-3.535845e+02
7.200000e-07	-6.550378e-06	-5.217824e-09	-4.674095e+01	-3.529328e+02
7.300000e-07	-6.511091e-06	-5.170263e-09	-4.646062e+01	-3.522612e+02
7.400000e-07	-6.471546e-06	-5.206451e-09	-4.617844e+01	-3.515623e+02
7.500000e-07	-6.431719e-06	-5.243714e-09	-4.589425e+01	-3.508293e+02
7.600000e-07	-6.391569e-06	-5.187772e-09	-4.560776e+01	-3.500568e+02
7.700000e-07	-6.351029e-06	-5.098812e-09	-4.531848e+01	-3.492402e+02
7.800000e-07	-6.309981e-06	-5.107859e-09	-4.502557e+01	-3.483762e+02
7.900000e-07	-6.268193e-06	-5.172671e-09	-4.472739e+01	-3.474629e+02
8.000000e-07	-6.225674e-06	-5.161536e-09	-4.442399e+01	-3.464995e+02
8.100000e-07	-6.182492e-06	-5.060151e-09	-4.411587e+01	-3.454865e+02
8.200000e-07	-6.138865e-06	-5.010398e-09	-4.380456e+01	-3.444257e+02
8.300000e-07	-6.094925e-06	-5.069217e-09	-4.349102e+01	-3.433198e+02
8.400000e-07	-6.050591e-06	-5.120700e-09	-4.317467e+01	-3.421726e+02
8.500000e-07	-6.005857e-06	-5.050014e-09	-4.285547e+01	-3.409886e+02
8.600000e-07	-5.960693e-06	-4.951165e-09	-4.253319e+01	-3.397728e+02
8.700000e-07	-5.915018e-06	-4.961960e-09	-4.220727e+01	-3.385309e+02
8.800000e-07	-5.868943e-06	-5.035545e-09	-4.187850e+01	-3.372683e+02
8.900000e-07	-5.822582e-06	-5.022732e-09	-4.154768e+01	-3.359909e+02
9.000000e-07	-5.775787e-06	-4.920544e-09	-4.121378e+01	-3.347042e+02
9.100000e-07	-5.728652e-06	-4.870129e-09	-4.087744e+01	-3.334132e+02
9.200000e-07	-5.681205e-06	-4.911863e-09	-4.053887e+01	-3.321225e+02
9.300000e-07	-5.633414e-06	-4.942674e-09	-4.019786e+01	-3.308360e+02
9.400000e-07	-5.585324e-06	-4.890979e-09	-3.985471e+01	-3.295567e+02
9.500000e-07	-5.536729e-06	-4.824613e-09	-3.950795e+01	-3.282868e+02
9.600000e-07	-5.487338e-06	-4.818855e-09	-3.915551e+01	-3.270275e+02
9.700000e-07	-5.437186e-06	-4.850798e-09	-3.879765e+01	-3.257790e+02
9.800000e-07	-5.386534e-06	-4.842216e-09	-3.843622e+01	-3.245405e+02
9.900000e-07	-5.335406e-06	-4.790402e-09	-3.807139e+01	-3.233105e+02
1.000000e-06	-5.283712e-06	-4.748086e-09	-3.770252e+01	-3.220864e+02
1.010000e-06	-5.231566e-06	-4.741957e-09	-3.733043e+01	-3.208650e+02
1.020000e-06	-5.179152e-06	-4.738930e-09	-3.695642e+01	-3.196423e+02
1.030000e-06	-5.126446e-06	-4.719266e-09	-3.658033e+01	-3.184141e+02
1.040000e-06	-5.073333e-06	-4.691689e-09	-3.620133e+01	-3.171755e+02
1.050000e-06	-5.019847e-06	-4.666043e-09	-3.581968e+01	-3.159216e+02
1.060000e-06	-4.966019e-06	-4.643289e-09	-3.543558e+01	-3.146475e+02
1.070000e-06	-4.911863e-06	-4.631069e-09	-3.504915e+01	-3.133483e+02
1.080000e-06	-4.857334e-06	-4.620757e-09	-3.466005e+01	-3.120194e+02
1.090000e-06	-4.802423e-06	-4.593047e-09	-3.426823e+01	-3.106568e+02
1.100000e-06	-4.747196e-06	-4.547103e-09	-3.387415e+01	-3.092568e+02
1.110000e-06	-4.691662e-06	-4.514284e-09	-3.347788e+01	-3.078163e+02
1.120000e-06	-4.635884e-06	-4.508370e-09	-3.307987e+01	-3.063332e+02
1.130000e-06	-4.580010e-06	-4.505562e-09	-3.268118e+01	-3.048059e+02
1.140000e-06	-4.523926e-06	-4.471096e-09	-3.228098e+01	-3.032335e+02
1.150000e-06	-4.467471e-06	-4.422105e-09	-3.187814e+01	-3.016162e+02
1.160000e-06	-4.410732e-06	-4.399377e-09	-3.147327e+01	-2.999547e+02
1.170000e-06	-4.353646e-06	-4.399529e-09	-3.106593e+01	-2.982504e+02
1.180000e-06	-4.296098e-06	-4.384445e-09	-3.065529e+01	-2.965054e+02
1.190000e-06	-4.237954e-06	-4.337172e-09	-3.024040e+01	-2.947224e+02
1.200000e-06	-4.179223e-06	-4.292520e-09	-2.982131e+01	-2.929042e+02
1.210000e-06	-4.120093e-06	-4.279311e-09	-2.939939e+01	-2.910542e+02
1.220000e-06	-4.060673e-06	-4.276827e-09	-2.897539e+01	-2.891759e+02
1.230000e-06	-4.001054e-06	-4.250580e-09	-2.854997e+01	-2.872728e+02
1.240000e-06	-3.941276e-06	-4.204315e-09	-2.812342e+01	-2.853483e+02
1.250000e-06	-3.881276e-06	-4.167243e-09	-2.769528e+01	-2.834056e+02
1.260000e-06	-3.821062e-06	-4.148737e-09	-2.726561e+01	-2.814475e+02
1.270000e-06	-3.760631e-06	-4.130572e-09	-2.683441e+01	-2.794765e+02
1.280000e-06	-3.699915e-06	-4.097054e-09	-2.640115e+01	-2.774945e+02
1.290000e-06	-3.638933e-06	-4.053389e-09	-2.596601e+01	-2.755028e+02
1.300000e-06	-3.577645e-06	-4.020863e-09	-2.552868e+01	-2.735022e+02
1.310000e-06	-3.516091e-06	-4.001253e-09	-2.508946e+01	-2.714927e+02
1.320000e-06	-3.454416e-06	-3.982045e-09	-2.464938e+01	-2.694737e+02
1.330000e-06	-3.392539e-06	-3.950282e-09	-2.420784e+01	-2.674441e+02
1.340000e-06	-3.330460e-06	-3.909865e-09	-2.376487e+01	-2.654022e+02
1.350000e-06	-3.268085e-06	-3.875049e-09	-2.331978e+01	-2.633456e+02
1.360000e-06	-3.205436e-06	-3.851980e-09	-2.287275e+01	-2.612716e+02
1.370000e-06	-3.142573e-06	-3.829730e-09	-2.242418e+01	-2.591773e+02
1.380000e-06	-3.079412e-06	-3.792265e-09	-2.197349e+01	-2.570592e+02
1.390000e-06	-3.016055e-06	-3.742435e-09	-2.152140e+01	-2.549141e+02
1.400000e-06	-2.952529e-06	-3.703282e-09	-2.106810e+01	-2.527384e+02
1.410000e-06	-2.888887e-06	-3.683331e-09	-2.061398e+01	-2.505289e+02
1.420000e-06	-2.825181e-06	-3.665405e-09	-2.015940e+01	-2.482823e+02
1.430000e-06	-2.761427e-06	-3.625099e-09	-1.970447e+01	-2.459957e+02
1.440000e-06	-2.697491e-06	-3.574031e-09	-1.924825e+01	-2.436667e+02
1.450000e-06	-2.633343e-06	-3.540472e-09	-1.879052e+01	-2.412931e+02
1.460000e-06	-2.569120e-06	-3.523104e-09	-1.833225e+01	-2.388733e+02
1.470000e-06	-2.504837e-06	-3.491447e-09	-1.787355e+01	-2.364063e+02
1.480000e-06	-2.440388e-06	-3.438287e-09	-1.741367e+01	-2.338915e+02
1.490000e-06	-2.375584e-06	-3.387777e-09	-1.695124e+01	-2.313289e+02
1.500000e-06	-2.310419e-06	-3.358344e-09	-1.648625e+01	-2.287189e+02
1.510000e-06	-2.245095e-06	-3.334044e-09	-1.602013e+01	-2.260626e+02
1.520000e-06	-2.179561e-06	-3.292546e-09	-1.555250e+01	-2.233614e+02
1.530000e-06	-2.113703e-06	-3.238657e-09	-1.508257e+01	-2.206168e+02
1.540000e-06	-2.047521e-06	-3.193233e-09	-1.461032e+01	-2.178309e+02
1.550000e-06	-1.981135e-06	-3.163761e-09	-1.413661e+01	-2.150059e+02
1.560000e-06	-1.914701e-06	-3.135008e-09	-1.366257e+01	-2.121439e+02
1.570000e-06	-1.848054e-06	-3.092395e-09	-1.318700e+01	-2.092473e+02
1.580000e-06	-1.781259e-06	-3.038861e-09	-1.271037e+01	-2.063180e+02
1.590000e-06	-1.714364e-06	-2.992882e-09	-1.223304e+01	-2.033580e+02
1.600000e-06	-1.647245e-06	-2.958987e-09	-1.175410e+01	-2.003690e+02
1.610000e-06	-1.580103e-06	-2.922870e-09	-1.127500e+01	-1.973522e+02
1.620000e-06	-1.512815e-06	-2.874814e-09	-1.079486e+01	-1.943085e+02
1.630000e-06	-1.445316e-06	-2.821658e-09	-1.031322e+01	-1.912384e+02
1.640000e-06	-1.377796e-06	-2.776428e-09	-9.831417e+00	-1.881419e+02
1.650000e-06	-1.310237e-06	-2.739769e-09	-9.349341e+00	-1.850186e+02
1.660000e-06	-1.242614e-06	-2.697368e-09	-8.866813e+00	-1.818674e+02
1.670000e-06	-1.174936e-06	-2.642335e-09	-8.383885e+00	-1.786870e+02
1.680000e-06	-1.107275e-06	-2.583709e-09	-7.901087e+00	-1.754756e+02
1.690000e-06	-1.039556e-06	-2.532880e-09	-7.417869e+00	-1.722312e+02
1.700000e-06	-9.717952e-07	-2.489077e-09	-6.934354e+00	-1.689514e+02
1.710000e-06	-9.040376e-07	-2.442882e-09	-6.450861e+00	-1.656335e+02
1.720000e-06	-8.362038e-07	-2.385960e-09	-5.966826e+00	-1.622748e+02
1.730000e-06	-7.683542e-07	-2.328961e-09	-5.482677e+00	-1.588727e+02
1.740000e-06	-7.005206e-07	-2.283754e-09	-4.998643e+00	-1.554243e+02
1.750000e-06	-6.326524e-07	-2.242532e-09	-4.514362e+00	-1.519271e+02
1.760000e-06	-5.646893e-07	-2.192120e-09	-4.029404e+00	-1.483787e+02
1.770000e-06	-4.966966e-07	-2.129741e-09	-3.544234e+00	-1.447768e+02
1.780000e-06	-4.287742e-07	-2.068170e-09	-3.059566e+00	-1.411196e+02
1.790000e-06	-3.607401e-07	-2.015743e-09	-2.574101e+00	-1.374056e+02
1.800000e-06	-2.926608e-07	-1.964072e-09	-2.088314e+00	-1.336336e+02
1.810000e-06	-2.246577e-07	-1.907682e-09	-1.603070e+00	-1.298029e+02
1.820000e-06	-1.565664e-07	-1.846236e-09	-1.117197e+00	-1.259129e+02
1.830000e-06	-8.848812e-08	-1.788732e-09	-6.314169e-01	-1.219637e+02
1.840000e-06	-2.045815e-08	-1.738885e-09	-1.459814e-01	-1.179554e+02
1.850000e-06	4.756934e-08	-1.687161e-09	3.394363e-01	-1.138887e+02
1.860000e-06	1.155576e-07	-1.628974e-09	8.245739e-01	-1.097642e+02
1.870000e-06	1.835864e-07	-1.562009e-09	1.310002e+00	-1.055829e+02
1.880000e-06	2.516093e-07	-1.495760e-09	1.795386e+00	-1.013456e+02
1.890000e-06	3.195852e-07	-1.433059e-09	2.280436e+00	-9.705348e+01
1.900000e-06	3.876190e-07	-1.368575e-09	2.765899e+00	-9.270735e+01
1.910000e-06	4.556283e-07	-1.299856e-09	3.251187e+00	-8.830805e+01
1.920000e-06	5.235960e-07	-1.232067e-09	3.736178e+00	-8.385619e+01
1.930000e-06	5.915821e-07	-1.169930e-09	4.221301e+00	-7.935216e+01
1.940000e-06	6.594896e-07	-1.110907e-09	4.705862e+00	-7.479610e+01
1.950000e-06	7.273537e-07	-1.048137e-09	5.190114e+00	-7.018784e+01
1.960000e-06	7.951762e-07	-9.790658e-10	5.674069e+00	-6.552692e+01
1.970000e-06	8.629754e-07	-9.029263e-10	6.157857e+00	-6.081261e+01
1.980000e-06	9.307852e-07	-8.247033e-10	6.641722e+00	-5.604393e+01
1.990000e-06	9.985008e-07	-7.501572e-10	7.124915e+00	-5.121966e+01
2.000000e-06	1.066136e-06	-6.773674e-10	7.607536e+00	-4.633848e+01
2.010000e-06	1.133781e-06	-6.018123e-10	8.090220e+00	-4.139898e+01
2.020000e-06	1.201374e-06	-5.242042e-10	8.572539e+00	-3.639975e+01
2.030000e-06	1.268859e-06	-4.521477e-10	9.054086e+00	-3.133955e+01
2.040000e-06	1.336289e-06	-3.828932e-10	9.535238e+00	-2.621731e+01
2.050000e-06	1.403698e-06	-3.074130e-10	1.001625e+01	-2.103234e+01
2.060000e-06	1.471112e-06	-2.234308e-10	1.049729e+01	-1.578438e+01
2.070000e-06	1.538459e-06	-1.392064e-10	1.097784e+01	-1.047372e+01
2.080000e-06	1.605676e-06	-6.023079e-11	1.145748e+01	-5.101285e+00
2.090000e-06	1.672786e-06	2.158333e-11	1.193635e+01	3.312370e-01
2.100000e-06	1.739730e-06	1.105927e-10	1.241404e+01	5.821370e+00
2.110000e-06	1.806497e-06	1.986542e-10	1.289046e+01	1.136577e+01
2.120000e-06	1.873053e-06	2.835006e-10	1.336538e+01	1.696021e+01
2.130000e-06	1.939407e-06	3.629460e-10	1.383885e+01	2.259954e+01
2.140000e-06	2.005594e-06	4.453470e-10	1.431114e+01	2.827773e+01
2.150000e-06	2.071477e-06	5.274255e-10	1.478126e+01	3.398789e+01
2.160000e-06	2.137058e-06	6.108855e-10	1.524922e+01	3.972233e+01
2.170000e-06	2.202446e-06	6.960600e-10	1.571580e+01	4.547263e+01
2.180000e-06	2.267615e-06	7.824944e-10	1.618082e+01	5.122979e+01
2.190000e-06	2.332534e-06	8.733615e-10	1.664406e+01	5.698431e+01
2.200000e-06	2.397210e-06	9.638685e-10	1.710556e+01	6.272634e+01
2.210000e-06	2.461584e-06	1.053521e-09	1.756491e+01	6.844583e+01
2.220000e-06	2.525696e-06	1.137531e-09	1.802239e+01	7.413272e+01
2.230000e-06	2.589647e-06	1.216949e-09	1.847872e+01	7.977706e+01
2.240000e-06	2.653514e-06	1.296686e-09	1.893445e+01	8.536923e+01
2.250000e-06	2.717312e-06	1.378037e-09	1.938969e+01	9.090004e+01
2.260000e-06	2.781033e-06	1.456216e-09	1.984437e+01	9.636095e+01
2.270000e-06	2.844627e-06	1.531146e-09	2.029816e+01	1.017441e+02
2.280000e-06	2.908048e-06	1.608092e-09	2.075070e+01	1.070427e+02
2.290000e-06	2.971349e-06	1.689753e-09	2.120239e+01	1.122508e+02
2.300000e-06	3.034481e-06	1.771893e-09	2.165288e+01	1.173634e+02
2.310000e-06	3.097428e-06	1.849466e-09	2.210204e+01	1.223768e+02
2.320000e-06	3.160202e-06	1.921217e-09	2.254998e+01	1.272885e+02
2.330000e-06	3.222686e-06	1.992136e-09	2.299584e+01	1.320969e+02
2.340000e-06	3.285011e-06	2.062524e-09	2.344056e+01	1.368018e+02
2.350000e-06	3.347202e-06	2.131707e-09	2.388433e+01	1.414038e+02
2.360000e-06	3.409119e-06	2.195587e-09	2.432615e+01	1.459047e+02
2.370000e-06	3.470725e-06	2.256963e-09	2.476575e+01	1.503070e+02
2.380000e-06	3.532064e-06	2.323032e-09	2.520344e+01	1.546142e+02
2.390000e-06	3.593181e-06	2.392442e-09	2.563954e+01	1.588302e+02
2.400000e-06	3.653973e-06	2.455531e-09	2.607333e+01	1.629594e+02
2.410000e-06	3.714501e-06	2.513837e-09	2.650524e+01	1.670066e+02
2.420000e-06	3.774783e-06	2.570944e-09	2.693539e+01	1.709768e+02
2.430000e-06	3.834873e-06	2.628426e-09	2.736417e+01	1.748749e+02
2.440000e-06	3.894802e-06	2.682249e-09	2.779180e+01	1.787057e+02
2.450000e-06	3.954536e-06	2.731016e-09	2.821804e+01	1.824737e+02
2.460000e-06	4.014136e-06	2.779787e-09	2.864332e+01	1.861830e+02
2.470000e-06	4.073514e-06	2.831041e-09	2.906702e+01	1.898371e+02
2.480000e-06	4.132626e-06	2.884879e-09	2.948881e+01	1.934391e+02
2.490000e-06	4.191424e-06	2.938420e-09	2.990838e+01	1.969912e+02
2.500000e-06	4.249671e-06	2.989729e-09	3.032400e+01	2.004950e+02
2.510000e-06	4.307319e-06	3.040018e-09	3.073536e+01	2.039515e+02
2.520000e-06	4.364411e-06	3.090501e-09	3.114275e+01	2.073608e+02
2.530000e-06	4.421022e-06	3.137050e-09	3.154670e+01	2.107225e+02
2.540000e-06	4.477295e-06	3.180540e-09	3.194824e+01	2.140354e+02
2.550000e-06	4.533297e-06	3.224503e-09	3.234785e+01	2.172980e+02
2.560000e-06	4.589054e-06	3.267639e-09	3.274571e+01	2.205083e+02
2.570000e-06	4.644651e-06	3.307565e-09	3.314243e+01	2.236638e+02
2.580000e-06	4.700069e-06	3.350676e-09	3.353787e+01	2.267621e+02
2.590000e-06	4.755224e-06	3.395405e-09	3.393143e+01	2.298005e+02
2.600000e-06	4.810000e-06	3.438965e-09	3.432230e+01	2.327764e+02
2.610000e-06	4.864388e-06	3.480734e-09	3.471039e+01	2.356875e+02
2.620000e-06	4.918482e-06	3.521424e-09	3.509638e+01	2.385317e+02
2.630000e-06	4.972281e-06	3.560556e-09	3.548027e+01	2.413072e+02
2.640000e-06	5.025769e-06	3.596127e-09	3.586193e+01	2.440128e+02
2.650000e-06	5.078874e-06	3.627942e-09	3.624088e+01	2.466479e+02
2.660000e-06	5.131580e-06	3.661984e-09	3.661696e+01	2.492123e+02
2.670000e-06	5.183796e-06	3.698558e-09	3.698956e+01	2.517067e+02
2.680000e-06	5.235537e-06	3.735395e-09	3.735876e+01	2.541322e+02
2.690000e-06	5.286921e-06	3.770439e-09	3.772541e+01	2.564906e+02
2.700000e-06	5.337835e-06	3.804803e-09	3.808872e+01	2.587844e+02
2.710000e-06	5.388204e-06	3.838710e-09	3.844813e+01	2.610165e+02
2.720000e-06	5.438018e-06	3.872729e-09	3.880359e+01	2.631901e+02
2.730000e-06	5.487140e-06	3.903567e-09	3.915410e+01	2.653092e+02
2.740000e-06	5.535676e-06	3.930557e-09	3.950043e+01	2.673775e+02
2.750000e-06	5.583822e-06	3.958431e-09	3.984399e+01	2.693992e+02
2.760000e-06	5.631662e-06	3.987575e-09	4.018535e+01	2.713784e+02
2.770000e-06	5.679258e-06	4.016065e-09	4.052498e+01	2.733191e+02
2.780000e-06	5.726491e-06	4.045421e-09	4.086202e+01	2.752251e+02
2.790000e-06	5.773250e-06	4.077660e-09	4.119567e+01	2.770998e+02
2.800000e-06	5.819598e-06	4.109925e-09	4.152639e+01	2.789463e+02
2.810000e-06	5.865579e-06	4.139621e-09	4.185450e+01	2.807669e+02
2.820000e-06	5.911150e-06	4.165705e-09	4.217967e+01	2.825637e+02
2.830000e-06	5.956263e-06	4.191086e-09	4.250158e+01	2.843380e+02
2.840000e-06	6.001032e-06	4.215574e-09	4.282104e+01	2.860904e+02
2.850000e-06	6.045459e-06	4.239274e-09	4.313805e+01	2.878210e+02
2.860000e-06	6.089513e-06	4.261092e-09	4.345240e+01	2.895292e+02
2.870000e-06	6.133270e-06	4.281077e-09	4.376463e+01	2.912138e+02
2.880000e-06	6.176758e-06	4.302644e-09	4.407495e+01	2.928732e+02
2.890000e-06	6.219866e-06	4.326854e-09	4.438255e+01	2.945053e+02
2.900000e-06	6.262429e-06	4.350619e-09	4.468627e+01	2.961077e+02
