# Temperatura_=_20.0
# Concentracion g/m^3_=_12600.0
# C_Vs_to_Am_M_A/Vsm_=_65563218390.804596
# pendiente_HvsI_1/m_=_3716.3
# ordenada_HvsI_A/m_=_1297.0
# frecuencia_Hz_=_135505.36294764167

Tiempo_(s)	Campo_(V.s)	Magnetizacion_(V.s)	Campo_(kA/m)	Magnetizacion_(A/m)
0.000000e+00	-7.832391e-06	-5.373430e-09	-5.704122e+01	-3.523149e+02
1.000000e-08	-7.832502e-06	-5.366562e-09	-5.704203e+01	-3.520450e+02
2.000000e-08	-7.832327e-06	-5.362830e-09	-5.704075e+01	-3.517321e+02
3.000000e-08	-7.831738e-06	-5.370890e-09	-5.703646e+01	-3.513840e+02
4.000000e-08	-7.830460e-06	-5.374839e-09	-5.702715e+01	-3.510101e+02
5.000000e-08	-7.828326e-06	-5.370448e-09	-5.701161e+01	-3.506211e+02
6.000000e-08	-7.825359e-06	-5.365711e-09	-5.699000e+01	-3.502285e+02
7.000000e-08	-7.821748e-06	-5.356429e-09	-5.696371e+01	-3.498447e+02
8.000000e-08	-7.817804e-06	-5.323179e-09	-5.693498e+01	-3.494828e+02
9.000000e-08	-7.813568e-06	-5.310072e-09	-5.690413e+01	-3.491561e+02
1.000000e-07	-7.808652e-06	-5.421099e-09	-5.686833e+01	-3.488777e+02
1.100000e-07	-7.802833e-06	-5.528445e-09	-5.682595e+01	-3.486606e+02
1.200000e-07	-7.796098e-06	-5.502679e-09	-5.677690e+01	-3.485169e+02
1.300000e-07	-7.788638e-06	-5.161088e-09	-5.672257e+01	-3.484579e+02
1.400000e-07	-7.780931e-06	-5.026031e-09	-5.666645e+01	-3.484938e+02
1.500000e-07	-7.773167e-06	-5.459101e-09	-5.660990e+01	-3.486329e+02
1.600000e-07	-7.765048e-06	-5.676123e-09	-5.655078e+01	-3.488822e+02
1.700000e-07	-7.756524e-06	-5.280178e-09	-5.648870e+01	-3.492464e+02
1.800000e-07	-7.747674e-06	-5.191486e-09	-5.642425e+01	-3.497284e+02
1.900000e-07	-7.737709e-06	-5.298139e-09	-5.635167e+01	-3.503288e+02
2.000000e-07	-7.726519e-06	-5.326992e-09	-5.627018e+01	-3.510457e+02
2.100000e-07	-7.714937e-06	-5.540508e-09	-5.618583e+01	-3.518752e+02
2.200000e-07	-7.703047e-06	-5.559180e-09	-5.609924e+01	-3.528110e+02
2.300000e-07	-7.690213e-06	-5.152453e-09	-5.600577e+01	-3.538449e+02
2.400000e-07	-7.676629e-06	-5.190314e-09	-5.590684e+01	-3.549663e+02
2.500000e-07	-7.662985e-06	-5.867975e-09	-5.580748e+01	-3.561630e+02
2.600000e-07	-7.648814e-06	-5.841108e-09	-5.570428e+01	-3.574211e+02
2.700000e-07	-7.633310e-06	-5.212416e-09	-5.559137e+01	-3.587256e+02
2.800000e-07	-7.616837e-06	-5.418239e-09	-5.547139e+01	-3.600601e+02
2.900000e-07	-7.600031e-06	-6.090581e-09	-5.534900e+01	-3.614078e+02
3.000000e-07	-7.582712e-06	-5.911352e-09	-5.522287e+01	-3.627513e+02
3.100000e-07	-7.564956e-06	-5.502350e-09	-5.509356e+01	-3.640732e+02
3.200000e-07	-7.546838e-06	-5.646774e-09	-5.496161e+01	-3.653565e+02
3.300000e-07	-7.528039e-06	-5.803136e-09	-5.482470e+01	-3.665846e+02
3.400000e-07	-7.508617e-06	-5.696211e-09	-5.468326e+01	-3.677421e+02
3.500000e-07	-7.488897e-06	-5.857901e-09	-5.453964e+01	-3.688147e+02
3.600000e-07	-7.468852e-06	-5.723985e-09	-5.439366e+01	-3.697897e+02
3.700000e-07	-7.448402e-06	-5.462160e-09	-5.424473e+01	-3.706558e+02
3.800000e-07	-7.427476e-06	-5.659327e-09	-5.409233e+01	-3.714039e+02
3.900000e-07	-7.405990e-06	-5.888262e-09	-5.393585e+01	-3.720270e+02
4.000000e-07	-7.384011e-06	-5.699853e-09	-5.377579e+01	-3.725198e+02
4.100000e-07	-7.361518e-06	-5.531446e-09	-5.361197e+01	-3.728797e+02
4.200000e-07	-7.338362e-06	-5.567130e-09	-5.344333e+01	-3.731057e+02
4.300000e-07	-7.314714e-06	-5.739463e-09	-5.327111e+01	-3.731994e+02
4.400000e-07	-7.290784e-06	-5.813784e-09	-5.309684e+01	-3.731641e+02
4.500000e-07	-7.266362e-06	-5.567827e-09	-5.291898e+01	-3.730048e+02
4.600000e-07	-7.241301e-06	-5.458560e-09	-5.273647e+01	-3.727286e+02
4.700000e-07	-7.215682e-06	-5.695336e-09	-5.254989e+01	-3.723436e+02
4.800000e-07	-7.189363e-06	-5.761119e-09	-5.235822e+01	-3.718593e+02
4.900000e-07	-7.162201e-06	-5.560671e-09	-5.216040e+01	-3.712861e+02
5.000000e-07	-7.134507e-06	-5.530422e-09	-5.195871e+01	-3.706350e+02
5.100000e-07	-7.106520e-06	-5.583025e-09	-5.175489e+01	-3.699175e+02
5.200000e-07	-7.078171e-06	-5.614434e-09	-5.154844e+01	-3.691451e+02
5.300000e-07	-7.049382e-06	-5.625704e-09	-5.133877e+01	-3.683291e+02
5.400000e-07	-7.020036e-06	-5.569991e-09	-5.112505e+01	-3.674804e+02
5.500000e-07	-6.990067e-06	-5.466985e-09	-5.090679e+01	-3.666094e+02
5.600000e-07	-6.959601e-06	-5.521940e-09	-5.068492e+01	-3.657253e+02
5.700000e-07	-6.928666e-06	-5.603669e-09	-5.045963e+01	-3.648368e+02
5.800000e-07	-6.897263e-06	-5.554298e-09	-5.023093e+01	-3.639508e+02
5.900000e-07	-6.865552e-06	-5.419492e-09	-4.999998e+01	-3.630734e+02
6.000000e-07	-6.833536e-06	-5.419292e-09	-4.976682e+01	-3.622093e+02
6.100000e-07	-6.801080e-06	-5.534936e-09	-4.953045e+01	-3.613616e+02
6.200000e-07	-6.768131e-06	-5.555314e-09	-4.929050e+01	-3.605324e+02
6.300000e-07	-6.734490e-06	-5.407499e-09	-4.904549e+01	-3.597221e+02
6.400000e-07	-6.700118e-06	-5.355242e-09	-4.879517e+01	-3.589304e+02
6.500000e-07	-6.665138e-06	-5.464057e-09	-4.854042e+01	-3.581555e+02
6.600000e-07	-6.629641e-06	-5.505486e-09	-4.828191e+01	-3.573947e+02
6.700000e-07	-6.593754e-06	-5.399626e-09	-4.802056e+01	-3.566447e+02
6.800000e-07	-6.557465e-06	-5.321410e-09	-4.775627e+01	-3.559014e+02
6.900000e-07	-6.520742e-06	-5.359670e-09	-4.748882e+01	-3.551602e+02
7.000000e-07	-6.483641e-06	-5.425289e-09	-4.721863e+01	-3.544162e+02
7.100000e-07	-6.445980e-06	-5.403213e-09	-4.694435e+01	-3.536647e+02
7.200000e-07	-6.407763e-06	-5.301339e-09	-4.666603e+01	-3.529008e+02
7.300000e-07	-6.369165e-06	-5.270379e-09	-4.638493e+01	-3.521198e+02
7.400000e-07	-6.330143e-06	-5.345358e-09	-4.610074e+01	-3.513175e+02
7.500000e-07	-6.290750e-06	-5.367927e-09	-4.581386e+01	-3.504903e+02
7.600000e-07	-6.251043e-06	-5.264744e-09	-4.552468e+01	-3.496350e+02
7.700000e-07	-6.211033e-06	-5.195371e-09	-4.523330e+01	-3.487491e+02
7.800000e-07	-6.170712e-06	-5.236644e-09	-4.493965e+01	-3.478309e+02
7.900000e-07	-6.129991e-06	-5.286750e-09	-4.464309e+01	-3.468795e+02
8.000000e-07	-6.088613e-06	-5.235156e-09	-4.434175e+01	-3.458946e+02
8.100000e-07	-6.046502e-06	-5.151955e-09	-4.403506e+01	-3.448766e+02
8.200000e-07	-6.003705e-06	-5.139378e-09	-4.372339e+01	-3.438268e+02
8.300000e-07	-5.960357e-06	-5.196267e-09	-4.340769e+01	-3.427468e+02
8.400000e-07	-5.916573e-06	-5.199877e-09	-4.308883e+01	-3.416388e+02
8.500000e-07	-5.872396e-06	-5.121485e-09	-4.276709e+01	-3.405054e+02
8.600000e-07	-5.827900e-06	-5.061507e-09	-4.244304e+01	-3.393496e+02
8.700000e-07	-5.783181e-06	-5.090623e-09	-4.211736e+01	-3.381743e+02
8.800000e-07	-5.738089e-06	-5.124924e-09	-4.178897e+01	-3.369827e+02
8.900000e-07	-5.692542e-06	-5.081829e-09	-4.145726e+01	-3.357776e+02
9.000000e-07	-5.646572e-06	-5.003117e-09	-4.112248e+01	-3.345620e+02
9.100000e-07	-5.600190e-06	-4.991193e-09	-4.078469e+01	-3.333383e+02
9.200000e-07	-5.553502e-06	-5.022745e-09	-4.044468e+01	-3.321086e+02
9.300000e-07	-5.506444e-06	-5.019737e-09	-4.010196e+01	-3.308748e+02
9.400000e-07	-5.458988e-06	-4.962163e-09	-3.975635e+01	-3.296378e+02
9.500000e-07	-5.411179e-06	-4.918495e-09	-3.940818e+01	-3.283985e+02
9.600000e-07	-5.362941e-06	-4.922913e-09	-3.905687e+01	-3.271568e+02
9.700000e-07	-5.314218e-06	-4.935357e-09	-3.870204e+01	-3.259123e+02
9.800000e-07	-5.265013e-06	-4.910406e-09	-3.834369e+01	-3.246641e+02
9.900000e-07	-5.215337e-06	-4.861697e-09	-3.798191e+01	-3.234107e+02
1.000000e-06	-5.165230e-06	-4.831854e-09	-3.761700e+01	-3.221501e+02
1.010000e-06	-5.114593e-06	-4.827319e-09	-3.724822e+01	-3.208802e+02
1.020000e-06	-5.063354e-06	-4.819485e-09	-3.687506e+01	-3.195984e+02
1.030000e-06	-5.011549e-06	-4.791842e-09	-3.649778e+01	-3.183019e+02
1.040000e-06	-4.959339e-06	-4.757789e-09	-3.611754e+01	-3.169879e+02
1.050000e-06	-4.906822e-06	-4.726870e-09	-3.573508e+01	-3.156536e+02
1.060000e-06	-4.853970e-06	-4.713386e-09	-3.535017e+01	-3.142963e+02
1.070000e-06	-4.800833e-06	-4.705307e-09	-3.496319e+01	-3.129132e+02
1.080000e-06	-4.747351e-06	-4.682011e-09	-3.457369e+01	-3.115021e+02
1.090000e-06	-4.693396e-06	-4.641484e-09	-3.418075e+01	-3.100609e+02
1.100000e-06	-4.639103e-06	-4.611597e-09	-3.378535e+01	-3.085880e+02
1.110000e-06	-4.584633e-06	-4.595583e-09	-3.338866e+01	-3.070819e+02
1.120000e-06	-4.529919e-06	-4.584548e-09	-3.299019e+01	-3.055420e+02
1.130000e-06	-4.474883e-06	-4.555089e-09	-3.258938e+01	-3.039677e+02
1.140000e-06	-4.419414e-06	-4.515317e-09	-3.218541e+01	-3.023591e+02
1.150000e-06	-4.363588e-06	-4.484900e-09	-3.177885e+01	-3.007166e+02
1.160000e-06	-4.307567e-06	-4.471609e-09	-3.137087e+01	-2.990410e+02
1.170000e-06	-4.251360e-06	-4.458430e-09	-3.096152e+01	-2.973333e+02
1.180000e-06	-4.194967e-06	-4.427517e-09	-3.055083e+01	-2.955949e+02
1.190000e-06	-4.138223e-06	-4.385970e-09	-3.013758e+01	-2.938274e+02
1.200000e-06	-4.081108e-06	-4.359712e-09	-2.972162e+01	-2.920325e+02
1.210000e-06	-4.023693e-06	-4.347764e-09	-2.930348e+01	-2.902120e+02
1.220000e-06	-3.965982e-06	-4.326253e-09	-2.888319e+01	-2.883675e+02
1.230000e-06	-3.907997e-06	-4.291033e-09	-2.846090e+01	-2.865007e+02
1.240000e-06	-3.849483e-06	-4.252071e-09	-2.803476e+01	-2.846130e+02
1.250000e-06	-3.790407e-06	-4.222725e-09	-2.760452e+01	-2.827057e+02
1.260000e-06	-3.730981e-06	-4.196781e-09	-2.717174e+01	-2.807797e+02
1.270000e-06	-3.671217e-06	-4.171372e-09	-2.673649e+01	-2.788356e+02
1.280000e-06	-3.611262e-06	-4.140095e-09	-2.629986e+01	-2.768738e+02
1.290000e-06	-3.551208e-06	-4.101780e-09	-2.586250e+01	-2.748941e+02
1.300000e-06	-3.490953e-06	-4.072855e-09	-2.542368e+01	-2.728962e+02
1.310000e-06	-3.430571e-06	-4.056590e-09	-2.498393e+01	-2.708794e+02
1.320000e-06	-3.370082e-06	-4.032870e-09	-2.454341e+01	-2.688424e+02
1.330000e-06	-3.309399e-06	-3.992944e-09	-2.410147e+01	-2.667839e+02
1.340000e-06	-3.248447e-06	-3.950301e-09	-2.365757e+01	-2.647024e+02
1.350000e-06	-3.187257e-06	-3.920543e-09	-2.321195e+01	-2.625959e+02
1.360000e-06	-3.125859e-06	-3.900238e-09	-2.276480e+01	-2.604626e+02
1.370000e-06	-3.064140e-06	-3.871293e-09	-2.231531e+01	-2.583005e+02
1.380000e-06	-3.002088e-06	-3.827146e-09	-2.186341e+01	-2.561076e+02
1.390000e-06	-2.939862e-06	-3.781730e-09	-2.141023e+01	-2.538820e+02
1.400000e-06	-2.877523e-06	-3.752079e-09	-2.095624e+01	-2.516218e+02
1.410000e-06	-2.815090e-06	-3.729765e-09	-2.050155e+01	-2.493255e+02
1.420000e-06	-2.752590e-06	-3.695047e-09	-2.004638e+01	-2.469917e+02
1.430000e-06	-2.689916e-06	-3.646887e-09	-1.958994e+01	-2.446193e+02
1.440000e-06	-2.627058e-06	-3.605772e-09	-1.913216e+01	-2.422075e+02
1.450000e-06	-2.564005e-06	-3.578599e-09	-1.867296e+01	-2.397558e+02
1.460000e-06	-2.500759e-06	-3.550983e-09	-1.821236e+01	-2.372641e+02
1.470000e-06	-2.437379e-06	-3.508036e-09	-1.775079e+01	-2.347325e+02
1.480000e-06	-2.373706e-06	-3.460418e-09	-1.728707e+01	-2.321614e+02
1.490000e-06	-2.309799e-06	-3.420532e-09	-1.682165e+01	-2.295517e+02
1.500000e-06	-2.245789e-06	-3.390827e-09	-1.635548e+01	-2.269042e+02
1.510000e-06	-2.181615e-06	-3.359534e-09	-1.588812e+01	-2.242202e+02
1.520000e-06	-2.117280e-06	-3.313664e-09	-1.541959e+01	-2.215007e+02
1.530000e-06	-2.052826e-06	-3.264462e-09	-1.495019e+01	-2.187472e+02
1.540000e-06	-1.988299e-06	-3.221804e-09	-1.448025e+01	-2.159609e+02
1.550000e-06	-1.923702e-06	-3.187344e-09	-1.400981e+01	-2.131431e+02
1.560000e-06	-1.859000e-06	-3.150705e-09	-1.353860e+01	-2.102950e+02
1.570000e-06	-1.794192e-06	-3.106467e-09	-1.306662e+01	-2.074175e+02
1.580000e-06	-1.729296e-06	-3.058893e-09	-1.259400e+01	-2.045114e+02
1.590000e-06	-1.664241e-06	-3.016051e-09	-1.212022e+01	-2.015770e+02
1.600000e-06	-1.599106e-06	-2.979966e-09	-1.164586e+01	-1.986146e+02
1.610000e-06	-1.533901e-06	-2.941705e-09	-1.117099e+01	-1.956241e+02
1.620000e-06	-1.468567e-06	-2.892591e-09	-1.069518e+01	-1.926048e+02
1.630000e-06	-1.403067e-06	-2.839560e-09	-1.021816e+01	-1.895561e+02
1.640000e-06	-1.337363e-06	-2.791318e-09	-9.739656e+00	-1.864768e+02
1.650000e-06	-1.271546e-06	-2.748768e-09	-9.260328e+00	-1.833655e+02
1.660000e-06	-1.205607e-06	-2.699542e-09	-8.780117e+00	-1.802206e+02
1.670000e-06	-1.139570e-06	-2.641464e-09	-8.299187e+00	-1.770400e+02
1.680000e-06	-1.073428e-06	-2.587056e-09	-7.817490e+00	-1.738220e+02
1.690000e-06	-1.007222e-06	-2.540338e-09	-7.335328e+00	-1.705642e+02
1.700000e-06	-9.410369e-07	-2.498421e-09	-6.853321e+00	-1.672645e+02
1.710000e-06	-8.746924e-07	-2.450689e-09	-6.370151e+00	-1.639208e+02
1.720000e-06	-8.082101e-07	-2.395990e-09	-5.885979e+00	-1.605310e+02
1.730000e-06	-7.417038e-07	-2.340597e-09	-5.401631e+00	-1.570932e+02
1.740000e-06	-6.752239e-07	-2.289907e-09	-4.917476e+00	-1.536056e+02
1.750000e-06	-6.086886e-07	-2.239644e-09	-4.432917e+00	-1.500668e+02
1.760000e-06	-5.419606e-07	-2.185591e-09	-3.946954e+00	-1.464754e+02
1.770000e-06	-4.751483e-07	-2.126901e-09	-3.460379e+00	-1.428305e+02
1.780000e-06	-4.082836e-07	-2.070522e-09	-2.973421e+00	-1.391314e+02
1.790000e-06	-3.413335e-07	-2.018496e-09	-2.485841e+00	-1.353779e+02
1.800000e-06	-2.743531e-07	-1.964486e-09	-1.998040e+00	-1.315699e+02
1.810000e-06	-2.074205e-07	-1.906000e-09	-1.510588e+00	-1.277075e+02
1.820000e-06	-1.405782e-07	-1.847737e-09	-1.023794e+00	-1.237913e+02
1.830000e-06	-7.364447e-08	-1.790450e-09	-5.363330e-01	-1.198220e+02
1.840000e-06	-6.657600e-09	-1.733646e-09	-4.848553e-02	-1.158003e+02
1.850000e-06	6.018982e-08	-1.676549e-09	4.383465e-01	-1.117272e+02
1.860000e-06	1.270639e-07	-1.617742e-09	9.253727e-01	-1.076036e+02
1.870000e-06	1.940219e-07	-1.554096e-09	1.413010e+00	-1.034305e+02
1.880000e-06	2.609266e-07	-1.489637e-09	1.900259e+00	-9.920860e+01
1.890000e-06	3.277516e-07	-1.427549e-09	2.386928e+00	-9.493867e+01
1.900000e-06	3.945912e-07	-1.363069e-09	2.873702e+00	-9.062120e+01
1.910000e-06	4.615317e-07	-1.295330e-09	3.361213e+00	-8.625644e+01
1.920000e-06	5.284366e-07	-1.226539e-09	3.848463e+00	-8.184439e+01
1.930000e-06	5.951656e-07	-1.161728e-09	4.334432e+00	-7.738476e+01
1.940000e-06	6.618229e-07	-1.095953e-09	4.819880e+00	-7.287695e+01
1.950000e-06	7.283956e-07	-1.029164e-09	5.304711e+00	-6.832009e+01
1.960000e-06	7.948444e-07	-9.598906e-10	5.788640e+00	-6.371304e+01
1.970000e-06	8.612506e-07	-8.862201e-10	6.272258e+00	-5.905444e+01
1.980000e-06	9.275309e-07	-8.147075e-10	6.754961e+00	-5.434273e+01
1.990000e-06	9.937472e-07	-7.447442e-10	7.237196e+00	-4.957627e+01
2.000000e-06	1.059958e-06	-6.724624e-10	7.719390e+00	-4.475336e+01
2.010000e-06	1.126000e-06	-5.953525e-10	8.200358e+00	-3.987234e+01
2.020000e-06	1.191826e-06	-5.182806e-10	8.679750e+00	-3.493172e+01
2.030000e-06	1.257566e-06	-4.456715e-10	9.158518e+00	-2.993020e+01
2.040000e-06	1.323286e-06	-3.718076e-10	9.637142e+00	-2.486685e+01
2.050000e-06	1.388847e-06	-2.905025e-10	1.011460e+01	-1.974115e+01
2.060000e-06	1.454216e-06	-2.070023e-10	1.059067e+01	-1.455308e+01
2.070000e-06	1.519483e-06	-1.278446e-10	1.106599e+01	-9.303257e+00
2.080000e-06	1.584678e-06	-5.049711e-11	1.154079e+01	-3.992939e+00
2.090000e-06	1.649802e-06	3.346846e-11	1.201506e+01	1.375870e+00
2.100000e-06	1.714816e-06	1.199040e-10	1.248855e+01	6.800394e+00
2.110000e-06	1.779636e-06	2.033481e-10	1.296061e+01	1.227705e+01
2.120000e-06	1.844323e-06	2.861311e-10	1.343171e+01	1.780146e+01
2.130000e-06	1.908876e-06	3.712749e-10	1.390184e+01	2.336842e+01
2.140000e-06	1.973237e-06	4.558670e-10	1.437056e+01	2.897199e+01
2.150000e-06	2.037485e-06	5.394827e-10	1.483846e+01	3.460550e+01
2.160000e-06	2.101675e-06	6.259058e-10	1.530594e+01	4.026165e+01
2.170000e-06	2.165821e-06	7.134927e-10	1.577310e+01	4.593256e+01
2.180000e-06	2.229874e-06	8.022133e-10	1.623958e+01	5.160992e+01
2.190000e-06	2.293692e-06	8.894210e-10	1.670434e+01	5.728507e+01
2.200000e-06	2.357284e-06	9.738401e-10	1.716747e+01	6.294916e+01
2.210000e-06	2.420674e-06	1.059073e-09	1.762912e+01	6.859323e+01
2.220000e-06	2.483866e-06	1.145273e-09	1.808933e+01	7.420842e+01
2.230000e-06	2.546935e-06	1.227203e-09	1.854865e+01	7.978603e+01
2.240000e-06	2.609885e-06	1.307958e-09	1.900710e+01	8.531772e+01
2.250000e-06	2.672647e-06	1.390953e-09	1.946418e+01	9.079558e+01
2.260000e-06	2.735237e-06	1.473436e-09	1.992000e+01	9.621229e+01
2.270000e-06	2.797706e-06	1.552829e-09	2.037495e+01	1.015612e+02
2.280000e-06	2.860045e-06	1.632115e-09	2.082895e+01	1.068364e+02
2.290000e-06	2.922216e-06	1.712189e-09	2.128172e+01	1.120329e+02
2.300000e-06	2.984133e-06	1.793182e-09	2.173265e+01	1.171464e+02
2.310000e-06	3.045809e-06	1.870675e-09	2.218182e+01	1.221737e+02
2.320000e-06	3.107288e-06	1.944205e-09	2.262955e+01	1.271125e+02
2.330000e-06	3.168462e-06	2.017128e-09	2.307507e+01	1.319612e+02
2.340000e-06	3.229313e-06	2.090787e-09	2.351822e+01	1.367192e+02
2.350000e-06	3.290020e-06	2.162627e-09	2.396034e+01	1.413867e+02
2.360000e-06	3.350611e-06	2.230913e-09	2.440161e+01	1.459647e+02
2.370000e-06	3.411049e-06	2.296519e-09	2.484176e+01	1.504547e+02
2.380000e-06	3.471303e-06	2.362676e-09	2.528057e+01	1.548588e+02
2.390000e-06	3.531437e-06	2.428675e-09	2.571851e+01	1.591797e+02
2.400000e-06	3.591385e-06	2.488020e-09	2.615510e+01	1.634200e+02
2.410000e-06	3.651071e-06	2.547803e-09	2.658978e+01	1.675830e+02
2.420000e-06	3.710458e-06	2.608944e-09	2.702228e+01	1.716718e+02
2.430000e-06	3.769459e-06	2.668988e-09	2.745196e+01	1.756895e+02
2.440000e-06	3.828171e-06	2.726034e-09	2.787955e+01	1.796392e+02
2.450000e-06	3.886533e-06	2.781228e-09	2.830458e+01	1.835236e+02
2.460000e-06	3.944508e-06	2.836906e-09	2.872680e+01	1.873453e+02
2.470000e-06	4.002115e-06	2.892311e-09	2.914633e+01	1.911065e+02
2.480000e-06	4.059354e-06	2.945659e-09	2.956319e+01	1.948087e+02
2.490000e-06	4.116264e-06	2.998992e-09	2.997765e+01	1.984535e+02
2.500000e-06	4.172848e-06	3.052481e-09	3.038974e+01	2.020415e+02
2.510000e-06	4.229071e-06	3.107065e-09	3.079919e+01	2.055733e+02
2.520000e-06	4.285005e-06	3.158686e-09	3.120655e+01	2.090488e+02
2.530000e-06	4.340759e-06	3.206606e-09	3.161259e+01	2.124676e+02
2.540000e-06	4.396136e-06	3.253808e-09	3.201589e+01	2.158291e+02
2.550000e-06	4.451113e-06	3.302099e-09	3.241627e+01	2.191323e+02
2.560000e-06	4.505879e-06	3.348807e-09	3.281512e+01	2.223761e+02
2.570000e-06	4.560474e-06	3.392649e-09	3.321272e+01	2.255592e+02
2.580000e-06	4.614793e-06	3.434928e-09	3.360831e+01	2.286804e+02
2.590000e-06	4.668714e-06	3.476138e-09	3.400100e+01	2.317384e+02
2.600000e-06	4.722342e-06	3.518944e-09	3.439156e+01	2.347324e+02
2.610000e-06	4.775656e-06	3.560209e-09	3.477983e+01	2.376613e+02
2.620000e-06	4.828663e-06	3.600059e-09	3.516587e+01	2.405249e+02
2.630000e-06	4.881315e-06	3.638479e-09	3.554932e+01	2.433227e+02
2.640000e-06	4.933489e-06	3.678234e-09	3.592929e+01	2.460552e+02
2.650000e-06	4.985336e-06	3.715222e-09	3.630687e+01	2.487229e+02
2.660000e-06	5.036815e-06	3.752196e-09	3.668178e+01	2.513269e+02
2.670000e-06	5.087740e-06	3.790240e-09	3.705266e+01	2.538687e+02
2.680000e-06	5.138110e-06	3.827920e-09	3.741948e+01	2.563501e+02
2.690000e-06	5.187765e-06	3.863029e-09	3.778111e+01	2.587735e+02
2.700000e-06	5.236751e-06	3.897758e-09	3.813786e+01	2.611414e+02
2.710000e-06	5.285414e-06	3.933141e-09	3.849226e+01	2.634566e+02
2.720000e-06	5.333823e-06	3.967707e-09	3.884481e+01	2.657221e+02
2.730000e-06	5.381897e-06	3.999932e-09	3.919492e+01	2.679411e+02
2.740000e-06	5.429559e-06	4.030689e-09	3.954203e+01	2.701166e+02
2.750000e-06	5.476882e-06	4.063880e-09	3.988667e+01	2.722519e+02
2.760000e-06	5.523838e-06	4.097727e-09	4.022864e+01	2.743497e+02
2.770000e-06	5.570321e-06	4.129307e-09	4.056716e+01	2.764127e+02
2.780000e-06	5.616418e-06	4.159961e-09	4.090288e+01	2.784434e+02
2.790000e-06	5.662167e-06	4.192427e-09	4.123606e+01	2.804438e+02
2.800000e-06	5.707429e-06	4.223160e-09	4.156568e+01	2.824154e+02
2.810000e-06	5.752302e-06	4.251518e-09	4.189249e+01	2.843593e+02
2.820000e-06	5.796872e-06	4.280576e-09	4.221707e+01	2.862763e+02
2.830000e-06	5.841198e-06	4.308477e-09	4.253989e+01	2.881666e+02
2.840000e-06	5.885347e-06	4.335804e-09	4.286141e+01	2.900297e+02
2.850000e-06	5.929180e-06	4.363850e-09	4.318064e+01	2.918650e+02
2.860000e-06	5.972598e-06	4.390744e-09	4.349684e+01	2.936713e+02
2.870000e-06	6.015648e-06	4.416260e-09	4.381036e+01	2.954471e+02
2.880000e-06	6.057994e-06	4.439437e-09	4.411875e+01	2.971908e+02
2.890000e-06	6.099572e-06	4.463173e-09	4.442156e+01	2.989003e+02
2.900000e-06	6.140595e-06	4.487668e-09	4.472032e+01	3.005736e+02
