# Temperatura_=_20.0
# Concentracion g/m^3_=_12600.0
# C_Vs_to_Am_M_A/Vsm_=_65563218390.804596
# pendiente_HvsI_1/m_=_3716.3
# ordenada_HvsI_A/m_=_1297.0
# frecuencia_Hz_=_135504.6618786226

Tiempo_(s)	Campo_(V.s)	Magnetizacion_(V.s)	Campo_(kA/m)	Magnetizacion_(A/m)
0.000000e+00	-7.870272e-06	-5.609177e-09	-5.705101e+01	-3.628783e+02
1.000000e-08	-7.870185e-06	-5.608158e-09	-5.705038e+01	-3.630044e+02
2.000000e-08	-7.869669e-06	-5.613428e-09	-5.704664e+01	-3.630991e+02
3.000000e-08	-7.868478e-06	-5.619105e-09	-5.703801e+01	-3.631576e+02
4.000000e-08	-7.866427e-06	-5.620137e-09	-5.702314e+01	-3.631754e+02
5.000000e-08	-7.863635e-06	-5.617908e-09	-5.700290e+01	-3.631488e+02
6.000000e-08	-7.860313e-06	-5.610273e-09	-5.697882e+01	-3.630747e+02
7.000000e-08	-7.856600e-06	-5.584166e-09	-5.695191e+01	-3.629510e+02
8.000000e-08	-7.852493e-06	-5.569291e-09	-5.692213e+01	-3.627763e+02
9.000000e-08	-7.847770e-06	-5.634074e-09	-5.688790e+01	-3.625506e+02
1.000000e-07	-7.842138e-06	-5.727195e-09	-5.684707e+01	-3.622746e+02
1.100000e-07	-7.835557e-06	-5.745139e-09	-5.679936e+01	-3.619502e+02
1.200000e-07	-7.828246e-06	-5.504228e-09	-5.674637e+01	-3.615806e+02
1.300000e-07	-7.820609e-06	-5.346105e-09	-5.669101e+01	-3.611697e+02
1.400000e-07	-7.812874e-06	-5.565460e-09	-5.663494e+01	-3.607226e+02
1.500000e-07	-7.804835e-06	-5.790307e-09	-5.657666e+01	-3.602452e+02
1.600000e-07	-7.796315e-06	-5.628318e-09	-5.651490e+01	-3.597442e+02
1.700000e-07	-7.787372e-06	-5.487058e-09	-5.645007e+01	-3.592268e+02
1.800000e-07	-7.777529e-06	-5.480078e-09	-5.637873e+01	-3.587008e+02
1.900000e-07	-7.766615e-06	-5.486262e-09	-5.629961e+01	-3.581743e+02
2.000000e-07	-7.755098e-06	-5.588592e-09	-5.621612e+01	-3.576553e+02
2.100000e-07	-7.743255e-06	-5.735021e-09	-5.613027e+01	-3.571520e+02
2.200000e-07	-7.730824e-06	-5.576104e-09	-5.604016e+01	-3.566722e+02
2.300000e-07	-7.717454e-06	-5.411262e-09	-5.594325e+01	-3.562230e+02
2.400000e-07	-7.703655e-06	-5.615171e-09	-5.584322e+01	-3.558113e+02
2.500000e-07	-7.689507e-06	-5.755829e-09	-5.574066e+01	-3.554428e+02
2.600000e-07	-7.674398e-06	-5.492984e-09	-5.563114e+01	-3.551224e+02
2.700000e-07	-7.658348e-06	-5.375527e-09	-5.551479e+01	-3.548540e+02
2.800000e-07	-7.641706e-06	-5.584407e-09	-5.539416e+01	-3.546400e+02
2.900000e-07	-7.624543e-06	-5.583008e-09	-5.526974e+01	-3.544820e+02
3.000000e-07	-7.606920e-06	-5.406651e-09	-5.514199e+01	-3.543798e+02
3.100000e-07	-7.588879e-06	-5.438095e-09	-5.501121e+01	-3.543322e+02
3.200000e-07	-7.570223e-06	-5.432755e-09	-5.487598e+01	-3.543365e+02
3.300000e-07	-7.550928e-06	-5.287432e-09	-5.473611e+01	-3.543889e+02
3.400000e-07	-7.531230e-06	-5.422627e-09	-5.459332e+01	-3.544844e+02
3.500000e-07	-7.511291e-06	-5.534396e-09	-5.444879e+01	-3.546167e+02
3.600000e-07	-7.490959e-06	-5.409917e-09	-5.430140e+01	-3.547789e+02
3.700000e-07	-7.470106e-06	-5.269870e-09	-5.415024e+01	-3.549630e+02
3.800000e-07	-7.448724e-06	-5.362021e-09	-5.399524e+01	-3.551605e+02
3.900000e-07	-7.426788e-06	-5.443435e-09	-5.383623e+01	-3.553625e+02
4.000000e-07	-7.404328e-06	-5.472010e-09	-5.367342e+01	-3.555598e+02
4.100000e-07	-7.381306e-06	-5.340745e-09	-5.350653e+01	-3.557431e+02
4.200000e-07	-7.357765e-06	-5.252252e-09	-5.333589e+01	-3.559035e+02
4.300000e-07	-7.333850e-06	-5.329185e-09	-5.316253e+01	-3.560320e+02
4.400000e-07	-7.309526e-06	-5.410978e-09	-5.298621e+01	-3.561206e+02
4.500000e-07	-7.284536e-06	-5.330042e-09	-5.280505e+01	-3.561616e+02
4.600000e-07	-7.258731e-06	-5.271632e-09	-5.261799e+01	-3.561484e+02
4.700000e-07	-7.232185e-06	-5.260982e-09	-5.242557e+01	-3.560752e+02
4.800000e-07	-7.205067e-06	-5.280553e-09	-5.222899e+01	-3.559374e+02
4.900000e-07	-7.177515e-06	-5.346223e-09	-5.202927e+01	-3.557314e+02
5.000000e-07	-7.149588e-06	-5.333800e-09	-5.182683e+01	-3.554548e+02
5.100000e-07	-7.121257e-06	-5.213220e-09	-5.162146e+01	-3.551065e+02
5.200000e-07	-7.092455e-06	-5.195546e-09	-5.141267e+01	-3.546866e+02
5.300000e-07	-7.063169e-06	-5.309807e-09	-5.120038e+01	-3.541962e+02
5.400000e-07	-7.033388e-06	-5.310448e-09	-5.098450e+01	-3.536375e+02
5.500000e-07	-7.003058e-06	-5.208542e-09	-5.076464e+01	-3.530139e+02
5.600000e-07	-6.972199e-06	-5.175873e-09	-5.054095e+01	-3.523294e+02
5.700000e-07	-6.940877e-06	-5.235617e-09	-5.031390e+01	-3.515889e+02
5.800000e-07	-6.909148e-06	-5.231590e-09	-5.008390e+01	-3.507979e+02
5.900000e-07	-6.877089e-06	-5.177323e-09	-4.985150e+01	-3.499623e+02
6.000000e-07	-6.844624e-06	-5.152860e-09	-4.961617e+01	-3.490883e+02
6.100000e-07	-6.811675e-06	-5.182320e-09	-4.937732e+01	-3.481823e+02
6.200000e-07	-6.778098e-06	-5.163075e-09	-4.913393e+01	-3.472506e+02
6.300000e-07	-6.743704e-06	-5.123546e-09	-4.888461e+01	-3.462992e+02
6.400000e-07	-6.708701e-06	-5.115388e-09	-4.863087e+01	-3.453340e+02
6.500000e-07	-6.673232e-06	-5.143833e-09	-4.837376e+01	-3.443603e+02
6.600000e-07	-6.637313e-06	-5.133450e-09	-4.811339e+01	-3.433828e+02
6.700000e-07	-6.601023e-06	-5.091825e-09	-4.785032e+01	-3.424057e+02
6.800000e-07	-6.564310e-06	-5.052742e-09	-4.758419e+01	-3.414324e+02
6.900000e-07	-6.527067e-06	-5.070372e-09	-4.731422e+01	-3.404654e+02
7.000000e-07	-6.489279e-06	-5.098300e-09	-4.704030e+01	-3.395065e+02
7.100000e-07	-6.451077e-06	-5.071443e-09	-4.676338e+01	-3.385568e+02
7.200000e-07	-6.412516e-06	-4.994331e-09	-4.648385e+01	-3.376164e+02
7.300000e-07	-6.373497e-06	-4.979741e-09	-4.620100e+01	-3.366849e+02
7.400000e-07	-6.334093e-06	-5.031887e-09	-4.591537e+01	-3.357609e+02
7.500000e-07	-6.294403e-06	-5.041253e-09	-4.562765e+01	-3.348426e+02
7.600000e-07	-6.254430e-06	-4.966675e-09	-4.533790e+01	-3.339277e+02
7.700000e-07	-6.214055e-06	-4.900370e-09	-4.504522e+01	-3.330135e+02
7.800000e-07	-6.173139e-06	-4.918461e-09	-4.474862e+01	-3.320967e+02
7.900000e-07	-6.131655e-06	-4.965982e-09	-4.444791e+01	-3.311741e+02
8.000000e-07	-6.089540e-06	-4.940828e-09	-4.414262e+01	-3.302423e+02
8.100000e-07	-6.046764e-06	-4.852885e-09	-4.383254e+01	-3.292980e+02
8.200000e-07	-6.003367e-06	-4.818068e-09	-4.351795e+01	-3.283378e+02
8.300000e-07	-5.959521e-06	-4.865132e-09	-4.320012e+01	-3.273587e+02
8.400000e-07	-5.915346e-06	-4.897703e-09	-4.287990e+01	-3.263580e+02
8.500000e-07	-5.870794e-06	-4.844466e-09	-4.255694e+01	-3.253333e+02
8.600000e-07	-5.825873e-06	-4.773188e-09	-4.223132e+01	-3.242826e+02
8.700000e-07	-5.780643e-06	-4.765487e-09	-4.190345e+01	-3.232044e+02
8.800000e-07	-5.735028e-06	-4.806575e-09	-4.157279e+01	-3.220977e+02
8.900000e-07	-5.688948e-06	-4.803700e-09	-4.123876e+01	-3.209620e+02
9.000000e-07	-5.642556e-06	-4.742916e-09	-4.090247e+01	-3.197972e+02
9.100000e-07	-5.595783e-06	-4.682428e-09	-4.056341e+01	-3.186038e+02
9.200000e-07	-5.548495e-06	-4.682047e-09	-4.022063e+01	-3.173825e+02
9.300000e-07	-5.500846e-06	-4.708073e-09	-3.987522e+01	-3.161346e+02
9.400000e-07	-5.452864e-06	-4.700954e-09	-3.952740e+01	-3.148615e+02
9.500000e-07	-5.404513e-06	-4.649268e-09	-3.917691e+01	-3.135650e+02
9.600000e-07	-5.355682e-06	-4.612414e-09	-3.882294e+01	-3.122469e+02
9.700000e-07	-5.306295e-06	-4.615634e-09	-3.846493e+01	-3.109093e+02
9.800000e-07	-5.256415e-06	-4.627962e-09	-3.810336e+01	-3.095541e+02
9.900000e-07	-5.206030e-06	-4.602634e-09	-3.773812e+01	-3.081832e+02
1.000000e-06	-5.155235e-06	-4.549277e-09	-3.736991e+01	-3.067984e+02
1.010000e-06	-5.103840e-06	-4.507946e-09	-3.699736e+01	-3.054012e+02
1.020000e-06	-5.051874e-06	-4.506427e-09	-3.662065e+01	-3.039929e+02
1.030000e-06	-4.999631e-06	-4.516274e-09	-3.624195e+01	-3.025745e+02
1.040000e-06	-4.947020e-06	-4.493705e-09	-3.586058e+01	-3.011467e+02
1.050000e-06	-4.894076e-06	-4.443926e-09	-3.547679e+01	-2.997097e+02
1.060000e-06	-4.840799e-06	-4.410946e-09	-3.509059e+01	-2.982636e+02
1.070000e-06	-4.787081e-06	-4.409803e-09	-3.470119e+01	-2.968078e+02
1.080000e-06	-4.733039e-06	-4.411812e-09	-3.430944e+01	-2.953416e+02
1.090000e-06	-4.678719e-06	-4.384056e-09	-3.391568e+01	-2.938638e+02
1.100000e-06	-4.624082e-06	-4.328486e-09	-3.351962e+01	-2.923732e+02
1.110000e-06	-4.569157e-06	-4.287626e-09	-3.312148e+01	-2.908680e+02
1.120000e-06	-4.513915e-06	-4.281334e-09	-3.272103e+01	-2.893464e+02
1.130000e-06	-4.458446e-06	-4.281660e-09	-3.231894e+01	-2.878066e+02
1.140000e-06	-4.402642e-06	-4.249200e-09	-3.191442e+01	-2.862464e+02
1.150000e-06	-4.346490e-06	-4.193160e-09	-3.150738e+01	-2.846638e+02
1.160000e-06	-4.290128e-06	-4.158958e-09	-3.109881e+01	-2.830569e+02
1.170000e-06	-4.233550e-06	-4.159337e-09	-3.068869e+01	-2.814237e+02
1.180000e-06	-4.176691e-06	-4.152033e-09	-3.027652e+01	-2.797626e+02
1.190000e-06	-4.119447e-06	-4.110597e-09	-2.986156e+01	-2.780719e+02
1.200000e-06	-4.061889e-06	-4.056449e-09	-2.944433e+01	-2.763504e+02
1.210000e-06	-4.004010e-06	-4.027777e-09	-2.902477e+01	-2.745970e+02
1.220000e-06	-3.945637e-06	-4.022628e-09	-2.860162e+01	-2.728109e+02
1.230000e-06	-3.886894e-06	-4.006776e-09	-2.817580e+01	-2.709917e+02
1.240000e-06	-3.827881e-06	-3.959950e-09	-2.774802e+01	-2.691391e+02
1.250000e-06	-3.768408e-06	-3.910900e-09	-2.731690e+01	-2.672532e+02
1.260000e-06	-3.708560e-06	-3.890934e-09	-2.688307e+01	-2.653344e+02
1.270000e-06	-3.648458e-06	-3.889182e-09	-2.644740e+01	-2.633831e+02
1.280000e-06	-3.588145e-06	-3.864609e-09	-2.601019e+01	-2.614001e+02
1.290000e-06	-3.527690e-06	-3.812212e-09	-2.557196e+01	-2.593862e+02
1.300000e-06	-3.467149e-06	-3.766419e-09	-2.513311e+01	-2.573425e+02
1.310000e-06	-3.406535e-06	-3.750917e-09	-2.469371e+01	-2.552699e+02
1.320000e-06	-3.345724e-06	-3.742228e-09	-2.425290e+01	-2.531696e+02
1.330000e-06	-3.284652e-06	-3.712359e-09	-2.381019e+01	-2.510423e+02
1.340000e-06	-3.223358e-06	-3.664831e-09	-2.336588e+01	-2.488891e+02
1.350000e-06	-3.161820e-06	-3.629113e-09	-2.291979e+01	-2.467107e+02
1.360000e-06	-3.099947e-06	-3.612756e-09	-2.247129e+01	-2.445077e+02
1.370000e-06	-3.037800e-06	-3.596163e-09	-2.202078e+01	-2.422804e+02
1.380000e-06	-2.975411e-06	-3.558109e-09	-2.156853e+01	-2.400291e+02
1.390000e-06	-2.912846e-06	-3.507314e-09	-2.111500e+01	-2.377537e+02
1.400000e-06	-2.850233e-06	-3.467856e-09	-2.066112e+01	-2.354539e+02
1.410000e-06	-2.787438e-06	-3.445067e-09	-2.020593e+01	-2.331291e+02
1.420000e-06	-2.724539e-06	-3.421796e-09	-1.974998e+01	-2.307786e+02
1.430000e-06	-2.661621e-06	-3.381273e-09	-1.929389e+01	-2.284014e+02
1.440000e-06	-2.598480e-06	-3.332658e-09	-1.883618e+01	-2.259965e+02
1.450000e-06	-2.535041e-06	-3.295876e-09	-1.837632e+01	-2.235624e+02
1.460000e-06	-2.471379e-06	-3.272676e-09	-1.791484e+01	-2.210977e+02
1.470000e-06	-2.407552e-06	-3.244457e-09	-1.745216e+01	-2.186011e+02
1.480000e-06	-2.343538e-06	-3.200875e-09	-1.698813e+01	-2.160709e+02
1.490000e-06	-2.279361e-06	-3.152462e-09	-1.652292e+01	-2.135058e+02
1.500000e-06	-2.214962e-06	-3.116570e-09	-1.605610e+01	-2.109041e+02
1.510000e-06	-2.150351e-06	-3.086975e-09	-1.558773e+01	-2.082647e+02
1.520000e-06	-2.085651e-06	-3.050042e-09	-1.511873e+01	-2.055862e+02
1.530000e-06	-2.020832e-06	-2.999975e-09	-1.464886e+01	-2.028677e+02
1.540000e-06	-1.955920e-06	-2.950197e-09	-1.417831e+01	-2.001082e+02
1.550000e-06	-1.890923e-06	-2.909167e-09	-1.370716e+01	-1.973071e+02
1.560000e-06	-1.825773e-06	-2.873595e-09	-1.323489e+01	-1.944639e+02
1.570000e-06	-1.760446e-06	-2.830979e-09	-1.276134e+01	-1.915785e+02
1.580000e-06	-1.694973e-06	-2.783109e-09	-1.228673e+01	-1.886508e+02
1.590000e-06	-1.629430e-06	-2.742214e-09	-1.181162e+01	-1.856811e+02
1.600000e-06	-1.563802e-06	-2.707210e-09	-1.133588e+01	-1.826697e+02
1.610000e-06	-1.498031e-06	-2.670291e-09	-1.085911e+01	-1.796173e+02
1.620000e-06	-1.432190e-06	-2.623089e-09	-1.038184e+01	-1.765245e+02
1.630000e-06	-1.366180e-06	-2.569808e-09	-9.903334e+00	-1.733922e+02
1.640000e-06	-1.299956e-06	-2.521286e-09	-9.423284e+00	-1.702212e+02
1.650000e-06	-1.233645e-06	-2.477880e-09	-8.942603e+00	-1.670125e+02
1.660000e-06	-1.167175e-06	-2.433458e-09	-8.460761e+00	-1.637669e+02
1.670000e-06	-1.100672e-06	-2.383624e-09	-7.978688e+00	-1.604853e+02
1.680000e-06	-1.034074e-06	-2.330008e-09	-7.495921e+00	-1.571684e+02
1.690000e-06	-9.674310e-07	-2.280362e-09	-7.012835e+00	-1.538169e+02
1.700000e-06	-9.008605e-07	-2.237040e-09	-6.530270e+00	-1.504310e+02
1.710000e-06	-8.342011e-07	-2.193520e-09	-6.047061e+00	-1.470112e+02
1.720000e-06	-7.674804e-07	-2.140929e-09	-5.563408e+00	-1.435573e+02
1.730000e-06	-7.006954e-07	-2.085496e-09	-5.079289e+00	-1.400692e+02
1.740000e-06	-6.337401e-07	-2.034493e-09	-4.593935e+00	-1.365463e+02
1.750000e-06	-5.666301e-07	-1.987057e-09	-4.107459e+00	-1.329880e+02
1.760000e-06	-4.995605e-07	-1.935391e-09	-3.621277e+00	-1.293932e+02
1.770000e-06	-4.324676e-07	-1.876085e-09	-3.134925e+00	-1.257608e+02
1.780000e-06	-3.652037e-07	-1.816917e-09	-2.647335e+00	-1.220893e+02
1.790000e-06	-2.977728e-07	-1.763159e-09	-2.158533e+00	-1.183769e+02
1.800000e-06	-2.304084e-07	-1.712885e-09	-1.670213e+00	-1.146220e+02
1.810000e-06	-1.631185e-07	-1.656363e-09	-1.182433e+00	-1.108226e+02
1.820000e-06	-9.578669e-08	-1.592309e-09	-6.943505e-01	-1.069764e+02
1.830000e-06	-2.853120e-08	-1.530032e-09	-2.068206e-01	-1.030815e+02
1.840000e-06	3.863802e-08	-1.473531e-09	2.800841e-01	-9.913552e+01
1.850000e-06	1.057038e-07	-1.420676e-09	7.662388e-01	-9.513634e+01
1.860000e-06	1.727240e-07	-1.358773e-09	1.252063e+00	-9.108179e+01
1.870000e-06	2.398179e-07	-1.289072e-09	1.738422e+00	-8.696979e+01
1.880000e-06	3.070194e-07	-1.222008e-09	2.225561e+00	-8.279839e+01
1.890000e-06	3.741605e-07	-1.159841e-09	2.712261e+00	-7.856576e+01
1.900000e-06	4.412740e-07	-1.097100e-09	3.198762e+00	-7.427026e+01
1.910000e-06	5.084488e-07	-1.027728e-09	3.685708e+00	-6.991045e+01
1.920000e-06	5.755745e-07	-9.559613e-10	4.172297e+00	-6.548513e+01
1.930000e-06	6.425578e-07	-8.879848e-10	4.657853e+00	-6.099332e+01
1.940000e-06	7.095277e-07	-8.244356e-10	5.143313e+00	-5.643434e+01
1.950000e-06	7.764743e-07	-7.595089e-10	5.628604e+00	-5.180774e+01
1.960000e-06	8.432118e-07	-6.879467e-10	6.112379e+00	-4.711341e+01
1.970000e-06	9.099050e-07	-6.104483e-10	6.595833e+00	-4.235149e+01
1.980000e-06	9.764018e-07	-5.356940e-10	7.077863e+00	-3.752244e+01
1.990000e-06	1.042649e-06	-4.647369e-10	7.558082e+00	-3.262702e+01
2.000000e-06	1.108894e-06	-3.913801e-10	8.038289e+00	-2.766629e+01
2.010000e-06	1.175164e-06	-3.138829e-10	8.518678e+00	-2.264164e+01
2.020000e-06	1.241341e-06	-2.379169e-10	8.998386e+00	-1.755474e+01
2.030000e-06	1.307374e-06	-1.632721e-10	9.477057e+00	-1.240758e+01
2.040000e-06	1.373391e-06	-8.639899e-11	9.955607e+00	-7.202457e+00
2.050000e-06	1.439322e-06	-8.186170e-12	1.043354e+01	-1.941985e+00
2.060000e-06	1.505105e-06	6.971469e-11	1.091039e+01	3.370919e+00
2.070000e-06	1.570785e-06	1.507397e-10	1.138650e+01	8.733024e+00
2.080000e-06	1.636278e-06	2.333963e-10	1.186126e+01	1.414079e+01
2.090000e-06	1.701684e-06	3.168554e-10	1.233538e+01	1.959037e+01
2.100000e-06	1.767009e-06	4.025569e-10	1.280892e+01	2.507761e+01
2.110000e-06	1.832215e-06	4.901277e-10	1.328159e+01	3.059804e+01
2.120000e-06	1.897304e-06	5.753813e-10	1.375341e+01	3.614691e+01
2.130000e-06	1.962144e-06	6.551871e-10	1.422344e+01	4.171917e+01
2.140000e-06	2.026803e-06	7.336866e-10	1.469214e+01	4.730951e+01
2.150000e-06	2.091368e-06	8.177437e-10	1.516017e+01	5.291234e+01
2.160000e-06	2.155866e-06	9.040941e-10	1.562771e+01	5.852185e+01
2.170000e-06	2.220180e-06	9.869878e-10	1.609392e+01	6.413201e+01
2.180000e-06	2.284235e-06	1.069292e-09	1.655825e+01	6.973661e+01
2.190000e-06	2.348086e-06	1.156251e-09	1.702110e+01	7.532932e+01
2.200000e-06	2.411819e-06	1.246642e-09	1.748310e+01	8.090367e+01
2.210000e-06	2.475428e-06	1.332925e-09	1.794419e+01	8.645317e+01
2.220000e-06	2.538832e-06	1.413448e-09	1.840380e+01	9.197131e+01
2.230000e-06	2.602008e-06	1.494098e-09	1.886176e+01	9.745165e+01
2.240000e-06	2.665005e-06	1.576634e-09	1.931842e+01	1.028878e+02
2.250000e-06	2.727795e-06	1.656437e-09	1.977358e+01	1.082737e+02
2.260000e-06	2.790448e-06	1.735097e-09	2.022775e+01	1.136033e+02
2.270000e-06	2.853074e-06	1.811389e-09	2.068172e+01	1.188711e+02
2.280000e-06	2.915480e-06	1.889094e-09	2.113409e+01	1.240716e+02
2.290000e-06	2.977641e-06	1.970744e-09	2.158470e+01	1.292002e+02
2.300000e-06	3.039697e-06	2.050155e-09	2.203454e+01	1.342523e+02
2.310000e-06	3.101473e-06	2.123292e-09	2.248235e+01	1.392242e+02
2.320000e-06	3.162900e-06	2.194459e-09	2.292762e+01	1.441124e+02
2.330000e-06	3.224180e-06	2.265395e-09	2.337184e+01	1.489142e+02
2.340000e-06	3.285301e-06	2.335769e-09	2.381490e+01	1.536276e+02
2.350000e-06	3.346239e-06	2.406056e-09	2.425664e+01	1.582509e+02
2.360000e-06	3.407003e-06	2.471886e-09	2.469711e+01	1.627833e+02
2.370000e-06	3.467565e-06	2.536003e-09	2.513612e+01	1.672246e+02
2.380000e-06	3.527962e-06	2.597312e-09	2.557393e+01	1.715750e+02
2.390000e-06	3.588245e-06	2.660075e-09	2.601092e+01	1.758355e+02
2.400000e-06	3.648224e-06	2.723908e-09	2.644570e+01	1.800074e+02
2.410000e-06	3.707819e-06	2.785620e-09	2.687770e+01	1.840927e+02
2.420000e-06	3.767172e-06	2.842186e-09	2.730795e+01	1.880936e+02
2.430000e-06	3.826311e-06	2.894360e-09	2.773664e+01	1.920128e+02
2.440000e-06	3.885057e-06	2.949570e-09	2.816249e+01	1.958532e+02
2.450000e-06	3.943356e-06	3.006572e-09	2.858509e+01	1.996179e+02
2.460000e-06	4.001362e-06	3.059517e-09	2.900558e+01	2.033102e+02
2.470000e-06	4.059088e-06	3.108266e-09	2.942402e+01	2.069332e+02
2.480000e-06	4.116540e-06	3.157295e-09	2.984049e+01	2.104903e+02
2.490000e-06	4.173620e-06	3.212002e-09	3.025426e+01	2.139845e+02
2.500000e-06	4.230265e-06	3.269529e-09	3.066487e+01	2.174187e+02
2.510000e-06	4.286569e-06	3.322045e-09	3.107301e+01	2.207958e+02
2.520000e-06	4.342548e-06	3.369330e-09	3.147880e+01	2.241180e+02
2.530000e-06	4.398166e-06	3.418099e-09	3.188198e+01	2.273874e+02
2.540000e-06	4.453477e-06	3.469445e-09	3.228292e+01	2.306057e+02
2.550000e-06	4.508436e-06	3.515795e-09	3.268131e+01	2.337743e+02
2.560000e-06	4.563160e-06	3.557748e-09	3.307800e+01	2.368940e+02
2.570000e-06	4.617712e-06	3.597306e-09	3.347345e+01	2.399655e+02
2.580000e-06	4.672029e-06	3.639216e-09	3.386719e+01	2.429888e+02
2.590000e-06	4.726047e-06	3.683633e-09	3.425876e+01	2.459639e+02
2.600000e-06	4.779608e-06	3.726980e-09	3.464702e+01	2.488902e+02
2.610000e-06	4.832818e-06	3.767525e-09	3.503274e+01	2.517670e+02
2.620000e-06	4.885730e-06	3.805414e-09	3.541629e+01	2.545935e+02
2.630000e-06	4.938359e-06	3.844537e-09	3.579779e+01	2.573686e+02
2.640000e-06	4.990655e-06	3.884208e-09	3.617689e+01	2.600912e+02
2.650000e-06	5.042470e-06	3.921212e-09	3.655248e+01	2.627602e+02
2.660000e-06	5.093821e-06	3.955859e-09	3.692472e+01	2.653745e+02
2.670000e-06	5.144633e-06	3.990677e-09	3.729306e+01	2.679332e+02
2.680000e-06	5.194815e-06	4.027605e-09	3.765682e+01	2.704356e+02
2.690000e-06	5.244484e-06	4.065586e-09	3.801687e+01	2.728811e+02
2.700000e-06	5.293684e-06	4.101655e-09	3.837352e+01	2.752695e+02
2.710000e-06	5.342429e-06	4.135572e-09	3.872686e+01	2.776009e+02
2.720000e-06	5.390851e-06	4.166925e-09	3.907787e+01	2.798757e+02
2.730000e-06	5.438923e-06	4.198966e-09	3.942635e+01	2.820947e+02
2.740000e-06	5.486554e-06	4.231558e-09	3.977162e+01	2.842589e+02
2.750000e-06	5.533865e-06	4.262889e-09	4.011457e+01	2.863698e+02
2.760000e-06	5.580798e-06	4.291157e-09	4.045479e+01	2.884292e+02
2.770000e-06	5.627306e-06	4.318858e-09	4.079192e+01	2.904391e+02
2.780000e-06	5.673520e-06	4.350210e-09	4.112692e+01	2.924016e+02
2.790000e-06	5.719281e-06	4.380962e-09	4.145864e+01	2.943193e+02
2.800000e-06	5.764541e-06	4.407771e-09	4.178672e+01	2.961947e+02
2.810000e-06	5.809471e-06	4.434057e-09	4.211242e+01	2.980304e+02
2.820000e-06	5.854049e-06	4.460533e-09	4.243556e+01	2.998289e+02
2.830000e-06	5.898311e-06	4.485538e-09	4.275641e+01	3.015929e+02
2.840000e-06	5.942377e-06	4.510971e-09	4.307585e+01	3.033247e+02
2.850000e-06	5.986122e-06	4.535941e-09	4.339295e+01	3.050264e+02
2.860000e-06	6.029430e-06	4.558666e-09	4.370689e+01	3.067000e+02
2.870000e-06	6.072298e-06	4.581181e-09	4.401764e+01	3.083471e+02
2.880000e-06	6.114518e-06	4.604945e-09	4.432368e+01	3.099690e+02
2.890000e-06	6.156105e-06	4.627430e-09	4.462514e+01	3.115666e+02
2.900000e-06	6.197153e-06	4.648969e-09	4.492270e+01	3.131403e+02
