# Temperatura_=_20.0
# Concentracion g/m^3_=_12600.0
# C_Vs_to_Am_M_A/Vsm_=_65563218390.804596
# pendiente_HvsI_1/m_=_3716.3
# ordenada_HvsI_A/m_=_1297.0
# frecuencia_Hz_=_135505.46148713384

Tiempo_(s)	Campo_(V.s)	Magnetizacion_(V.s)	Campo_(kA/m)	Magnetizacion_(A/m)
0.000000e+00	-7.873869e-06	-5.551134e-09	-5.704388e+01	-3.743647e+02
1.000000e-08	-7.873995e-06	-5.547163e-09	-5.704479e+01	-3.742460e+02
2.000000e-08	-7.873677e-06	-5.551346e-09	-5.704248e+01	-3.741026e+02
3.000000e-08	-7.872666e-06	-5.557051e-09	-5.703516e+01	-3.739354e+02
4.000000e-08	-7.870758e-06	-5.556899e-09	-5.702134e+01	-3.737455e+02
5.000000e-08	-7.867996e-06	-5.554622e-09	-5.700132e+01	-3.735339e+02
6.000000e-08	-7.864662e-06	-5.549475e-09	-5.697717e+01	-3.733021e+02
7.000000e-08	-7.861013e-06	-5.526105e-09	-5.695074e+01	-3.730514e+02
8.000000e-08	-7.857002e-06	-5.494581e-09	-5.692168e+01	-3.727833e+02
9.000000e-08	-7.852509e-06	-5.561812e-09	-5.688913e+01	-3.724993e+02
1.000000e-07	-7.847282e-06	-5.669325e-09	-5.685126e+01	-3.722008e+02
1.100000e-07	-7.840998e-06	-5.690273e-09	-5.680573e+01	-3.718893e+02
1.200000e-07	-7.833837e-06	-5.467421e-09	-5.675385e+01	-3.715663e+02
1.300000e-07	-7.826261e-06	-5.192081e-09	-5.669897e+01	-3.712330e+02
1.400000e-07	-7.818590e-06	-5.416992e-09	-5.664339e+01	-3.708908e+02
1.500000e-07	-7.810637e-06	-5.822332e-09	-5.658578e+01	-3.705409e+02
1.600000e-07	-7.802209e-06	-5.577807e-09	-5.652472e+01	-3.701842e+02
1.700000e-07	-7.793347e-06	-5.356107e-09	-5.646052e+01	-3.698219e+02
1.800000e-07	-7.783612e-06	-5.425925e-09	-5.638999e+01	-3.694546e+02
1.900000e-07	-7.772842e-06	-5.449332e-09	-5.631196e+01	-3.690831e+02
2.000000e-07	-7.761448e-06	-5.637059e-09	-5.622942e+01	-3.687080e+02
2.100000e-07	-7.749729e-06	-5.726396e-09	-5.614452e+01	-3.683298e+02
2.200000e-07	-7.737371e-06	-5.460226e-09	-5.605499e+01	-3.679488e+02
2.300000e-07	-7.724207e-06	-5.236698e-09	-5.595962e+01	-3.675654e+02
2.400000e-07	-7.710718e-06	-5.685831e-09	-5.586190e+01	-3.671797e+02
2.500000e-07	-7.696833e-06	-5.904263e-09	-5.576130e+01	-3.667919e+02
2.600000e-07	-7.681791e-06	-5.519808e-09	-5.565233e+01	-3.664021e+02
2.700000e-07	-7.665618e-06	-5.451433e-09	-5.553516e+01	-3.660103e+02
2.800000e-07	-7.649028e-06	-5.931282e-09	-5.541496e+01	-3.656166e+02
2.900000e-07	-7.632085e-06	-5.978667e-09	-5.529222e+01	-3.652208e+02
3.000000e-07	-7.614623e-06	-5.700263e-09	-5.516572e+01	-3.648229e+02
3.100000e-07	-7.596694e-06	-5.662027e-09	-5.503582e+01	-3.644229e+02
3.200000e-07	-7.578179e-06	-5.769623e-09	-5.490169e+01	-3.640207e+02
3.300000e-07	-7.559038e-06	-5.700889e-09	-5.476302e+01	-3.636163e+02
3.400000e-07	-7.539496e-06	-5.794622e-09	-5.462144e+01	-3.632094e+02
3.500000e-07	-7.519632e-06	-5.826518e-09	-5.447753e+01	-3.627999e+02
3.600000e-07	-7.499335e-06	-5.545497e-09	-5.433049e+01	-3.623878e+02
3.700000e-07	-7.478458e-06	-5.568291e-09	-5.417924e+01	-3.619728e+02
3.800000e-07	-7.457122e-06	-5.816189e-09	-5.402467e+01	-3.615546e+02
3.900000e-07	-7.435330e-06	-5.789612e-09	-5.386679e+01	-3.611330e+02
4.000000e-07	-7.413013e-06	-5.609081e-09	-5.370510e+01	-3.607076e+02
4.100000e-07	-7.390106e-06	-5.557018e-09	-5.353915e+01	-3.602779e+02
4.200000e-07	-7.366652e-06	-5.596040e-09	-5.336924e+01	-3.598433e+02
4.300000e-07	-7.342893e-06	-5.754161e-09	-5.319711e+01	-3.594034e+02
4.400000e-07	-7.318849e-06	-5.676248e-09	-5.302292e+01	-3.589573e+02
4.500000e-07	-7.294107e-06	-5.474107e-09	-5.284367e+01	-3.585043e+02
4.600000e-07	-7.268505e-06	-5.529202e-09	-5.265819e+01	-3.580433e+02
4.700000e-07	-7.242132e-06	-5.711686e-09	-5.246712e+01	-3.575735e+02
4.800000e-07	-7.215041e-06	-5.617250e-09	-5.227086e+01	-3.570937e+02
4.900000e-07	-7.187491e-06	-5.544353e-09	-5.207127e+01	-3.566028e+02
5.000000e-07	-7.159664e-06	-5.554301e-09	-5.186967e+01	-3.560995e+02
5.100000e-07	-7.131455e-06	-5.551697e-09	-5.166530e+01	-3.555826e+02
5.200000e-07	-7.102723e-06	-5.557875e-09	-5.145715e+01	-3.550508e+02
5.300000e-07	-7.073464e-06	-5.597079e-09	-5.124517e+01	-3.545029e+02
5.400000e-07	-7.043773e-06	-5.519720e-09	-5.103007e+01	-3.539375e+02
5.500000e-07	-7.013619e-06	-5.474899e-09	-5.081162e+01	-3.533536e+02
5.600000e-07	-6.982832e-06	-5.520048e-09	-5.058858e+01	-3.527499e+02
5.700000e-07	-6.951552e-06	-5.555736e-09	-5.036196e+01	-3.521254e+02
5.800000e-07	-6.919931e-06	-5.472388e-09	-5.013287e+01	-3.514794e+02
5.900000e-07	-6.888030e-06	-5.405671e-09	-4.990176e+01	-3.508110e+02
6.000000e-07	-6.855738e-06	-5.446439e-09	-4.966781e+01	-3.501196e+02
6.100000e-07	-6.822934e-06	-5.494615e-09	-4.943016e+01	-3.494049e+02
6.200000e-07	-6.789335e-06	-5.431077e-09	-4.918674e+01	-3.486667e+02
6.300000e-07	-6.754891e-06	-5.354780e-09	-4.893721e+01	-3.479050e+02
6.400000e-07	-6.719916e-06	-5.390743e-09	-4.868382e+01	-3.471199e+02
6.500000e-07	-6.684480e-06	-5.437259e-09	-4.842710e+01	-3.463119e+02
6.600000e-07	-6.648760e-06	-5.398694e-09	-4.816832e+01	-3.454816e+02
6.700000e-07	-6.612723e-06	-5.334779e-09	-4.790724e+01	-3.446296e+02
6.800000e-07	-6.576084e-06	-5.334818e-09	-4.764180e+01	-3.437571e+02
6.900000e-07	-6.538873e-06	-5.355407e-09	-4.737222e+01	-3.428649e+02
7.000000e-07	-6.501253e-06	-5.361599e-09	-4.709967e+01	-3.419542e+02
7.100000e-07	-6.463245e-06	-5.306540e-09	-4.682431e+01	-3.410263e+02
7.200000e-07	-6.424716e-06	-5.260456e-09	-4.654519e+01	-3.400825e+02
7.300000e-07	-6.385759e-06	-5.266221e-09	-4.626295e+01	-3.391240e+02
7.400000e-07	-6.346512e-06	-5.301576e-09	-4.597862e+01	-3.381522e+02
7.500000e-07	-6.306919e-06	-5.261924e-09	-4.569178e+01	-3.371681e+02
7.600000e-07	-6.267081e-06	-5.199289e-09	-4.540316e+01	-3.361730e+02
7.700000e-07	-6.226902e-06	-5.180275e-09	-4.511208e+01	-3.351677e+02
7.800000e-07	-6.186106e-06	-5.210968e-09	-4.481652e+01	-3.341532e+02
7.900000e-07	-6.144582e-06	-5.206900e-09	-4.451569e+01	-3.331301e+02
8.000000e-07	-6.102355e-06	-5.162732e-09	-4.420977e+01	-3.320989e+02
8.100000e-07	-6.059400e-06	-5.109918e-09	-4.389857e+01	-3.310598e+02
8.200000e-07	-6.015922e-06	-5.111778e-09	-4.358359e+01	-3.300129e+02
8.300000e-07	-5.972158e-06	-5.135220e-09	-4.326653e+01	-3.289580e+02
8.400000e-07	-5.928163e-06	-5.120397e-09	-4.294780e+01	-3.278948e+02
8.500000e-07	-5.883784e-06	-5.057002e-09	-4.262629e+01	-3.268227e+02
8.600000e-07	-5.838910e-06	-5.022369e-09	-4.230119e+01	-3.257409e+02
8.700000e-07	-5.793667e-06	-5.038790e-09	-4.197342e+01	-3.246485e+02
8.800000e-07	-5.748054e-06	-5.051218e-09	-4.164297e+01	-3.235445e+02
8.900000e-07	-5.702059e-06	-5.010210e-09	-4.130974e+01	-3.224276e+02
9.000000e-07	-5.655786e-06	-4.952037e-09	-4.097452e+01	-3.212966e+02
9.100000e-07	-5.609099e-06	-4.935750e-09	-4.063628e+01	-3.201503e+02
9.200000e-07	-5.561967e-06	-4.950658e-09	-4.029483e+01	-3.189872e+02
9.300000e-07	-5.514502e-06	-4.945477e-09	-3.995095e+01	-3.178062e+02
9.400000e-07	-5.466646e-06	-4.897060e-09	-3.960425e+01	-3.166060e+02
9.500000e-07	-5.418374e-06	-4.854897e-09	-3.925454e+01	-3.153855e+02
9.600000e-07	-5.369659e-06	-4.852407e-09	-3.890160e+01	-3.141436e+02
9.700000e-07	-5.320432e-06	-4.866966e-09	-3.854497e+01	-3.128794e+02
9.800000e-07	-5.270628e-06	-4.841575e-09	-3.818416e+01	-3.115924e+02
9.900000e-07	-5.220202e-06	-4.787746e-09	-3.781883e+01	-3.102818e+02
1.000000e-06	-5.169100e-06	-4.749734e-09	-3.744862e+01	-3.089474e+02
1.010000e-06	-5.117540e-06	-4.751393e-09	-3.707508e+01	-3.075889e+02
1.020000e-06	-5.065721e-06	-4.749387e-09	-3.669966e+01	-3.062064e+02
1.030000e-06	-5.013632e-06	-4.717740e-09	-3.632230e+01	-3.048000e+02
1.040000e-06	-4.961150e-06	-4.668563e-09	-3.594208e+01	-3.033701e+02
1.050000e-06	-4.908241e-06	-4.645944e-09	-3.555877e+01	-3.019170e+02
1.060000e-06	-4.854966e-06	-4.645845e-09	-3.517281e+01	-3.004413e+02
1.070000e-06	-4.801379e-06	-4.634438e-09	-3.478458e+01	-2.989437e+02
1.080000e-06	-4.747401e-06	-4.591517e-09	-3.439353e+01	-2.974248e+02
1.090000e-06	-4.693066e-06	-4.551953e-09	-3.399989e+01	-2.958854e+02
1.100000e-06	-4.638358e-06	-4.534371e-09	-3.360355e+01	-2.943259e+02
1.110000e-06	-4.583329e-06	-4.523131e-09	-3.320487e+01	-2.927472e+02
1.120000e-06	-4.528079e-06	-4.494608e-09	-3.280460e+01	-2.911496e+02
1.130000e-06	-4.472546e-06	-4.455122e-09	-3.240229e+01	-2.895335e+02
1.140000e-06	-4.416779e-06	-4.422099e-09	-3.199827e+01	-2.878993e+02
1.150000e-06	-4.360812e-06	-4.402359e-09	-3.159280e+01	-2.862469e+02
1.160000e-06	-4.304642e-06	-4.382940e-09	-3.118587e+01	-2.845763e+02
1.170000e-06	-4.248195e-06	-4.352493e-09	-3.077693e+01	-2.828872e+02
1.180000e-06	-4.191420e-06	-4.314884e-09	-3.036561e+01	-2.811792e+02
1.190000e-06	-4.134250e-06	-4.284656e-09	-2.995143e+01	-2.794514e+02
1.200000e-06	-4.076671e-06	-4.265341e-09	-2.953429e+01	-2.777032e+02
1.210000e-06	-4.018647e-06	-4.242970e-09	-2.911392e+01	-2.759334e+02
1.220000e-06	-3.960180e-06	-4.211125e-09	-2.869035e+01	-2.741409e+02
1.230000e-06	-3.901226e-06	-4.173986e-09	-2.826324e+01	-2.723244e+02
1.240000e-06	-3.841881e-06	-4.142868e-09	-2.783330e+01	-2.704825e+02
1.250000e-06	-3.782358e-06	-4.112817e-09	-2.740208e+01	-2.686138e+02
1.260000e-06	-3.722665e-06	-4.083036e-09	-2.696961e+01	-2.667169e+02
1.270000e-06	-3.662771e-06	-4.051488e-09	-2.653570e+01	-2.647902e+02
1.280000e-06	-3.602743e-06	-4.015920e-09	-2.610082e+01	-2.628325e+02
1.290000e-06	-3.542552e-06	-3.983353e-09	-2.566475e+01	-2.608423e+02
1.300000e-06	-3.482119e-06	-3.957871e-09	-2.522693e+01	-2.588186e+02
1.310000e-06	-3.421548e-06	-3.931768e-09	-2.478811e+01	-2.567603e+02
1.320000e-06	-3.360805e-06	-3.897087e-09	-2.434804e+01	-2.546665e+02
1.330000e-06	-3.299731e-06	-3.859950e-09	-2.390558e+01	-2.525366e+02
1.340000e-06	-3.238275e-06	-3.826645e-09	-2.346035e+01	-2.503702e+02
1.350000e-06	-3.176570e-06	-3.795569e-09	-2.301332e+01	-2.481671e+02
1.360000e-06	-3.114775e-06	-3.764113e-09	-2.256563e+01	-2.459272e+02
1.370000e-06	-3.052736e-06	-3.729266e-09	-2.211618e+01	-2.436507e+02
1.380000e-06	-2.990345e-06	-3.690911e-09	-2.166417e+01	-2.413381e+02
1.390000e-06	-2.927812e-06	-3.650596e-09	-2.121114e+01	-2.389900e+02
1.400000e-06	-2.865191e-06	-3.615356e-09	-2.075747e+01	-2.366071e+02
1.410000e-06	-2.802348e-06	-3.580697e-09	-2.030219e+01	-2.341903e+02
1.420000e-06	-2.739318e-06	-3.540176e-09	-1.984556e+01	-2.317405e+02
1.430000e-06	-2.676144e-06	-3.497409e-09	-1.938788e+01	-2.292588e+02
1.440000e-06	-2.612832e-06	-3.460698e-09	-1.892920e+01	-2.267462e+02
1.450000e-06	-2.549367e-06	-3.428212e-09	-1.846941e+01	-2.242036e+02
1.460000e-06	-2.485754e-06	-3.392667e-09	-1.800856e+01	-2.216321e+02
1.470000e-06	-2.422053e-06	-3.350259e-09	-1.754706e+01	-2.190324e+02
1.480000e-06	-2.358182e-06	-3.306749e-09	-1.708434e+01	-2.164052e+02
1.490000e-06	-2.294119e-06	-3.266132e-09	-1.662022e+01	-2.137510e+02
1.500000e-06	-2.229989e-06	-3.229755e-09	-1.615562e+01	-2.110700e+02
1.510000e-06	-2.165720e-06	-3.189555e-09	-1.569001e+01	-2.083623e+02
1.520000e-06	-2.101215e-06	-3.141976e-09	-1.522268e+01	-2.056277e+02
1.530000e-06	-2.036590e-06	-3.093117e-09	-1.475450e+01	-2.028659e+02
1.540000e-06	-1.971918e-06	-3.049198e-09	-1.428597e+01	-2.000760e+02
1.550000e-06	-1.907104e-06	-3.007791e-09	-1.381641e+01	-1.972573e+02
1.560000e-06	-1.842077e-06	-2.963657e-09	-1.334531e+01	-1.944085e+02
1.570000e-06	-1.776885e-06	-2.914521e-09	-1.287301e+01	-1.915284e+02
1.580000e-06	-1.711631e-06	-2.868932e-09	-1.240027e+01	-1.886153e+02
1.590000e-06	-1.646257e-06	-2.828814e-09	-1.192665e+01	-1.856678e+02
1.600000e-06	-1.580519e-06	-2.787645e-09	-1.145040e+01	-1.826841e+02
1.610000e-06	-1.514669e-06	-2.739599e-09	-1.097333e+01	-1.796623e+02
1.620000e-06	-1.448797e-06	-2.686889e-09	-1.049611e+01	-1.766007e+02
1.630000e-06	-1.382625e-06	-2.636710e-09	-1.001671e+01	-1.734975e+02
1.640000e-06	-1.316223e-06	-2.592495e-09	-9.535648e+00	-1.703511e+02
1.650000e-06	-1.249716e-06	-2.545486e-09	-9.053827e+00	-1.671599e+02
1.660000e-06	-1.183089e-06	-2.488835e-09	-8.571133e+00	-1.639224e+02
1.670000e-06	-1.116351e-06	-2.430986e-09	-8.087633e+00	-1.606376e+02
1.680000e-06	-1.049530e-06	-2.378784e-09	-7.603539e+00	-1.573044e+02
1.690000e-06	-9.826015e-07	-2.329363e-09	-7.118660e+00	-1.539220e+02
1.700000e-06	-9.156109e-07	-2.277058e-09	-6.633333e+00	-1.504899e+02
1.710000e-06	-8.485612e-07	-2.223711e-09	-6.147577e+00	-1.470080e+02
1.720000e-06	-7.814070e-07	-2.170347e-09	-5.661065e+00	-1.434762e+02
1.730000e-06	-7.141764e-07	-2.119528e-09	-5.173999e+00	-1.398948e+02
1.740000e-06	-6.469856e-07	-2.066973e-09	-4.687221e+00	-1.362642e+02
1.750000e-06	-5.797665e-07	-2.014771e-09	-4.200239e+00	-1.325850e+02
1.760000e-06	-5.123645e-07	-1.958784e-09	-3.711931e+00	-1.288581e+02
1.770000e-06	-4.449646e-07	-1.900370e-09	-3.223638e+00	-1.250843e+02
1.780000e-06	-3.776319e-07	-1.842445e-09	-2.735833e+00	-1.212647e+02
1.790000e-06	-3.102047e-07	-1.783846e-09	-2.247342e+00	-1.174002e+02
1.800000e-06	-2.427508e-07	-1.724174e-09	-1.758658e+00	-1.134918e+02
1.810000e-06	-1.752737e-07	-1.661623e-09	-1.269806e+00	-1.095403e+02
1.820000e-06	-1.078110e-07	-1.599113e-09	-7.810588e-01	-1.055466e+02
1.830000e-06	-4.038833e-08	-1.539258e-09	-2.926017e-01	-1.015110e+02
1.840000e-06	2.703045e-08	-1.479614e-09	1.958277e-01	-9.743412e+01
1.850000e-06	9.448690e-08	-1.420447e-09	6.845299e-01	-9.331587e+01
1.860000e-06	1.619864e-07	-1.357972e-09	1.173544e+00	-8.915613e+01
1.870000e-06	2.294124e-07	-1.290684e-09	1.662026e+00	-8.495440e+01
1.880000e-06	2.968204e-07	-1.223315e-09	2.150377e+00	-8.070992e+01
1.890000e-06	3.642399e-07	-1.157438e-09	2.638812e+00	-7.642159e+01
1.900000e-06	4.316213e-07	-1.091444e-09	3.126970e+00	-7.208805e+01
1.910000e-06	4.989956e-07	-1.020935e-09	3.615077e+00	-6.770767e+01
1.920000e-06	5.663521e-07	-9.511445e-10	4.103055e+00	-6.327860e+01
1.930000e-06	6.335853e-07	-8.835674e-10	4.590140e+00	-5.879880e+01
1.940000e-06	7.007105e-07	-8.172686e-10	5.076442e+00	-5.426610e+01
1.950000e-06	7.678001e-07	-7.471898e-10	5.562487e+00	-4.967827e+01
1.960000e-06	8.348239e-07	-6.749576e-10	6.048055e+00	-4.503308e+01
1.970000e-06	9.017908e-07	-6.001353e-10	6.533210e+00	-4.032835e+01
1.980000e-06	9.686070e-07	-5.263560e-10	7.017274e+00	-3.556210e+01
1.990000e-06	1.035248e-06	-4.532416e-10	7.500065e+00	-3.073251e+01
2.000000e-06	1.101780e-06	-3.785582e-10	7.982075e+00	-2.583813e+01
2.010000e-06	1.168315e-06	-3.035733e-10	8.464098e+00	-2.087784e+01
2.020000e-06	1.234828e-06	-2.269797e-10	8.945968e+00	-1.585099e+01
2.030000e-06	1.301206e-06	-1.489104e-10	9.426856e+00	-1.075743e+01
2.040000e-06	1.367571e-06	-6.775709e-11	9.907654e+00	-5.597577e+00
2.050000e-06	1.433830e-06	1.396620e-11	1.038768e+01	-3.724652e-01
2.060000e-06	1.499861e-06	9.586185e-11	1.086605e+01	4.916231e+00
2.070000e-06	1.565632e-06	1.794915e-10	1.134255e+01	1.026617e+01
2.080000e-06	1.631277e-06	2.642322e-10	1.181812e+01	1.567432e+01
2.090000e-06	1.696841e-06	3.490853e-10	1.229311e+01	2.113700e+01
2.100000e-06	1.762132e-06	4.334661e-10	1.276613e+01	2.664984e+01
2.110000e-06	1.827117e-06	5.180711e-10	1.323693e+01	3.220786e+01
2.120000e-06	1.891849e-06	6.050898e-10	1.370590e+01	3.780548e+01
2.130000e-06	1.956481e-06	6.900194e-10	1.417413e+01	4.343660e+01
2.140000e-06	2.020969e-06	7.721812e-10	1.464133e+01	4.909463e+01
2.150000e-06	2.085269e-06	8.553314e-10	1.510716e+01	5.477261e+01
2.160000e-06	2.149518e-06	9.444069e-10	1.557263e+01	6.046324e+01
2.170000e-06	2.213696e-06	1.036861e-09	1.603758e+01	6.615899e+01
2.180000e-06	2.277718e-06	1.127282e-09	1.650140e+01	7.185222e+01
2.190000e-06	2.341590e-06	1.213346e-09	1.696414e+01	7.753521e+01
2.200000e-06	2.405336e-06	1.298652e-09	1.742596e+01	8.320031e+01
2.210000e-06	2.468880e-06	1.386717e-09	1.788631e+01	8.883999e+01
2.220000e-06	2.532264e-06	1.476019e-09	1.834551e+01	9.444696e+01
2.230000e-06	2.595541e-06	1.561399e-09	1.880393e+01	1.000142e+02
2.240000e-06	2.658615e-06	1.642478e-09	1.926089e+01	1.055352e+02
2.250000e-06	2.721460e-06	1.724856e-09	1.971618e+01	1.110036e+02
2.260000e-06	2.784213e-06	1.807490e-09	2.017081e+01	1.164139e+02
2.270000e-06	2.846885e-06	1.888558e-09	2.062485e+01	1.217609e+02
2.280000e-06	2.909330e-06	1.970251e-09	2.107724e+01	1.270401e+02
2.290000e-06	2.971564e-06	2.052610e-09	2.152811e+01	1.322476e+02
2.300000e-06	3.033616e-06	2.133541e-09	2.197766e+01	1.373799e+02
2.310000e-06	3.095462e-06	2.211590e-09	2.242572e+01	1.424343e+02
2.320000e-06	3.157133e-06	2.289297e-09	2.287251e+01	1.474088e+02
2.330000e-06	3.218559e-06	2.365927e-09	2.331752e+01	1.523017e+02
2.340000e-06	3.279753e-06	2.437334e-09	2.376085e+01	1.571121e+02
2.350000e-06	3.340783e-06	2.507119e-09	2.420299e+01	1.618394e+02
2.360000e-06	3.401548e-06	2.577141e-09	2.464322e+01	1.664835e+02
2.370000e-06	3.462010e-06	2.646788e-09	2.508125e+01	1.710449e+02
2.380000e-06	3.522240e-06	2.714923e-09	2.551760e+01	1.755241e+02
2.390000e-06	3.582300e-06	2.779205e-09	2.595272e+01	1.799222e+02
2.400000e-06	3.642179e-06	2.842722e-09	2.638652e+01	1.842403e+02
2.410000e-06	3.701900e-06	2.908634e-09	2.681918e+01	1.884799e+02
2.420000e-06	3.761499e-06	2.972387e-09	2.725096e+01	1.926425e+02
2.430000e-06	3.820788e-06	3.030144e-09	2.768049e+01	1.967297e+02
2.440000e-06	3.879730e-06	3.085154e-09	2.810751e+01	2.007430e+02
2.450000e-06	3.938396e-06	3.142162e-09	2.853253e+01	2.046841e+02
2.460000e-06	3.996734e-06	3.199246e-09	2.895517e+01	2.085546e+02
2.470000e-06	4.054692e-06	3.253854e-09	2.937506e+01	2.123559e+02
2.480000e-06	4.112100e-06	3.308944e-09	2.979096e+01	2.160893e+02
2.490000e-06	4.168966e-06	3.364828e-09	3.020294e+01	2.197562e+02
2.500000e-06	4.225501e-06	3.422867e-09	3.061252e+01	2.233577e+02
2.510000e-06	4.281749e-06	3.479869e-09	3.102002e+01	2.268948e+02
2.520000e-06	4.337668e-06	3.530797e-09	3.142513e+01	2.303684e+02
2.530000e-06	4.393296e-06	3.579735e-09	3.182814e+01	2.337794e+02
2.540000e-06	4.448733e-06	3.628152e-09	3.222977e+01	2.371284e+02
2.550000e-06	4.503961e-06	3.677289e-09	3.262988e+01	2.404161e+02
2.560000e-06	4.558802e-06	3.723868e-09	3.302719e+01	2.436430e+02
2.570000e-06	4.613346e-06	3.769532e-09	3.342234e+01	2.468097e+02
2.580000e-06	4.667592e-06	3.814085e-09	3.381533e+01	2.499168e+02
2.590000e-06	4.721538e-06	3.856850e-09	3.420616e+01	2.529647e+02
2.600000e-06	4.775253e-06	3.901031e-09	3.459531e+01	2.559540e+02
2.610000e-06	4.828631e-06	3.943993e-09	3.498202e+01	2.588854e+02
2.620000e-06	4.881678e-06	3.987478e-09	3.536633e+01	2.617594e+02
2.630000e-06	4.934417e-06	4.029151e-09	3.574841e+01	2.645769e+02
2.640000e-06	4.986772e-06	4.068472e-09	3.612770e+01	2.673386e+02
2.650000e-06	5.038660e-06	4.107590e-09	3.650361e+01	2.700453e+02
2.660000e-06	5.090087e-06	4.149740e-09	3.687619e+01	2.726981e+02
2.670000e-06	5.141014e-06	4.189966e-09	3.724514e+01	2.752979e+02
2.680000e-06	5.191350e-06	4.225942e-09	3.760981e+01	2.778458e+02
2.690000e-06	5.241094e-06	4.260332e-09	3.797019e+01	2.803430e+02
2.700000e-06	5.290377e-06	4.297406e-09	3.832723e+01	2.827906e+02
2.710000e-06	5.339254e-06	4.334111e-09	3.868133e+01	2.851898e+02
2.720000e-06	5.387646e-06	4.369167e-09	3.903191e+01	2.875418e+02
2.730000e-06	5.435590e-06	4.403749e-09	3.937925e+01	2.898477e+02
2.740000e-06	5.483284e-06	4.439022e-09	3.972478e+01	2.921089e+02
2.750000e-06	5.530719e-06	4.475130e-09	4.006844e+01	2.943262e+02
2.760000e-06	5.577718e-06	4.509193e-09	4.040893e+01	2.965008e+02
2.770000e-06	5.624267e-06	4.540317e-09	4.074617e+01	2.986337e+02
2.780000e-06	5.670422e-06	4.573280e-09	4.108054e+01	3.007257e+02
2.790000e-06	5.716218e-06	4.607296e-09	4.141233e+01	3.027777e+02
2.800000e-06	5.761635e-06	4.637655e-09	4.174136e+01	3.047902e+02
2.810000e-06	5.806610e-06	4.666258e-09	4.206719e+01	3.067640e+02
2.820000e-06	5.851172e-06	4.693565e-09	4.239003e+01	3.086995e+02
2.830000e-06	5.895397e-06	4.722397e-09	4.271042e+01	3.105972e+02
2.840000e-06	5.939377e-06	4.752359e-09	4.302905e+01	3.124574e+02
2.850000e-06	5.983098e-06	4.782452e-09	4.334579e+01	3.142803e+02
2.860000e-06	6.026517e-06	4.809540e-09	4.366035e+01	3.160662e+02
2.870000e-06	6.069534e-06	4.835112e-09	4.397200e+01	3.178154e+02
2.880000e-06	6.111945e-06	4.861857e-09	4.427925e+01	3.195279e+02
2.890000e-06	6.153664e-06	4.890044e-09	4.458149e+01	3.212039e+02
2.900000e-06	6.194694e-06	4.916106e-09	4.487874e+01	3.228436e+02
