# Temperatura_=_20.0
# Concentracion g/m^3_=_9000.0
# C_Vs_to_Am_M_A/Vsm_=_65563218390.804596
# pendiente_HvsI_1/m_=_3716.3
# ordenada_HvsI_A/m_=_1297.0
# frecuencia_Hz_=_212854.50431643202

Tiempo_(s)	Campo_(V.s)	Magnetizacion_(V.s)	Campo_(kA/m)	Magnetizacion_(A/m)
0.000000e+00	-5.320502e-06	-1.751309e-09	-3.843434e+01	-1.157887e+02
1.000000e-08	-5.320254e-06	-1.751893e-09	-3.843254e+01	-1.158005e+02
2.000000e-08	-5.318988e-06	-1.755434e-09	-3.842340e+01	-1.158183e+02
3.000000e-08	-5.316513e-06	-1.757780e-09	-3.840552e+01	-1.158481e+02
4.000000e-08	-5.313085e-06	-1.758619e-09	-3.838076e+01	-1.158948e+02
5.000000e-08	-5.308941e-06	-1.757607e-09	-3.835082e+01	-1.159614e+02
6.000000e-08	-5.303973e-06	-1.754860e-09	-3.831494e+01	-1.160489e+02
7.000000e-08	-5.298087e-06	-1.748847e-09	-3.827242e+01	-1.161553e+02
8.000000e-08	-5.291297e-06	-1.731543e-09	-3.822337e+01	-1.162764e+02
9.000000e-08	-5.283693e-06	-1.735879e-09	-3.816843e+01	-1.164048e+02
1.000000e-07	-5.275081e-06	-1.775457e-09	-3.810623e+01	-1.165311e+02
1.100000e-07	-5.265032e-06	-1.807168e-09	-3.803363e+01	-1.166436e+02
1.200000e-07	-5.253706e-06	-1.763526e-09	-3.795182e+01	-1.167292e+02
1.300000e-07	-5.241525e-06	-1.658151e-09	-3.786382e+01	-1.167742e+02
1.400000e-07	-5.228554e-06	-1.708531e-09	-3.777012e+01	-1.167647e+02
1.500000e-07	-5.214741e-06	-1.841991e-09	-3.767034e+01	-1.166881e+02
1.600000e-07	-5.200086e-06	-1.762624e-09	-3.756448e+01	-1.165333e+02
1.700000e-07	-5.184344e-06	-1.706878e-09	-3.745076e+01	-1.162918e+02
1.800000e-07	-5.167273e-06	-1.718208e-09	-3.732744e+01	-1.159583e+02
1.900000e-07	-5.149393e-06	-1.663925e-09	-3.719827e+01	-1.155312e+02
2.000000e-07	-5.131058e-06	-1.757325e-09	-3.706583e+01	-1.150129e+02
2.100000e-07	-5.111805e-06	-1.821979e-09	-3.692675e+01	-1.144096e+02
2.200000e-07	-5.091490e-06	-1.615789e-09	-3.678000e+01	-1.137316e+02
2.300000e-07	-5.070487e-06	-1.570202e-09	-3.662828e+01	-1.129924e+02
2.400000e-07	-5.048769e-06	-1.819111e-09	-3.647139e+01	-1.122085e+02
2.500000e-07	-5.026081e-06	-1.831188e-09	-3.630749e+01	-1.113985e+02
2.600000e-07	-5.002501e-06	-1.625076e-09	-3.613716e+01	-1.105819e+02
2.700000e-07	-4.978147e-06	-1.565733e-09	-3.596123e+01	-1.097786e+02
2.800000e-07	-4.952843e-06	-1.701897e-09	-3.577844e+01	-1.090077e+02
2.900000e-07	-4.926414e-06	-1.778305e-09	-3.558752e+01	-1.082865e+02
3.000000e-07	-4.898965e-06	-1.656440e-09	-3.538923e+01	-1.076298e+02
3.100000e-07	-4.870674e-06	-1.619957e-09	-3.518486e+01	-1.070490e+02
3.200000e-07	-4.841542e-06	-1.697709e-09	-3.497442e+01	-1.065519e+02
3.300000e-07	-4.811455e-06	-1.655572e-09	-3.475707e+01	-1.061422e+02
3.400000e-07	-4.780588e-06	-1.679410e-09	-3.453409e+01	-1.058195e+02
3.500000e-07	-4.749115e-06	-1.755210e-09	-3.430674e+01	-1.055796e+02
3.600000e-07	-4.716823e-06	-1.610725e-09	-3.407347e+01	-1.054148e+02
3.700000e-07	-4.683615e-06	-1.565987e-09	-3.383358e+01	-1.053143e+02
3.800000e-07	-4.649497e-06	-1.757382e-09	-3.358712e+01	-1.052654e+02
3.900000e-07	-4.614353e-06	-1.742178e-09	-3.333325e+01	-1.052539e+02
4.000000e-07	-4.578261e-06	-1.562095e-09	-3.307253e+01	-1.052651e+02
4.100000e-07	-4.541508e-06	-1.612247e-09	-3.280703e+01	-1.052846e+02
4.200000e-07	-4.504112e-06	-1.743173e-09	-3.253688e+01	-1.052992e+02
4.300000e-07	-4.465808e-06	-1.687103e-09	-3.226018e+01	-1.052974e+02
4.400000e-07	-4.426659e-06	-1.605982e-09	-3.197738e+01	-1.052700e+02
4.500000e-07	-4.386963e-06	-1.635132e-09	-3.169062e+01	-1.052104e+02
4.600000e-07	-4.346739e-06	-1.674373e-09	-3.140005e+01	-1.051149e+02
4.700000e-07	-4.305617e-06	-1.660574e-09	-3.110299e+01	-1.049824e+02
4.800000e-07	-4.263334e-06	-1.627477e-09	-3.079755e+01	-1.048142e+02
4.900000e-07	-4.220105e-06	-1.624156e-09	-3.048527e+01	-1.046140e+02
5.000000e-07	-4.176174e-06	-1.635514e-09	-3.016792e+01	-1.043870e+02
5.100000e-07	-4.131578e-06	-1.631202e-09	-2.984576e+01	-1.041394e+02
5.200000e-07	-4.086357e-06	-1.631254e-09	-2.951910e+01	-1.038779e+02
5.300000e-07	-4.040462e-06	-1.623075e-09	-2.918757e+01	-1.036092e+02
5.400000e-07	-3.993882e-06	-1.598116e-09	-2.885108e+01	-1.033390e+02
5.500000e-07	-3.946708e-06	-1.606609e-09	-2.851030e+01	-1.030722e+02
5.600000e-07	-3.898976e-06	-1.635486e-09	-2.816549e+01	-1.028118e+02
5.700000e-07	-3.850460e-06	-1.608006e-09	-2.781503e+01	-1.025596e+02
5.800000e-07	-3.800936e-06	-1.563208e-09	-2.745727e+01	-1.023153e+02
5.900000e-07	-3.750429e-06	-1.588920e-09	-2.709242e+01	-1.020769e+02
6.000000e-07	-3.699013e-06	-1.618748e-09	-2.672100e+01	-1.018411e+02
6.100000e-07	-3.646787e-06	-1.578581e-09	-2.634372e+01	-1.016034e+02
6.200000e-07	-3.593841e-06	-1.544115e-09	-2.596125e+01	-1.013584e+02
6.300000e-07	-3.540334e-06	-1.568156e-09	-2.557473e+01	-1.011005e+02
6.400000e-07	-3.486260e-06	-1.581835e-09	-2.518411e+01	-1.008241e+02
6.500000e-07	-3.431537e-06	-1.550400e-09	-2.478880e+01	-1.005241e+02
6.600000e-07	-3.376295e-06	-1.528488e-09	-2.438974e+01	-1.001965e+02
6.700000e-07	-3.320597e-06	-1.532924e-09	-2.398739e+01	-9.983795e+01
6.800000e-07	-3.264366e-06	-1.535980e-09	-2.358119e+01	-9.944685e+01
6.900000e-07	-3.207435e-06	-1.530076e-09	-2.316993e+01	-9.902273e+01
7.000000e-07	-3.149629e-06	-1.514888e-09	-2.275234e+01	-9.856648e+01
7.100000e-07	-3.090986e-06	-1.496731e-09	-2.232872e+01	-9.808011e+01
7.200000e-07	-3.031738e-06	-1.494297e-09	-2.190073e+01	-9.756655e+01
7.300000e-07	-2.972067e-06	-1.504600e-09	-2.146967e+01	-9.702931e+01
7.400000e-07	-2.911968e-06	-1.496746e-09	-2.103553e+01	-9.647211e+01
7.500000e-07	-2.851393e-06	-1.466668e-09	-2.059795e+01	-9.589860e+01
7.600000e-07	-2.790315e-06	-1.451916e-09	-2.015672e+01	-9.531194e+01
7.700000e-07	-2.728764e-06	-1.462704e-09	-1.971210e+01	-9.471454e+01
7.800000e-07	-2.666762e-06	-1.459980e-09	-1.926420e+01	-9.410784e+01
7.900000e-07	-2.604306e-06	-1.428394e-09	-1.881303e+01	-9.349214e+01
8.000000e-07	-2.541382e-06	-1.406355e-09	-1.835848e+01	-9.286656e+01
8.100000e-07	-2.478034e-06	-1.414746e-09	-1.790086e+01	-9.222911e+01
8.200000e-07	-2.414425e-06	-1.416585e-09	-1.744137e+01	-9.157673e+01
8.300000e-07	-2.350532e-06	-1.390790e-09	-1.697981e+01	-9.090560e+01
8.400000e-07	-2.286233e-06	-1.365695e-09	-1.651533e+01	-9.021131e+01
8.500000e-07	-2.221578e-06	-1.360000e-09	-1.604827e+01	-8.948916e+01
8.600000e-07	-2.156533e-06	-1.358046e-09	-1.557840e+01	-8.873449e+01
8.700000e-07	-2.090928e-06	-1.344317e-09	-1.510448e+01	-8.794293e+01
8.800000e-07	-2.024712e-06	-1.322294e-09	-1.462615e+01	-8.711065e+01
8.900000e-07	-1.958061e-06	-1.302094e-09	-1.414467e+01	-8.623451e+01
9.000000e-07	-1.891139e-06	-1.291149e-09	-1.366125e+01	-8.531222e+01
9.100000e-07	-1.823969e-06	-1.284385e-09	-1.317602e+01	-8.434232e+01
9.200000e-07	-1.756501e-06	-1.266234e-09	-1.268864e+01	-8.332418e+01
9.300000e-07	-1.688747e-06	-1.238537e-09	-1.219920e+01	-8.225779e+01
9.400000e-07	-1.620742e-06	-1.222064e-09	-1.170794e+01	-8.114366e+01
9.500000e-07	-1.552523e-06	-1.215289e-09	-1.121514e+01	-7.998248e+01
9.600000e-07	-1.484108e-06	-1.196566e-09	-1.072093e+01	-7.877494e+01
9.700000e-07	-1.415420e-06	-1.166110e-09	-1.022474e+01	-7.752135e+01
9.800000e-07	-1.346479e-06	-1.142875e-09	-9.726721e+00	-7.622144e+01
9.900000e-07	-1.277318e-06	-1.128922e-09	-9.227111e+00	-7.487410e+01
1.000000e-06	-1.207954e-06	-1.110679e-09	-8.726041e+00	-7.347720e+01
1.010000e-06	-1.138377e-06	-1.084596e-09	-8.223425e+00	-7.202747e+01
1.020000e-06	-1.068514e-06	-1.057737e-09	-7.718747e+00	-7.052044e+01
1.030000e-06	-9.984283e-07	-1.033387e-09	-7.212464e+00	-6.895051e+01
1.040000e-06	-9.281762e-07	-1.008241e-09	-6.704976e+00	-6.731104e+01
1.050000e-06	-8.577417e-07	-9.821829e-10	-6.196170e+00	-6.559453e+01
1.060000e-06	-7.871438e-07	-9.542489e-10	-5.686183e+00	-6.379286e+01
1.070000e-06	-7.163942e-07	-9.222059e-10	-5.175101e+00	-6.189756e+01
1.080000e-06	-6.454570e-07	-8.896124e-10	-4.662664e+00	-5.990011e+01
1.090000e-06	-5.744385e-07	-8.586040e-10	-4.149639e+00	-5.779227e+01
1.100000e-06	-5.033513e-07	-8.252326e-10	-3.636118e+00	-5.556633e+01
1.110000e-06	-4.321190e-07	-7.872134e-10	-3.121549e+00	-5.321546e+01
1.120000e-06	-3.608750e-07	-7.486168e-10	-2.606896e+00	-5.073388e+01
1.130000e-06	-2.896240e-07	-7.107622e-10	-2.092191e+00	-4.811708e+01
1.140000e-06	-2.183130e-07	-6.693334e-10	-1.577053e+00	-4.536198e+01
1.150000e-06	-1.470039e-07	-6.235108e-10	-1.061929e+00	-4.246701e+01
1.160000e-06	-7.567834e-08	-5.755677e-10	-5.466865e-01	-3.943218e+01
1.170000e-06	-4.340629e-09	-5.256673e-10	-3.135592e-02	-3.625910e+01
1.180000e-06	6.696809e-08	-4.759647e-10	4.837653e-01	-3.295096e+01
1.190000e-06	1.382735e-07	-4.266312e-10	9.988625e-01	-2.951247e+01
1.200000e-06	2.095102e-07	-3.745471e-10	1.513463e+00	-2.594986e+01
1.210000e-06	2.806357e-07	-3.183213e-10	2.027262e+00	-2.227080e+01
1.220000e-06	3.516836e-07	-2.592735e-10	2.540498e+00	-1.848434e+01
1.230000e-06	4.226792e-07	-1.995327e-10	3.053358e+00	-1.460087e+01
1.240000e-06	4.936597e-07	-1.379354e-10	3.566107e+00	-1.063205e+01
1.250000e-06	5.645714e-07	-7.349333e-11	4.078361e+00	-6.590788e+00
1.260000e-06	6.353746e-07	-8.952543e-12	4.589830e+00	-2.491123e+00
1.270000e-06	7.060611e-07	5.338830e-11	5.100457e+00	1.651807e+00
1.280000e-06	7.765647e-07	1.150433e-10	5.609762e+00	5.821892e+00
1.290000e-06	8.469286e-07	1.782202e-10	6.118058e+00	1.000219e+01
1.300000e-06	9.171803e-07	2.411690e-10	6.625544e+00	1.417509e+01
1.310000e-06	9.872335e-07	3.044549e-10	7.131595e+00	1.832255e+01
1.320000e-06	1.057121e-06	3.693216e-10	7.636452e+00	2.242635e+01
1.330000e-06	1.126843e-06	4.340128e-10	8.140108e+00	2.646844e+01
1.340000e-06	1.196385e-06	4.958165e-10	8.642465e+00	3.043122e+01
1.350000e-06	1.265743e-06	5.556849e-10	9.143497e+00	3.429797e+01
1.360000e-06	1.334839e-06	6.148762e-10	9.642635e+00	3.805320e+01
1.370000e-06	1.403645e-06	6.694202e-10	1.013968e+01	4.168304e+01
1.380000e-06	1.472185e-06	7.187671e-10	1.063479e+01	4.517556e+01
1.390000e-06	1.540456e-06	7.671320e-10	1.112797e+01	4.852111e+01
1.400000e-06	1.608474e-06	8.163726e-10	1.161932e+01	5.171252e+01
1.410000e-06	1.676337e-06	8.637327e-10	1.210955e+01	5.474526e+01
1.420000e-06	1.744084e-06	9.064806e-10	1.259894e+01	5.761750e+01
1.430000e-06	1.811642e-06	9.461485e-10	1.308697e+01	6.033007e+01
1.440000e-06	1.878952e-06	9.853992e-10	1.357321e+01	6.288632e+01
1.450000e-06	1.945950e-06	1.024361e-09	1.405719e+01	6.529184e+01
1.460000e-06	2.012509e-06	1.060230e-09	1.453800e+01	6.755417e+01
1.470000e-06	2.078547e-06	1.091203e-09	1.501505e+01	6.968238e+01
1.480000e-06	2.144010e-06	1.120631e-09	1.548794e+01	7.168662e+01
1.490000e-06	2.208854e-06	1.150005e-09	1.595636e+01	7.357763e+01
1.500000e-06	2.273155e-06	1.178012e-09	1.642086e+01	7.536629e+01
1.510000e-06	2.337097e-06	1.202072e-09	1.688276e+01	7.706313e+01
1.520000e-06	2.400759e-06	1.223718e-09	1.734265e+01	7.867797e+01
1.530000e-06	2.464136e-06	1.247023e-09	1.780047e+01	8.021959e+01
1.540000e-06	2.527181e-06	1.269171e-09	1.825589e+01	8.169545e+01
1.550000e-06	2.589794e-06	1.288482e-09	1.870820e+01	8.311162e+01
1.560000e-06	2.651915e-06	1.307194e-09	1.915695e+01	8.447270e+01
1.570000e-06	2.713580e-06	1.326440e-09	1.960241e+01	8.578186e+01
1.580000e-06	2.774787e-06	1.345359e-09	2.004456e+01	8.704104e+01
1.590000e-06	2.835513e-06	1.362577e-09	2.048323e+01	8.825117e+01
1.600000e-06	2.895796e-06	1.378379e-09	2.091870e+01	8.941239e+01
1.610000e-06	2.955684e-06	1.393028e-09	2.135132e+01	9.052439e+01
1.620000e-06	3.015211e-06	1.407336e-09	2.178134e+01	9.158675e+01
1.630000e-06	3.074213e-06	1.421464e-09	2.220756e+01	9.259913e+01
1.640000e-06	3.132461e-06	1.434624e-09	2.262833e+01	9.356163e+01
1.650000e-06	3.189843e-06	1.446517e-09	2.304284e+01	9.447489e+01
1.660000e-06	3.246361e-06	1.457948e-09	2.345112e+01	9.534023e+01
1.670000e-06	3.302309e-06	1.470547e-09	2.385528e+01	9.615973e+01
1.680000e-06	3.357923e-06	1.483741e-09	2.425703e+01	9.693613e+01
1.690000e-06	3.413052e-06	1.496216e-09	2.465527e+01	9.767274e+01
1.700000e-06	3.467553e-06	1.505918e-09	2.504897e+01	9.837332e+01
1.710000e-06	3.521485e-06	1.514593e-09	2.543857e+01	9.904182e+01
1.720000e-06	3.574901e-06	1.523481e-09	2.582443e+01	9.968216e+01
1.730000e-06	3.627662e-06	1.533124e-09	2.620557e+01	1.002980e+02
1.740000e-06	3.679696e-06	1.543922e-09	2.658146e+01	1.008927e+02
1.750000e-06	3.731039e-06	1.553216e-09	2.695235e+01	1.014687e+02
1.760000e-06	3.781501e-06	1.561237e-09	2.731688e+01	1.020281e+02
1.770000e-06	3.830939e-06	1.567654e-09	2.767401e+01	1.025718e+02
1.780000e-06	3.879475e-06	1.574633e-09	2.802462e+01	1.031003e+02
1.790000e-06	3.927324e-06	1.582330e-09	2.837027e+01	1.036133e+02
1.800000e-06	3.974550e-06	1.588545e-09	2.871143e+01	1.041099e+02
1.810000e-06	4.021133e-06	1.594815e-09	2.904794e+01	1.045890e+02
1.820000e-06	4.067069e-06	1.602993e-09	2.937976e+01	1.050493e+02
1.830000e-06	4.112301e-06	1.612364e-09	2.970652e+01	1.054896e+02
1.840000e-06	4.156843e-06	1.619255e-09	3.002828e+01	1.059091e+02
1.850000e-06	4.200790e-06	1.624555e-09	3.034574e+01	1.063075e+02
1.860000e-06	4.244225e-06	1.630562e-09	3.065951e+01	1.066851e+02
1.870000e-06	4.286940e-06	1.636893e-09	3.096807e+01	1.070429e+02
1.880000e-06	4.328599e-06	1.642393e-09	3.126901e+01	1.073828e+02
1.890000e-06	4.369168e-06	1.647743e-09	3.156208e+01	1.077070e+02
1.900000e-06	4.408914e-06	1.654905e-09	3.184919e+01	1.080185e+02
1.910000e-06	4.447941e-06	1.661549e-09	3.213112e+01	1.083205e+02
1.920000e-06	4.486264e-06	1.666162e-09	3.240795e+01	1.086164e+02
1.930000e-06	4.523912e-06	1.671009e-09	3.267991e+01	1.089091e+02
1.940000e-06	4.560748e-06	1.677569e-09	3.294601e+01	1.092013e+02
1.950000e-06	4.596868e-06	1.683791e-09	3.320694e+01	1.094950e+02
1.960000e-06	4.632458e-06	1.688792e-09	3.346403e+01	1.097913e+02
1.970000e-06	4.667253e-06	1.693706e-09	3.371538e+01	1.100903e+02
1.980000e-06	4.700855e-06	1.698718e-09	3.395812e+01	1.103910e+02
1.990000e-06	4.733346e-06	1.703153e-09	3.419283e+01	1.106914e+02
2.000000e-06	4.765025e-06	1.708061e-09	3.442168e+01	1.109888e+02
2.010000e-06	4.795980e-06	1.714501e-09	3.464529e+01	1.112797e+02
2.020000e-06	4.826210e-06	1.720071e-09	3.486366e+01	1.115601e+02
2.030000e-06	4.855681e-06	1.723850e-09	3.507655e+01	1.118261e+02
2.040000e-06	4.884363e-06	1.728638e-09	3.528375e+01	1.120738e+02
2.050000e-06	4.912330e-06	1.732921e-09	3.548578e+01	1.123002e+02
2.060000e-06	4.939585e-06	1.735150e-09	3.568267e+01	1.125028e+02
2.070000e-06	4.965815e-06	1.736945e-09	3.587214e+01	1.126805e+02
2.080000e-06	4.990799e-06	1.738624e-09	3.605262e+01	1.128333e+02
2.090000e-06	5.014795e-06	1.741011e-09	3.622597e+01	1.129627e+02
2.100000e-06	5.038023e-06	1.744102e-09	3.639376e+01	1.130715e+02
2.110000e-06	5.060409e-06	1.747636e-09	3.655547e+01	1.131635e+02
2.120000e-06	5.081924e-06	1.750978e-09	3.671089e+01	1.132436e+02
2.130000e-06	5.102623e-06	1.752472e-09	3.686042e+01	1.133173e+02
2.140000e-06	5.122596e-06	1.751932e-09	3.700470e+01	1.133903e+02
2.150000e-06	5.141905e-06	1.752143e-09	3.714418e+01	1.134683e+02
2.160000e-06	5.160288e-06	1.754566e-09	3.727698e+01	1.135562e+02
2.170000e-06	5.177606e-06	1.757007e-09	3.740209e+01	1.136581e+02
2.180000e-06	5.194033e-06	1.759137e-09	3.752075e+01	1.137768e+02
2.190000e-06	5.209601e-06	1.762106e-09	3.763321e+01	1.139135e+02
2.200000e-06	5.224133e-06	1.765620e-09	3.773818e+01	1.140680e+02
2.210000e-06	5.237643e-06	1.769416e-09	3.783578e+01	1.142384e+02
2.220000e-06	5.250285e-06	1.771968e-09	3.792710e+01	1.144212e+02
2.230000e-06	5.262019e-06	1.773260e-09	3.801187e+01	1.146118e+02
2.240000e-06	5.272661e-06	1.774872e-09	3.808874e+01	1.148046e+02
2.250000e-06	5.281996e-06	1.777955e-09	3.815618e+01	1.149937e+02
2.260000e-06	5.290163e-06	1.781825e-09	3.821517e+01	1.151732e+02
2.270000e-06	5.297487e-06	1.784174e-09	3.826808e+01	1.153373e+02
2.280000e-06	5.304000e-06	1.786374e-09	3.831513e+01	1.154818e+02
2.290000e-06	5.309592e-06	1.789139e-09	3.835553e+01	1.156033e+02
2.300000e-06	5.314227e-06	1.791579e-09	3.838901e+01	1.157003e+02
2.310000e-06	5.318061e-06	1.793140e-09	3.841671e+01	1.157731e+02
2.320000e-06	5.321149e-06	1.793237e-09	3.843901e+01	1.158237e+02
2.330000e-06	5.323211e-06	1.794306e-09	3.845391e+01	1.158560e+02
2.340000e-06	5.324054e-06	1.796134e-09	3.846000e+01	1.158751e+02
2.350000e-06	5.323865e-06	1.797777e-09	3.845863e+01	1.158873e+02
2.360000e-06	5.322873e-06	1.798729e-09	3.845146e+01	1.158994e+02
2.370000e-06	5.321027e-06	1.798951e-09	3.843813e+01	1.159181e+02
2.380000e-06	5.318293e-06	1.802187e-09	3.841838e+01	1.159494e+02
2.390000e-06	5.314707e-06	1.806690e-09	3.839248e+01	1.159980e+02
2.400000e-06	5.310429e-06	1.809146e-09	3.836157e+01	1.160668e+02
2.410000e-06	5.305453e-06	1.812512e-09	3.832563e+01	1.161562e+02
2.420000e-06	5.299520e-06	1.830161e-09	3.828277e+01	1.162644e+02
2.430000e-06	5.292454e-06	1.852929e-09	3.823173e+01	1.163866e+02
2.440000e-06	5.284322e-06	1.816260e-09	3.817298e+01	1.165153e+02
2.450000e-06	5.275105e-06	1.769890e-09	3.810639e+01	1.166408e+02
2.460000e-06	5.264590e-06	1.777410e-09	3.803044e+01	1.167512e+02
2.470000e-06	5.253041e-06	1.892512e-09	3.794701e+01	1.168334e+02
2.480000e-06	5.241138e-06	1.903480e-09	3.786103e+01	1.168735e+02
2.490000e-06	5.228734e-06	1.726498e-09	3.777143e+01	1.168579e+02
2.500000e-06	5.214821e-06	1.749870e-09	3.767092e+01	1.167739e+02
2.510000e-06	5.199393e-06	1.834791e-09	3.755947e+01	1.166108e+02
2.520000e-06	5.183355e-06	1.791936e-09	3.744362e+01	1.163603e+02
2.530000e-06	5.166643e-06	1.887130e-09	3.732289e+01	1.160174e+02
2.540000e-06	5.148781e-06	1.884918e-09	3.719386e+01	1.155811e+02
2.550000e-06	5.130196e-06	1.692677e-09	3.705960e+01	1.150539e+02
2.560000e-06	5.111170e-06	1.829789e-09	3.692216e+01	1.144427e+02
2.570000e-06	5.091314e-06	1.989494e-09	3.677873e+01	1.137579e+02
2.580000e-06	5.070384e-06	1.708780e-09	3.662753e+01	1.130134e+02
2.590000e-06	5.048191e-06	1.577579e-09	3.646722e+01	1.122261e+02
2.600000e-06	5.024795e-06	1.773541e-09	3.629820e+01	1.114145e+02
2.610000e-06	5.000574e-06	1.735569e-09	3.612324e+01	1.105983e+02
2.620000e-06	4.975484e-06	1.539623e-09	3.594199e+01	1.097975e+02
2.630000e-06	4.949615e-06	1.498196e-09	3.575511e+01	1.090308e+02
2.640000e-06	4.923171e-06	1.582851e-09	3.556409e+01	1.083155e+02
2.650000e-06	4.895848e-06	1.620640e-09	3.536672e+01	1.076659e+02
2.660000e-06	4.867673e-06	1.534388e-09	3.516318e+01	1.070932e+02
2.670000e-06	4.838723e-06	1.592960e-09	3.495405e+01	1.066048e+02
2.680000e-06	4.808521e-06	1.627405e-09	3.473588e+01	1.062039e+02
2.690000e-06	4.777032e-06	1.453790e-09	3.450841e+01	1.058897e+02
2.700000e-06	4.744815e-06	1.562502e-09	3.427568e+01	1.056577e+02
2.710000e-06	4.711921e-06	1.699660e-09	3.403806e+01	1.054998e+02
2.720000e-06	4.678073e-06	1.484740e-09	3.379355e+01	1.054051e+02
2.730000e-06	4.643387e-06	1.441531e-09	3.354298e+01	1.053607e+02
2.740000e-06	4.608149e-06	1.615093e-09	3.328843e+01	1.053521e+02
2.750000e-06	4.572312e-06	1.624266e-09	3.302955e+01	1.053648e+02
2.760000e-06	4.535653e-06	1.500478e-09	3.276473e+01	1.053844e+02
2.770000e-06	4.498091e-06	1.480066e-09	3.249339e+01	1.053978e+02
2.780000e-06	4.459505e-06	1.597894e-09	3.221465e+01	1.053938e+02
2.790000e-06	4.419884e-06	1.592495e-09	3.192844e+01	1.053635e+02
2.800000e-06	4.379487e-06	1.505276e-09	3.163661e+01	1.053004e+02
2.810000e-06	4.338503e-06	1.532451e-09	3.134055e+01	1.052012e+02
2.820000e-06	4.296794e-06	1.576290e-09	3.103926e+01	1.050650e+02
2.830000e-06	4.254278e-06	1.557073e-09	3.073213e+01	1.048935e+02
2.840000e-06	4.211089e-06	1.514699e-09	3.042014e+01	1.046904e+02
2.850000e-06	4.167381e-06	1.547277e-09	3.010440e+01	1.044610e+02
2.860000e-06	4.123156e-06	1.565707e-09	2.978493e+01	1.042117e+02
2.870000e-06	4.078317e-06	1.508790e-09	2.946102e+01	1.039493e+02
2.880000e-06	4.032730e-06	1.536998e-09	2.913171e+01	1.036801e+02
2.890000e-06	3.986282e-06	1.563742e-09	2.879618e+01	1.034101e+02
2.900000e-06	3.939050e-06	1.516269e-09	2.845498e+01	1.031438e+02
2.910000e-06	3.891247e-06	1.512576e-09	2.810966e+01	1.028843e+02
2.920000e-06	3.842854e-06	1.553713e-09	2.776007e+01	1.026329e+02
2.930000e-06	3.793595e-06	1.544021e-09	2.740424e+01	1.023892e+02
2.940000e-06	3.743505e-06	1.486877e-09	2.704240e+01	1.021513e+02
2.950000e-06	3.692804e-06	1.509837e-09	2.667614e+01	1.019156e+02
