# Temperatura_=_20.0
# Concentracion g/m^3_=_9000.0
# C_Vs_to_Am_M_A/Vsm_=_65563218390.804596
# pendiente_HvsI_1/m_=_3716.3
# ordenada_HvsI_A/m_=_1297.0
# frecuencia_Hz_=_212856.64168954393

Tiempo_(s)	Campo_(V.s)	Magnetizacion_(V.s)	Campo_(kA/m)	Magnetizacion_(A/m)
0.000000e+00	-5.303569e-06	-4.133104e-09	-3.842654e+01	-2.716885e+02
1.000000e-08	-5.302618e-06	-4.136730e-09	-3.841965e+01	-2.716844e+02
2.000000e-08	-5.300430e-06	-4.139159e-09	-3.840380e+01	-2.716591e+02
3.000000e-08	-5.297186e-06	-4.137000e-09	-3.838029e+01	-2.716125e+02
4.000000e-08	-5.293239e-06	-4.134073e-09	-3.835170e+01	-2.715452e+02
5.000000e-08	-5.288563e-06	-4.130040e-09	-3.831782e+01	-2.714580e+02
6.000000e-08	-5.283028e-06	-4.124506e-09	-3.827771e+01	-2.713527e+02
7.000000e-08	-5.276570e-06	-4.118564e-09	-3.823093e+01	-2.712312e+02
8.000000e-08	-5.269225e-06	-4.129592e-09	-3.817771e+01	-2.710962e+02
9.000000e-08	-5.260987e-06	-4.158457e-09	-3.811801e+01	-2.709502e+02
1.000000e-07	-5.251401e-06	-4.168743e-09	-3.804857e+01	-2.707964e+02
1.100000e-07	-5.240439e-06	-4.129742e-09	-3.796914e+01	-2.706374e+02
1.200000e-07	-5.228566e-06	-4.059737e-09	-3.788311e+01	-2.704760e+02
1.300000e-07	-5.215882e-06	-4.087286e-09	-3.779122e+01	-2.703144e+02
1.400000e-07	-5.202336e-06	-4.152815e-09	-3.769307e+01	-2.701541e+02
1.500000e-07	-5.188087e-06	-4.107083e-09	-3.758983e+01	-2.699962e+02
1.600000e-07	-5.172900e-06	-4.103560e-09	-3.747979e+01	-2.698406e+02
1.700000e-07	-5.156257e-06	-4.075730e-09	-3.735921e+01	-2.696867e+02
1.800000e-07	-5.138597e-06	-4.032507e-09	-3.723125e+01	-2.695325e+02
1.900000e-07	-5.120494e-06	-4.117187e-09	-3.710009e+01	-2.693756e+02
2.000000e-07	-5.101609e-06	-4.153640e-09	-3.696326e+01	-2.692126e+02
2.100000e-07	-5.081653e-06	-4.061939e-09	-3.681867e+01	-2.690393e+02
2.200000e-07	-5.060910e-06	-4.081063e-09	-3.666838e+01	-2.688515e+02
2.300000e-07	-5.039478e-06	-4.185752e-09	-3.651309e+01	-2.686443e+02
2.400000e-07	-5.017095e-06	-4.125357e-09	-3.635092e+01	-2.684130e+02
2.500000e-07	-4.993821e-06	-4.066628e-09	-3.618229e+01	-2.681532e+02
2.600000e-07	-4.969826e-06	-4.069543e-09	-3.600844e+01	-2.678608e+02
2.700000e-07	-4.944981e-06	-4.069381e-09	-3.582842e+01	-2.675324e+02
2.800000e-07	-4.919054e-06	-4.080590e-09	-3.564057e+01	-2.671654e+02
2.900000e-07	-4.891995e-06	-4.083824e-09	-3.544452e+01	-2.667584e+02
3.000000e-07	-4.864045e-06	-4.070190e-09	-3.524201e+01	-2.663105e+02
3.100000e-07	-4.835296e-06	-4.037170e-09	-3.503371e+01	-2.658221e+02
3.200000e-07	-4.805701e-06	-4.019077e-09	-3.481928e+01	-2.652945e+02
3.300000e-07	-4.775329e-06	-4.067052e-09	-3.459922e+01	-2.647297e+02
3.400000e-07	-4.744180e-06	-4.072684e-09	-3.437354e+01	-2.641306e+02
3.500000e-07	-4.712225e-06	-3.977305e-09	-3.414201e+01	-2.635003e+02
3.600000e-07	-4.679436e-06	-3.978431e-09	-3.390444e+01	-2.628421e+02
3.700000e-07	-4.645803e-06	-4.040723e-09	-3.366076e+01	-2.621596e+02
3.800000e-07	-4.611087e-06	-4.007305e-09	-3.340923e+01	-2.614559e+02
3.900000e-07	-4.575312e-06	-3.958570e-09	-3.315002e+01	-2.607337e+02
4.000000e-07	-4.538919e-06	-3.974756e-09	-3.288634e+01	-2.599952e+02
4.100000e-07	-4.501871e-06	-3.978400e-09	-3.261791e+01	-2.592420e+02
4.200000e-07	-4.463915e-06	-3.948334e-09	-3.234291e+01	-2.584747e+02
4.300000e-07	-4.425081e-06	-3.943191e-09	-3.206154e+01	-2.576932e+02
4.400000e-07	-4.385657e-06	-3.935837e-09	-3.177589e+01	-2.568966e+02
4.500000e-07	-4.345764e-06	-3.901093e-09	-3.148685e+01	-2.560835e+02
4.600000e-07	-4.305145e-06	-3.888326e-09	-3.119255e+01	-2.552519e+02
4.700000e-07	-4.263384e-06	-3.901302e-09	-3.088998e+01	-2.543993e+02
4.800000e-07	-4.220483e-06	-3.881180e-09	-3.057914e+01	-2.535232e+02
4.900000e-07	-4.176871e-06	-3.841773e-09	-3.026315e+01	-2.526211e+02
5.000000e-07	-4.132715e-06	-3.840841e-09	-2.994322e+01	-2.516907e+02
5.100000e-07	-4.087960e-06	-3.849561e-09	-2.961896e+01	-2.507300e+02
5.200000e-07	-4.042491e-06	-3.818523e-09	-2.928951e+01	-2.497373e+02
5.300000e-07	-3.996240e-06	-3.783881e-09	-2.895440e+01	-2.487119e+02
5.400000e-07	-3.949332e-06	-3.782705e-09	-2.861454e+01	-2.476532e+02
5.500000e-07	-3.901883e-06	-3.776019e-09	-2.827075e+01	-2.465614e+02
5.600000e-07	-3.853791e-06	-3.746490e-09	-2.792231e+01	-2.454371e+02
5.700000e-07	-3.804789e-06	-3.725120e-09	-2.756726e+01	-2.442812e+02
5.800000e-07	-3.754760e-06	-3.714031e-09	-2.720478e+01	-2.430951e+02
5.900000e-07	-3.703803e-06	-3.699246e-09	-2.683558e+01	-2.418799e+02
6.000000e-07	-3.652061e-06	-3.682239e-09	-2.646069e+01	-2.406368e+02
6.100000e-07	-3.599585e-06	-3.662066e-09	-2.608048e+01	-2.393669e+02
6.200000e-07	-3.546427e-06	-3.638591e-09	-2.569532e+01	-2.380706e+02
6.300000e-07	-3.492718e-06	-3.619168e-09	-2.530618e+01	-2.367480e+02
6.400000e-07	-3.438380e-06	-3.603485e-09	-2.491248e+01	-2.353987e+02
6.500000e-07	-3.383370e-06	-3.579904e-09	-2.451391e+01	-2.340216e+02
6.600000e-07	-3.327847e-06	-3.548952e-09	-2.411162e+01	-2.326151e+02
6.700000e-07	-3.271898e-06	-3.525417e-09	-2.370625e+01	-2.311772e+02
6.800000e-07	-3.215388e-06	-3.511399e-09	-2.329681e+01	-2.297053e+02
6.900000e-07	-3.158015e-06	-3.492037e-09	-2.288112e+01	-2.281968e+02
7.000000e-07	-3.099752e-06	-3.459831e-09	-2.245898e+01	-2.266491e+02
7.100000e-07	-3.040803e-06	-3.431227e-09	-2.203187e+01	-2.250594e+02
7.200000e-07	-2.981372e-06	-3.417217e-09	-2.160127e+01	-2.234253e+02
7.300000e-07	-2.921584e-06	-3.399322e-09	-2.116808e+01	-2.217447e+02
7.400000e-07	-2.861335e-06	-3.362627e-09	-2.073155e+01	-2.200162e+02
7.500000e-07	-2.800530e-06	-3.327146e-09	-2.029099e+01	-2.182385e+02
7.600000e-07	-2.739236e-06	-3.306136e-09	-1.984690e+01	-2.164111e+02
7.700000e-07	-2.677522e-06	-3.282418e-09	-1.939975e+01	-2.145340e+02
7.800000e-07	-2.615332e-06	-3.247972e-09	-1.894916e+01	-2.126073e+02
7.900000e-07	-2.552656e-06	-3.213203e-09	-1.849504e+01	-2.106316e+02
8.000000e-07	-2.489600e-06	-3.182494e-09	-1.803818e+01	-2.086076e+02
8.100000e-07	-2.426237e-06	-3.153820e-09	-1.757908e+01	-2.065357e+02
8.200000e-07	-2.362584e-06	-3.125879e-09	-1.711789e+01	-2.044162e+02
8.300000e-07	-2.298604e-06	-3.088736e-09	-1.665434e+01	-2.022489e+02
8.400000e-07	-2.234292e-06	-3.045793e-09	-1.618837e+01	-2.000328e+02
8.500000e-07	-2.169692e-06	-3.012794e-09	-1.572032e+01	-1.977665e+02
8.600000e-07	-2.104645e-06	-2.985929e-09	-1.524902e+01	-1.954476e+02
8.700000e-07	-2.039008e-06	-2.949735e-09	-1.477345e+01	-1.930727e+02
8.800000e-07	-1.972776e-06	-2.903619e-09	-1.429357e+01	-1.906380e+02
8.900000e-07	-1.906009e-06	-2.863064e-09	-1.380982e+01	-1.881385e+02
9.000000e-07	-1.838912e-06	-2.830122e-09	-1.332368e+01	-1.855690e+02
9.100000e-07	-1.771628e-06	-2.792929e-09	-1.283618e+01	-1.829235e+02
9.200000e-07	-1.704161e-06	-2.746176e-09	-1.234735e+01	-1.801958e+02
9.300000e-07	-1.636467e-06	-2.698326e-09	-1.185688e+01	-1.773797e+02
9.400000e-07	-1.568599e-06	-2.655104e-09	-1.136514e+01	-1.744687e+02
9.500000e-07	-1.500572e-06	-2.608527e-09	-1.087226e+01	-1.714566e+02
9.600000e-07	-1.432274e-06	-2.557313e-09	-1.037742e+01	-1.683376e+02
9.700000e-07	-1.363683e-06	-2.504899e-09	-9.880445e+00	-1.651058e+02
9.800000e-07	-1.294854e-06	-2.452871e-09	-9.381754e+00	-1.617558e+02
9.900000e-07	-1.225767e-06	-2.401857e-09	-8.881187e+00	-1.582821e+02
1.000000e-06	-1.156428e-06	-2.348417e-09	-8.378796e+00	-1.546793e+02
1.010000e-06	-1.086867e-06	-2.288294e-09	-7.874798e+00	-1.509420e+02
1.020000e-06	-1.017089e-06	-2.224174e-09	-7.369230e+00	-1.470641e+02
1.030000e-06	-9.471617e-07	-2.161604e-09	-6.862577e+00	-1.430391e+02
1.040000e-06	-8.770580e-07	-2.100367e-09	-6.354646e+00	-1.388596e+02
1.050000e-06	-8.067276e-07	-2.035481e-09	-5.845074e+00	-1.345173e+02
1.060000e-06	-7.362505e-07	-1.964855e-09	-5.334438e+00	-1.300025e+02
1.070000e-06	-6.656605e-07	-1.893356e-09	-4.822984e+00	-1.253047e+02
1.080000e-06	-5.949418e-07	-1.822277e-09	-4.310598e+00	-1.204122e+02
1.090000e-06	-5.240269e-07	-1.747029e-09	-3.796791e+00	-1.153123e+02
1.100000e-06	-4.529889e-07	-1.664179e-09	-3.282091e+00	-1.099918e+02
1.110000e-06	-3.819218e-07	-1.578299e-09	-2.767181e+00	-1.044372e+02
1.120000e-06	-3.108125e-07	-1.492224e-09	-2.251965e+00	-9.863509e+01
1.130000e-06	-2.397167e-07	-1.401153e-09	-1.736846e+00	-9.257320e+01
1.140000e-06	-1.685980e-07	-1.303110e-09	-1.221562e+00	-8.624053e+01
1.150000e-06	-9.744295e-08	-1.198724e-09	-7.060143e-01	-7.962831e+01
1.160000e-06	-2.628262e-08	-1.090648e-09	-1.904284e-01	-7.273062e+01
1.170000e-06	4.491254e-08	-9.813533e-10	3.254098e-01	-6.554508e+01
1.180000e-06	1.161339e-07	-8.700598e-10	8.414380e-01	-5.807339e+01
1.190000e-06	1.872513e-07	-7.530832e-10	1.356713e+00	-5.032185e+01
1.200000e-06	2.582792e-07	-6.319657e-10	1.871340e+00	-4.230169e+01
1.210000e-06	3.292712e-07	-5.106762e-10	2.385705e+00	-3.402932e+01
1.220000e-06	4.001506e-07	-3.850929e-10	2.899256e+00	-2.552626e+01
1.230000e-06	4.709199e-07	-2.516011e-10	3.412009e+00	-1.681908e+01
1.240000e-06	5.415930e-07	-1.147030e-10	3.924065e+00	-7.938977e+00
1.250000e-06	6.121797e-07	2.337056e-11	4.435494e+00	1.078737e+00
1.260000e-06	6.826674e-07	1.624581e-10	4.946207e+00	1.019530e+01
1.270000e-06	7.529899e-07	3.020230e-10	5.455722e+00	1.936935e+01
1.280000e-06	8.230918e-07	4.418743e-10	5.963639e+00	2.855783e+01
1.290000e-06	8.930327e-07	5.786119e-10	6.470390e+00	3.771700e+01
1.300000e-06	9.628524e-07	7.144777e-10	6.976262e+00	4.680341e+01
1.310000e-06	1.032520e-06	8.506151e-10	7.481034e+00	5.577499e+01
1.320000e-06	1.102027e-06	9.875913e-10	7.984636e+00	6.459189e+01
1.330000e-06	1.171344e-06	1.121218e-09	8.486870e+00	7.321742e+01
1.340000e-06	1.240428e-06	1.250161e-09	8.987414e+00	8.161874e+01
1.350000e-06	1.309294e-06	1.375614e-09	9.486375e+00	8.976746e+01
1.360000e-06	1.377928e-06	1.495695e-09	9.983653e+00	9.764004e+01
1.370000e-06	1.446285e-06	1.609371e-09	1.047893e+01	1.052181e+02
1.380000e-06	1.514426e-06	1.715872e-09	1.097264e+01	1.124883e+02
1.390000e-06	1.582367e-06	1.817844e-09	1.146490e+01	1.194426e+02
1.400000e-06	1.650108e-06	1.917318e-09	1.195571e+01	1.260776e+02
1.410000e-06	1.717685e-06	2.013154e-09	1.244534e+01	1.323944e+02
1.420000e-06	1.785127e-06	2.102768e-09	1.293398e+01	1.383981e+02
1.430000e-06	1.852349e-06	2.188372e-09	1.342103e+01	1.440972e+02
1.440000e-06	1.919237e-06	2.271796e-09	1.390566e+01	1.495028e+02
1.450000e-06	1.985708e-06	2.352486e-09	1.438727e+01	1.546282e+02
1.460000e-06	2.051639e-06	2.426803e-09	1.486497e+01	1.594884e+02
1.470000e-06	2.116968e-06	2.495848e-09	1.533831e+01	1.640990e+02
1.480000e-06	2.181792e-06	2.564711e-09	1.580798e+01	1.684761e+02
1.490000e-06	2.246156e-06	2.629769e-09	1.627432e+01	1.726359e+02
1.500000e-06	2.310078e-06	2.688367e-09	1.673747e+01	1.765938e+02
1.510000e-06	2.373704e-06	2.742431e-09	1.719847e+01	1.803647e+02
1.520000e-06	2.437046e-06	2.794862e-09	1.765741e+01	1.839623e+02
1.530000e-06	2.499983e-06	2.846776e-09	1.811341e+01	1.873992e+02
1.540000e-06	2.562457e-06	2.894791e-09	1.856606e+01	1.906871e+02
1.550000e-06	2.624507e-06	2.941338e-09	1.901564e+01	1.938361e+02
1.560000e-06	2.686195e-06	2.987266e-09	1.946259e+01	1.968556e+02
1.570000e-06	2.747442e-06	3.030331e-09	1.990635e+01	1.997537e+02
1.580000e-06	2.808118e-06	3.070775e-09	2.034597e+01	2.025377e+02
1.590000e-06	2.868296e-06	3.109104e-09	2.078199e+01	2.052140e+02
1.600000e-06	2.928113e-06	3.144668e-09	2.121538e+01	2.077884e+02
1.610000e-06	2.987594e-06	3.178074e-09	2.164635e+01	2.102663e+02
1.620000e-06	3.046567e-06	3.212195e-09	2.207363e+01	2.126522e+02
1.630000e-06	3.104739e-06	3.247222e-09	2.249511e+01	2.149506e+02
1.640000e-06	3.162066e-06	3.280411e-09	2.291047e+01	2.171657e+02
1.650000e-06	3.218642e-06	3.310873e-09	2.332039e+01	2.193010e+02
1.660000e-06	3.274628e-06	3.340480e-09	2.372603e+01	2.213603e+02
1.670000e-06	3.330197e-06	3.370766e-09	2.412865e+01	2.233468e+02
1.680000e-06	3.385284e-06	3.400454e-09	2.452777e+01	2.252637e+02
1.690000e-06	3.439779e-06	3.426753e-09	2.492262e+01	2.271137e+02
1.700000e-06	3.493763e-06	3.450501e-09	2.531375e+01	2.288998e+02
1.710000e-06	3.547234e-06	3.474718e-09	2.570117e+01	2.306243e+02
1.720000e-06	3.600052e-06	3.500215e-09	2.608386e+01	2.322898e+02
1.730000e-06	3.652201e-06	3.525697e-09	2.646170e+01	2.338983e+02
1.740000e-06	3.703618e-06	3.548365e-09	2.683424e+01	2.354521e+02
1.750000e-06	3.754143e-06	3.569903e-09	2.720031e+01	2.369531e+02
1.760000e-06	3.803688e-06	3.592674e-09	2.755929e+01	2.384032e+02
1.770000e-06	3.852258e-06	3.614390e-09	2.791119e+01	2.398045e+02
1.780000e-06	3.900128e-06	3.634077e-09	2.825803e+01	2.411587e+02
1.790000e-06	3.947473e-06	3.652110e-09	2.860107e+01	2.424678e+02
1.800000e-06	3.994178e-06	3.670996e-09	2.893946e+01	2.437335e+02
1.810000e-06	4.040248e-06	3.691747e-09	2.927326e+01	2.449578e+02
1.820000e-06	4.085639e-06	3.712117e-09	2.960214e+01	2.461426e+02
1.830000e-06	4.130313e-06	3.730504e-09	2.992582e+01	2.472896e+02
1.840000e-06	4.174363e-06	3.747444e-09	3.024498e+01	2.484006e+02
1.850000e-06	4.217887e-06	3.765438e-09	3.056033e+01	2.494773e+02
1.860000e-06	4.260725e-06	3.782835e-09	3.087071e+01	2.505212e+02
1.870000e-06	4.302552e-06	3.796952e-09	3.117376e+01	2.515337e+02
1.880000e-06	4.343326e-06	3.810072e-09	3.146918e+01	2.525161e+02
1.890000e-06	4.383285e-06	3.824867e-09	3.175870e+01	2.534695e+02
1.900000e-06	4.422546e-06	3.840876e-09	3.204317e+01	2.543947e+02
1.910000e-06	4.461042e-06	3.854858e-09	3.232209e+01	2.552923e+02
1.920000e-06	4.498777e-06	3.866461e-09	3.259549e+01	2.561628e+02
1.930000e-06	4.535753e-06	3.878549e-09	3.286340e+01	2.570065e+02
1.940000e-06	4.572031e-06	3.891442e-09	3.312625e+01	2.578235e+02
1.950000e-06	4.607674e-06	3.904544e-09	3.338450e+01	2.586139e+02
1.960000e-06	4.642558e-06	3.916437e-09	3.363725e+01	2.593777e+02
1.970000e-06	4.676360e-06	3.927727e-09	3.388216e+01	2.601147e+02
1.980000e-06	4.708986e-06	3.938852e-09	3.411854e+01	2.608249e+02
1.990000e-06	4.740783e-06	3.949939e-09	3.434892e+01	2.615082e+02
2.000000e-06	4.771935e-06	3.961977e-09	3.457463e+01	2.621645e+02
2.010000e-06	4.802316e-06	3.973500e-09	3.479476e+01	2.627938e+02
2.020000e-06	4.831860e-06	3.983175e-09	3.500882e+01	2.633963e+02
2.030000e-06	4.860612e-06	3.992421e-09	3.521714e+01	2.639722e+02
2.040000e-06	4.888645e-06	4.002372e-09	3.542025e+01	2.645216e+02
2.050000e-06	4.916029e-06	4.011522e-09	3.561866e+01	2.650450e+02
2.060000e-06	4.942571e-06	4.019676e-09	3.581097e+01	2.655427e+02
2.070000e-06	4.967930e-06	4.027902e-09	3.599470e+01	2.660151e+02
2.080000e-06	4.992186e-06	4.036141e-09	3.617044e+01	2.664628e+02
2.090000e-06	5.015632e-06	4.043838e-09	3.634032e+01	2.668863e+02
2.100000e-06	5.038260e-06	4.052328e-09	3.650427e+01	2.672862e+02
2.110000e-06	5.060047e-06	4.060245e-09	3.666212e+01	2.676632e+02
2.120000e-06	5.080986e-06	4.065615e-09	3.681384e+01	2.680180e+02
2.130000e-06	5.101089e-06	4.069880e-09	3.695949e+01	2.683514e+02
2.140000e-06	5.120517e-06	4.073920e-09	3.710026e+01	2.686641e+02
2.150000e-06	5.139200e-06	4.079618e-09	3.723562e+01	2.689573e+02
2.160000e-06	5.156868e-06	4.085296e-09	3.736364e+01	2.692318e+02
2.170000e-06	5.173582e-06	4.090350e-09	3.748474e+01	2.694887e+02
2.180000e-06	5.189373e-06	4.094993e-09	3.759914e+01	2.697293e+02
2.190000e-06	5.204086e-06	4.100344e-09	3.770575e+01	2.699547e+02
2.200000e-06	5.217872e-06	4.108396e-09	3.780563e+01	2.701660e+02
2.210000e-06	5.230783e-06	4.114495e-09	3.789918e+01	2.703643e+02
2.220000e-06	5.242774e-06	4.116843e-09	3.798606e+01	2.705507e+02
2.230000e-06	5.253799e-06	4.119570e-09	3.806593e+01	2.707261e+02
2.240000e-06	5.263591e-06	4.124840e-09	3.813689e+01	2.708910e+02
2.250000e-06	5.272106e-06	4.128984e-09	3.819858e+01	2.710459e+02
2.260000e-06	5.279713e-06	4.130891e-09	3.825370e+01	2.711909e+02
2.270000e-06	5.286511e-06	4.132706e-09	3.830295e+01	2.713257e+02
2.280000e-06	5.292371e-06	4.136806e-09	3.834541e+01	2.714497e+02
2.290000e-06	5.297309e-06	4.141596e-09	3.838119e+01	2.715621e+02
2.300000e-06	5.301435e-06	4.144659e-09	3.841108e+01	2.716617e+02
2.310000e-06	5.304782e-06	4.145688e-09	3.843533e+01	2.717473e+02
2.320000e-06	5.307123e-06	4.146842e-09	3.845229e+01	2.718172e+02
2.330000e-06	5.308183e-06	4.150187e-09	3.845997e+01	2.718701e+02
2.340000e-06	5.308187e-06	4.153063e-09	3.846000e+01	2.719044e+02
2.350000e-06	5.307420e-06	4.152719e-09	3.845445e+01	2.719189e+02
2.360000e-06	5.305831e-06	4.149017e-09	3.844293e+01	2.719127e+02
2.370000e-06	5.303416e-06	4.147926e-09	3.842543e+01	2.718853e+02
2.380000e-06	5.300202e-06	4.149871e-09	3.840215e+01	2.718366e+02
2.390000e-06	5.296250e-06	4.150765e-09	3.837352e+01	2.717672e+02
2.400000e-06	5.291636e-06	4.149251e-09	3.834008e+01	2.716782e+02
2.410000e-06	5.286173e-06	4.151670e-09	3.830050e+01	2.715712e+02
2.420000e-06	5.279475e-06	4.153032e-09	3.825197e+01	2.714483e+02
2.430000e-06	5.271614e-06	4.115514e-09	3.819502e+01	2.713120e+02
2.440000e-06	5.262753e-06	4.087544e-09	3.813081e+01	2.711651e+02
2.450000e-06	5.252647e-06	4.098146e-09	3.805759e+01	2.710106e+02
2.460000e-06	5.241344e-06	4.181237e-09	3.797569e+01	2.708513e+02
2.470000e-06	5.229559e-06	4.192147e-09	3.789031e+01	2.706898e+02
2.480000e-06	5.217432e-06	4.108632e-09	3.780244e+01	2.705283e+02
2.490000e-06	5.203978e-06	4.120707e-09	3.770496e+01	2.703682e+02
2.500000e-06	5.188900e-06	4.123716e-09	3.759572e+01	2.702106e+02
2.510000e-06	5.173085e-06	4.107570e-09	3.748113e+01	2.700553e+02
2.520000e-06	5.156729e-06	4.184283e-09	3.736262e+01	2.699014e+02
2.530000e-06	5.139257e-06	4.139399e-09	3.723603e+01	2.697471e+02
2.540000e-06	5.120875e-06	4.003702e-09	3.710285e+01	2.695897e+02
2.550000e-06	5.102012e-06	4.091467e-09	3.696618e+01	2.694259e+02
2.560000e-06	5.082405e-06	4.129065e-09	3.682412e+01	2.692514e+02
2.570000e-06	5.061867e-06	4.001162e-09	3.667531e+01	2.690618e+02
2.580000e-06	5.040278e-06	4.034880e-09	3.651889e+01	2.688524e+02
2.590000e-06	5.017415e-06	4.125428e-09	3.635324e+01	2.686185e+02
2.600000e-06	4.993513e-06	4.067321e-09	3.618006e+01	2.683556e+02
2.610000e-06	4.968694e-06	4.081310e-09	3.600024e+01	2.680598e+02
2.620000e-06	4.943050e-06	4.118063e-09	3.581443e+01	2.677276e+02
2.630000e-06	4.916796e-06	4.049832e-09	3.562421e+01	2.673568e+02
2.640000e-06	4.889708e-06	4.059593e-09	3.542795e+01	2.669456e+02
2.650000e-06	4.861756e-06	4.075066e-09	3.522542e+01	2.664937e+02
2.660000e-06	4.833153e-06	4.090804e-09	3.501818e+01	2.660013e+02
2.670000e-06	4.803439e-06	4.067588e-09	3.480289e+01	2.654699e+02
2.680000e-06	4.772307e-06	3.971382e-09	3.457733e+01	2.649016e+02
2.690000e-06	4.740325e-06	4.049886e-09	3.434560e+01	2.642992e+02
2.700000e-06	4.707697e-06	4.081443e-09	3.410921e+01	2.636660e+02
2.710000e-06	4.674180e-06	3.959368e-09	3.386636e+01	2.630052e+02
2.720000e-06	4.639870e-06	3.985254e-09	3.361777e+01	2.623205e+02
2.730000e-06	4.604903e-06	4.023471e-09	3.336442e+01	2.616148e+02
2.740000e-06	4.569201e-06	3.984248e-09	3.310574e+01	2.608909e+02
2.750000e-06	4.532787e-06	3.967164e-09	3.284191e+01	2.601509e+02
2.760000e-06	4.495636e-06	3.961931e-09	3.257273e+01	2.593963e+02
2.770000e-06	4.457529e-06	3.967349e-09	3.229663e+01	2.586276e+02
2.780000e-06	4.418299e-06	3.924162e-09	3.201240e+01	2.578446e+02
2.790000e-06	4.378226e-06	3.923605e-09	3.172205e+01	2.570465e+02
2.800000e-06	4.337587e-06	3.952642e-09	3.142760e+01	2.562316e+02
2.810000e-06	4.296252e-06	3.892930e-09	3.112812e+01	2.553980e+02
2.820000e-06	4.254109e-06	3.877168e-09	3.082277e+01	2.545432e+02
2.830000e-06	4.211202e-06	3.892647e-09	3.051189e+01	2.536647e+02
2.840000e-06	4.167687e-06	3.881770e-09	3.019661e+01	2.527599e+02
2.850000e-06	4.123653e-06	3.853258e-09	2.987756e+01	2.518265e+02
2.860000e-06	4.079179e-06	3.825385e-09	2.955533e+01	2.508626e+02
2.870000e-06	4.034127e-06	3.845477e-09	2.922891e+01	2.498668e+02
2.880000e-06	3.988167e-06	3.817948e-09	2.889591e+01	2.488381e+02
2.890000e-06	3.941296e-06	3.779127e-09	2.855631e+01	2.477760e+02
2.900000e-06	3.893813e-06	3.779144e-09	2.821228e+01	2.466810e+02
2.910000e-06	3.845839e-06	3.764618e-09	2.786469e+01	2.455535e+02
2.920000e-06	3.796998e-06	3.745538e-09	2.751081e+01	2.443945e+02
2.930000e-06	3.747266e-06	3.714544e-09	2.715049e+01	2.432054e+02
2.940000e-06	3.696975e-06	3.706451e-09	2.678611e+01	2.419874e+02
2.950000e-06	3.646052e-06	3.697429e-09	2.641715e+01	2.407416e+02
