# Temperatura_=_20.0
# Concentracion g/m^3_=_9000.0
# C_Vs_to_Am_M_A/Vsm_=_65563218390.804596
# pendiente_HvsI_1/m_=_3716.3
# ordenada_HvsI_A/m_=_1297.0
# frecuencia_Hz_=_212855.2757822202

Tiempo_(s)	Campo_(V.s)	Magnetizacion_(V.s)	Campo_(kA/m)	Magnetizacion_(A/m)
0.000000e+00	-5.291224e-06	-4.100341e-09	-3.842828e+01	-2.697794e+02
1.000000e-08	-5.290927e-06	-4.102177e-09	-3.842612e+01	-2.697752e+02
2.000000e-08	-5.289498e-06	-4.106941e-09	-3.841574e+01	-2.697461e+02
3.000000e-08	-5.286897e-06	-4.108132e-09	-3.839686e+01	-2.696923e+02
4.000000e-08	-5.283469e-06	-4.106152e-09	-3.837196e+01	-2.696151e+02
5.000000e-08	-5.279325e-06	-4.104244e-09	-3.834186e+01	-2.695165e+02
6.000000e-08	-5.274361e-06	-4.101346e-09	-3.830581e+01	-2.693993e+02
7.000000e-08	-5.268495e-06	-4.091801e-09	-3.826321e+01	-2.692671e+02
8.000000e-08	-5.261700e-06	-4.076650e-09	-3.821386e+01	-2.691240e+02
9.000000e-08	-5.254161e-06	-4.119285e-09	-3.815910e+01	-2.689745e+02
1.000000e-07	-5.245620e-06	-4.167571e-09	-3.809707e+01	-2.688232e+02
1.100000e-07	-5.235657e-06	-4.171763e-09	-3.802472e+01	-2.686745e+02
1.200000e-07	-5.224500e-06	-4.039778e-09	-3.794369e+01	-2.685325e+02
1.300000e-07	-5.212447e-06	-3.959600e-09	-3.785615e+01	-2.684004e+02
1.400000e-07	-5.199465e-06	-4.127483e-09	-3.776187e+01	-2.682806e+02
1.500000e-07	-5.185660e-06	-4.194467e-09	-3.766161e+01	-2.681745e+02
1.600000e-07	-5.171201e-06	-4.028319e-09	-3.755660e+01	-2.680819e+02
1.700000e-07	-5.155586e-06	-4.048953e-09	-3.744319e+01	-2.680016e+02
1.800000e-07	-5.138572e-06	-4.027120e-09	-3.731962e+01	-2.679307e+02
1.900000e-07	-5.120826e-06	-3.973519e-09	-3.719074e+01	-2.678654e+02
2.000000e-07	-5.102516e-06	-4.213502e-09	-3.705776e+01	-2.678005e+02
2.100000e-07	-5.083238e-06	-4.117684e-09	-3.691775e+01	-2.677300e+02
2.200000e-07	-5.063053e-06	-3.902183e-09	-3.677115e+01	-2.676472e+02
2.300000e-07	-5.042163e-06	-4.114622e-09	-3.661944e+01	-2.675452e+02
2.400000e-07	-5.020436e-06	-4.278683e-09	-3.646164e+01	-2.674169e+02
2.500000e-07	-4.997809e-06	-4.057375e-09	-3.629731e+01	-2.672559e+02
2.600000e-07	-4.974403e-06	-3.982321e-09	-3.612732e+01	-2.670561e+02
2.700000e-07	-4.950246e-06	-4.067179e-09	-3.595188e+01	-2.668126e+02
2.800000e-07	-4.925179e-06	-4.105421e-09	-3.576982e+01	-2.665216e+02
2.900000e-07	-4.898944e-06	-4.142487e-09	-3.557929e+01	-2.661808e+02
3.000000e-07	-4.871637e-06	-4.005312e-09	-3.538097e+01	-2.657890e+02
3.100000e-07	-4.843559e-06	-3.999095e-09	-3.517704e+01	-2.653468e+02
3.200000e-07	-4.814690e-06	-4.084058e-09	-3.496738e+01	-2.648560e+02
3.300000e-07	-4.784904e-06	-4.026427e-09	-3.475105e+01	-2.643194e+02
3.400000e-07	-4.754249e-06	-4.058680e-09	-3.452842e+01	-2.637410e+02
3.500000e-07	-4.722857e-06	-4.043476e-09	-3.430043e+01	-2.631254e+02
3.600000e-07	-4.690711e-06	-3.905643e-09	-3.406696e+01	-2.624775e+02
3.700000e-07	-4.657864e-06	-4.004820e-09	-3.382841e+01	-2.618024e+02
3.800000e-07	-4.624062e-06	-4.116559e-09	-3.358292e+01	-2.611048e+02
3.900000e-07	-4.588993e-06	-3.935814e-09	-3.332822e+01	-2.603889e+02
4.000000e-07	-4.553006e-06	-3.862501e-09	-3.306686e+01	-2.596582e+02
4.100000e-07	-4.516402e-06	-4.024939e-09	-3.280102e+01	-2.589151e+02
4.200000e-07	-4.479056e-06	-4.029909e-09	-3.252979e+01	-2.581612e+02
4.300000e-07	-4.440770e-06	-3.876835e-09	-3.225173e+01	-2.573968e+02
4.400000e-07	-4.401708e-06	-3.889762e-09	-3.196804e+01	-2.566212e+02
4.500000e-07	-4.362190e-06	-3.945361e-09	-3.168104e+01	-2.558328e+02
4.600000e-07	-4.322149e-06	-3.909640e-09	-3.139023e+01	-2.550294e+02
4.700000e-07	-4.281245e-06	-3.881065e-09	-3.109316e+01	-2.542080e+02
4.800000e-07	-4.239290e-06	-3.854387e-09	-3.078846e+01	-2.533655e+02
4.900000e-07	-4.196337e-06	-3.844386e-09	-3.047650e+01	-2.524986e+02
5.000000e-07	-4.152659e-06	-3.854167e-09	-3.015929e+01	-2.516043e+02
5.100000e-07	-4.108412e-06	-3.850394e-09	-2.983793e+01	-2.506800e+02
5.200000e-07	-4.063539e-06	-3.818060e-09	-2.951204e+01	-2.497234e+02
5.300000e-07	-4.017935e-06	-3.775865e-09	-2.918083e+01	-2.487334e+02
5.400000e-07	-3.971527e-06	-3.777272e-09	-2.884379e+01	-2.477090e+02
5.500000e-07	-3.924469e-06	-3.796301e-09	-2.850202e+01	-2.466503e+02
5.600000e-07	-3.876933e-06	-3.770859e-09	-2.815678e+01	-2.455579e+02
5.700000e-07	-3.828751e-06	-3.705014e-09	-2.780686e+01	-2.444329e+02
5.800000e-07	-3.779670e-06	-3.690287e-09	-2.745040e+01	-2.432769e+02
5.900000e-07	-3.729552e-06	-3.736733e-09	-2.708641e+01	-2.420914e+02
6.000000e-07	-3.678469e-06	-3.706145e-09	-2.671541e+01	-2.408780e+02
6.100000e-07	-3.626571e-06	-3.634859e-09	-2.633850e+01	-2.396382e+02
6.200000e-07	-3.573929e-06	-3.630710e-09	-2.595618e+01	-2.383727e+02
6.300000e-07	-3.520664e-06	-3.643358e-09	-2.556933e+01	-2.370821e+02
6.400000e-07	-3.466780e-06	-3.613905e-09	-2.517799e+01	-2.357660e+02
6.500000e-07	-3.412248e-06	-3.571220e-09	-2.478194e+01	-2.344235e+02
6.600000e-07	-3.357132e-06	-3.555317e-09	-2.438165e+01	-2.330531e+02
6.700000e-07	-3.301581e-06	-3.539967e-09	-2.397821e+01	-2.316526e+02
6.800000e-07	-3.245687e-06	-3.524214e-09	-2.357227e+01	-2.302194e+02
6.900000e-07	-3.189238e-06	-3.511610e-09	-2.316230e+01	-2.287508e+02
7.000000e-07	-3.131805e-06	-3.471661e-09	-2.274519e+01	-2.272437e+02
7.100000e-07	-3.073280e-06	-3.436664e-09	-2.232014e+01	-2.256952e+02
7.200000e-07	-3.014061e-06	-3.428138e-09	-2.189005e+01	-2.241026e+02
7.300000e-07	-2.954552e-06	-3.414389e-09	-2.145786e+01	-2.224639e+02
7.400000e-07	-2.894765e-06	-3.374303e-09	-2.102365e+01	-2.207773e+02
7.500000e-07	-2.834504e-06	-3.331371e-09	-2.058600e+01	-2.190418e+02
7.600000e-07	-2.773656e-06	-3.316907e-09	-2.014408e+01	-2.172568e+02
7.700000e-07	-2.712351e-06	-3.300944e-09	-1.969884e+01	-2.154226e+02
7.800000e-07	-2.650686e-06	-3.261661e-09	-1.925099e+01	-2.135395e+02
7.900000e-07	-2.588577e-06	-3.222430e-09	-1.879991e+01	-2.116087e+02
8.000000e-07	-2.525975e-06	-3.197588e-09	-1.834525e+01	-2.096309e+02
8.100000e-07	-2.462910e-06	-3.175639e-09	-1.788724e+01	-2.076072e+02
8.200000e-07	-2.399511e-06	-3.136444e-09	-1.742679e+01	-2.055381e+02
8.300000e-07	-2.335834e-06	-3.096082e-09	-1.696433e+01	-2.034237e+02
8.400000e-07	-2.271860e-06	-3.065745e-09	-1.649971e+01	-2.012633e+02
8.500000e-07	-2.207595e-06	-3.033892e-09	-1.603298e+01	-1.990554e+02
8.600000e-07	-2.143036e-06	-3.002095e-09	-1.556411e+01	-1.967975e+02
8.700000e-07	-2.078087e-06	-2.966438e-09	-1.509241e+01	-1.944864e+02
8.800000e-07	-2.012499e-06	-2.927071e-09	-1.461607e+01	-1.921175e+02
8.900000e-07	-1.946275e-06	-2.889971e-09	-1.413510e+01	-1.896858e+02
9.000000e-07	-1.879635e-06	-2.854316e-09	-1.365112e+01	-1.871855e+02
9.100000e-07	-1.812678e-06	-2.815441e-09	-1.316483e+01	-1.846100e+02
9.200000e-07	-1.745448e-06	-2.767469e-09	-1.267656e+01	-1.819528e+02
9.300000e-07	-1.677958e-06	-2.723036e-09	-1.218641e+01	-1.792071e+02
9.400000e-07	-1.610260e-06	-2.685813e-09	-1.169475e+01	-1.763663e+02
9.500000e-07	-1.542432e-06	-2.636699e-09	-1.120213e+01	-1.734241e+02
9.600000e-07	-1.474432e-06	-2.579253e-09	-1.070828e+01	-1.703746e+02
9.700000e-07	-1.406193e-06	-2.528601e-09	-1.021268e+01	-1.672123e+02
9.800000e-07	-1.337704e-06	-2.486324e-09	-9.715268e+00	-1.639324e+02
9.900000e-07	-1.268960e-06	-2.436008e-09	-9.216006e+00	-1.605303e+02
1.000000e-06	-1.199992e-06	-2.376713e-09	-8.715113e+00	-1.570016e+02
1.010000e-06	-1.130752e-06	-2.320318e-09	-8.212249e+00	-1.533420e+02
1.020000e-06	-1.061221e-06	-2.263745e-09	-7.707270e+00	-1.495472e+02
1.030000e-06	-9.914908e-07	-2.205668e-09	-7.200845e+00	-1.456119e+02
1.040000e-06	-9.215703e-07	-2.141356e-09	-6.693037e+00	-1.415303e+02
1.050000e-06	-8.515687e-07	-2.073393e-09	-6.184641e+00	-1.372957e+02
1.060000e-06	-7.814528e-07	-2.008365e-09	-5.675413e+00	-1.328998e+02
1.070000e-06	-7.110264e-07	-1.943106e-09	-5.163932e+00	-1.283331e+02
1.080000e-06	-6.404583e-07	-1.873706e-09	-4.651421e+00	-1.235849e+02
1.090000e-06	-5.698989e-07	-1.795979e-09	-4.138973e+00	-1.186429e+02
1.100000e-06	-4.992622e-07	-1.714899e-09	-3.625964e+00	-1.134939e+02
1.110000e-06	-4.284759e-07	-1.635328e-09	-3.111868e+00	-1.081239e+02
1.120000e-06	-3.575625e-07	-1.552058e-09	-2.596849e+00	-1.025188e+02
1.130000e-06	-2.866223e-07	-1.461539e-09	-2.081636e+00	-9.666450e+01
1.140000e-06	-2.156715e-07	-1.363529e-09	-1.566345e+00	-9.054822e+01
1.150000e-06	-1.446916e-07	-1.264851e-09	-1.050844e+00	-8.415872e+01
1.160000e-06	-7.370851e-08	-1.165074e-09	-5.353187e-01	-7.748723e+01
1.170000e-06	-2.742380e-09	-1.056983e-09	-1.991693e-02	-7.052816e+01
1.180000e-06	6.818683e-08	-9.461217e-10	4.952167e-01	-6.327976e+01
1.190000e-06	1.391295e-07	-8.354895e-10	1.010448e+00	-5.574473e+01
1.200000e-06	2.100183e-07	-7.203661e-10	1.525288e+00	-4.793064e+01
1.210000e-06	2.808114e-07	-5.988106e-10	2.039433e+00	-3.985027e+01
1.220000e-06	3.515966e-07	-4.712329e-10	2.553521e+00	-3.152174e+01
1.230000e-06	4.223568e-07	-3.401212e-10	3.067427e+00	-2.296843e+01
1.240000e-06	4.930065e-07	-2.053748e-10	3.580531e+00	-1.421875e+01
1.250000e-06	5.635498e-07	-6.974571e-11	4.092861e+00	-5.305688e+00
1.260000e-06	6.339577e-07	6.561303e-11	4.604209e+00	3.733816e+00
1.270000e-06	7.041471e-07	2.039423e-10	5.113970e+00	1.285962e+01
1.280000e-06	7.741864e-07	3.409742e-10	5.622640e+00	2.202927e+01
1.290000e-06	8.441880e-07	4.801290e-10	6.131037e+00	3.119899e+01
1.300000e-06	9.140418e-07	6.173602e-10	6.638360e+00	4.032472e+01
1.310000e-06	9.836903e-07	7.569605e-10	7.144193e+00	4.936310e+01
1.320000e-06	1.053192e-06	8.964019e-10	7.648959e+00	5.827248e+01
1.330000e-06	1.122465e-06	1.031988e-09	8.152067e+00	6.701384e+01
1.340000e-06	1.191516e-06	1.166176e-09	8.653556e+00	7.555162e+01
1.350000e-06	1.260368e-06	1.294516e-09	9.153605e+00	8.385433e+01
1.360000e-06	1.328917e-06	1.415977e-09	9.651450e+00	9.189514e+01
1.370000e-06	1.397200e-06	1.529147e-09	1.014737e+01	9.965215e+01
1.380000e-06	1.465337e-06	1.637850e-09	1.064222e+01	1.071086e+02
1.390000e-06	1.533298e-06	1.742556e-09	1.113580e+01	1.142529e+02
1.400000e-06	1.601081e-06	1.844537e-09	1.162808e+01	1.210785e+02
1.410000e-06	1.668704e-06	1.943203e-09	1.211920e+01	1.275833e+02
1.420000e-06	1.736176e-06	2.035858e-09	1.260923e+01	1.337697e+02
1.430000e-06	1.803448e-06	2.123513e-09	1.309780e+01	1.396439e+02
1.440000e-06	1.870407e-06	2.209748e-09	1.358410e+01	1.452150e+02
1.450000e-06	1.936937e-06	2.291381e-09	1.406729e+01	1.504949e+02
1.460000e-06	2.002924e-06	2.366773e-09	1.454652e+01	1.554975e+02
1.470000e-06	2.068360e-06	2.437579e-09	1.502176e+01	1.602380e+02
1.480000e-06	2.133260e-06	2.507297e-09	1.549311e+01	1.647323e+02
1.490000e-06	2.197701e-06	2.573959e-09	1.596112e+01	1.689968e+02
1.500000e-06	2.261795e-06	2.635249e-09	1.642661e+01	1.730476e+02
1.510000e-06	2.325569e-06	2.692413e-09	1.688978e+01	1.769005e+02
1.520000e-06	2.389019e-06	2.746426e-09	1.735059e+01	1.805705e+02
1.530000e-06	2.452054e-06	2.799587e-09	1.780839e+01	1.840714e+02
1.540000e-06	2.514651e-06	2.850109e-09	1.826301e+01	1.874162e+02
1.550000e-06	2.576864e-06	2.895555e-09	1.871485e+01	1.906166e+02
1.560000e-06	2.638712e-06	2.939994e-09	1.916403e+01	1.936831e+02
1.570000e-06	2.700097e-06	2.983100e-09	1.960984e+01	1.966250e+02
1.580000e-06	2.760950e-06	3.023231e-09	2.005180e+01	1.994507e+02
1.590000e-06	2.821373e-06	3.061236e-09	2.049063e+01	2.021674e+02
1.600000e-06	2.881427e-06	3.097132e-09	2.092678e+01	2.047816e+02
1.610000e-06	2.941097e-06	3.132860e-09	2.136014e+01	2.072988e+02
1.620000e-06	3.000310e-06	3.168286e-09	2.179018e+01	2.097239e+02
1.630000e-06	3.058860e-06	3.202772e-09	2.221542e+01	2.120611e+02
1.640000e-06	3.116592e-06	3.234936e-09	2.263470e+01	2.143144e+02
1.650000e-06	3.173541e-06	3.264270e-09	2.304830e+01	2.164872e+02
1.660000e-06	3.229820e-06	3.293347e-09	2.345703e+01	2.185823e+02
1.670000e-06	3.285622e-06	3.321781e-09	2.386230e+01	2.206027e+02
1.680000e-06	3.341037e-06	3.350650e-09	2.426476e+01	2.225510e+02
1.690000e-06	3.395883e-06	3.378140e-09	2.466309e+01	2.244294e+02
1.700000e-06	3.450084e-06	3.403462e-09	2.505673e+01	2.262404e+02
1.710000e-06	3.503704e-06	3.429348e-09	2.544616e+01	2.279862e+02
1.720000e-06	3.556757e-06	3.454766e-09	2.583146e+01	2.296689e+02
1.730000e-06	3.609260e-06	3.479924e-09	2.621277e+01	2.312908e+02
1.740000e-06	3.661117e-06	3.504507e-09	2.658939e+01	2.328542e+02
1.750000e-06	3.712125e-06	3.528321e-09	2.695985e+01	2.343612e+02
1.760000e-06	3.762073e-06	3.550488e-09	2.732260e+01	2.358143e+02
1.770000e-06	3.810979e-06	3.570576e-09	2.767778e+01	2.372159e+02
1.780000e-06	3.859188e-06	3.590225e-09	2.802791e+01	2.385683e+02
1.790000e-06	3.906885e-06	3.609780e-09	2.837432e+01	2.398741e+02
1.800000e-06	3.953953e-06	3.629543e-09	2.871615e+01	2.411358e+02
1.810000e-06	4.000353e-06	3.648577e-09	2.905314e+01	2.423558e+02
1.820000e-06	4.046017e-06	3.666470e-09	2.938478e+01	2.435365e+02
1.830000e-06	4.090892e-06	3.685879e-09	2.971070e+01	2.446802e+02
1.840000e-06	4.135141e-06	3.705312e-09	3.003206e+01	2.457890e+02
1.850000e-06	4.178975e-06	3.722455e-09	3.035041e+01	2.468649e+02
1.860000e-06	4.222291e-06	3.737849e-09	3.066500e+01	2.479097e+02
1.870000e-06	4.264680e-06	3.752876e-09	3.097285e+01	2.489247e+02
1.880000e-06	4.305969e-06	3.768359e-09	3.127272e+01	2.499114e+02
1.890000e-06	4.346348e-06	3.784393e-09	3.156598e+01	2.508705e+02
1.900000e-06	4.386008e-06	3.800805e-09	3.185402e+01	2.518030e+02
1.910000e-06	4.424980e-06	3.815620e-09	3.213705e+01	2.527094e+02
1.920000e-06	4.463217e-06	3.829335e-09	3.241476e+01	2.535899e+02
1.930000e-06	4.500675e-06	3.843671e-09	3.268680e+01	2.544447e+02
1.940000e-06	4.537315e-06	3.857669e-09	3.295291e+01	2.552739e+02
1.950000e-06	4.573272e-06	3.870439e-09	3.321405e+01	2.560774e+02
1.960000e-06	4.608608e-06	3.882446e-09	3.347068e+01	2.568552e+02
1.970000e-06	4.643054e-06	3.894786e-09	3.372085e+01	2.576071e+02
1.980000e-06	4.676353e-06	3.907825e-09	3.396269e+01	2.583331e+02
1.990000e-06	4.708686e-06	3.919055e-09	3.419751e+01	2.590331e+02
2.000000e-06	4.740283e-06	3.929619e-09	3.442699e+01	2.597070e+02
2.010000e-06	4.771112e-06	3.941319e-09	3.465089e+01	2.603550e+02
2.020000e-06	4.801172e-06	3.952878e-09	3.486921e+01	2.609770e+02
2.030000e-06	4.830423e-06	3.964062e-09	3.508165e+01	2.615731e+02
2.040000e-06	4.858893e-06	3.973922e-09	3.528841e+01	2.621435e+02
2.050000e-06	4.886739e-06	3.983530e-09	3.549065e+01	2.626883e+02
2.060000e-06	4.913885e-06	3.991857e-09	3.568780e+01	2.632076e+02
2.070000e-06	4.939902e-06	3.999366e-09	3.587675e+01	2.637017e+02
2.080000e-06	4.964711e-06	4.007365e-09	3.605693e+01	2.641707e+02
2.090000e-06	4.988604e-06	4.015166e-09	3.623045e+01	2.646149e+02
2.100000e-06	5.011661e-06	4.022526e-09	3.639791e+01	2.650345e+02
2.110000e-06	5.033910e-06	4.029974e-09	3.655950e+01	2.654301e+02
2.120000e-06	5.055359e-06	4.037823e-09	3.671527e+01	2.658021e+02
2.130000e-06	5.075946e-06	4.044077e-09	3.686479e+01	2.661512e+02
2.140000e-06	5.095833e-06	4.048233e-09	3.700922e+01	2.664782e+02
2.150000e-06	5.115052e-06	4.051805e-09	3.714880e+01	2.667843e+02
2.160000e-06	5.133335e-06	4.057200e-09	3.728159e+01	2.670705e+02
2.170000e-06	5.150659e-06	4.063036e-09	3.740741e+01	2.673382e+02
2.180000e-06	5.167095e-06	4.069395e-09	3.752678e+01	2.675890e+02
2.190000e-06	5.182592e-06	4.074636e-09	3.763932e+01	2.678244e+02
2.200000e-06	5.197077e-06	4.079662e-09	3.774452e+01	2.680461e+02
2.210000e-06	5.210552e-06	4.086014e-09	3.784238e+01	2.682554e+02
2.220000e-06	5.223049e-06	4.089828e-09	3.793315e+01	2.684538e+02
2.230000e-06	5.234598e-06	4.091995e-09	3.801702e+01	2.686425e+02
2.240000e-06	5.245064e-06	4.095378e-09	3.809303e+01	2.688221e+02
2.250000e-06	5.254206e-06	4.100164e-09	3.815943e+01	2.689931e+02
2.260000e-06	5.262327e-06	4.104011e-09	3.821841e+01	2.691553e+02
2.270000e-06	5.269682e-06	4.107531e-09	3.827183e+01	2.693083e+02
2.280000e-06	5.276143e-06	4.112096e-09	3.831875e+01	2.694510e+02
2.290000e-06	5.281640e-06	4.116158e-09	3.835867e+01	2.695819e+02
2.300000e-06	5.286222e-06	4.118683e-09	3.839195e+01	2.696992e+02
2.310000e-06	5.290085e-06	4.120964e-09	3.842001e+01	2.698009e+02
2.320000e-06	5.293090e-06	4.122983e-09	3.844183e+01	2.698846e+02
2.330000e-06	5.294915e-06	4.124543e-09	3.845508e+01	2.699483e+02
2.340000e-06	5.295592e-06	4.124942e-09	3.846000e+01	2.699899e+02
2.350000e-06	5.295373e-06	4.125745e-09	3.845841e+01	2.700079e+02
2.360000e-06	5.294332e-06	4.125038e-09	3.845085e+01	2.700013e+02
2.370000e-06	5.292458e-06	4.121490e-09	3.843724e+01	2.699697e+02
2.380000e-06	5.289768e-06	4.120580e-09	3.841771e+01	2.699136e+02
2.390000e-06	5.286238e-06	4.120447e-09	3.839206e+01	2.698341e+02
2.400000e-06	5.282036e-06	4.120913e-09	3.836155e+01	2.697335e+02
2.410000e-06	5.277167e-06	4.123680e-09	3.832619e+01	2.696147e+02
2.420000e-06	5.271191e-06	4.140580e-09	3.828279e+01	2.694812e+02
2.430000e-06	5.263993e-06	4.128082e-09	3.823051e+01	2.693373e+02
2.440000e-06	5.255851e-06	4.042335e-09	3.817137e+01	2.691874e+02
2.450000e-06	5.246622e-06	4.016015e-09	3.810435e+01	2.690362e+02
2.460000e-06	5.236058e-06	4.095806e-09	3.802763e+01	2.688880e+02
2.470000e-06	5.224583e-06	4.249079e-09	3.794429e+01	2.687469e+02
2.480000e-06	5.212864e-06	4.149121e-09	3.785917e+01	2.686159e+02
2.490000e-06	5.200518e-06	3.950835e-09	3.776951e+01	2.684975e+02
2.500000e-06	5.186493e-06	4.139468e-09	3.766766e+01	2.683927e+02
2.510000e-06	5.171126e-06	4.090826e-09	3.755605e+01	2.683015e+02
2.520000e-06	5.155348e-06	4.076821e-09	3.744146e+01	2.682222e+02
2.530000e-06	5.138688e-06	4.245459e-09	3.732046e+01	2.681522e+02
2.540000e-06	5.120832e-06	3.999168e-09	3.719078e+01	2.680872e+02
2.550000e-06	5.102379e-06	3.897086e-09	3.705676e+01	2.680220e+02
2.560000e-06	5.083360e-06	4.214117e-09	3.691863e+01	2.679506e+02
2.570000e-06	5.063526e-06	4.166433e-09	3.677459e+01	2.678662e+02
2.580000e-06	5.042819e-06	3.870567e-09	3.662420e+01	2.677619e+02
2.590000e-06	5.020949e-06	4.123231e-09	3.646537e+01	2.676306e+02
2.600000e-06	4.997854e-06	4.205080e-09	3.629764e+01	2.674660e+02
2.610000e-06	4.973756e-06	4.003637e-09	3.612262e+01	2.672620e+02
2.620000e-06	4.948674e-06	4.080981e-09	3.594046e+01	2.670140e+02
2.630000e-06	4.922919e-06	4.059107e-09	3.575341e+01	2.667181e+02
2.640000e-06	4.896552e-06	4.051155e-09	3.556191e+01	2.663722e+02
2.650000e-06	4.869183e-06	4.120011e-09	3.536314e+01	2.659754e+02
2.660000e-06	4.841095e-06	4.013090e-09	3.515915e+01	2.655283e+02
2.670000e-06	4.812307e-06	4.060105e-09	3.495007e+01	2.650327e+02
2.680000e-06	4.782131e-06	4.049587e-09	3.473091e+01	2.644918e+02
2.690000e-06	4.750713e-06	3.942714e-09	3.450274e+01	2.639094e+02
2.700000e-06	4.718657e-06	4.137170e-09	3.426993e+01	2.632904e+02
2.710000e-06	4.685882e-06	4.070080e-09	3.403190e+01	2.626396e+02
2.720000e-06	4.652160e-06	3.852542e-09	3.378698e+01	2.619620e+02
2.730000e-06	4.617697e-06	4.029575e-09	3.353669e+01	2.612624e+02
2.740000e-06	4.582615e-06	4.093807e-09	3.328190e+01	2.605449e+02
2.750000e-06	4.546764e-06	3.943656e-09	3.302153e+01	2.598129e+02
2.760000e-06	4.510142e-06	3.887462e-09	3.275556e+01	2.590687e+02
2.770000e-06	4.472753e-06	3.973884e-09	3.248401e+01	2.583138e+02
2.780000e-06	4.434266e-06	4.030020e-09	3.220450e+01	2.575483e+02
2.790000e-06	4.394657e-06	3.898467e-09	3.191683e+01	2.567715e+02
2.800000e-06	4.354387e-06	3.887459e-09	3.162436e+01	2.559818e+02
2.810000e-06	4.313577e-06	3.950911e-09	3.132797e+01	2.551767e+02
2.820000e-06	4.272038e-06	3.906403e-09	3.102629e+01	2.543534e+02
2.830000e-06	4.229700e-06	3.889503e-09	3.071880e+01	2.535086e+02
2.840000e-06	4.186693e-06	3.868595e-09	3.040646e+01	2.526391e+02
2.850000e-06	4.143118e-06	3.869018e-09	3.008999e+01	2.517419e+02
2.860000e-06	4.099006e-06	3.844655e-09	2.976962e+01	2.508144e+02
2.870000e-06	4.054410e-06	3.822294e-09	2.944574e+01	2.498547e+02
2.880000e-06	4.009154e-06	3.861211e-09	2.911706e+01	2.488612e+02
2.890000e-06	3.962961e-06	3.787889e-09	2.878157e+01	2.478333e+02
2.900000e-06	3.915939e-06	3.744817e-09	2.844007e+01	2.467712e+02
2.910000e-06	3.868374e-06	3.791518e-09	2.809462e+01	2.456756e+02
2.920000e-06	3.820205e-06	3.779179e-09	2.774479e+01	2.445474e+02
2.930000e-06	3.771182e-06	3.714119e-09	2.738876e+01	2.433884e+02
2.940000e-06	3.721340e-06	3.678329e-09	2.702677e+01	2.422001e+02
2.950000e-06	3.670875e-06	3.724781e-09	2.666026e+01	2.409840e+02
