# Temperatura_=_20.0
# Concentracion g/m^3_=_9000.0
# C_Vs_to_Am_M_A/Vsm_=_65563218390.804596
# pendiente_HvsI_1/m_=_3716.3
# ordenada_HvsI_A/m_=_1297.0
# frecuencia_Hz_=_212855.9935118238

Tiempo_(s)	Campo_(V.s)	Magnetizacion_(V.s)	Campo_(kA/m)	Magnetizacion_(A/m)
0.000000e+00	-5.305665e-06	-4.163730e-09	-3.842422e+01	-2.730043e+02
1.000000e-08	-5.305304e-06	-4.165355e-09	-3.842161e+01	-2.730106e+02
2.000000e-08	-5.303871e-06	-4.170825e-09	-3.841123e+01	-2.729973e+02
3.000000e-08	-5.301208e-06	-4.174779e-09	-3.839194e+01	-2.729646e+02
4.000000e-08	-5.297663e-06	-4.173122e-09	-3.836627e+01	-2.729136e+02
5.000000e-08	-5.293442e-06	-4.168536e-09	-3.833570e+01	-2.728455e+02
6.000000e-08	-5.288398e-06	-4.164479e-09	-3.829917e+01	-2.727619e+02
7.000000e-08	-5.282421e-06	-4.156739e-09	-3.825588e+01	-2.726645e+02
8.000000e-08	-5.275542e-06	-4.151447e-09	-3.820607e+01	-2.725555e+02
9.000000e-08	-5.267810e-06	-4.177096e-09	-3.815007e+01	-2.724367e+02
1.000000e-07	-5.258983e-06	-4.222278e-09	-3.808615e+01	-2.723100e+02
1.100000e-07	-5.248769e-06	-4.230920e-09	-3.801217e+01	-2.721769e+02
1.200000e-07	-5.237363e-06	-4.136601e-09	-3.792957e+01	-2.720386e+02
1.300000e-07	-5.225148e-06	-4.049467e-09	-3.784111e+01	-2.718958e+02
1.400000e-07	-5.212108e-06	-4.138432e-09	-3.774668e+01	-2.717485e+02
1.500000e-07	-5.198194e-06	-4.213566e-09	-3.764590e+01	-2.715962e+02
1.600000e-07	-5.183443e-06	-4.162060e-09	-3.753908e+01	-2.714376e+02
1.700000e-07	-5.167491e-06	-4.116268e-09	-3.742355e+01	-2.712708e+02
1.800000e-07	-5.150271e-06	-4.071888e-09	-3.729884e+01	-2.710936e+02
1.900000e-07	-5.132362e-06	-4.084297e-09	-3.716914e+01	-2.709029e+02
2.000000e-07	-5.113957e-06	-4.202968e-09	-3.703585e+01	-2.706956e+02
2.100000e-07	-5.094640e-06	-4.183786e-09	-3.689596e+01	-2.704682e+02
2.200000e-07	-5.074354e-06	-4.033479e-09	-3.674905e+01	-2.702175e+02
2.300000e-07	-5.053328e-06	-4.084490e-09	-3.659677e+01	-2.699401e+02
2.400000e-07	-5.031475e-06	-4.206653e-09	-3.643851e+01	-2.696332e+02
2.500000e-07	-5.008714e-06	-4.152788e-09	-3.627367e+01	-2.692942e+02
2.600000e-07	-4.985165e-06	-4.048565e-09	-3.610312e+01	-2.689215e+02
2.700000e-07	-4.960844e-06	-4.035380e-09	-3.592699e+01	-2.685138e+02
2.800000e-07	-4.935571e-06	-4.105122e-09	-3.574396e+01	-2.680709e+02
2.900000e-07	-4.909159e-06	-4.141052e-09	-3.555268e+01	-2.675930e+02
3.000000e-07	-4.881655e-06	-4.068394e-09	-3.535349e+01	-2.670814e+02
3.100000e-07	-4.853322e-06	-4.018611e-09	-3.514831e+01	-2.665377e+02
3.200000e-07	-4.824155e-06	-4.040521e-09	-3.493707e+01	-2.659643e+02
3.300000e-07	-4.794077e-06	-4.045502e-09	-3.471924e+01	-2.653637e+02
3.400000e-07	-4.763231e-06	-4.067455e-09	-3.449585e+01	-2.647389e+02
3.500000e-07	-4.731690e-06	-4.046157e-09	-3.426743e+01	-2.640926e+02
3.600000e-07	-4.699449e-06	-3.948195e-09	-3.403394e+01	-2.634277e+02
3.700000e-07	-4.666377e-06	-3.972240e-09	-3.379443e+01	-2.627465e+02
3.800000e-07	-4.632274e-06	-4.071448e-09	-3.354745e+01	-2.620509e+02
3.900000e-07	-4.597069e-06	-4.001989e-09	-3.329249e+01	-2.613422e+02
4.000000e-07	-4.560981e-06	-3.896098e-09	-3.303114e+01	-2.606211e+02
4.100000e-07	-4.524243e-06	-3.951889e-09	-3.276508e+01	-2.598876e+02
4.200000e-07	-4.486775e-06	-4.001825e-09	-3.249373e+01	-2.591409e+02
4.300000e-07	-4.448396e-06	-3.935299e-09	-3.221578e+01	-2.583798e+02
4.400000e-07	-4.409226e-06	-3.894616e-09	-3.193211e+01	-2.576024e+02
4.500000e-07	-4.369522e-06	-3.915376e-09	-3.164457e+01	-2.568064e+02
4.600000e-07	-4.329204e-06	-3.911789e-09	-3.135258e+01	-2.559895e+02
4.700000e-07	-4.287986e-06	-3.890495e-09	-3.105408e+01	-2.551490e+02
4.800000e-07	-4.245690e-06	-3.876320e-09	-3.074776e+01	-2.542824e+02
4.900000e-07	-4.202477e-06	-3.851331e-09	-3.043481e+01	-2.533874e+02
5.000000e-07	-4.158619e-06	-3.834236e-09	-3.011718e+01	-2.524622e+02
5.100000e-07	-4.114194e-06	-3.840258e-09	-2.979545e+01	-2.515052e+02
5.200000e-07	-4.069118e-06	-3.829517e-09	-2.946901e+01	-2.505156e+02
5.300000e-07	-4.023242e-06	-3.788295e-09	-2.913677e+01	-2.494929e+02
5.400000e-07	-3.976651e-06	-3.768958e-09	-2.879935e+01	-2.484371e+02
5.500000e-07	-3.929506e-06	-3.784836e-09	-2.845792e+01	-2.473488e+02
5.600000e-07	-3.881761e-06	-3.774505e-09	-2.811215e+01	-2.462290e+02
5.700000e-07	-3.833272e-06	-3.725332e-09	-2.776099e+01	-2.450786e+02
5.800000e-07	-3.783796e-06	-3.698670e-09	-2.740268e+01	-2.438991e+02
5.900000e-07	-3.733333e-06	-3.709107e-09	-2.703722e+01	-2.426914e+02
6.000000e-07	-3.682012e-06	-3.698937e-09	-2.666555e+01	-2.414568e+02
6.100000e-07	-3.629886e-06	-3.652697e-09	-2.628804e+01	-2.401958e+02
6.200000e-07	-3.577069e-06	-3.623399e-09	-2.590553e+01	-2.389087e+02
6.300000e-07	-3.523691e-06	-3.623529e-09	-2.551896e+01	-2.375955e+02
6.400000e-07	-3.469692e-06	-3.612079e-09	-2.512790e+01	-2.362554e+02
6.500000e-07	-3.414991e-06	-3.578710e-09	-2.473175e+01	-2.348874e+02
6.600000e-07	-3.359763e-06	-3.548306e-09	-2.433178e+01	-2.334897e+02
6.700000e-07	-3.304102e-06	-3.530934e-09	-2.392868e+01	-2.320606e+02
6.800000e-07	-3.247962e-06	-3.516916e-09	-2.352211e+01	-2.305977e+02
6.900000e-07	-3.191166e-06	-3.496362e-09	-2.311078e+01	-2.290988e+02
7.000000e-07	-3.133421e-06	-3.462519e-09	-2.269259e+01	-2.275615e+02
7.100000e-07	-3.074786e-06	-3.425281e-09	-2.226794e+01	-2.259835e+02
7.200000e-07	-3.015564e-06	-3.407892e-09	-2.183906e+01	-2.243629e+02
7.300000e-07	-2.955935e-06	-3.399649e-09	-2.140722e+01	-2.226980e+02
7.400000e-07	-2.895933e-06	-3.367411e-09	-2.097267e+01	-2.209875e+02
7.500000e-07	-2.835440e-06	-3.321223e-09	-2.053457e+01	-2.192304e+02
7.600000e-07	-2.774404e-06	-3.296480e-09	-2.009254e+01	-2.174262e+02
7.700000e-07	-2.712930e-06	-3.285814e-09	-1.964734e+01	-2.155747e+02
7.800000e-07	-2.651073e-06	-3.254667e-09	-1.919937e+01	-2.136758e+02
7.900000e-07	-2.588764e-06	-3.208455e-09	-1.874812e+01	-2.117298e+02
8.000000e-07	-2.526038e-06	-3.175794e-09	-1.829385e+01	-2.097365e+02
8.100000e-07	-2.462919e-06	-3.156961e-09	-1.783673e+01	-2.076960e+02
8.200000e-07	-2.399416e-06	-3.130980e-09	-1.737684e+01	-2.056077e+02
8.300000e-07	-2.335586e-06	-3.089791e-09	-1.691458e+01	-2.034708e+02
8.400000e-07	-2.271421e-06	-3.047517e-09	-1.644989e+01	-2.012837e+02
8.500000e-07	-2.206938e-06	-3.016225e-09	-1.598289e+01	-1.990443e+02
8.600000e-07	-2.142043e-06	-2.991068e-09	-1.551292e+01	-1.967499e+02
8.700000e-07	-2.076608e-06	-2.957870e-09	-1.503903e+01	-1.943971e+02
8.800000e-07	-2.010535e-06	-2.912012e-09	-1.456052e+01	-1.919817e+02
8.900000e-07	-1.943956e-06	-2.868062e-09	-1.407835e+01	-1.894992e+02
9.000000e-07	-1.877104e-06	-2.836152e-09	-1.359420e+01	-1.869447e+02
9.100000e-07	-1.809977e-06	-2.804774e-09	-1.310806e+01	-1.843128e+02
9.200000e-07	-1.742601e-06	-2.757347e-09	-1.262011e+01	-1.815983e+02
9.300000e-07	-1.674977e-06	-2.703445e-09	-1.213037e+01	-1.787956e+02
9.400000e-07	-1.607139e-06	-2.661412e-09	-1.163908e+01	-1.758995e+02
9.500000e-07	-1.539160e-06	-2.621399e-09	-1.114677e+01	-1.729049e+02
9.600000e-07	-1.470920e-06	-2.569107e-09	-1.065257e+01	-1.698070e+02
9.700000e-07	-1.402360e-06	-2.511911e-09	-1.015605e+01	-1.666010e+02
9.800000e-07	-1.333580e-06	-2.462198e-09	-9.657934e+00	-1.632824e+02
9.900000e-07	-1.264574e-06	-2.415381e-09	-9.158190e+00	-1.598468e+02
1.000000e-06	-1.195339e-06	-2.362400e-09	-8.656782e+00	-1.562894e+02
1.010000e-06	-1.125863e-06	-2.301875e-09	-8.153623e+00	-1.526052e+02
1.020000e-06	-1.056165e-06	-2.239712e-09	-7.648869e+00	-1.487887e+02
1.030000e-06	-9.862775e-07	-2.180390e-09	-7.142733e+00	-1.448336e+02
1.040000e-06	-9.161980e-07	-2.119976e-09	-6.635209e+00	-1.407324e+02
1.050000e-06	-8.459333e-07	-2.054678e-09	-6.126344e+00	-1.364768e+02
1.060000e-06	-7.754615e-07	-1.985557e-09	-5.615979e+00	-1.320570e+02
1.070000e-06	-7.048628e-07	-1.916121e-09	-5.104696e+00	-1.274620e+02
1.080000e-06	-6.341045e-07	-1.845768e-09	-4.592256e+00	-1.226796e+02
1.090000e-06	-5.631833e-07	-1.771063e-09	-4.078637e+00	-1.176967e+02
1.100000e-06	-4.921953e-07	-1.689982e-09	-3.564534e+00	-1.124992e+02
1.110000e-06	-4.211406e-07	-1.605954e-09	-3.049948e+00	-1.070728e+02
1.120000e-06	-3.500530e-07	-1.522201e-09	-2.535123e+00	-1.014034e+02
1.130000e-06	-2.789536e-07	-1.433876e-09	-2.020214e+00	-9.547758e+01
1.140000e-06	-2.078223e-07	-1.337755e-09	-1.505072e+00	-8.928317e+01
1.150000e-06	-1.366536e-07	-1.236833e-09	-9.896604e-01	-8.281013e+01
1.160000e-06	-6.545024e-08	-1.132342e-09	-4.739980e-01	-7.605107e+01
1.170000e-06	5.713053e-09	-1.023756e-09	4.137457e-02	-6.900201e+01
1.180000e-06	7.683689e-08	-9.126475e-10	5.564614e-01	-6.166286e+01
1.190000e-06	1.480041e-07	-7.984367e-10	1.071862e+00	-5.403802e+01
1.200000e-06	2.191429e-07	-6.797818e-10	1.587058e+00	-4.613672e+01
1.210000e-06	2.902019e-07	-5.566110e-10	2.101675e+00	-3.797325e+01
1.220000e-06	3.612087e-07	-4.289279e-10	2.615914e+00	-2.956702e+01
1.230000e-06	4.321064e-07	-2.971250e-10	3.129363e+00	-2.094250e+01
1.240000e-06	5.028659e-07	-1.627560e-10	3.641812e+00	-1.212890e+01
1.250000e-06	5.735231e-07	-2.664514e-11	4.153519e+00	-3.159719e+00
1.260000e-06	6.440797e-07	1.115640e-10	4.664497e+00	5.927863e+00
1.270000e-06	7.145383e-07	2.497237e-10	5.174767e+00	1.509374e+01
1.280000e-06	7.848185e-07	3.876520e-10	5.683744e+00	2.429575e+01
1.290000e-06	8.549033e-07	5.262052e-10	6.191306e+00	3.349059e+01
1.300000e-06	9.248279e-07	6.661089e-10	6.697708e+00	4.263486e+01
1.310000e-06	9.946032e-07	8.065829e-10	7.203028e+00	5.168598e+01
1.320000e-06	1.064259e-06	9.448835e-10	7.707482e+00	6.060318e+01
1.330000e-06	1.133718e-06	1.080303e-09	8.210512e+00	6.934838e+01
1.340000e-06	1.202988e-06	1.213996e-09	8.712175e+00	7.788692e+01
1.350000e-06	1.272088e-06	1.343550e-09	9.212604e+00	8.618830e+01
1.360000e-06	1.340906e-06	1.463659e-09	9.710989e+00	9.422658e+01
1.370000e-06	1.409399e-06	1.576482e-09	1.020703e+01	1.019808e+02
1.380000e-06	1.477675e-06	1.685962e-09	1.070149e+01	1.094349e+02
1.390000e-06	1.545767e-06	1.792615e-09	1.119462e+01	1.165782e+02
1.400000e-06	1.613640e-06	1.895759e-09	1.168616e+01	1.234048e+02
1.410000e-06	1.681331e-06	1.993852e-09	1.217638e+01	1.299134e+02
1.420000e-06	1.748829e-06	2.086667e-09	1.266522e+01	1.361069e+02
1.430000e-06	1.816134e-06	2.176098e-09	1.315265e+01	1.419919e+02
1.440000e-06	1.883206e-06	2.263346e-09	1.363839e+01	1.475781e+02
1.450000e-06	1.949872e-06	2.345137e-09	1.412119e+01	1.528776e+02
1.460000e-06	2.016027e-06	2.419063e-09	1.460029e+01	1.579045e+02
1.470000e-06	2.081645e-06	2.490202e-09	1.507551e+01	1.626740e+02
1.480000e-06	2.146731e-06	2.560295e-09	1.554687e+01	1.672020e+02
1.490000e-06	2.211318e-06	2.626438e-09	1.601462e+01	1.715044e+02
1.500000e-06	2.275450e-06	2.688090e-09	1.647907e+01	1.755971e+02
1.510000e-06	2.339239e-06	2.746832e-09	1.694103e+01	1.794951e+02
1.520000e-06	2.402745e-06	2.803964e-09	1.740095e+01	1.832125e+02
1.530000e-06	2.465920e-06	2.857067e-09	1.785847e+01	1.867624e+02
1.540000e-06	2.528714e-06	2.906483e-09	1.831323e+01	1.901567e+02
1.550000e-06	2.591122e-06	2.954261e-09	1.876519e+01	1.934059e+02
1.560000e-06	2.653107e-06	3.001028e-09	1.921410e+01	1.965196e+02
1.570000e-06	2.714604e-06	3.045609e-09	1.965946e+01	1.995062e+02
1.580000e-06	2.775612e-06	3.087480e-09	2.010129e+01	2.023729e+02
1.590000e-06	2.836137e-06	3.127867e-09	2.053962e+01	2.051264e+02
1.600000e-06	2.896213e-06	3.164949e-09	2.097470e+01	2.077726e+02
1.610000e-06	2.955925e-06	3.200365e-09	2.140714e+01	2.103168e+02
1.620000e-06	3.015193e-06	3.236303e-09	2.183637e+01	2.127638e+02
1.630000e-06	3.073899e-06	3.271621e-09	2.226152e+01	2.151185e+02
1.640000e-06	3.131891e-06	3.304853e-09	2.268151e+01	2.173850e+02
1.650000e-06	3.188962e-06	3.335931e-09	2.309482e+01	2.195677e+02
1.660000e-06	3.245227e-06	3.366416e-09	2.350230e+01	2.216706e+02
1.670000e-06	3.300996e-06	3.396583e-09	2.390618e+01	2.236977e+02
1.680000e-06	3.356369e-06	3.426797e-09	2.430720e+01	2.256529e+02
1.690000e-06	3.411269e-06	3.455652e-09	2.470479e+01	2.275397e+02
1.700000e-06	3.465596e-06	3.480505e-09	2.509823e+01	2.293616e+02
1.710000e-06	3.519347e-06	3.502479e-09	2.548750e+01	2.311218e+02
1.720000e-06	3.572518e-06	3.526438e-09	2.587257e+01	2.328233e+02
1.730000e-06	3.625068e-06	3.553153e-09	2.625315e+01	2.344687e+02
1.740000e-06	3.676970e-06	3.578417e-09	2.662903e+01	2.360604e+02
1.750000e-06	3.728058e-06	3.602150e-09	2.699902e+01	2.376005e+02
1.760000e-06	3.778179e-06	3.625934e-09	2.736200e+01	2.390907e+02
1.770000e-06	3.827327e-06	3.647533e-09	2.771793e+01	2.405326e+02
1.780000e-06	3.875599e-06	3.666018e-09	2.806753e+01	2.419275e+02
1.790000e-06	3.923199e-06	3.684961e-09	2.841224e+01	2.432766e+02
1.800000e-06	3.970238e-06	3.706126e-09	2.875291e+01	2.445809e+02
1.810000e-06	4.016668e-06	3.726328e-09	2.908916e+01	2.458414e+02
1.820000e-06	4.062427e-06	3.745798e-09	2.942055e+01	2.470592e+02
1.830000e-06	4.107486e-06	3.765103e-09	2.974688e+01	2.482353e+02
1.840000e-06	4.151845e-06	3.784354e-09	3.006813e+01	2.493708e+02
1.850000e-06	4.195660e-06	3.803704e-09	3.038544e+01	2.504669e+02
1.860000e-06	4.238935e-06	3.821164e-09	3.069884e+01	2.515251e+02
1.870000e-06	4.281362e-06	3.836579e-09	3.100610e+01	2.525467e+02
1.880000e-06	4.322675e-06	3.850528e-09	3.130530e+01	2.535333e+02
1.890000e-06	4.363012e-06	3.865621e-09	3.159742e+01	2.544865e+02
1.900000e-06	4.402703e-06	3.881099e-09	3.188487e+01	2.554079e+02
1.910000e-06	4.441713e-06	3.892710e-09	3.216739e+01	2.562992e+02
1.920000e-06	4.479947e-06	3.903305e-09	3.244428e+01	2.571619e+02
1.930000e-06	4.517411e-06	3.916174e-09	3.271560e+01	2.579975e+02
1.940000e-06	4.554061e-06	3.931264e-09	3.298102e+01	2.588073e+02
1.950000e-06	4.590025e-06	3.944872e-09	3.324148e+01	2.595923e+02
1.960000e-06	4.625405e-06	3.957002e-09	3.349770e+01	2.603534e+02
1.970000e-06	4.659883e-06	3.971394e-09	3.374739e+01	2.610913e+02
1.980000e-06	4.693197e-06	3.984946e-09	3.398866e+01	2.618062e+02
1.990000e-06	4.725548e-06	3.995930e-09	3.422295e+01	2.624982e+02
2.000000e-06	4.757119e-06	4.005616e-09	3.445159e+01	2.631673e+02
2.010000e-06	4.787924e-06	4.017146e-09	3.467469e+01	2.638130e+02
2.020000e-06	4.817949e-06	4.029126e-09	3.489213e+01	2.644349e+02
2.030000e-06	4.847148e-06	4.038909e-09	3.510359e+01	2.650323e+02
2.040000e-06	4.875563e-06	4.048565e-09	3.530937e+01	2.656046e+02
2.050000e-06	4.903323e-06	4.058370e-09	3.551042e+01	2.661511e+02
2.060000e-06	4.930360e-06	4.067912e-09	3.570622e+01	2.666712e+02
2.070000e-06	4.956329e-06	4.076374e-09	3.589429e+01	2.671645e+02
2.080000e-06	4.981153e-06	4.083647e-09	3.607407e+01	2.676306e+02
2.090000e-06	5.005052e-06	4.090231e-09	3.624715e+01	2.680696e+02
2.100000e-06	5.028089e-06	4.097194e-09	3.641398e+01	2.684816e+02
2.110000e-06	5.050270e-06	4.104363e-09	3.657462e+01	2.688673e+02
2.120000e-06	5.071585e-06	4.109649e-09	3.672899e+01	2.692273e+02
2.130000e-06	5.092111e-06	4.114026e-09	3.687764e+01	2.695629e+02
2.140000e-06	5.111994e-06	4.119015e-09	3.702163e+01	2.698754e+02
2.150000e-06	5.131176e-06	4.124571e-09	3.716055e+01	2.701663e+02
2.160000e-06	5.149440e-06	4.130533e-09	3.729283e+01	2.704375e+02
2.170000e-06	5.166710e-06	4.136599e-09	3.741790e+01	2.706907e+02
2.180000e-06	5.183076e-06	4.142627e-09	3.753642e+01	2.709279e+02
2.190000e-06	5.198506e-06	4.148180e-09	3.764817e+01	2.711508e+02
2.200000e-06	5.212950e-06	4.152268e-09	3.775277e+01	2.713612e+02
2.210000e-06	5.226355e-06	4.155485e-09	3.784985e+01	2.715606e+02
2.220000e-06	5.238803e-06	4.158390e-09	3.794000e+01	2.717500e+02
2.230000e-06	5.250345e-06	4.160074e-09	3.802359e+01	2.719303e+02
2.240000e-06	5.260704e-06	4.163122e-09	3.809861e+01	2.721021e+02
2.250000e-06	5.269808e-06	4.166092e-09	3.816454e+01	2.722654e+02
2.260000e-06	5.277936e-06	4.169432e-09	3.822341e+01	2.724199e+02
2.270000e-06	5.285199e-06	4.174133e-09	3.827600e+01	2.725650e+02
2.280000e-06	5.291545e-06	4.178524e-09	3.832196e+01	2.726996e+02
2.290000e-06	5.296957e-06	4.182115e-09	3.836116e+01	2.728225e+02
2.300000e-06	5.301480e-06	4.183320e-09	3.839391e+01	2.729323e+02
2.310000e-06	5.305262e-06	4.184739e-09	3.842130e+01	2.730275e+02
2.320000e-06	5.308229e-06	4.185049e-09	3.844279e+01	2.731067e+02
2.330000e-06	5.310022e-06	4.184618e-09	3.845577e+01	2.731685e+02
2.340000e-06	5.310605e-06	4.184900e-09	3.846000e+01	2.732118e+02
2.350000e-06	5.310291e-06	4.186335e-09	3.845772e+01	2.732359e+02
2.360000e-06	5.309212e-06	4.187373e-09	3.844991e+01	2.732402e+02
2.370000e-06	5.307272e-06	4.185318e-09	3.843586e+01	2.732249e+02
2.380000e-06	5.304422e-06	4.184535e-09	3.841522e+01	2.731904e+02
2.390000e-06	5.300787e-06	4.186356e-09	3.838890e+01	2.731377e+02
2.400000e-06	5.296469e-06	4.186293e-09	3.835762e+01	2.730680e+02
2.410000e-06	5.291373e-06	4.185714e-09	3.832072e+01	2.729829e+02
2.420000e-06	5.285202e-06	4.195882e-09	3.827603e+01	2.728843e+02
2.430000e-06	5.277837e-06	4.177798e-09	3.822269e+01	2.727742e+02
2.440000e-06	5.269521e-06	4.120055e-09	3.816246e+01	2.726546e+02
2.450000e-06	5.260140e-06	4.074051e-09	3.809452e+01	2.725272e+02
2.460000e-06	5.249441e-06	4.141208e-09	3.801704e+01	2.723935e+02
2.470000e-06	5.237866e-06	4.270760e-09	3.793321e+01	2.722548e+02
2.480000e-06	5.226046e-06	4.234947e-09	3.784761e+01	2.721116e+02
2.490000e-06	5.213553e-06	4.121434e-09	3.775714e+01	2.719639e+02
2.500000e-06	5.199383e-06	4.145224e-09	3.765451e+01	2.718110e+02
2.510000e-06	5.183868e-06	4.174103e-09	3.754215e+01	2.716517e+02
2.520000e-06	5.167801e-06	4.200865e-09	3.742580e+01	2.714840e+02
2.530000e-06	5.150883e-06	4.266679e-09	3.730327e+01	2.713056e+02
2.540000e-06	5.132896e-06	4.138073e-09	3.717301e+01	2.711134e+02
2.550000e-06	5.114325e-06	4.037844e-09	3.703852e+01	2.709042e+02
2.560000e-06	5.095172e-06	4.191951e-09	3.689981e+01	2.706747e+02
2.570000e-06	5.075127e-06	4.213893e-09	3.675464e+01	2.704215e+02
2.580000e-06	5.054131e-06	4.058730e-09	3.660258e+01	2.701413e+02
2.590000e-06	5.031997e-06	4.091143e-09	3.644229e+01	2.698313e+02
2.600000e-06	5.008695e-06	4.172683e-09	3.627353e+01	2.694890e+02
2.610000e-06	4.984415e-06	4.127299e-09	3.609769e+01	2.691129e+02
2.620000e-06	4.959219e-06	4.096995e-09	3.591522e+01	2.687017e+02
2.630000e-06	4.933296e-06	4.054912e-09	3.572748e+01	2.682552e+02
2.640000e-06	4.906698e-06	4.058134e-09	3.553486e+01	2.677740e+02
2.650000e-06	4.879244e-06	4.096595e-09	3.533604e+01	2.672591e+02
2.660000e-06	4.851057e-06	4.057675e-09	3.513190e+01	2.667123e+02
2.670000e-06	4.821964e-06	4.065626e-09	3.492121e+01	2.661361e+02
2.680000e-06	4.791498e-06	4.037407e-09	3.470057e+01	2.655330e+02
2.690000e-06	4.759895e-06	3.973679e-09	3.447169e+01	2.649059e+02
2.700000e-06	4.727663e-06	4.067057e-09	3.423827e+01	2.642577e+02
2.710000e-06	4.694736e-06	4.070193e-09	3.399980e+01	2.635911e+02
2.720000e-06	4.660843e-06	3.924158e-09	3.375435e+01	2.629084e+02
2.730000e-06	4.626145e-06	3.943359e-09	3.350306e+01	2.622114e+02
2.740000e-06	4.590893e-06	4.044034e-09	3.324776e+01	2.615015e+02
2.750000e-06	4.554932e-06	3.997134e-09	3.298733e+01	2.607792e+02
2.760000e-06	4.518096e-06	3.904417e-09	3.272056e+01	2.600444e+02
2.770000e-06	4.480387e-06	3.932514e-09	3.244747e+01	2.592964e+02
2.780000e-06	4.441711e-06	3.975388e-09	3.216737e+01	2.585337e+02
2.790000e-06	4.402026e-06	3.921194e-09	3.187997e+01	2.577546e+02
2.800000e-06	4.361590e-06	3.891135e-09	3.158713e+01	2.569567e+02
2.810000e-06	4.320595e-06	3.906310e-09	3.129024e+01	2.561375e+02
2.820000e-06	4.278898e-06	3.891237e-09	3.098826e+01	2.552945e+02
2.830000e-06	4.236411e-06	3.862916e-09	3.068056e+01	2.544252e+02
2.840000e-06	4.193230e-06	3.856129e-09	3.036784e+01	2.535273e+02
2.850000e-06	4.149497e-06	3.855572e-09	3.005113e+01	2.525990e+02
2.860000e-06	4.105277e-06	3.820814e-09	2.973088e+01	2.516388e+02
2.870000e-06	4.060531e-06	3.803966e-09	2.940682e+01	2.506459e+02
2.880000e-06	4.015088e-06	3.819683e-09	2.907772e+01	2.496199e+02
2.890000e-06	3.968804e-06	3.788249e-09	2.874253e+01	2.485609e+02
2.900000e-06	3.921738e-06	3.741640e-09	2.840167e+01	2.474694e+02
2.910000e-06	3.874075e-06	3.746589e-09	2.805648e+01	2.463465e+02
2.920000e-06	3.825715e-06	3.753887e-09	2.770626e+01	2.451932e+02
2.930000e-06	3.776457e-06	3.705273e-09	2.734952e+01	2.440108e+02
2.940000e-06	3.726390e-06	3.664666e-09	2.698694e+01	2.428004e+02
2.950000e-06	3.675701e-06	3.680909e-09	2.661984e+01	2.415631e+02
