# Temperatura_=_20.0
# Concentracion g/m^3_=_9000.0
# C_Vs_to_Am_M_A/Vsm_=_65563218390.804596
# pendiente_HvsI_1/m_=_3716.3
# ordenada_HvsI_A/m_=_1297.0
# frecuencia_Hz_=_212854.69493770247

Tiempo_(s)	Campo_(V.s)	Magnetizacion_(V.s)	Campo_(kA/m)	Magnetizacion_(A/m)
0.000000e+00	-5.300762e-06	-4.089386e-09	-3.843378e+01	-2.675196e+02
1.000000e-08	-5.300605e-06	-4.088764e-09	-3.843264e+01	-2.675417e+02
2.000000e-08	-5.299426e-06	-4.091664e-09	-3.842409e+01	-2.675482e+02
3.000000e-08	-5.297038e-06	-4.094733e-09	-3.840678e+01	-2.675382e+02
4.000000e-08	-5.293683e-06	-4.094291e-09	-3.838245e+01	-2.675108e+02
5.000000e-08	-5.289544e-06	-4.091961e-09	-3.835244e+01	-2.674655e+02
6.000000e-08	-5.284607e-06	-4.088883e-09	-3.831665e+01	-2.674025e+02
7.000000e-08	-5.278807e-06	-4.081106e-09	-3.827459e+01	-2.673222e+02
8.000000e-08	-5.272082e-06	-4.069055e-09	-3.822583e+01	-2.672255e+02
9.000000e-08	-5.264492e-06	-4.091564e-09	-3.817079e+01	-2.671138e+02
1.000000e-07	-5.255929e-06	-4.146323e-09	-3.810871e+01	-2.669889e+02
1.100000e-07	-5.246022e-06	-4.174317e-09	-3.803688e+01	-2.668529e+02
1.200000e-07	-5.234830e-06	-4.084347e-09	-3.795573e+01	-2.667081e+02
1.300000e-07	-5.222762e-06	-3.958076e-09	-3.786823e+01	-2.665568e+02
1.400000e-07	-5.209887e-06	-4.029218e-09	-3.777487e+01	-2.664012e+02
1.500000e-07	-5.196131e-06	-4.161145e-09	-3.767514e+01	-2.662433e+02
1.600000e-07	-5.181547e-06	-4.112763e-09	-3.756939e+01	-2.660845e+02
1.700000e-07	-5.165995e-06	-4.033369e-09	-3.745663e+01	-2.659258e+02
1.800000e-07	-5.149141e-06	-3.997084e-09	-3.733443e+01	-2.657673e+02
1.900000e-07	-5.131297e-06	-3.975421e-09	-3.720505e+01	-2.656086e+02
2.000000e-07	-5.112991e-06	-4.113962e-09	-3.707232e+01	-2.654484e+02
2.100000e-07	-5.093887e-06	-4.156817e-09	-3.693381e+01	-2.652845e+02
2.200000e-07	-5.073729e-06	-3.957727e-09	-3.678765e+01	-2.651142e+02
2.300000e-07	-5.052823e-06	-3.963279e-09	-3.663606e+01	-2.649341e+02
2.400000e-07	-5.031190e-06	-4.152959e-09	-3.647921e+01	-2.647403e+02
2.500000e-07	-5.008676e-06	-4.110663e-09	-3.631598e+01	-2.645288e+02
2.600000e-07	-4.985331e-06	-3.955634e-09	-3.614671e+01	-2.642952e+02
2.700000e-07	-4.961157e-06	-3.946368e-09	-3.597143e+01	-2.640356e+02
2.800000e-07	-4.936058e-06	-4.011384e-09	-3.578945e+01	-2.637460e+02
2.900000e-07	-4.909898e-06	-4.065846e-09	-3.559977e+01	-2.634233e+02
3.000000e-07	-4.882644e-06	-4.019224e-09	-3.540216e+01	-2.630646e+02
3.100000e-07	-4.854522e-06	-3.934422e-09	-3.519827e+01	-2.626681e+02
3.200000e-07	-4.825587e-06	-3.946072e-09	-3.498846e+01	-2.622326e+02
3.300000e-07	-4.795742e-06	-3.981908e-09	-3.477207e+01	-2.617580e+02
3.400000e-07	-4.765087e-06	-4.009286e-09	-3.454980e+01	-2.612446e+02
3.500000e-07	-4.733712e-06	-3.982641e-09	-3.432232e+01	-2.606938e+02
3.600000e-07	-4.701561e-06	-3.877050e-09	-3.408920e+01	-2.601075e+02
3.700000e-07	-4.668646e-06	-3.885195e-09	-3.385055e+01	-2.594879e+02
3.800000e-07	-4.634842e-06	-4.001617e-09	-3.360545e+01	-2.588378e+02
3.900000e-07	-4.599908e-06	-3.960743e-09	-3.335216e+01	-2.581598e+02
4.000000e-07	-4.564000e-06	-3.829987e-09	-3.309180e+01	-2.574567e+02
4.100000e-07	-4.527430e-06	-3.861735e-09	-3.282665e+01	-2.567310e+02
4.200000e-07	-4.490177e-06	-3.948955e-09	-3.255654e+01	-2.559846e+02
4.300000e-07	-4.451961e-06	-3.896867e-09	-3.227945e+01	-2.552193e+02
4.400000e-07	-4.412882e-06	-3.826463e-09	-3.199610e+01	-2.544362e+02
4.500000e-07	-4.373323e-06	-3.842612e-09	-3.170927e+01	-2.536356e+02
4.600000e-07	-4.333259e-06	-3.851138e-09	-3.141879e+01	-2.528175e+02
4.700000e-07	-4.292305e-06	-3.832170e-09	-3.112184e+01	-2.519813e+02
4.800000e-07	-4.250299e-06	-3.814362e-09	-3.081727e+01	-2.511260e+02
4.900000e-07	-4.207332e-06	-3.785145e-09	-3.050574e+01	-2.502502e+02
5.000000e-07	-4.163613e-06	-3.769615e-09	-3.018875e+01	-2.493523e+02
5.100000e-07	-4.119309e-06	-3.787607e-09	-2.986752e+01	-2.484305e+02
5.200000e-07	-4.074382e-06	-3.784322e-09	-2.954177e+01	-2.474834e+02
5.300000e-07	-4.028741e-06	-3.731517e-09	-2.921085e+01	-2.465092e+02
5.400000e-07	-3.982346e-06	-3.703974e-09	-2.887445e+01	-2.455068e+02
5.500000e-07	-3.935286e-06	-3.726928e-09	-2.853324e+01	-2.444751e+02
5.600000e-07	-3.887703e-06	-3.724191e-09	-2.818823e+01	-2.434134e+02
5.700000e-07	-3.839463e-06	-3.674092e-09	-2.783846e+01	-2.423211e+02
5.800000e-07	-3.790308e-06	-3.635840e-09	-2.748206e+01	-2.411981e+02
5.900000e-07	-3.740101e-06	-3.644777e-09	-2.711803e+01	-2.400444e+02
6.000000e-07	-3.688966e-06	-3.651654e-09	-2.674727e+01	-2.388601e+02
6.100000e-07	-3.637010e-06	-3.613645e-09	-2.637056e+01	-2.376453e+02
6.200000e-07	-3.584300e-06	-3.573623e-09	-2.598838e+01	-2.364001e+02
6.300000e-07	-3.531003e-06	-3.567230e-09	-2.560194e+01	-2.351243e+02
6.400000e-07	-3.477102e-06	-3.566289e-09	-2.521113e+01	-2.338179e+02
6.500000e-07	-3.422565e-06	-3.537735e-09	-2.481570e+01	-2.324802e+02
6.600000e-07	-3.367458e-06	-3.500249e-09	-2.441614e+01	-2.311106e+02
6.700000e-07	-3.311876e-06	-3.478798e-09	-2.401313e+01	-2.297080e+02
6.800000e-07	-3.255852e-06	-3.467177e-09	-2.360693e+01	-2.282712e+02
6.900000e-07	-3.199275e-06	-3.454524e-09	-2.319671e+01	-2.267989e+02
7.000000e-07	-3.141851e-06	-3.424716e-09	-2.278035e+01	-2.252896e+02
7.100000e-07	-3.083481e-06	-3.382623e-09	-2.235713e+01	-2.237420e+02
7.200000e-07	-3.024413e-06	-3.360888e-09	-2.192885e+01	-2.221546e+02
7.300000e-07	-2.964934e-06	-3.357943e-09	-2.149759e+01	-2.205262e+02
7.400000e-07	-2.905071e-06	-3.334853e-09	-2.106355e+01	-2.188560e+02
7.500000e-07	-2.844678e-06	-3.286867e-09	-2.062566e+01	-2.171430e+02
7.600000e-07	-2.783735e-06	-3.255756e-09	-2.018379e+01	-2.153870e+02
7.700000e-07	-2.722370e-06	-3.247916e-09	-1.973885e+01	-2.135876e+02
7.800000e-07	-2.660682e-06	-3.223432e-09	-1.929157e+01	-2.117447e+02
7.900000e-07	-2.598562e-06	-3.178967e-09	-1.884117e+01	-2.098584e+02
8.000000e-07	-2.535898e-06	-3.143087e-09	-1.838681e+01	-2.079285e+02
8.100000e-07	-2.472760e-06	-3.121988e-09	-1.792902e+01	-2.059551e+02
8.200000e-07	-2.409312e-06	-3.099130e-09	-1.746899e+01	-2.039375e+02
8.300000e-07	-2.345613e-06	-3.063049e-09	-1.700713e+01	-2.018750e+02
8.400000e-07	-2.281580e-06	-3.020400e-09	-1.654285e+01	-1.997662e+02
8.500000e-07	-2.217202e-06	-2.985159e-09	-1.607608e+01	-1.976091e+02
8.600000e-07	-2.152499e-06	-2.960137e-09	-1.560694e+01	-1.954011e+02
8.700000e-07	-2.087357e-06	-2.931067e-09	-1.513462e+01	-1.931388e+02
8.800000e-07	-2.021638e-06	-2.888362e-09	-1.465812e+01	-1.908183e+02
8.900000e-07	-1.955333e-06	-2.844284e-09	-1.417736e+01	-1.884350e+02
9.000000e-07	-1.888582e-06	-2.811730e-09	-1.369338e+01	-1.859837e+02
9.100000e-07	-1.821537e-06	-2.782678e-09	-1.320726e+01	-1.834590e+02
9.200000e-07	-1.754290e-06	-2.740735e-09	-1.271968e+01	-1.808550e+02
9.300000e-07	-1.686818e-06	-2.689002e-09	-1.223047e+01	-1.781658e+02
9.400000e-07	-1.619085e-06	-2.646574e-09	-1.173936e+01	-1.753853e+02
9.500000e-07	-1.551200e-06	-2.608469e-09	-1.124715e+01	-1.725077e+02
9.600000e-07	-1.483109e-06	-2.558371e-09	-1.075345e+01	-1.695272e+02
9.700000e-07	-1.414715e-06	-2.502728e-09	-1.025755e+01	-1.664383e+02
9.800000e-07	-1.346084e-06	-2.452666e-09	-9.759931e+00	-1.632355e+02
9.900000e-07	-1.277237e-06	-2.407561e-09	-9.260754e+00	-1.599135e+02
1.000000e-06	-1.208202e-06	-2.358764e-09	-8.760204e+00	-1.564670e+02
1.010000e-06	-1.138880e-06	-2.303205e-09	-8.257581e+00	-1.528903e+02
1.020000e-06	-1.069216e-06	-2.242477e-09	-7.752475e+00	-1.491777e+02
1.030000e-06	-9.993151e-07	-2.180952e-09	-7.245648e+00	-1.453226e+02
1.040000e-06	-9.292679e-07	-2.121286e-09	-6.737762e+00	-1.413178e+02
1.050000e-06	-8.591096e-07	-2.057838e-09	-6.229071e+00	-1.371551e+02
1.060000e-06	-7.888092e-07	-1.989595e-09	-5.719351e+00	-1.328254e+02
1.070000e-06	-7.183489e-07	-1.919712e-09	-5.208470e+00	-1.283183e+02
1.080000e-06	-6.477484e-07	-1.851605e-09	-4.696573e+00	-1.236224e+02
1.090000e-06	-5.770481e-07	-1.781754e-09	-4.183953e+00	-1.187255e+02
1.100000e-06	-5.062541e-07	-1.704214e-09	-3.670653e+00	-1.136145e+02
1.110000e-06	-4.353772e-07	-1.622044e-09	-3.156752e+00	-1.082760e+02
1.120000e-06	-3.644366e-07	-1.538624e-09	-2.642389e+00	-1.026966e+02
1.130000e-06	-2.934303e-07	-1.451795e-09	-2.127550e+00	-9.686347e+01
1.140000e-06	-2.223770e-07	-1.357207e-09	-1.612370e+00	-9.076496e+01
1.150000e-06	-1.512614e-07	-1.256103e-09	-1.096738e+00	-8.439124e+01
1.160000e-06	-8.010002e-08	-1.152182e-09	-5.807743e-01	-7.773492e+01
1.170000e-06	-8.954074e-09	-1.045429e-09	-6.492253e-02	-7.079173e+01
1.180000e-06	6.215044e-08	-9.364205e-10	4.506288e-01	-6.356109e+01
1.190000e-06	1.332181e-07	-8.241310e-10	9.659133e-01	-5.604668e+01
1.200000e-06	2.042192e-07	-7.085117e-10	1.480714e+00	-4.825681e+01
1.210000e-06	2.751514e-07	-5.897648e-10	1.995017e+00	-4.020469e+01
1.220000e-06	3.460420e-07	-4.652412e-10	2.509017e+00	-3.190859e+01
1.230000e-06	4.168160e-07	-3.354901e-10	3.022172e+00	-2.339175e+01
1.240000e-06	4.874408e-07	-2.016005e-10	3.534245e+00	-1.468216e+01
1.250000e-06	5.580405e-07	-6.633648e-11	4.046136e+00	-5.812152e+00
1.260000e-06	6.285481e-07	6.925787e-11	4.557359e+00	3.182147e+00
1.270000e-06	6.989082e-07	2.073821e-10	5.067514e+00	1.226155e+01
1.280000e-06	7.691366e-07	3.460743e-10	5.576712e+00	2.138463e+01
1.290000e-06	8.392052e-07	4.840122e-10	6.084753e+00	3.050864e+01
1.300000e-06	9.091702e-07	6.192689e-10	6.592042e+00	3.959047e+01
1.310000e-06	9.789838e-07	7.531686e-10	7.098233e+00	4.858761e+01
1.320000e-06	1.048592e-06	8.898280e-10	7.602937e+00	5.745915e+01
1.330000e-06	1.118024e-06	1.025744e-09	8.106357e+00	6.616660e+01
1.340000e-06	1.187252e-06	1.157745e-09	8.608304e+00	7.467473e+01
1.350000e-06	1.256245e-06	1.286272e-09	9.108550e+00	8.295223e+01
1.360000e-06	1.325019e-06	1.410569e-09	9.607203e+00	9.097221e+01
1.370000e-06	1.393575e-06	1.528154e-09	1.010427e+01	9.871257e+01
1.380000e-06	1.461877e-06	1.639097e-09	1.059951e+01	1.061562e+02
1.390000e-06	1.529937e-06	1.744195e-09	1.109298e+01	1.132910e+02
1.400000e-06	1.597832e-06	1.843985e-09	1.158526e+01	1.201099e+02
1.410000e-06	1.665591e-06	1.941353e-09	1.207656e+01	1.266102e+02
1.420000e-06	1.733204e-06	2.034975e-09	1.256679e+01	1.327937e+02
1.430000e-06	1.800622e-06	2.122885e-09	1.305562e+01	1.386657e+02
1.440000e-06	1.867755e-06	2.207479e-09	1.354237e+01	1.442351e+02
1.450000e-06	1.934499e-06	2.289243e-09	1.402630e+01	1.495132e+02
1.460000e-06	2.000726e-06	2.365784e-09	1.450649e+01	1.545132e+02
1.470000e-06	2.066374e-06	2.437289e-09	1.498248e+01	1.592501e+02
1.480000e-06	2.131482e-06	2.506379e-09	1.545455e+01	1.637394e+02
1.490000e-06	2.196083e-06	2.572238e-09	1.592295e+01	1.679974e+02
1.500000e-06	2.260268e-06	2.633238e-09	1.638833e+01	1.720400e+02
1.510000e-06	2.324125e-06	2.690587e-09	1.685133e+01	1.758829e+02
1.520000e-06	2.387659e-06	2.744370e-09	1.731199e+01	1.795411e+02
1.530000e-06	2.450872e-06	2.795055e-09	1.777032e+01	1.830285e+02
1.540000e-06	2.513679e-06	2.843859e-09	1.822571e+01	1.863583e+02
1.550000e-06	2.576028e-06	2.890701e-09	1.867778e+01	1.895422e+02
1.560000e-06	2.638001e-06	2.936366e-09	1.912713e+01	1.925912e+02
1.570000e-06	2.699607e-06	2.979649e-09	1.957381e+01	1.955148e+02
1.580000e-06	2.760687e-06	3.020538e-09	2.001668e+01	1.983217e+02
1.590000e-06	2.821166e-06	3.059509e-09	2.045518e+01	2.010195e+02
1.600000e-06	2.881199e-06	3.095925e-09	2.089046e+01	2.036151e+02
1.610000e-06	2.940911e-06	3.131431e-09	2.132341e+01	2.061145e+02
1.620000e-06	3.000311e-06	3.166764e-09	2.175410e+01	2.085229e+02
1.630000e-06	3.059152e-06	3.201787e-09	2.218073e+01	2.108451e+02
1.640000e-06	3.117152e-06	3.234653e-09	2.260126e+01	2.130852e+02
1.650000e-06	3.174247e-06	3.264790e-09	2.301524e+01	2.152471e+02
1.660000e-06	3.230558e-06	3.294183e-09	2.342353e+01	2.173339e+02
1.670000e-06	3.286347e-06	3.323284e-09	2.382803e+01	2.193487e+02
1.680000e-06	3.341748e-06	3.352245e-09	2.422973e+01	2.212941e+02
1.690000e-06	3.396685e-06	3.380534e-09	2.462805e+01	2.231726e+02
1.700000e-06	3.451070e-06	3.407459e-09	2.502238e+01	2.249862e+02
1.710000e-06	3.504883e-06	3.432746e-09	2.541255e+01	2.267370e+02
1.720000e-06	3.558095e-06	3.457176e-09	2.579837e+01	2.284269e+02
1.730000e-06	3.610673e-06	3.482705e-09	2.617960e+01	2.300578e+02
1.740000e-06	3.662601e-06	3.507781e-09	2.655610e+01	2.316314e+02
1.750000e-06	3.713842e-06	3.530114e-09	2.692763e+01	2.331495e+02
1.760000e-06	3.764196e-06	3.550469e-09	2.729273e+01	2.346139e+02
1.770000e-06	3.813481e-06	3.570163e-09	2.765008e+01	2.360268e+02
1.780000e-06	3.861819e-06	3.588943e-09	2.800056e+01	2.373899e+02
1.790000e-06	3.909524e-06	3.606746e-09	2.834645e+01	2.387056e+02
1.800000e-06	3.956676e-06	3.624686e-09	2.868833e+01	2.399759e+02
1.810000e-06	4.003172e-06	3.643075e-09	2.902545e+01	2.412033e+02
1.820000e-06	4.049014e-06	3.662364e-09	2.935784e+01	2.423899e+02
1.830000e-06	4.094146e-06	3.682927e-09	2.968507e+01	2.435381e+02
1.840000e-06	4.138522e-06	3.702538e-09	3.000682e+01	2.446500e+02
1.850000e-06	4.182360e-06	3.720249e-09	3.032467e+01	2.457278e+02
1.860000e-06	4.225760e-06	3.736956e-09	3.063935e+01	2.467732e+02
1.870000e-06	4.268406e-06	3.752097e-09	3.094857e+01	2.477880e+02
1.880000e-06	4.309953e-06	3.766444e-09	3.124980e+01	2.487734e+02
1.890000e-06	4.350424e-06	3.781044e-09	3.154324e+01	2.497305e+02
1.900000e-06	4.390117e-06	3.795618e-09	3.183104e+01	2.506600e+02
1.910000e-06	4.429158e-06	3.809324e-09	3.211411e+01	2.515623e+02
1.920000e-06	4.467470e-06	3.822096e-09	3.239190e+01	2.524375e+02
1.930000e-06	4.505007e-06	3.835338e-09	3.266406e+01	2.532854e+02
1.940000e-06	4.541759e-06	3.850029e-09	3.293054e+01	2.541058e+02
1.950000e-06	4.577814e-06	3.863086e-09	3.319196e+01	2.548980e+02
1.960000e-06	4.613268e-06	3.874120e-09	3.344902e+01	2.556617e+02
1.970000e-06	4.647935e-06	3.885332e-09	3.370038e+01	2.563963e+02
1.980000e-06	4.681488e-06	3.897721e-09	3.394366e+01	2.571014e+02
1.990000e-06	4.713949e-06	3.908264e-09	3.417902e+01	2.577766e+02
2.000000e-06	4.745639e-06	3.917105e-09	3.440879e+01	2.584219e+02
2.010000e-06	4.776616e-06	3.928095e-09	3.463339e+01	2.590374e+02
2.020000e-06	4.806799e-06	3.939622e-09	3.485224e+01	2.596233e+02
2.030000e-06	4.836178e-06	3.949988e-09	3.506526e+01	2.601803e+02
2.040000e-06	4.864724e-06	3.959341e-09	3.527224e+01	2.607090e+02
2.050000e-06	4.892579e-06	3.967841e-09	3.547420e+01	2.612103e+02
2.060000e-06	4.919741e-06	3.974824e-09	3.567114e+01	2.616853e+02
2.070000e-06	4.945888e-06	3.981611e-09	3.586072e+01	2.621351e+02
2.080000e-06	4.970839e-06	3.988612e-09	3.604163e+01	2.625607e+02
2.090000e-06	4.994810e-06	3.994816e-09	3.621544e+01	2.629633e+02
2.100000e-06	5.017962e-06	4.000738e-09	3.638330e+01	2.633438e+02
2.110000e-06	5.040283e-06	4.007203e-09	3.654515e+01	2.637033e+02
2.120000e-06	5.061790e-06	4.013277e-09	3.670108e+01	2.640426e+02
2.130000e-06	5.082464e-06	4.017439e-09	3.685099e+01	2.643625e+02
2.140000e-06	5.102438e-06	4.020376e-09	3.699581e+01	2.646635e+02
2.150000e-06	5.121795e-06	4.024435e-09	3.713615e+01	2.649464e+02
2.160000e-06	5.140237e-06	4.029989e-09	3.726987e+01	2.652115e+02
2.170000e-06	5.157571e-06	4.034931e-09	3.739556e+01	2.654595e+02
2.180000e-06	5.174032e-06	4.039146e-09	3.751491e+01	2.656910e+02
2.190000e-06	5.189622e-06	4.043523e-09	3.762794e+01	2.659066e+02
2.200000e-06	5.204198e-06	4.048865e-09	3.773362e+01	2.661069e+02
2.210000e-06	5.217810e-06	4.054076e-09	3.783232e+01	2.662928e+02
2.220000e-06	5.230486e-06	4.057356e-09	3.792423e+01	2.664651e+02
2.230000e-06	5.242255e-06	4.059531e-09	3.800956e+01	2.666246e+02
2.240000e-06	5.252882e-06	4.062936e-09	3.808662e+01	2.667724e+02
2.250000e-06	5.262178e-06	4.065667e-09	3.815402e+01	2.669092e+02
2.260000e-06	5.270414e-06	4.066553e-09	3.821374e+01	2.670360e+02
2.270000e-06	5.277788e-06	4.067944e-09	3.826720e+01	2.671532e+02
2.280000e-06	5.284259e-06	4.070321e-09	3.831412e+01	2.672613e+02
2.290000e-06	5.289822e-06	4.072283e-09	3.835446e+01	2.673606e+02
2.300000e-06	5.294519e-06	4.073829e-09	3.838851e+01	2.674510e+02
2.310000e-06	5.298453e-06	4.076873e-09	3.841703e+01	2.675321e+02
2.320000e-06	5.301623e-06	4.079292e-09	3.844002e+01	2.676032e+02
2.330000e-06	5.303632e-06	4.082211e-09	3.845458e+01	2.676634e+02
2.340000e-06	5.304379e-06	4.085592e-09	3.846000e+01	2.677117e+02
2.350000e-06	5.304208e-06	4.087453e-09	3.845876e+01	2.677467e+02
2.360000e-06	5.303231e-06	4.087170e-09	3.845168e+01	2.677673e+02
2.370000e-06	5.301398e-06	4.084106e-09	3.843839e+01	2.677723e+02
2.380000e-06	5.298740e-06	4.082059e-09	3.841912e+01	2.677606e+02
2.390000e-06	5.295335e-06	4.083102e-09	3.839443e+01	2.677314e+02
2.400000e-06	5.291192e-06	4.085365e-09	3.836439e+01	2.676844e+02
2.410000e-06	5.286334e-06	4.087329e-09	3.832916e+01	2.676197e+02
2.420000e-06	5.280483e-06	4.100394e-09	3.828674e+01	2.675377e+02
2.430000e-06	5.273392e-06	4.096611e-09	3.823533e+01	2.674394e+02
2.440000e-06	5.265289e-06	4.035486e-09	3.817658e+01	2.673264e+02
2.450000e-06	5.256202e-06	3.971014e-09	3.811069e+01	2.672003e+02
2.460000e-06	5.245852e-06	4.017356e-09	3.803565e+01	2.670633e+02
2.470000e-06	5.234395e-06	4.166983e-09	3.795257e+01	2.669178e+02
2.480000e-06	5.222610e-06	4.179590e-09	3.786713e+01	2.667660e+02
2.490000e-06	5.210410e-06	4.013984e-09	3.777867e+01	2.666102e+02
2.500000e-06	5.196645e-06	4.010152e-09	3.767887e+01	2.664521e+02
2.510000e-06	5.181312e-06	4.074564e-09	3.756769e+01	2.662934e+02
2.520000e-06	5.165370e-06	4.081668e-09	3.745210e+01	2.661347e+02
2.530000e-06	5.148788e-06	4.175495e-09	3.733187e+01	2.659763e+02
2.540000e-06	5.131074e-06	4.082066e-09	3.720344e+01	2.658175e+02
2.550000e-06	5.112567e-06	3.895003e-09	3.706925e+01	2.656570e+02
2.560000e-06	5.093547e-06	4.019220e-09	3.693134e+01	2.654927e+02
2.570000e-06	5.073742e-06	4.121050e-09	3.678774e+01	2.653216e+02
2.580000e-06	5.053005e-06	3.940760e-09	3.663739e+01	2.651403e+02
2.590000e-06	5.031169e-06	3.963530e-09	3.647906e+01	2.649450e+02
2.600000e-06	5.008183e-06	4.138291e-09	3.631240e+01	2.647315e+02
2.610000e-06	4.984157e-06	4.081658e-09	3.613820e+01	2.644955e+02
2.620000e-06	4.959112e-06	4.023923e-09	3.595661e+01	2.642331e+02
2.630000e-06	4.933318e-06	4.022561e-09	3.576958e+01	2.639404e+02
2.640000e-06	4.906930e-06	4.010867e-09	3.557825e+01	2.636142e+02
2.650000e-06	4.879671e-06	4.048287e-09	3.538061e+01	2.632518e+02
2.660000e-06	4.851605e-06	4.036619e-09	3.517711e+01	2.628515e+02
2.670000e-06	4.822790e-06	4.024564e-09	3.496819e+01	2.624122e+02
2.680000e-06	4.792747e-06	3.988859e-09	3.475036e+01	2.619336e+02
2.690000e-06	4.761417e-06	3.925682e-09	3.452319e+01	2.614165e+02
2.700000e-06	4.729278e-06	4.028794e-09	3.429017e+01	2.608620e+02
2.710000e-06	4.696475e-06	4.059827e-09	3.405232e+01	2.602723e+02
2.720000e-06	4.662819e-06	3.895146e-09	3.380830e+01	2.596496e+02
2.730000e-06	4.628308e-06	3.893817e-09	3.355807e+01	2.589966e+02
2.740000e-06	4.593133e-06	4.012950e-09	3.330304e+01	2.583160e+02
2.750000e-06	4.557308e-06	3.988543e-09	3.304328e+01	2.576106e+02
2.760000e-06	4.520695e-06	3.881898e-09	3.277782e+01	2.568827e+02
2.770000e-06	4.483269e-06	3.881265e-09	3.250645e+01	2.561344e+02
2.780000e-06	4.444836e-06	3.945963e-09	3.222779e+01	2.553674e+02
2.790000e-06	4.405332e-06	3.910189e-09	3.194136e+01	2.545825e+02
2.800000e-06	4.365061e-06	3.867476e-09	3.164937e+01	2.537802e+02
2.810000e-06	4.324224e-06	3.875952e-09	3.135328e+01	2.529603e+02
2.820000e-06	4.282782e-06	3.857766e-09	3.105280e+01	2.521223e+02
2.830000e-06	4.240525e-06	3.845584e-09	3.074641e+01	2.512651e+02
2.840000e-06	4.197515e-06	3.842039e-09	3.043456e+01	2.503871e+02
2.850000e-06	4.153994e-06	3.826119e-09	3.011901e+01	2.494869e+02
2.860000e-06	4.109940e-06	3.795706e-09	2.979959e+01	2.485628e+02
2.870000e-06	4.065287e-06	3.780492e-09	2.947583e+01	2.476130e+02
2.880000e-06	4.019954e-06	3.795955e-09	2.914713e+01	2.466361e+02
2.890000e-06	3.973834e-06	3.768723e-09	2.881273e+01	2.456309e+02
2.900000e-06	3.926923e-06	3.721741e-09	2.847260e+01	2.445962e+02
2.910000e-06	3.879388e-06	3.721046e-09	2.812794e+01	2.435315e+02
2.920000e-06	3.831268e-06	3.730745e-09	2.777904e+01	2.424362e+02
2.930000e-06	3.782329e-06	3.697097e-09	2.742421e+01	2.413101e+02
2.940000e-06	3.732537e-06	3.649829e-09	2.706318e+01	2.401534e+02
2.950000e-06	3.682082e-06	3.655539e-09	2.669736e+01	2.389661e+02
