# Temperatura_=_20.0
# Concentracion g/m^3_=_9000.0
# C_Vs_to_Am_M_A/Vsm_=_65563218390.804596
# pendiente_HvsI_1/m_=_3716.3
# ordenada_HvsI_A/m_=_1297.0
# frecuencia_Hz_=_212857.3799693035

Tiempo_(s)	Campo_(V.s)	Magnetizacion_(V.s)	Campo_(kA/m)	Magnetizacion_(A/m)
0.000000e+00	-5.297998e-06	-4.113126e-09	-3.842113e+01	-2.697759e+02
1.000000e-08	-5.297827e-06	-4.114875e-09	-3.841989e+01	-2.698373e+02
2.000000e-08	-5.296641e-06	-4.118249e-09	-3.841129e+01	-2.698699e+02
3.000000e-08	-5.294261e-06	-4.121328e-09	-3.839403e+01	-2.698714e+02
4.000000e-08	-5.290930e-06	-4.123064e-09	-3.836987e+01	-2.698406e+02
5.000000e-08	-5.286859e-06	-4.122145e-09	-3.834035e+01	-2.697774e+02
6.000000e-08	-5.282009e-06	-4.117987e-09	-3.830518e+01	-2.696833e+02
7.000000e-08	-5.276342e-06	-4.112289e-09	-3.826408e+01	-2.695611e+02
8.000000e-08	-5.269804e-06	-4.106388e-09	-3.821667e+01	-2.694148e+02
9.000000e-08	-5.262390e-06	-4.126428e-09	-3.816290e+01	-2.692496e+02
1.000000e-07	-5.253992e-06	-4.153694e-09	-3.810200e+01	-2.690718e+02
1.100000e-07	-5.244253e-06	-4.166856e-09	-3.803137e+01	-2.688879e+02
1.200000e-07	-5.233174e-06	-4.109605e-09	-3.795102e+01	-2.687047e+02
1.300000e-07	-5.221180e-06	-4.055709e-09	-3.786405e+01	-2.685289e+02
1.400000e-07	-5.208382e-06	-4.097406e-09	-3.777123e+01	-2.683662e+02
1.500000e-07	-5.194734e-06	-4.131526e-09	-3.767226e+01	-2.682214e+02
1.600000e-07	-5.180341e-06	-4.111328e-09	-3.756788e+01	-2.680978e+02
1.700000e-07	-5.164915e-06	-4.092057e-09	-3.745601e+01	-2.679972e+02
1.800000e-07	-5.148160e-06	-4.034817e-09	-3.733450e+01	-2.679190e+02
1.900000e-07	-5.130499e-06	-4.030385e-09	-3.720643e+01	-2.678612e+02
2.000000e-07	-5.112349e-06	-4.156471e-09	-3.707480e+01	-2.678195e+02
2.100000e-07	-5.093399e-06	-4.123496e-09	-3.693738e+01	-2.677879e+02
2.200000e-07	-5.073362e-06	-4.040484e-09	-3.679207e+01	-2.677590e+02
2.300000e-07	-5.052499e-06	-4.109166e-09	-3.664077e+01	-2.677242e+02
2.400000e-07	-5.030956e-06	-4.150166e-09	-3.648454e+01	-2.676742e+02
2.500000e-07	-5.008563e-06	-4.095498e-09	-3.632215e+01	-2.675995e+02
2.600000e-07	-4.985296e-06	-4.062830e-09	-3.615341e+01	-2.674907e+02
2.700000e-07	-4.961294e-06	-4.053168e-09	-3.597935e+01	-2.673395e+02
2.800000e-07	-4.936360e-06	-4.070757e-09	-3.579853e+01	-2.671385e+02
2.900000e-07	-4.910275e-06	-4.113875e-09	-3.560936e+01	-2.668819e+02
3.000000e-07	-4.883127e-06	-4.058049e-09	-3.541248e+01	-2.665657e+02
3.100000e-07	-4.855083e-06	-4.031032e-09	-3.520911e+01	-2.661880e+02
3.200000e-07	-4.826205e-06	-4.040730e-09	-3.499969e+01	-2.657489e+02
3.300000e-07	-4.796467e-06	-4.023677e-09	-3.478402e+01	-2.652501e+02
3.400000e-07	-4.765937e-06	-4.059492e-09	-3.456262e+01	-2.646956e+02
3.500000e-07	-4.734651e-06	-4.040786e-09	-3.433573e+01	-2.640904e+02
3.600000e-07	-4.702616e-06	-3.959710e-09	-3.410341e+01	-2.634407e+02
3.700000e-07	-4.669807e-06	-3.989810e-09	-3.386548e+01	-2.627536e+02
3.800000e-07	-4.635985e-06	-4.040479e-09	-3.362020e+01	-2.620361e+02
3.900000e-07	-4.601053e-06	-3.973773e-09	-3.336688e+01	-2.612951e+02
4.000000e-07	-4.565263e-06	-3.930612e-09	-3.310733e+01	-2.605368e+02
4.100000e-07	-4.528747e-06	-3.968350e-09	-3.284252e+01	-2.597666e+02
4.200000e-07	-4.491501e-06	-3.966671e-09	-3.257241e+01	-2.589885e+02
4.300000e-07	-4.453387e-06	-3.919673e-09	-3.229601e+01	-2.582050e+02
4.400000e-07	-4.414435e-06	-3.918366e-09	-3.201352e+01	-2.574173e+02
4.500000e-07	-4.374980e-06	-3.916334e-09	-3.172739e+01	-2.566250e+02
4.600000e-07	-4.335056e-06	-3.888697e-09	-3.143786e+01	-2.558264e+02
4.700000e-07	-4.294250e-06	-3.880391e-09	-3.114194e+01	-2.550187e+02
4.800000e-07	-4.252295e-06	-3.870805e-09	-3.083768e+01	-2.541981e+02
4.900000e-07	-4.209405e-06	-3.854241e-09	-3.052665e+01	-2.533604e+02
5.000000e-07	-4.165846e-06	-3.838113e-09	-3.021076e+01	-2.525012e+02
5.100000e-07	-4.121655e-06	-3.831842e-09	-2.989028e+01	-2.516160e+02
5.200000e-07	-4.076791e-06	-3.823689e-09	-2.956492e+01	-2.507011e+02
5.300000e-07	-4.031216e-06	-3.795713e-09	-2.923442e+01	-2.497529e+02
5.400000e-07	-3.984883e-06	-3.780859e-09	-2.889841e+01	-2.487691e+02
5.500000e-07	-3.937830e-06	-3.779964e-09	-2.855718e+01	-2.477481e+02
5.600000e-07	-3.890245e-06	-3.760500e-09	-2.821210e+01	-2.466892e+02
5.700000e-07	-3.842091e-06	-3.725438e-09	-2.786288e+01	-2.455925e+02
5.800000e-07	-3.793086e-06	-3.708979e-09	-2.750750e+01	-2.444590e+02
5.900000e-07	-3.743009e-06	-3.709383e-09	-2.714434e+01	-2.432902e+02
6.000000e-07	-3.691967e-06	-3.682543e-09	-2.677418e+01	-2.420878e+02
6.100000e-07	-3.640194e-06	-3.650553e-09	-2.639872e+01	-2.408536e+02
6.200000e-07	-3.587678e-06	-3.641632e-09	-2.601787e+01	-2.395893e+02
6.300000e-07	-3.534464e-06	-3.631389e-09	-2.563197e+01	-2.382963e+02
6.400000e-07	-3.480647e-06	-3.610197e-09	-2.524169e+01	-2.369752e+02
6.500000e-07	-3.426214e-06	-3.583732e-09	-2.484693e+01	-2.356262e+02
6.600000e-07	-3.371156e-06	-3.561512e-09	-2.444766e+01	-2.342487e+02
6.700000e-07	-3.315573e-06	-3.543353e-09	-2.404457e+01	-2.328414e+02
6.800000e-07	-3.259570e-06	-3.527500e-09	-2.363843e+01	-2.314023e+02
6.900000e-07	-3.202989e-06	-3.509167e-09	-2.322811e+01	-2.299290e+02
7.000000e-07	-3.145594e-06	-3.476552e-09	-2.281188e+01	-2.284188e+02
7.100000e-07	-3.087311e-06	-3.445620e-09	-2.238921e+01	-2.268689e+02
7.200000e-07	-3.028289e-06	-3.429563e-09	-2.196118e+01	-2.252764e+02
7.300000e-07	-2.968830e-06	-3.412636e-09	-2.152998e+01	-2.236390e+02
7.400000e-07	-2.909004e-06	-3.379346e-09	-2.109612e+01	-2.219545e+02
7.500000e-07	-2.848716e-06	-3.339260e-09	-2.065891e+01	-2.202216e+02
7.600000e-07	-2.787925e-06	-3.315359e-09	-2.021806e+01	-2.184394e+02
7.700000e-07	-2.726685e-06	-3.297236e-09	-1.977395e+01	-2.166076e+02
7.800000e-07	-2.664998e-06	-3.265629e-09	-1.932659e+01	-2.147265e+02
7.900000e-07	-2.602796e-06	-3.228473e-09	-1.887550e+01	-2.127970e+02
8.000000e-07	-2.540112e-06	-3.196931e-09	-1.842092e+01	-2.108199e+02
8.100000e-07	-2.477043e-06	-3.173489e-09	-1.796354e+01	-2.087963e+02
8.200000e-07	-2.413668e-06	-3.147645e-09	-1.750394e+01	-2.067270e+02
8.300000e-07	-2.349972e-06	-3.113512e-09	-1.704202e+01	-2.046122e+02
8.400000e-07	-2.285908e-06	-3.074044e-09	-1.657743e+01	-2.024517e+02
8.500000e-07	-2.221502e-06	-3.037524e-09	-1.611036e+01	-2.002443e+02
8.600000e-07	-2.156804e-06	-3.009811e-09	-1.564117e+01	-1.979878e+02
8.700000e-07	-2.091710e-06	-2.978021e-09	-1.516910e+01	-1.956791e+02
8.800000e-07	-2.025989e-06	-2.937147e-09	-1.469249e+01	-1.933140e+02
8.900000e-07	-1.959665e-06	-2.895920e-09	-1.421151e+01	-1.908875e+02
9.000000e-07	-1.893014e-06	-2.859845e-09	-1.372815e+01	-1.883935e+02
9.100000e-07	-1.826061e-06	-2.825835e-09	-1.324261e+01	-1.858256e+02
9.200000e-07	-1.758772e-06	-2.783406e-09	-1.275463e+01	-1.831769e+02
9.300000e-07	-1.691236e-06	-2.735766e-09	-1.226486e+01	-1.804403e+02
9.400000e-07	-1.623468e-06	-2.692590e-09	-1.177340e+01	-1.776091e+02
9.500000e-07	-1.555495e-06	-2.647501e-09	-1.128046e+01	-1.746765e+02
9.600000e-07	-1.487376e-06	-2.596540e-09	-1.078647e+01	-1.716365e+02
9.700000e-07	-1.419067e-06	-2.544978e-09	-1.029108e+01	-1.684835e+02
9.800000e-07	-1.350512e-06	-2.494979e-09	-9.793927e+00	-1.652125e+02
9.900000e-07	-1.281753e-06	-2.443881e-09	-9.295284e+00	-1.618192e+02
1.000000e-06	-1.212745e-06	-2.391408e-09	-8.794836e+00	-1.582994e+02
1.010000e-06	-1.143424e-06	-2.339400e-09	-8.292125e+00	-1.546494e+02
1.020000e-06	-1.073778e-06	-2.281027e-09	-7.787046e+00	-1.508651e+02
1.030000e-06	-1.003932e-06	-2.216684e-09	-7.280522e+00	-1.469422e+02
1.040000e-06	-9.340132e-07	-2.153380e-09	-6.773472e+00	-1.428755e+02
1.050000e-06	-8.639547e-07	-2.087509e-09	-6.265408e+00	-1.386590e+02
1.060000e-06	-7.936880e-07	-2.019745e-09	-5.755833e+00	-1.342853e+02
1.070000e-06	-7.232702e-07	-1.950392e-09	-5.245162e+00	-1.297455e+02
1.080000e-06	-6.527385e-07	-1.877495e-09	-4.733665e+00	-1.250295e+02
1.090000e-06	-5.820718e-07	-1.802246e-09	-4.221190e+00	-1.201254e+02
1.100000e-06	-5.113193e-07	-1.727846e-09	-3.708092e+00	-1.150204e+02
1.110000e-06	-4.404556e-07	-1.652711e-09	-3.194188e+00	-1.097005e+02
1.120000e-06	-3.695105e-07	-1.568020e-09	-2.679693e+00	-1.041516e+02
1.130000e-06	-2.985891e-07	-1.476506e-09	-2.165371e+00	-9.835932e+01
1.140000e-06	-2.275983e-07	-1.383449e-09	-1.650545e+00	-9.231042e+01
1.150000e-06	-1.565031e-07	-1.286880e-09	-1.134962e+00	-8.599308e+01
1.160000e-06	-8.537826e-08	-1.182836e-09	-6.191639e-01	-7.939782e+01
1.170000e-06	-1.427343e-08	-1.072004e-09	-1.035111e-01	-7.251827e+01
1.180000e-06	5.679458e-08	-9.623300e-10	4.118748e-01	-6.535181e+01
1.190000e-06	1.278069e-07	-8.545235e-10	9.268568e-01	-5.790027e+01
1.200000e-06	1.987266e-07	-7.413794e-10	1.441167e+00	-5.017032e+01
1.210000e-06	2.696423e-07	-6.199905e-10	1.955448e+00	-4.217389e+01
1.220000e-06	3.405173e-07	-4.940260e-10	2.469435e+00	-3.392826e+01
1.230000e-06	4.112771e-07	-3.664089e-10	2.982585e+00	-2.545598e+01
1.240000e-06	4.819732e-07	-2.343713e-10	3.495274e+00	-1.678470e+01
1.250000e-06	5.526157e-07	-9.825331e-11	4.007574e+00	-7.946617e+00
1.260000e-06	6.230843e-07	3.914544e-11	4.518613e+00	1.022072e+00
1.270000e-06	6.934166e-07	1.774239e-10	5.028664e+00	1.008199e+01
1.280000e-06	7.636609e-07	3.140701e-10	5.538076e+00	1.919149e+01
1.290000e-06	8.337971e-07	4.507731e-10	6.046705e+00	2.830761e+01
1.300000e-06	9.037683e-07	5.878424e-10	6.554136e+00	3.738710e+01
1.310000e-06	9.734735e-07	7.260491e-10	7.059639e+00	4.638747e+01
1.320000e-06	1.043016e-06	8.624275e-10	7.563959e+00	5.526794e+01
1.330000e-06	1.112426e-06	9.953928e-10	8.067321e+00	6.399032e+01
1.340000e-06	1.181582e-06	1.127311e-09	8.568846e+00	7.251981e+01
1.350000e-06	1.250494e-06	1.256872e-09	9.068594e+00	8.082561e+01
1.360000e-06	1.319249e-06	1.380804e-09	9.567206e+00	8.888140e+01
1.370000e-06	1.387778e-06	1.496534e-09	1.006418e+01	9.666564e+01
1.380000e-06	1.456076e-06	1.606596e-09	1.055948e+01	1.041617e+02
1.390000e-06	1.524198e-06	1.712698e-09	1.105350e+01	1.113578e+02
1.400000e-06	1.592151e-06	1.814617e-09	1.154629e+01	1.182470e+02
1.410000e-06	1.659882e-06	1.912993e-09	1.203748e+01	1.248265e+02
1.420000e-06	1.727372e-06	2.006994e-09	1.252691e+01	1.310976e+02
1.430000e-06	1.794646e-06	2.095321e-09	1.301479e+01	1.370652e+02
1.440000e-06	1.861668e-06	2.181555e-09	1.350084e+01	1.427371e+02
1.450000e-06	1.928373e-06	2.265188e-09	1.398458e+01	1.481234e+02
1.460000e-06	1.994701e-06	2.344041e-09	1.446559e+01	1.532361e+02
1.470000e-06	2.060518e-06	2.417080e-09	1.494289e+01	1.580886e+02
1.480000e-06	2.125739e-06	2.485673e-09	1.541588e+01	1.626951e+02
1.490000e-06	2.190459e-06	2.551031e-09	1.588523e+01	1.670702e+02
1.500000e-06	2.254740e-06	2.613389e-09	1.635139e+01	1.712286e+02
1.510000e-06	2.318611e-06	2.672387e-09	1.681459e+01	1.751847e+02
1.520000e-06	2.382140e-06	2.726013e-09	1.727530e+01	1.789525e+02
1.530000e-06	2.445343e-06	2.778091e-09	1.773365e+01	1.825451e+02
1.540000e-06	2.508196e-06	2.830262e-09	1.818946e+01	1.859752e+02
1.550000e-06	2.570648e-06	2.878769e-09	1.864237e+01	1.892544e+02
1.560000e-06	2.632616e-06	2.924809e-09	1.909176e+01	1.923933e+02
1.570000e-06	2.694107e-06	2.969311e-09	1.953769e+01	1.954019e+02
1.580000e-06	2.755162e-06	3.011735e-09	1.998046e+01	1.982889e+02
1.590000e-06	2.815783e-06	3.052294e-09	2.042008e+01	2.010624e+02
1.600000e-06	2.875950e-06	3.090645e-09	2.085642e+01	2.037296e+02
1.610000e-06	2.935686e-06	3.126231e-09	2.128962e+01	2.062968e+02
1.620000e-06	2.994983e-06	3.160414e-09	2.171964e+01	2.087696e+02
1.630000e-06	3.053726e-06	3.195737e-09	2.214565e+01	2.111527e+02
1.640000e-06	3.111760e-06	3.230948e-09	2.256652e+01	2.134503e+02
1.650000e-06	3.168928e-06	3.262661e-09	2.298110e+01	2.156661e+02
1.660000e-06	3.225294e-06	3.291668e-09	2.338986e+01	2.178030e+02
1.670000e-06	3.281112e-06	3.321247e-09	2.379465e+01	2.198637e+02
1.680000e-06	3.336514e-06	3.351194e-09	2.419643e+01	2.218505e+02
1.690000e-06	3.391467e-06	3.378771e-09	2.459495e+01	2.237653e+02
1.700000e-06	3.445874e-06	3.403573e-09	2.498951e+01	2.256101e+02
1.710000e-06	3.499675e-06	3.428345e-09	2.537968e+01	2.273868e+02
1.720000e-06	3.552840e-06	3.453799e-09	2.576523e+01	2.290972e+02
1.730000e-06	3.605358e-06	3.478976e-09	2.614609e+01	2.307433e+02
1.740000e-06	3.657223e-06	3.504043e-09	2.652222e+01	2.323275e+02
1.750000e-06	3.708493e-06	3.528658e-09	2.689403e+01	2.338521e+02
1.760000e-06	3.758953e-06	3.551965e-09	2.725996e+01	2.353199e+02
1.770000e-06	3.808340e-06	3.573979e-09	2.761811e+01	2.367339e+02
1.780000e-06	3.856793e-06	3.593922e-09	2.796950e+01	2.380971e+02
1.790000e-06	3.904553e-06	3.612421e-09	2.831586e+01	2.394128e+02
1.800000e-06	3.951759e-06	3.630352e-09	2.865820e+01	2.406843e+02
1.810000e-06	3.998340e-06	3.649195e-09	2.899600e+01	2.419148e+02
1.820000e-06	4.044237e-06	3.670006e-09	2.932884e+01	2.431074e+02
1.830000e-06	4.089455e-06	3.691165e-09	2.965676e+01	2.442649e+02
1.840000e-06	4.133970e-06	3.711545e-09	2.997959e+01	2.453898e+02
1.850000e-06	4.177872e-06	3.730480e-09	3.029797e+01	2.464840e+02
1.860000e-06	4.221257e-06	3.747964e-09	3.061260e+01	2.475491e+02
1.870000e-06	4.263885e-06	3.762386e-09	3.092173e+01	2.485860e+02
1.880000e-06	4.305463e-06	3.775818e-09	3.122326e+01	2.495953e+02
1.890000e-06	4.346012e-06	3.790426e-09	3.151732e+01	2.505770e+02
1.900000e-06	4.385724e-06	3.804834e-09	3.180531e+01	2.515309e+02
1.910000e-06	4.424788e-06	3.818027e-09	3.208860e+01	2.524562e+02
1.920000e-06	4.463180e-06	3.830969e-09	3.236702e+01	2.533523e+02
1.930000e-06	4.500818e-06	3.845025e-09	3.263997e+01	2.542183e+02
1.940000e-06	4.537644e-06	3.859214e-09	3.290704e+01	2.550534e+02
1.950000e-06	4.573711e-06	3.871419e-09	3.316860e+01	2.558570e+02
1.960000e-06	4.609175e-06	3.882655e-09	3.342578e+01	2.566287e+02
1.970000e-06	4.643903e-06	3.894690e-09	3.367763e+01	2.573687e+02
1.980000e-06	4.677587e-06	3.906849e-09	3.392191e+01	2.580772e+02
1.990000e-06	4.710177e-06	3.917504e-09	3.415825e+01	2.587550e+02
2.000000e-06	4.741921e-06	3.926909e-09	3.438846e+01	2.594031e+02
2.010000e-06	4.772960e-06	3.938164e-09	3.461355e+01	2.600228e+02
2.020000e-06	4.803205e-06	3.950029e-09	3.483289e+01	2.606157e+02
2.030000e-06	4.832631e-06	3.960426e-09	3.504628e+01	2.611833e+02
2.040000e-06	4.861247e-06	3.970157e-09	3.525381e+01	2.617272e+02
2.050000e-06	4.889173e-06	3.979513e-09	3.545633e+01	2.622488e+02
2.060000e-06	4.916461e-06	3.987771e-09	3.565422e+01	2.627492e+02
2.070000e-06	4.942764e-06	3.994404e-09	3.584497e+01	2.632294e+02
2.080000e-06	4.967858e-06	4.000595e-09	3.602695e+01	2.636900e+02
2.090000e-06	4.991934e-06	4.006280e-09	3.620155e+01	2.641311e+02
2.100000e-06	5.015180e-06	4.012317e-09	3.637013e+01	2.645526e+02
2.110000e-06	5.037584e-06	4.019460e-09	3.653260e+01	2.649543e+02
2.120000e-06	5.059156e-06	4.025410e-09	3.668905e+01	2.653356e+02
2.130000e-06	5.079926e-06	4.029471e-09	3.683967e+01	2.656961e+02
2.140000e-06	5.099952e-06	4.033368e-09	3.698490e+01	2.660353e+02
2.150000e-06	5.119252e-06	4.037407e-09	3.712486e+01	2.663531e+02
2.160000e-06	5.137729e-06	4.042211e-09	3.725886e+01	2.666495e+02
2.170000e-06	5.155203e-06	4.047663e-09	3.738558e+01	2.669250e+02
2.180000e-06	5.171688e-06	4.052277e-09	3.750513e+01	2.671807e+02
2.190000e-06	5.187313e-06	4.056018e-09	3.761844e+01	2.674180e+02
2.200000e-06	5.201980e-06	4.059927e-09	3.772481e+01	2.676388e+02
2.210000e-06	5.215630e-06	4.064258e-09	3.782379e+01	2.678453e+02
2.220000e-06	5.228392e-06	4.068264e-09	3.791635e+01	2.680400e+02
2.230000e-06	5.240229e-06	4.071779e-09	3.800219e+01	2.682253e+02
2.240000e-06	5.250957e-06	4.075249e-09	3.807999e+01	2.684036e+02
2.250000e-06	5.260485e-06	4.079387e-09	3.814909e+01	2.685769e+02
2.260000e-06	5.268834e-06	4.082858e-09	3.820963e+01	2.687469e+02
2.270000e-06	5.276210e-06	4.085776e-09	3.826313e+01	2.689145e+02
2.280000e-06	5.282756e-06	4.089601e-09	3.831060e+01	2.690796e+02
2.290000e-06	5.288420e-06	4.093421e-09	3.835167e+01	2.692415e+02
2.300000e-06	5.293174e-06	4.096216e-09	3.838614e+01	2.693987e+02
2.310000e-06	5.297128e-06	4.098162e-09	3.841482e+01	2.695485e+02
2.320000e-06	5.300325e-06	4.099077e-09	3.843801e+01	2.696878e+02
2.330000e-06	5.302459e-06	4.101226e-09	3.845348e+01	2.698129e+02
2.340000e-06	5.303358e-06	4.103546e-09	3.846000e+01	2.699197e+02
2.350000e-06	5.303287e-06	4.105371e-09	3.845949e+01	2.700044e+02
2.360000e-06	5.302399e-06	4.106474e-09	3.845304e+01	2.700631e+02
2.370000e-06	5.300682e-06	4.105234e-09	3.844059e+01	2.700928e+02
2.380000e-06	5.298116e-06	4.104258e-09	3.842199e+01	2.700912e+02
2.390000e-06	5.294692e-06	4.103931e-09	3.839716e+01	2.700572e+02
2.400000e-06	5.290592e-06	4.103406e-09	3.836742e+01	2.699909e+02
2.410000e-06	5.285826e-06	4.103392e-09	3.833286e+01	2.698939e+02
2.420000e-06	5.280015e-06	4.110004e-09	3.829072e+01	2.697691e+02
2.430000e-06	5.273048e-06	4.099284e-09	3.824020e+01	2.696208e+02
2.440000e-06	5.265073e-06	4.059345e-09	3.818236e+01	2.694541e+02
2.450000e-06	5.255999e-06	4.031176e-09	3.811655e+01	2.692754e+02
2.460000e-06	5.245627e-06	4.059569e-09	3.804134e+01	2.690914e+02
2.470000e-06	5.234212e-06	4.139133e-09	3.795856e+01	2.689087e+02
2.480000e-06	5.222431e-06	4.137282e-09	3.787312e+01	2.687340e+02
2.490000e-06	5.210153e-06	4.063901e-09	3.778408e+01	2.685730e+02
2.500000e-06	5.196441e-06	4.083121e-09	3.768464e+01	2.684303e+02
2.510000e-06	5.181253e-06	4.053246e-09	3.757449e+01	2.683091e+02
2.520000e-06	5.165398e-06	4.101583e-09	3.745951e+01	2.682108e+02
2.530000e-06	5.148866e-06	4.172481e-09	3.733962e+01	2.681349e+02
2.540000e-06	5.131245e-06	4.028641e-09	3.721184e+01	2.680789e+02
2.550000e-06	5.112795e-06	3.976880e-09	3.707804e+01	2.680386e+02
2.560000e-06	5.093805e-06	4.097910e-09	3.694032e+01	2.680077e+02
2.570000e-06	5.074105e-06	4.108877e-09	3.679746e+01	2.679787e+02
2.580000e-06	5.053446e-06	4.047889e-09	3.664763e+01	2.679429e+02
2.590000e-06	5.031614e-06	4.144282e-09	3.648931e+01	2.678909e+02
2.600000e-06	5.008559e-06	4.151340e-09	3.632212e+01	2.678132e+02
2.610000e-06	4.984500e-06	4.107882e-09	3.614764e+01	2.677007e+02
2.620000e-06	4.959575e-06	4.142328e-09	3.596688e+01	2.675449e+02
2.630000e-06	4.933929e-06	4.075860e-09	3.578090e+01	2.673386e+02
2.640000e-06	4.907609e-06	4.071240e-09	3.559003e+01	2.670763e+02
2.650000e-06	4.880436e-06	4.111079e-09	3.539297e+01	2.667541e+02
2.660000e-06	4.852504e-06	4.071470e-09	3.519040e+01	2.663703e+02
2.670000e-06	4.823782e-06	4.091468e-09	3.498211e+01	2.659251e+02
2.680000e-06	4.793799e-06	4.056088e-09	3.476467e+01	2.654207e+02
2.690000e-06	4.762513e-06	4.006356e-09	3.453779e+01	2.648609e+02
2.700000e-06	4.730441e-06	4.089491e-09	3.430520e+01	2.642510e+02
2.710000e-06	4.697707e-06	4.062016e-09	3.406781e+01	2.635974e+02
2.720000e-06	4.664097e-06	3.971594e-09	3.382408e+01	2.629070e+02
2.730000e-06	4.629682e-06	4.002199e-09	3.357449e+01	2.621869e+02
2.740000e-06	4.594571e-06	4.022078e-09	3.331987e+01	2.614439e+02
2.750000e-06	4.558779e-06	3.988891e-09	3.306030e+01	2.606843e+02
2.760000e-06	4.522234e-06	3.952571e-09	3.279528e+01	2.599133e+02
2.770000e-06	4.484828e-06	3.967965e-09	3.252401e+01	2.591346e+02
2.780000e-06	4.446422e-06	3.974086e-09	3.224549e+01	2.583507e+02
2.790000e-06	4.407061e-06	3.921804e-09	3.196005e+01	2.575627e+02
2.800000e-06	4.366916e-06	3.929525e-09	3.166892e+01	2.567699e+02
2.810000e-06	4.326106e-06	3.937647e-09	3.137296e+01	2.559706e+02
2.820000e-06	4.284668e-06	3.905055e-09	3.107245e+01	2.551619e+02
2.830000e-06	4.242497e-06	3.884669e-09	3.076663e+01	2.543398e+02
2.840000e-06	4.199633e-06	3.870429e-09	3.045578e+01	2.535003e+02
2.850000e-06	4.156126e-06	3.872568e-09	3.014026e+01	2.526387e+02
2.860000e-06	4.112105e-06	3.845766e-09	2.982102e+01	2.517508e+02
2.870000e-06	4.067598e-06	3.826234e-09	2.949826e+01	2.508327e+02
2.880000e-06	4.022366e-06	3.831512e-09	2.917024e+01	2.498812e+02
2.890000e-06	3.976238e-06	3.795976e-09	2.883571e+01	2.488938e+02
2.900000e-06	3.929270e-06	3.778488e-09	2.849511e+01	2.478691e+02
2.910000e-06	3.881718e-06	3.783552e-09	2.815026e+01	2.468064e+02
2.920000e-06	3.833503e-06	3.766773e-09	2.780060e+01	2.457061e+02
2.930000e-06	3.784408e-06	3.727401e-09	2.744456e+01	2.445691e+02
2.940000e-06	3.734593e-06	3.705147e-09	2.708330e+01	2.433969e+02
2.950000e-06	3.684209e-06	3.717511e-09	2.671792e+01	2.421913e+02
