# Temperatura_=_20.0
# Concentracion g/m^3_=_9000.0
# C_Vs_to_Am_M_A/Vsm_=_65563218390.804596
# pendiente_HvsI_1/m_=_3716.3
# ordenada_HvsI_A/m_=_1297.0
# frecuencia_Hz_=_213030.33601500344

Tiempo_(s)	Campo_(V.s)	Magnetizacion_(V.s)	Campo_(kA/m)	Magnetizacion_(A/m)
0.000000e+00	-2.636912e-06	-2.802618e-09	-1.982408e+01	-1.840054e+02
1.000000e-08	-2.637008e-06	-2.803836e-09	-1.982480e+01	-1.840527e+02
2.000000e-08	-2.636738e-06	-2.803849e-09	-1.982277e+01	-1.840793e+02
3.000000e-08	-2.635919e-06	-2.802107e-09	-1.981661e+01	-1.840863e+02
4.000000e-08	-2.634425e-06	-2.800585e-09	-1.980538e+01	-1.840751e+02
5.000000e-08	-2.632145e-06	-2.801298e-09	-1.978825e+01	-1.840470e+02
6.000000e-08	-2.629217e-06	-2.810468e-09	-1.976623e+01	-1.840038e+02
7.000000e-08	-2.625910e-06	-2.803141e-09	-1.974137e+01	-1.839472e+02
8.000000e-08	-2.622236e-06	-2.755252e-09	-1.971375e+01	-1.838787e+02
9.000000e-08	-2.618135e-06	-2.779919e-09	-1.968291e+01	-1.837999e+02
1.000000e-07	-2.613640e-06	-2.843272e-09	-1.964912e+01	-1.837124e+02
1.100000e-07	-2.608747e-06	-2.823453e-09	-1.961234e+01	-1.836171e+02
1.200000e-07	-2.603456e-06	-2.737797e-09	-1.957256e+01	-1.835148e+02
1.300000e-07	-2.597816e-06	-2.747260e-09	-1.953016e+01	-1.834060e+02
1.400000e-07	-2.591708e-06	-2.809334e-09	-1.948424e+01	-1.832905e+02
1.500000e-07	-2.585032e-06	-2.815325e-09	-1.943405e+01	-1.831677e+02
1.600000e-07	-2.577893e-06	-2.773889e-09	-1.938038e+01	-1.830367e+02
1.700000e-07	-2.570439e-06	-2.739592e-09	-1.932434e+01	-1.828959e+02
1.800000e-07	-2.562618e-06	-2.727117e-09	-1.926555e+01	-1.827435e+02
1.900000e-07	-2.554288e-06	-2.780445e-09	-1.920292e+01	-1.825774e+02
2.000000e-07	-2.545599e-06	-2.847759e-09	-1.913760e+01	-1.823952e+02
2.100000e-07	-2.536484e-06	-2.766205e-09	-1.906907e+01	-1.821945e+02
2.200000e-07	-2.526646e-06	-2.667454e-09	-1.899511e+01	-1.819730e+02
2.300000e-07	-2.516125e-06	-2.758655e-09	-1.891602e+01	-1.817285e+02
2.400000e-07	-2.504981e-06	-2.901567e-09	-1.883223e+01	-1.814591e+02
2.500000e-07	-2.493240e-06	-2.765399e-09	-1.874396e+01	-1.811633e+02
2.600000e-07	-2.481009e-06	-2.626052e-09	-1.865201e+01	-1.808401e+02
2.700000e-07	-2.468342e-06	-2.742389e-09	-1.855679e+01	-1.804889e+02
2.800000e-07	-2.455221e-06	-2.838056e-09	-1.845814e+01	-1.801100e+02
2.900000e-07	-2.441604e-06	-2.712244e-09	-1.835577e+01	-1.797038e+02
3.000000e-07	-2.427509e-06	-2.654989e-09	-1.824981e+01	-1.792715e+02
3.100000e-07	-2.412867e-06	-2.738217e-09	-1.813973e+01	-1.788146e+02
3.200000e-07	-2.397501e-06	-2.718039e-09	-1.802421e+01	-1.783351e+02
3.300000e-07	-2.381485e-06	-2.678957e-09	-1.790380e+01	-1.778350e+02
3.400000e-07	-2.364977e-06	-2.717416e-09	-1.777970e+01	-1.773165e+02
3.500000e-07	-2.348093e-06	-2.688941e-09	-1.765276e+01	-1.767818e+02
3.600000e-07	-2.330918e-06	-2.610791e-09	-1.752364e+01	-1.762329e+02
3.700000e-07	-2.313423e-06	-2.679263e-09	-1.739212e+01	-1.756714e+02
3.800000e-07	-2.295583e-06	-2.737977e-09	-1.725800e+01	-1.750987e+02
3.900000e-07	-2.277350e-06	-2.619506e-09	-1.712092e+01	-1.745156e+02
4.000000e-07	-2.258649e-06	-2.558988e-09	-1.698033e+01	-1.739224e+02
4.100000e-07	-2.239518e-06	-2.675071e-09	-1.683650e+01	-1.733190e+02
4.200000e-07	-2.220099e-06	-2.697138e-09	-1.669052e+01	-1.727046e+02
4.300000e-07	-2.200466e-06	-2.562855e-09	-1.654291e+01	-1.720782e+02
4.400000e-07	-2.180632e-06	-2.545176e-09	-1.639381e+01	-1.714384e+02
4.500000e-07	-2.160549e-06	-2.642869e-09	-1.624283e+01	-1.707833e+02
4.600000e-07	-2.140161e-06	-2.616695e-09	-1.608955e+01	-1.701111e+02
4.700000e-07	-2.119369e-06	-2.526233e-09	-1.593323e+01	-1.694200e+02
4.800000e-07	-2.098148e-06	-2.548493e-09	-1.577370e+01	-1.687082e+02
4.900000e-07	-2.076606e-06	-2.576689e-09	-1.561175e+01	-1.679740e+02
5.000000e-07	-2.054736e-06	-2.525067e-09	-1.544733e+01	-1.672161e+02
5.100000e-07	-2.032424e-06	-2.515037e-09	-1.527960e+01	-1.664337e+02
5.200000e-07	-2.009682e-06	-2.533834e-09	-1.510862e+01	-1.656262e+02
5.300000e-07	-1.986613e-06	-2.485395e-09	-1.493519e+01	-1.647934e+02
5.400000e-07	-1.963297e-06	-2.460681e-09	-1.475990e+01	-1.639355e+02
5.500000e-07	-1.939773e-06	-2.499438e-09	-1.458305e+01	-1.630531e+02
5.600000e-07	-1.916029e-06	-2.476460e-09	-1.440454e+01	-1.621469e+02
5.700000e-07	-1.892025e-06	-2.406673e-09	-1.422408e+01	-1.612180e+02
5.800000e-07	-1.867670e-06	-2.413680e-09	-1.404098e+01	-1.602672e+02
5.900000e-07	-1.842793e-06	-2.446322e-09	-1.385396e+01	-1.592954e+02
6.000000e-07	-1.817320e-06	-2.405619e-09	-1.366245e+01	-1.583035e+02
6.100000e-07	-1.791304e-06	-2.351459e-09	-1.346687e+01	-1.572917e+02
6.200000e-07	-1.764838e-06	-2.358084e-09	-1.326790e+01	-1.562604e+02
6.300000e-07	-1.737950e-06	-2.370470e-09	-1.306576e+01	-1.552091e+02
6.400000e-07	-1.710690e-06	-2.334125e-09	-1.286082e+01	-1.541372e+02
6.500000e-07	-1.683215e-06	-2.297613e-09	-1.265427e+01	-1.530437e+02
6.600000e-07	-1.655595e-06	-2.294505e-09	-1.244662e+01	-1.519269e+02
6.700000e-07	-1.627784e-06	-2.282055e-09	-1.223754e+01	-1.507853e+02
6.800000e-07	-1.599737e-06	-2.251489e-09	-1.202669e+01	-1.496169e+02
6.900000e-07	-1.571452e-06	-2.237370e-09	-1.181404e+01	-1.484195e+02
7.000000e-07	-1.542895e-06	-2.222555e-09	-1.159935e+01	-1.471912e+02
7.100000e-07	-1.514071e-06	-2.188702e-09	-1.138266e+01	-1.459300e+02
7.200000e-07	-1.484968e-06	-2.170054e-09	-1.116387e+01	-1.446342e+02
7.300000e-07	-1.455597e-06	-2.165389e-09	-1.094306e+01	-1.433025e+02
7.400000e-07	-1.425987e-06	-2.132922e-09	-1.072045e+01	-1.419338e+02
7.500000e-07	-1.396179e-06	-2.095018e-09	-1.049635e+01	-1.405278e+02
7.600000e-07	-1.366209e-06	-2.087514e-09	-1.027104e+01	-1.390842e+02
7.700000e-07	-1.336047e-06	-2.075451e-09	-1.004429e+01	-1.376035e+02
7.800000e-07	-1.305624e-06	-2.034985e-09	-9.815571e+00	-1.360863e+02
7.900000e-07	-1.274904e-06	-2.003311e-09	-9.584622e+00	-1.345339e+02
8.000000e-07	-1.243979e-06	-1.993319e-09	-9.352130e+00	-1.329473e+02
8.100000e-07	-1.212899e-06	-1.971769e-09	-9.118476e+00	-1.313281e+02
8.200000e-07	-1.181667e-06	-1.936236e-09	-8.883672e+00	-1.296776e+02
8.300000e-07	-1.150266e-06	-1.911159e-09	-8.647600e+00	-1.279970e+02
8.400000e-07	-1.118714e-06	-1.894033e-09	-8.410396e+00	-1.262872e+02
8.500000e-07	-1.087035e-06	-1.867549e-09	-8.172238e+00	-1.245487e+02
8.600000e-07	-1.055258e-06	-1.834149e-09	-7.933337e+00	-1.227816e+02
8.700000e-07	-1.023350e-06	-1.804685e-09	-7.693462e+00	-1.209854e+02
8.800000e-07	-9.912515e-07	-1.777294e-09	-7.452145e+00	-1.191592e+02
8.900000e-07	-9.590097e-07	-1.749153e-09	-7.209754e+00	-1.173013e+02
9.000000e-07	-9.265528e-07	-1.722172e-09	-6.965745e+00	-1.154096e+02
9.100000e-07	-8.938462e-07	-1.692123e-09	-6.719860e+00	-1.134816e+02
9.200000e-07	-8.608977e-07	-1.656218e-09	-6.472156e+00	-1.115142e+02
9.300000e-07	-8.276960e-07	-1.623883e-09	-6.222548e+00	-1.095043e+02
9.400000e-07	-7.943090e-07	-1.597672e-09	-5.971548e+00	-1.074485e+02
9.500000e-07	-7.607495e-07	-1.564633e-09	-5.719250e+00	-1.053433e+02
9.600000e-07	-7.269901e-07	-1.525200e-09	-5.465450e+00	-1.031855e+02
9.700000e-07	-6.930131e-07	-1.492480e-09	-5.210013e+00	-1.009718e+02
9.800000e-07	-6.587866e-07	-1.464218e-09	-4.952702e+00	-9.869956e+01
9.900000e-07	-6.243441e-07	-1.427039e-09	-4.693766e+00	-9.636626e+01
1.000000e-06	-5.897274e-07	-1.385233e-09	-4.433520e+00	-9.396990e+01
1.010000e-06	-5.548576e-07	-1.350239e-09	-4.171373e+00	-9.150897e+01
1.020000e-06	-5.197688e-07	-1.316990e-09	-3.907578e+00	-8.898238e+01
1.030000e-06	-4.846077e-07	-1.276077e-09	-3.643239e+00	-8.638952e+01
1.040000e-06	-4.493839e-07	-1.231309e-09	-3.378430e+00	-8.373017e+01
1.050000e-06	-4.140230e-07	-1.190827e-09	-3.112590e+00	-8.100446e+01
1.060000e-06	-3.785992e-07	-1.151698e-09	-2.846277e+00	-7.821277e+01
1.070000e-06	-3.431692e-07	-1.111351e-09	-2.579917e+00	-7.535571e+01
1.080000e-06	-3.076899e-07	-1.068463e-09	-2.313186e+00	-7.243399e+01
1.090000e-06	-2.722090e-07	-1.021710e-09	-2.046444e+00	-6.944837e+01
1.100000e-06	-2.367395e-07	-9.746693e-10	-1.779788e+00	-6.639961e+01
1.110000e-06	-2.012425e-07	-9.300356e-10	-1.512924e+00	-6.328844e+01
1.120000e-06	-1.657080e-07	-8.851152e-10	-1.245779e+00	-6.011550e+01
1.130000e-06	-1.301502e-07	-8.333374e-10	-9.784583e-01	-5.688139e+01
1.140000e-06	-9.458810e-08	-7.783701e-10	-7.111053e-01	-5.358665e+01
1.150000e-06	-5.902366e-08	-7.290244e-10	-4.437349e-01	-5.023184e+01
1.160000e-06	-2.348527e-08	-6.809940e-10	-1.765603e-01	-4.681758e+01
1.170000e-06	1.206186e-08	-6.271837e-10	9.068007e-02	-4.334462e+01
1.180000e-06	4.763777e-08	-5.710765e-10	3.581368e-01	-3.981395e+01
1.190000e-06	8.318270e-08	-5.197472e-10	6.253605e-01	-3.622687e+01
1.200000e-06	1.187288e-07	-4.690863e-10	8.925927e-01	-3.258507e+01
1.210000e-06	1.542946e-07	-4.139549e-10	1.159973e+00	-2.889072e+01
1.220000e-06	1.898413e-07	-3.566185e-10	1.427211e+00	-2.514656e+01
1.230000e-06	2.253756e-07	-3.009877e-10	1.694355e+00	-2.135589e+01
1.240000e-06	2.608839e-07	-2.480922e-10	1.961303e+00	-1.752268e+01
1.250000e-06	2.963835e-07	-1.928575e-10	2.228186e+00	-1.365151e+01
1.260000e-06	3.318408e-07	-1.342301e-10	2.494751e+00	-9.747576e+00
1.270000e-06	3.672403e-07	-7.378973e-11	2.760881e+00	-5.816657e+00
1.280000e-06	4.025940e-07	-1.475485e-11	3.026668e+00	-1.865042e+00
1.290000e-06	4.378469e-07	4.249316e-11	3.291696e+00	2.100559e+00
1.300000e-06	4.730165e-07	1.024456e-10	3.556098e+00	6.073117e+00
1.310000e-06	5.081415e-07	1.639507e-10	3.820165e+00	1.004540e+01
1.320000e-06	5.431792e-07	2.234176e-10	4.083575e+00	1.401012e+01
1.330000e-06	5.780956e-07	2.801284e-10	4.346074e+00	1.796002e+01
1.340000e-06	6.129475e-07	3.387868e-10	4.608087e+00	2.188807e+01
1.350000e-06	6.476169e-07	4.001183e-10	4.868729e+00	2.578753e+01
1.360000e-06	6.820315e-07	4.590389e-10	5.127455e+00	2.965214e+01
1.370000e-06	7.162388e-07	5.150607e-10	5.384623e+00	3.347615e+01
1.380000e-06	7.502194e-07	5.720857e-10	5.640086e+00	3.725446e+01
1.390000e-06	7.839676e-07	6.289970e-10	5.893802e+00	4.098265e+01
1.400000e-06	8.173973e-07	6.826860e-10	6.145124e+00	4.465706e+01
1.410000e-06	8.505791e-07	7.342624e-10	6.394582e+00	4.827479e+01
1.420000e-06	8.835846e-07	7.858034e-10	6.642714e+00	5.183369e+01
1.430000e-06	9.163267e-07	8.370196e-10	6.888866e+00	5.533236e+01
1.440000e-06	9.488433e-07	8.869303e-10	7.133324e+00	5.877010e+01
1.450000e-06	9.811359e-07	9.363490e-10	7.376097e+00	6.214682e+01
1.460000e-06	1.013199e-06	9.864247e-10	7.617146e+00	6.546298e+01
1.470000e-06	1.045125e-06	1.035582e-09	7.857158e+00	6.871952e+01
1.480000e-06	1.076952e-06	1.084036e-09	8.096431e+00	7.191768e+01
1.490000e-06	1.108657e-06	1.131518e-09	8.334791e+00	7.505897e+01
1.500000e-06	1.140260e-06	1.176090e-09	8.572375e+00	7.814504e+01
1.510000e-06	1.171781e-06	1.221182e-09	8.809347e+00	8.117752e+01
1.520000e-06	1.203179e-06	1.267839e-09	9.045399e+00	8.415800e+01
1.530000e-06	1.234439e-06	1.312640e-09	9.280406e+00	8.708787e+01
1.540000e-06	1.265498e-06	1.353924e-09	9.513908e+00	8.996829e+01
1.550000e-06	1.296258e-06	1.394841e-09	9.745158e+00	9.280010e+01
1.560000e-06	1.326730e-06	1.436245e-09	9.974245e+00	9.558380e+01
1.570000e-06	1.356913e-06	1.475956e-09	1.020116e+01	9.831954e+01
1.580000e-06	1.386877e-06	1.514859e-09	1.042643e+01	1.010071e+02
1.590000e-06	1.416668e-06	1.553497e-09	1.065039e+01	1.036459e+02
1.600000e-06	1.446227e-06	1.591111e-09	1.087261e+01	1.062350e+02
1.610000e-06	1.475578e-06	1.629779e-09	1.109327e+01	1.087734e+02
1.620000e-06	1.504733e-06	1.667523e-09	1.131245e+01	1.112597e+02
1.630000e-06	1.533590e-06	1.702309e-09	1.152940e+01	1.136927e+02
1.640000e-06	1.562108e-06	1.736313e-09	1.174380e+01	1.160709e+02
1.650000e-06	1.590410e-06	1.770499e-09	1.195657e+01	1.183930e+02
1.660000e-06	1.618486e-06	1.804190e-09	1.216764e+01	1.206579e+02
1.670000e-06	1.646345e-06	1.836238e-09	1.237708e+01	1.228647e+02
1.680000e-06	1.674034e-06	1.866907e-09	1.258525e+01	1.250130e+02
1.690000e-06	1.701584e-06	1.897553e-09	1.279236e+01	1.271026e+02
1.700000e-06	1.728979e-06	1.928132e-09	1.299832e+01	1.291336e+02
1.710000e-06	1.756133e-06	1.957978e-09	1.320246e+01	1.311067e+02
1.720000e-06	1.782903e-06	1.987294e-09	1.340372e+01	1.330230e+02
1.730000e-06	1.809136e-06	2.015983e-09	1.360093e+01	1.348837e+02
1.740000e-06	1.834766e-06	2.043165e-09	1.379362e+01	1.366907e+02
1.750000e-06	1.859780e-06	2.068592e-09	1.398166e+01	1.384459e+02
1.760000e-06	1.884307e-06	2.093824e-09	1.416606e+01	1.401515e+02
1.770000e-06	1.908512e-06	2.120760e-09	1.434803e+01	1.418097e+02
1.780000e-06	1.932439e-06	2.147938e-09	1.452792e+01	1.434226e+02
1.790000e-06	1.956111e-06	2.173211e-09	1.470588e+01	1.449926e+02
1.800000e-06	1.979549e-06	2.196829e-09	1.488208e+01	1.465216e+02
1.810000e-06	2.002634e-06	2.219389e-09	1.505563e+01	1.480113e+02
1.820000e-06	2.025323e-06	2.240346e-09	1.522621e+01	1.494633e+02
1.830000e-06	2.047621e-06	2.260278e-09	1.539384e+01	1.508787e+02
1.840000e-06	2.069580e-06	2.282331e-09	1.555893e+01	1.522584e+02
1.850000e-06	2.091272e-06	2.304813e-09	1.572201e+01	1.536030e+02
1.860000e-06	2.112619e-06	2.324921e-09	1.588249e+01	1.549126e+02
1.870000e-06	2.133538e-06	2.345273e-09	1.603976e+01	1.561872e+02
1.880000e-06	2.154068e-06	2.366266e-09	1.619410e+01	1.574267e+02
1.890000e-06	2.174298e-06	2.385979e-09	1.634619e+01	1.586308e+02
1.900000e-06	2.194276e-06	2.404238e-09	1.649638e+01	1.597990e+02
1.910000e-06	2.214033e-06	2.420247e-09	1.664491e+01	1.609309e+02
1.920000e-06	2.233483e-06	2.436984e-09	1.679113e+01	1.620265e+02
1.930000e-06	2.252610e-06	2.455232e-09	1.693493e+01	1.630854e+02
1.940000e-06	2.271370e-06	2.472512e-09	1.707597e+01	1.641079e+02
1.950000e-06	2.289665e-06	2.486401e-09	1.721351e+01	1.650942e+02
1.960000e-06	2.307498e-06	2.500656e-09	1.734757e+01	1.660450e+02
1.970000e-06	2.324880e-06	2.517794e-09	1.747825e+01	1.669611e+02
1.980000e-06	2.341880e-06	2.533560e-09	1.760606e+01	1.678437e+02
1.990000e-06	2.358621e-06	2.546442e-09	1.773191e+01	1.686940e+02
2.000000e-06	2.375081e-06	2.558560e-09	1.785566e+01	1.695135e+02
2.010000e-06	2.391051e-06	2.572791e-09	1.797572e+01	1.703039e+02
2.020000e-06	2.406444e-06	2.586576e-09	1.809144e+01	1.710667e+02
2.030000e-06	2.421305e-06	2.598321e-09	1.820317e+01	1.718036e+02
2.040000e-06	2.435583e-06	2.608358e-09	1.831051e+01	1.725161e+02
2.050000e-06	2.449295e-06	2.617563e-09	1.841359e+01	1.732056e+02
2.060000e-06	2.462616e-06	2.627954e-09	1.851374e+01	1.738735e+02
2.070000e-06	2.475514e-06	2.638589e-09	1.861070e+01	1.745207e+02
2.080000e-06	2.487962e-06	2.648567e-09	1.870429e+01	1.751481e+02
2.090000e-06	2.500063e-06	2.658518e-09	1.879526e+01	1.757563e+02
2.100000e-06	2.511746e-06	2.668404e-09	1.888310e+01	1.763457e+02
2.110000e-06	2.522982e-06	2.677187e-09	1.896757e+01	1.769164e+02
2.120000e-06	2.533626e-06	2.685003e-09	1.904759e+01	1.774685e+02
2.130000e-06	2.543556e-06	2.692285e-09	1.912224e+01	1.780018e+02
2.140000e-06	2.552881e-06	2.699479e-09	1.919235e+01	1.785161e+02
2.150000e-06	2.561550e-06	2.707866e-09	1.925752e+01	1.790111e+02
2.160000e-06	2.569651e-06	2.717129e-09	1.931842e+01	1.794864e+02
2.170000e-06	2.577382e-06	2.725546e-09	1.937654e+01	1.799418e+02
2.180000e-06	2.584807e-06	2.731714e-09	1.943236e+01	1.803769e+02
2.190000e-06	2.591893e-06	2.737301e-09	1.948563e+01	1.807915e+02
2.200000e-06	2.598512e-06	2.744404e-09	1.953539e+01	1.811853e+02
2.210000e-06	2.604649e-06	2.753411e-09	1.958153e+01	1.815580e+02
2.220000e-06	2.610334e-06	2.760793e-09	1.962427e+01	1.819096e+02
2.230000e-06	2.615577e-06	2.766461e-09	1.966368e+01	1.822398e+02
2.240000e-06	2.620384e-06	2.770617e-09	1.969983e+01	1.825485e+02
2.250000e-06	2.624799e-06	2.773729e-09	1.973302e+01	1.828354e+02
2.260000e-06	2.628842e-06	2.779205e-09	1.976341e+01	1.831005e+02
2.270000e-06	2.632539e-06	2.784629e-09	1.979121e+01	1.833435e+02
2.280000e-06	2.635926e-06	2.788394e-09	1.981666e+01	1.835641e+02
2.290000e-06	2.638889e-06	2.791798e-09	1.983894e+01	1.837622e+02
2.300000e-06	2.641228e-06	2.796275e-09	1.985653e+01	1.839376e+02
2.310000e-06	2.642829e-06	2.801891e-09	1.986856e+01	1.840901e+02
2.320000e-06	2.643770e-06	2.805778e-09	1.987564e+01	1.842198e+02
2.330000e-06	2.644151e-06	2.808469e-09	1.987850e+01	1.843267e+02
2.340000e-06	2.644110e-06	2.810854e-09	1.987820e+01	1.844112e+02
2.350000e-06	2.643779e-06	2.813882e-09	1.987571e+01	1.844736e+02
2.360000e-06	2.643074e-06	2.815143e-09	1.987041e+01	1.845147e+02
2.370000e-06	2.641916e-06	2.814412e-09	1.986170e+01	1.845355e+02
2.380000e-06	2.640316e-06	2.817260e-09	1.984967e+01	1.845370e+02
2.390000e-06	2.638316e-06	2.817743e-09	1.983463e+01	1.845207e+02
2.400000e-06	2.635943e-06	2.806561e-09	1.981679e+01	1.844881e+02
2.410000e-06	2.633148e-06	2.805354e-09	1.979579e+01	1.844409e+02
2.420000e-06	2.629897e-06	2.852903e-09	1.977134e+01	1.843806e+02
2.430000e-06	2.626186e-06	2.832584e-09	1.974344e+01	1.843091e+02
2.440000e-06	2.622088e-06	2.777192e-09	1.971264e+01	1.842277e+02
2.450000e-06	2.617731e-06	2.799535e-09	1.967988e+01	1.841379e+02
2.460000e-06	2.612946e-06	2.857276e-09	1.964391e+01	1.840406e+02
2.470000e-06	2.607548e-06	2.843260e-09	1.960332e+01	1.839365e+02
2.480000e-06	2.601599e-06	2.804793e-09	1.955860e+01	1.838259e+02
2.490000e-06	2.595108e-06	2.801215e-09	1.950981e+01	1.837084e+02
2.500000e-06	2.588078e-06	2.812683e-09	1.945695e+01	1.835835e+02
2.510000e-06	2.580562e-06	2.837902e-09	1.940044e+01	1.834499e+02
2.520000e-06	2.572624e-06	2.861879e-09	1.934077e+01	1.833060e+02
2.530000e-06	2.564292e-06	2.808379e-09	1.927813e+01	1.831498e+02
2.540000e-06	2.555466e-06	2.735361e-09	1.921178e+01	1.829793e+02
2.550000e-06	2.546119e-06	2.809078e-09	1.914151e+01	1.827920e+02
2.560000e-06	2.536418e-06	2.896973e-09	1.906858e+01	1.825855e+02
2.570000e-06	2.526342e-06	2.791745e-09	1.899282e+01	1.823574e+02
2.580000e-06	2.515750e-06	2.672182e-09	1.891320e+01	1.821058e+02
2.590000e-06	2.504773e-06	2.808762e-09	1.883067e+01	1.818288e+02
2.600000e-06	2.493371e-06	2.897378e-09	1.874495e+01	1.815250e+02
2.610000e-06	2.481448e-06	2.740639e-09	1.865532e+01	1.811935e+02
2.620000e-06	2.469061e-06	2.678084e-09	1.856219e+01	1.808342e+02
2.630000e-06	2.456146e-06	2.823921e-09	1.846510e+01	1.804471e+02
2.640000e-06	2.442641e-06	2.816216e-09	1.836356e+01	1.800331e+02
2.650000e-06	2.428498e-06	2.690552e-09	1.825724e+01	1.795934e+02
2.660000e-06	2.413660e-06	2.747027e-09	1.814569e+01	1.791297e+02
2.670000e-06	2.398174e-06	2.792431e-09	1.802927e+01	1.786439e+02
2.680000e-06	2.382247e-06	2.685184e-09	1.790953e+01	1.781383e+02
2.690000e-06	2.365993e-06	2.693876e-09	1.778733e+01	1.776149e+02
2.700000e-06	2.349444e-06	2.789660e-09	1.766292e+01	1.770759e+02
2.710000e-06	2.332558e-06	2.697333e-09	1.753597e+01	1.765232e+02
2.720000e-06	2.315246e-06	2.613188e-09	1.740583e+01	1.759584e+02
2.730000e-06	2.297512e-06	2.730946e-09	1.727250e+01	1.753826e+02
2.740000e-06	2.279394e-06	2.757120e-09	1.713629e+01	1.747966e+02
2.750000e-06	2.260951e-06	2.616811e-09	1.699764e+01	1.742006e+02
2.760000e-06	2.242115e-06	2.600852e-09	1.685603e+01	1.735941e+02
2.770000e-06	2.222872e-06	2.701393e-09	1.671137e+01	1.729764e+02
2.780000e-06	2.203279e-06	2.674489e-09	1.656406e+01	1.723463e+02
2.790000e-06	2.183396e-06	2.575616e-09	1.641458e+01	1.717023e+02
2.800000e-06	2.163292e-06	2.595322e-09	1.626345e+01	1.710424e+02
2.810000e-06	2.142964e-06	2.656255e-09	1.611062e+01	1.703649e+02
2.820000e-06	2.122382e-06	2.605052e-09	1.595589e+01	1.696679e+02
2.830000e-06	2.101344e-06	2.547894e-09	1.579772e+01	1.689497e+02
2.840000e-06	2.079750e-06	2.590517e-09	1.563538e+01	1.682087e+02
2.850000e-06	2.057556e-06	2.589254e-09	1.546853e+01	1.674437e+02
2.860000e-06	2.034798e-06	2.520595e-09	1.529744e+01	1.666540e+02
2.870000e-06	2.011549e-06	2.533692e-09	1.512266e+01	1.658390e+02
2.880000e-06	1.987830e-06	2.559537e-09	1.494434e+01	1.649988e+02
2.890000e-06	1.963844e-06	2.494440e-09	1.476401e+01	1.641336e+02
2.900000e-06	1.939634e-06	2.470449e-09	1.458200e+01	1.632442e+02
2.910000e-06	1.915181e-06	2.513647e-09	1.439817e+01	1.623312e+02
2.920000e-06	1.890502e-06	2.488760e-09	1.421264e+01	1.613958e+02
2.930000e-06	1.865437e-06	2.428404e-09	1.402420e+01	1.604388e+02
2.940000e-06	1.840011e-06	2.434742e-09	1.383305e+01	1.594611e+02
2.950000e-06	1.814320e-06	2.454970e-09	1.363991e+01	1.584633e+02
