# Temperatura_=_20.0
# Concentracion g/m^3_=_9000.0
# C_Vs_to_Am_M_A/Vsm_=_65563218390.804596
# pendiente_HvsI_1/m_=_3716.3
# ordenada_HvsI_A/m_=_1297.0
# frecuencia_Hz_=_213027.40879262326

Tiempo_(s)	Campo_(V.s)	Magnetizacion_(V.s)	Campo_(kA/m)	Magnetizacion_(A/m)
0.000000e+00	-2.636247e-06	-2.823486e-09	-1.982783e+01	-1.858149e+02
1.000000e-08	-2.636478e-06	-2.825519e-09	-1.982957e+01	-1.858807e+02
2.000000e-08	-2.636353e-06	-2.827655e-09	-1.982863e+01	-1.859233e+02
3.000000e-08	-2.635753e-06	-2.826188e-09	-1.982411e+01	-1.859426e+02
4.000000e-08	-2.634553e-06	-2.824407e-09	-1.981509e+01	-1.859388e+02
5.000000e-08	-2.632685e-06	-2.831335e-09	-1.980104e+01	-1.859127e+02
6.000000e-08	-2.630151e-06	-2.847719e-09	-1.978198e+01	-1.858651e+02
7.000000e-08	-2.627068e-06	-2.838587e-09	-1.975879e+01	-1.857973e+02
8.000000e-08	-2.623561e-06	-2.782799e-09	-1.973241e+01	-1.857109e+02
9.000000e-08	-2.619723e-06	-2.768111e-09	-1.970355e+01	-1.856077e+02
1.000000e-07	-2.615528e-06	-2.877332e-09	-1.967200e+01	-1.854895e+02
1.100000e-07	-2.610875e-06	-2.894288e-09	-1.963700e+01	-1.853583e+02
1.200000e-07	-2.605738e-06	-2.802239e-09	-1.959837e+01	-1.852158e+02
1.300000e-07	-2.600175e-06	-2.722553e-09	-1.955652e+01	-1.850636e+02
1.400000e-07	-2.594208e-06	-2.819964e-09	-1.951165e+01	-1.849029e+02
1.500000e-07	-2.587763e-06	-2.875046e-09	-1.946317e+01	-1.847343e+02
1.600000e-07	-2.580844e-06	-2.854361e-09	-1.941113e+01	-1.845583e+02
1.700000e-07	-2.573537e-06	-2.773087e-09	-1.935617e+01	-1.843746e+02
1.800000e-07	-2.565881e-06	-2.718031e-09	-1.929858e+01	-1.841824e+02
1.900000e-07	-2.557838e-06	-2.788634e-09	-1.923810e+01	-1.839803e+02
2.000000e-07	-2.549384e-06	-2.882215e-09	-1.917451e+01	-1.837667e+02
2.100000e-07	-2.540461e-06	-2.862318e-09	-1.910740e+01	-1.835395e+02
2.200000e-07	-2.530861e-06	-2.655622e-09	-1.903519e+01	-1.832962e+02
2.300000e-07	-2.520579e-06	-2.708082e-09	-1.895786e+01	-1.830345e+02
2.400000e-07	-2.509706e-06	-2.900678e-09	-1.887608e+01	-1.827519e+02
2.500000e-07	-2.498247e-06	-2.895183e-09	-1.878990e+01	-1.824461e+02
2.600000e-07	-2.486294e-06	-2.650052e-09	-1.869999e+01	-1.821151e+02
2.700000e-07	-2.473864e-06	-2.675820e-09	-1.860651e+01	-1.817574e+02
2.800000e-07	-2.460973e-06	-2.864978e-09	-1.850955e+01	-1.813719e+02
2.900000e-07	-2.447616e-06	-2.812937e-09	-1.840909e+01	-1.809581e+02
3.000000e-07	-2.433808e-06	-2.687436e-09	-1.830524e+01	-1.805159e+02
3.100000e-07	-2.419491e-06	-2.710633e-09	-1.819756e+01	-1.800462e+02
3.200000e-07	-2.404566e-06	-2.760229e-09	-1.808530e+01	-1.795499e+02
3.300000e-07	-2.388973e-06	-2.714838e-09	-1.796802e+01	-1.790287e+02
3.400000e-07	-2.372757e-06	-2.746706e-09	-1.784606e+01	-1.784846e+02
3.500000e-07	-2.356127e-06	-2.729426e-09	-1.772098e+01	-1.779196e+02
3.600000e-07	-2.339204e-06	-2.632804e-09	-1.759370e+01	-1.773359e+02
3.700000e-07	-2.321914e-06	-2.664084e-09	-1.746365e+01	-1.767358e+02
3.800000e-07	-2.304202e-06	-2.775601e-09	-1.733044e+01	-1.761212e+02
3.900000e-07	-2.286121e-06	-2.691878e-09	-1.719445e+01	-1.754938e+02
4.000000e-07	-2.267624e-06	-2.555677e-09	-1.705533e+01	-1.748548e+02
4.100000e-07	-2.248713e-06	-2.640259e-09	-1.691309e+01	-1.742050e+02
4.200000e-07	-2.229447e-06	-2.740516e-09	-1.676819e+01	-1.735448e+02
4.300000e-07	-2.209884e-06	-2.632428e-09	-1.662105e+01	-1.728738e+02
4.400000e-07	-2.190096e-06	-2.533459e-09	-1.647222e+01	-1.721917e+02
4.500000e-07	-2.170084e-06	-2.618501e-09	-1.632171e+01	-1.714971e+02
4.600000e-07	-2.149767e-06	-2.664794e-09	-1.616890e+01	-1.707889e+02
4.700000e-07	-2.129090e-06	-2.573483e-09	-1.601338e+01	-1.700655e+02
4.800000e-07	-2.108009e-06	-2.536592e-09	-1.585483e+01	-1.693252e+02
4.900000e-07	-2.086547e-06	-2.580517e-09	-1.569340e+01	-1.685663e+02
5.000000e-07	-2.064828e-06	-2.562523e-09	-1.553005e+01	-1.677874e+02
5.100000e-07	-2.042800e-06	-2.526832e-09	-1.536438e+01	-1.669872e+02
5.200000e-07	-2.020346e-06	-2.538543e-09	-1.519549e+01	-1.661646e+02
5.300000e-07	-1.997501e-06	-2.512462e-09	-1.502367e+01	-1.653190e+02
5.400000e-07	-1.974321e-06	-2.468242e-09	-1.484933e+01	-1.644499e+02
5.500000e-07	-1.950897e-06	-2.498669e-09	-1.467315e+01	-1.635574e+02
5.600000e-07	-1.927293e-06	-2.508152e-09	-1.449562e+01	-1.626416e+02
5.700000e-07	-1.903424e-06	-2.433513e-09	-1.431609e+01	-1.617030e+02
5.800000e-07	-1.879242e-06	-2.404834e-09	-1.413421e+01	-1.607421e+02
5.900000e-07	-1.854643e-06	-2.448805e-09	-1.394920e+01	-1.597597e+02
6.000000e-07	-1.829511e-06	-2.439717e-09	-1.376018e+01	-1.587560e+02
6.100000e-07	-1.803847e-06	-2.369355e-09	-1.356715e+01	-1.577317e+02
6.200000e-07	-1.777634e-06	-2.350376e-09	-1.337000e+01	-1.566867e+02
6.300000e-07	-1.750895e-06	-2.378348e-09	-1.316889e+01	-1.556210e+02
6.400000e-07	-1.723781e-06	-2.363429e-09	-1.296495e+01	-1.545340e+02
6.500000e-07	-1.696429e-06	-2.312457e-09	-1.275924e+01	-1.534248e+02
6.600000e-07	-1.668885e-06	-2.292910e-09	-1.255207e+01	-1.522924e+02
6.700000e-07	-1.641164e-06	-2.295119e-09	-1.234358e+01	-1.511352e+02
6.800000e-07	-1.613251e-06	-2.274116e-09	-1.213364e+01	-1.499517e+02
6.900000e-07	-1.585130e-06	-2.248623e-09	-1.192213e+01	-1.487400e+02
7.000000e-07	-1.556753e-06	-2.232355e-09	-1.170870e+01	-1.474984e+02
7.100000e-07	-1.528075e-06	-2.203718e-09	-1.149300e+01	-1.462251e+02
7.200000e-07	-1.499103e-06	-2.181611e-09	-1.127510e+01	-1.449188e+02
7.300000e-07	-1.469836e-06	-2.177458e-09	-1.105498e+01	-1.435782e+02
7.400000e-07	-1.440309e-06	-2.151957e-09	-1.083290e+01	-1.422025e+02
7.500000e-07	-1.410595e-06	-2.105973e-09	-1.060941e+01	-1.407912e+02
7.600000e-07	-1.380735e-06	-2.091956e-09	-1.038483e+01	-1.393445e+02
7.700000e-07	-1.350695e-06	-2.094257e-09	-1.015889e+01	-1.378628e+02
7.800000e-07	-1.320375e-06	-2.058870e-09	-9.930851e+00	-1.363469e+02
7.900000e-07	-1.289772e-06	-2.012136e-09	-9.700673e+00	-1.347981e+02
8.000000e-07	-1.258991e-06	-1.998510e-09	-9.469167e+00	-1.332177e+02
8.100000e-07	-1.227998e-06	-1.991817e-09	-9.236060e+00	-1.316072e+02
8.200000e-07	-1.196787e-06	-1.958710e-09	-9.001310e+00	-1.299680e+02
8.300000e-07	-1.165426e-06	-1.920413e-09	-8.765439e+00	-1.283016e+02
8.400000e-07	-1.133962e-06	-1.899546e-09	-8.528790e+00	-1.266088e+02
8.500000e-07	-1.102412e-06	-1.882715e-09	-8.291496e+00	-1.248902e+02
8.600000e-07	-1.070742e-06	-1.855532e-09	-8.053302e+00	-1.231459e+02
8.700000e-07	-1.038900e-06	-1.824097e-09	-7.813806e+00	-1.213754e+02
8.800000e-07	-1.006899e-06	-1.793463e-09	-7.573125e+00	-1.195775e+02
8.900000e-07	-9.747948e-07	-1.765018e-09	-7.331659e+00	-1.177505e+02
9.000000e-07	-9.424855e-07	-1.739923e-09	-7.088653e+00	-1.158919e+02
9.100000e-07	-9.099202e-07	-1.711061e-09	-6.843722e+00	-1.139987e+02
9.200000e-07	-8.771417e-07	-1.674413e-09	-6.597187e+00	-1.120677e+02
9.300000e-07	-8.441308e-07	-1.639266e-09	-6.348905e+00	-1.100951e+02
9.400000e-07	-8.109166e-07	-1.614682e-09	-6.099093e+00	-1.080770e+02
9.500000e-07	-7.775492e-07	-1.588096e-09	-5.848129e+00	-1.060093e+02
9.600000e-07	-7.439608e-07	-1.548628e-09	-5.595502e+00	-1.038882e+02
9.700000e-07	-7.100722e-07	-1.510245e-09	-5.340618e+00	-1.017101e+02
9.800000e-07	-6.759086e-07	-1.480459e-09	-5.083666e+00	-9.947149e+01
9.900000e-07	-6.415499e-07	-1.450296e-09	-4.825246e+00	-9.716957e+01
1.000000e-06	-6.069390e-07	-1.410568e-09	-4.564930e+00	-9.480194e+01
1.010000e-06	-5.721359e-07	-1.370337e-09	-4.303167e+00	-9.236679e+01
1.020000e-06	-5.372187e-07	-1.336349e-09	-4.040547e+00	-8.986287e+01
1.030000e-06	-5.021277e-07	-1.300157e-09	-3.776619e+00	-8.728951e+01
1.040000e-06	-4.669759e-07	-1.259520e-09	-3.512235e+00	-8.464656e+01
1.050000e-06	-4.318092e-07	-1.216564e-09	-3.247737e+00	-8.193432e+01
1.060000e-06	-3.965056e-07	-1.175475e-09	-2.982211e+00	-7.915349e+01
1.070000e-06	-3.610955e-07	-1.135324e-09	-2.715883e+00	-7.630504e+01
1.080000e-06	-3.256440e-07	-1.094109e-09	-2.449244e+00	-7.339017e+01
1.090000e-06	-2.901512e-07	-1.049919e-09	-2.182295e+00	-7.041017e+01
1.100000e-06	-2.546220e-07	-1.001171e-09	-1.915072e+00	-6.736635e+01
1.110000e-06	-2.190690e-07	-9.540272e-10	-1.647669e+00	-6.426001e+01
1.120000e-06	-1.835132e-07	-9.101241e-10	-1.380246e+00	-6.109236e+01
1.130000e-06	-1.479750e-07	-8.620083e-10	-1.112955e+00	-5.786452e+01
1.140000e-06	-1.124251e-07	-8.100386e-10	-8.455755e-01	-5.457749e+01
1.150000e-06	-7.685959e-08	-7.605034e-10	-5.780789e-01	-5.123224e+01
1.160000e-06	-4.129607e-08	-7.130875e-10	-3.105974e-01	-4.782966e+01
1.170000e-06	-5.726810e-09	-6.611163e-10	-4.307267e-02	-4.437071e+01
1.180000e-06	2.984895e-08	-6.070068e-10	2.245009e-01	-4.085646e+01
1.190000e-06	6.542968e-08	-5.554385e-10	4.921118e-01	-3.728819e+01
1.200000e-06	1.010134e-07	-5.057421e-10	7.597452e-01	-3.366744e+01
1.210000e-06	1.365814e-07	-4.521210e-10	1.027261e+00	-2.999614e+01
1.220000e-06	1.721157e-07	-3.940722e-10	1.294522e+00	-2.627669e+01
1.230000e-06	2.076551e-07	-3.368617e-10	1.561823e+00	-2.251196e+01
1.240000e-06	2.432089e-07	-2.814623e-10	1.829231e+00	-1.870540e+01
1.250000e-06	2.787306e-07	-2.274529e-10	2.096397e+00	-1.486102e+01
1.260000e-06	3.142042e-07	-1.706081e-10	2.363203e+00	-1.098341e+01
1.270000e-06	3.496485e-07	-1.130369e-10	2.629788e+00	-7.077720e+00
1.280000e-06	3.850661e-07	-5.413368e-11	2.896172e+00	-3.149576e+00
1.290000e-06	4.204323e-07	3.602235e-12	3.162169e+00	7.949532e-01
1.300000e-06	4.557353e-07	6.145856e-11	3.427691e+00	4.749458e+00
1.310000e-06	4.909432e-07	1.227484e-10	3.692498e+00	8.707291e+00
1.320000e-06	5.260508e-07	1.839172e-10	3.956550e+00	1.266168e+01
1.330000e-06	5.610973e-07	2.437904e-10	4.220143e+00	1.660585e+01
1.340000e-06	5.960271e-07	3.015990e-10	4.482859e+00	2.053315e+01
1.350000e-06	6.307612e-07	3.633798e-10	4.744102e+00	2.443716e+01
1.360000e-06	6.652638e-07	4.237340e-10	5.003604e+00	2.831179e+01
1.370000e-06	6.995704e-07	4.792364e-10	5.261632e+00	3.215143e+01
1.380000e-06	7.336461e-07	5.352511e-10	5.517923e+00	3.595098e+01
1.390000e-06	7.674778e-07	5.944146e-10	5.772379e+00	3.970595e+01
1.400000e-06	8.010552e-07	6.520350e-10	6.024923e+00	4.341248e+01
1.410000e-06	8.343034e-07	7.054274e-10	6.274990e+00	4.706740e+01
1.420000e-06	8.673139e-07	7.581139e-10	6.523270e+00	5.066822e+01
1.430000e-06	9.001024e-07	8.110832e-10	6.769880e+00	5.421312e+01
1.440000e-06	9.326636e-07	8.632456e-10	7.014780e+00	5.770091e+01
1.450000e-06	9.650228e-07	9.130688e-10	7.258161e+00	6.113098e+01
1.460000e-06	9.971592e-07	9.614830e-10	7.499866e+00	6.450325e+01
1.470000e-06	1.029127e-06	1.011400e-09	7.740304e+00	6.781807e+01
1.480000e-06	1.060967e-06	1.062483e-09	7.979781e+00	7.107616e+01
1.490000e-06	1.092717e-06	1.112357e-09	8.218580e+00	7.427848e+01
1.500000e-06	1.124407e-06	1.160049e-09	8.456928e+00	7.742616e+01
1.510000e-06	1.156030e-06	1.205985e-09	8.694773e+00	8.052039e+01
1.520000e-06	1.187596e-06	1.253241e-09	8.932190e+00	8.356234e+01
1.530000e-06	1.219033e-06	1.300258e-09	9.168629e+00	8.655305e+01
1.540000e-06	1.250197e-06	1.344235e-09	9.403026e+00	8.949341e+01
1.550000e-06	1.281073e-06	1.386281e-09	9.635248e+00	9.238405e+01
1.560000e-06	1.311707e-06	1.429110e-09	9.865657e+00	9.522532e+01
1.570000e-06	1.342022e-06	1.472097e-09	1.009366e+01	9.801726e+01
1.580000e-06	1.372022e-06	1.512933e-09	1.031929e+01	1.007596e+02
1.590000e-06	1.401794e-06	1.551317e-09	1.054322e+01	1.034518e+02
1.600000e-06	1.431363e-06	1.590670e-09	1.076561e+01	1.060931e+02
1.610000e-06	1.460798e-06	1.630560e-09	1.098700e+01	1.086824e+02
1.620000e-06	1.490048e-06	1.669112e-09	1.120700e+01	1.112185e+02
1.630000e-06	1.519017e-06	1.705574e-09	1.142488e+01	1.137002e+02
1.640000e-06	1.547690e-06	1.740368e-09	1.164054e+01	1.161263e+02
1.650000e-06	1.576093e-06	1.774751e-09	1.185416e+01	1.184956e+02
1.660000e-06	1.604227e-06	1.808106e-09	1.206576e+01	1.208071e+02
1.670000e-06	1.632125e-06	1.840611e-09	1.227559e+01	1.230600e+02
1.680000e-06	1.659859e-06	1.872624e-09	1.248419e+01	1.252541e+02
1.690000e-06	1.687433e-06	1.904252e-09	1.269158e+01	1.273891e+02
1.700000e-06	1.714852e-06	1.935723e-09	1.289780e+01	1.294654e+02
1.710000e-06	1.742108e-06	1.966655e-09	1.310280e+01	1.314838e+02
1.720000e-06	1.769027e-06	1.996413e-09	1.330527e+01	1.334453e+02
1.730000e-06	1.795464e-06	2.025134e-09	1.350410e+01	1.353515e+02
1.740000e-06	1.821302e-06	2.053800e-09	1.369843e+01	1.372040e+02
1.750000e-06	1.846455e-06	2.081424e-09	1.388762e+01	1.390050e+02
1.760000e-06	1.871117e-06	2.107686e-09	1.407310e+01	1.407565e+02
1.770000e-06	1.895412e-06	2.133265e-09	1.425584e+01	1.424608e+02
1.780000e-06	1.919355e-06	2.159970e-09	1.443591e+01	1.441202e+02
1.790000e-06	1.943074e-06	2.187221e-09	1.461431e+01	1.457367e+02
1.800000e-06	1.966589e-06	2.212025e-09	1.479118e+01	1.473123e+02
1.810000e-06	1.989807e-06	2.234996e-09	1.496580e+01	1.488487e+02
1.820000e-06	2.012710e-06	2.258023e-09	1.513806e+01	1.503471e+02
1.830000e-06	2.035272e-06	2.279927e-09	1.530775e+01	1.518086e+02
1.840000e-06	2.057442e-06	2.300699e-09	1.547450e+01	1.532339e+02
1.850000e-06	2.079259e-06	2.323728e-09	1.563859e+01	1.546231e+02
1.860000e-06	2.100733e-06	2.347128e-09	1.580010e+01	1.559764e+02
1.870000e-06	2.121839e-06	2.369047e-09	1.595885e+01	1.572935e+02
1.880000e-06	2.142598e-06	2.390128e-09	1.611498e+01	1.585740e+02
1.890000e-06	2.163011e-06	2.409543e-09	1.626851e+01	1.598172e+02
1.900000e-06	2.183059e-06	2.428675e-09	1.641930e+01	1.610227e+02
1.910000e-06	2.202821e-06	2.446824e-09	1.656793e+01	1.621899e+02
1.920000e-06	2.222357e-06	2.462961e-09	1.671487e+01	1.633185e+02
1.930000e-06	2.241653e-06	2.479075e-09	1.686000e+01	1.644085e+02
1.940000e-06	2.260603e-06	2.496111e-09	1.700252e+01	1.654598e+02
1.950000e-06	2.279108e-06	2.512710e-09	1.714170e+01	1.664730e+02
1.960000e-06	2.297162e-06	2.527885e-09	1.727749e+01	1.674489e+02
1.970000e-06	2.314766e-06	2.543756e-09	1.740990e+01	1.683885e+02
1.980000e-06	2.331985e-06	2.561205e-09	1.753941e+01	1.692931e+02
1.990000e-06	2.348855e-06	2.577491e-09	1.766629e+01	1.701644e+02
2.000000e-06	2.365387e-06	2.590643e-09	1.779063e+01	1.710041e+02
2.010000e-06	2.381573e-06	2.603265e-09	1.791237e+01	1.718140e+02
2.020000e-06	2.397271e-06	2.616690e-09	1.803043e+01	1.725958e+02
2.030000e-06	2.412367e-06	2.628749e-09	1.814397e+01	1.733515e+02
2.040000e-06	2.426860e-06	2.640030e-09	1.825298e+01	1.740825e+02
2.050000e-06	2.440912e-06	2.651300e-09	1.835867e+01	1.747904e+02
2.060000e-06	2.454584e-06	2.662645e-09	1.846150e+01	1.754761e+02
2.070000e-06	2.467722e-06	2.674109e-09	1.856031e+01	1.761405e+02
2.080000e-06	2.480344e-06	2.685598e-09	1.865524e+01	1.767843e+02
2.090000e-06	2.492547e-06	2.696764e-09	1.874702e+01	1.774076e+02
2.100000e-06	2.504371e-06	2.706359e-09	1.883596e+01	1.780105e+02
2.110000e-06	2.515831e-06	2.715165e-09	1.892215e+01	1.785927e+02
2.120000e-06	2.526818e-06	2.723504e-09	1.900478e+01	1.791540e+02
2.130000e-06	2.537149e-06	2.732434e-09	1.908249e+01	1.796938e+02
2.140000e-06	2.546701e-06	2.741552e-09	1.915433e+01	1.802117e+02
2.150000e-06	2.555582e-06	2.750027e-09	1.922113e+01	1.807074e+02
2.160000e-06	2.563947e-06	2.757834e-09	1.928404e+01	1.811805e+02
2.170000e-06	2.571883e-06	2.765016e-09	1.934373e+01	1.816308e+02
2.180000e-06	2.579514e-06	2.772638e-09	1.940113e+01	1.820585e+02
2.190000e-06	2.586820e-06	2.780184e-09	1.945608e+01	1.824636e+02
2.200000e-06	2.593717e-06	2.787084e-09	1.950795e+01	1.828466e+02
2.210000e-06	2.600213e-06	2.792982e-09	1.955681e+01	1.832079e+02
2.220000e-06	2.606241e-06	2.800107e-09	1.960215e+01	1.835482e+02
2.230000e-06	2.611767e-06	2.807600e-09	1.964371e+01	1.838681e+02
2.240000e-06	2.616857e-06	2.812112e-09	1.968199e+01	1.841683e+02
2.250000e-06	2.621489e-06	2.813796e-09	1.971683e+01	1.844494e+02
2.260000e-06	2.625720e-06	2.816722e-09	1.974865e+01	1.847117e+02
2.270000e-06	2.629608e-06	2.823883e-09	1.977790e+01	1.849555e+02
2.280000e-06	2.633135e-06	2.831335e-09	1.980442e+01	1.851809e+02
2.290000e-06	2.636236e-06	2.834428e-09	1.982774e+01	1.853878e+02
2.300000e-06	2.638780e-06	2.835133e-09	1.984688e+01	1.855758e+02
2.310000e-06	2.640744e-06	2.838803e-09	1.986165e+01	1.857442e+02
2.320000e-06	2.642084e-06	2.844799e-09	1.987173e+01	1.858925e+02
2.330000e-06	2.642800e-06	2.847702e-09	1.987711e+01	1.860198e+02
2.340000e-06	2.642984e-06	2.847833e-09	1.987850e+01	1.861253e+02
2.350000e-06	2.642753e-06	2.848760e-09	1.987676e+01	1.862085e+02
2.360000e-06	2.642190e-06	2.850898e-09	1.987252e+01	1.862687e+02
2.370000e-06	2.641281e-06	2.851984e-09	1.986569e+01	1.863056e+02
2.380000e-06	2.639984e-06	2.851446e-09	1.985593e+01	1.863193e+02
2.390000e-06	2.638242e-06	2.847216e-09	1.984283e+01	1.863101e+02
2.400000e-06	2.636085e-06	2.830035e-09	1.982661e+01	1.862786e+02
2.410000e-06	2.633468e-06	2.832209e-09	1.980693e+01	1.862260e+02
2.420000e-06	2.630367e-06	2.877179e-09	1.978360e+01	1.861536e+02
2.430000e-06	2.626844e-06	2.903429e-09	1.975711e+01	1.860630e+02
2.440000e-06	2.622986e-06	2.803404e-09	1.972809e+01	1.859561e+02
2.450000e-06	2.618803e-06	2.785720e-09	1.969662e+01	1.858347e+02
2.460000e-06	2.614232e-06	2.849499e-09	1.966225e+01	1.857007e+02
2.470000e-06	2.609108e-06	2.899190e-09	1.962371e+01	1.855558e+02
2.480000e-06	2.603414e-06	2.835994e-09	1.958088e+01	1.854015e+02
2.490000e-06	2.597221e-06	2.794735e-09	1.953430e+01	1.852389e+02
2.500000e-06	2.590428e-06	2.791056e-09	1.948321e+01	1.850687e+02
2.510000e-06	2.583123e-06	2.833418e-09	1.942827e+01	1.848910e+02
2.520000e-06	2.575359e-06	2.891592e-09	1.936988e+01	1.847054e+02
2.530000e-06	2.567127e-06	2.840497e-09	1.930796e+01	1.845110e+02
2.540000e-06	2.558480e-06	2.735003e-09	1.924292e+01	1.843064e+02
2.550000e-06	2.549382e-06	2.752217e-09	1.917449e+01	1.840898e+02
2.560000e-06	2.539881e-06	2.929215e-09	1.910304e+01	1.838590e+02
2.570000e-06	2.530008e-06	2.869284e-09	1.902878e+01	1.836115e+02
2.580000e-06	2.519693e-06	2.686151e-09	1.895119e+01	1.833450e+02
2.590000e-06	2.508904e-06	2.723260e-09	1.887005e+01	1.830569e+02
2.600000e-06	2.497654e-06	2.925459e-09	1.878544e+01	1.827452e+02
2.610000e-06	2.485938e-06	2.833060e-09	1.869732e+01	1.824079e+02
2.620000e-06	2.473776e-06	2.666025e-09	1.860584e+01	1.820435e+02
2.630000e-06	2.461137e-06	2.765616e-09	1.851079e+01	1.816511e+02
2.640000e-06	2.447959e-06	2.851483e-09	1.841167e+01	1.812303e+02
2.650000e-06	2.434115e-06	2.738782e-09	1.830755e+01	1.807814e+02
2.660000e-06	2.419528e-06	2.716430e-09	1.819784e+01	1.803050e+02
2.670000e-06	2.404300e-06	2.803994e-09	1.808330e+01	1.798026e+02
2.680000e-06	2.388608e-06	2.717688e-09	1.796527e+01	1.792756e+02
2.690000e-06	2.372548e-06	2.669446e-09	1.784449e+01	1.787262e+02
2.700000e-06	2.356130e-06	2.788387e-09	1.772100e+01	1.781565e+02
2.710000e-06	2.339441e-06	2.753949e-09	1.759548e+01	1.775688e+02
2.720000e-06	2.322456e-06	2.606024e-09	1.746773e+01	1.769650e+02
2.730000e-06	2.305032e-06	2.676848e-09	1.733669e+01	1.763473e+02
2.740000e-06	2.287168e-06	2.790988e-09	1.720232e+01	1.757170e+02
2.750000e-06	2.268936e-06	2.669230e-09	1.706520e+01	1.750754e+02
2.760000e-06	2.250289e-06	2.580746e-09	1.692495e+01	1.744232e+02
2.770000e-06	2.231247e-06	2.679944e-09	1.678173e+01	1.737605e+02
2.780000e-06	2.211888e-06	2.710611e-09	1.663612e+01	1.730870e+02
2.790000e-06	2.192221e-06	2.607710e-09	1.648821e+01	1.724020e+02
2.800000e-06	2.172283e-06	2.576939e-09	1.633825e+01	1.717044e+02
2.810000e-06	2.152084e-06	2.645444e-09	1.618632e+01	1.709927e+02
2.820000e-06	2.131599e-06	2.636830e-09	1.603226e+01	1.702654e+02
2.830000e-06	2.110786e-06	2.562044e-09	1.587571e+01	1.695207e+02
2.840000e-06	2.089557e-06	2.568624e-09	1.571605e+01	1.687572e+02
2.850000e-06	2.067785e-06	2.601571e-09	1.555229e+01	1.679733e+02
2.860000e-06	2.045390e-06	2.550583e-09	1.538386e+01	1.671677e+02
2.870000e-06	2.022463e-06	2.524592e-09	1.521142e+01	1.663396e+02
2.880000e-06	1.999090e-06	2.559263e-09	1.503562e+01	1.654883e+02
2.890000e-06	1.975280e-06	2.524724e-09	1.485654e+01	1.646135e+02
2.900000e-06	1.951173e-06	2.471091e-09	1.467523e+01	1.637153e+02
2.910000e-06	1.926883e-06	2.503877e-09	1.449254e+01	1.627940e+02
2.920000e-06	1.902358e-06	2.510620e-09	1.430808e+01	1.618499e+02
2.930000e-06	1.877514e-06	2.443726e-09	1.412122e+01	1.608838e+02
2.940000e-06	1.852287e-06	2.426315e-09	1.393148e+01	1.598962e+02
