# Temperatura_=_20.0
# Concentracion g/m^3_=_9000.0
# C_Vs_to_Am_M_A/Vsm_=_65563218390.804596
# pendiente_HvsI_1/m_=_3716.3
# ordenada_HvsI_A/m_=_1297.0
# frecuencia_Hz_=_213028.6491364223

Tiempo_(s)	Campo_(V.s)	Magnetizacion_(V.s)	Campo_(kA/m)	Magnetizacion_(A/m)
0.000000e+00	-2.638822e-06	-2.808166e-09	-1.982752e+01	-1.842985e+02
1.000000e-08	-2.638915e-06	-2.808720e-09	-1.982821e+01	-1.843509e+02
2.000000e-08	-2.638618e-06	-2.809854e-09	-1.982598e+01	-1.843853e+02
3.000000e-08	-2.637782e-06	-2.808982e-09	-1.981970e+01	-1.844026e+02
4.000000e-08	-2.636259e-06	-2.807001e-09	-1.980825e+01	-1.844037e+02
5.000000e-08	-2.634002e-06	-2.804860e-09	-1.979130e+01	-1.843895e+02
6.000000e-08	-2.631086e-06	-2.803804e-09	-1.976939e+01	-1.843607e+02
7.000000e-08	-2.627702e-06	-2.809324e-09	-1.974396e+01	-1.843183e+02
8.000000e-08	-2.623946e-06	-2.822125e-09	-1.971574e+01	-1.842630e+02
9.000000e-08	-2.619869e-06	-2.824547e-09	-1.968510e+01	-1.841955e+02
1.000000e-07	-2.615486e-06	-2.807224e-09	-1.965218e+01	-1.841164e+02
1.100000e-07	-2.610666e-06	-2.783280e-09	-1.961596e+01	-1.840261e+02
1.200000e-07	-2.605354e-06	-2.808026e-09	-1.957605e+01	-1.839249e+02
1.300000e-07	-2.599612e-06	-2.815040e-09	-1.953290e+01	-1.838129e+02
1.400000e-07	-2.593472e-06	-2.806767e-09	-1.948676e+01	-1.836899e+02
1.500000e-07	-2.586852e-06	-2.771550e-09	-1.943702e+01	-1.835554e+02
1.600000e-07	-2.579678e-06	-2.770967e-09	-1.938312e+01	-1.834091e+02
1.700000e-07	-2.572144e-06	-2.790594e-09	-1.932651e+01	-1.832499e+02
1.800000e-07	-2.564341e-06	-2.797028e-09	-1.926788e+01	-1.830771e+02
1.900000e-07	-2.556077e-06	-2.789951e-09	-1.920579e+01	-1.828893e+02
2.000000e-07	-2.547292e-06	-2.752178e-09	-1.913978e+01	-1.826853e+02
2.100000e-07	-2.538019e-06	-2.775196e-09	-1.907011e+01	-1.824638e+02
2.200000e-07	-2.528106e-06	-2.794089e-09	-1.899562e+01	-1.822233e+02
2.300000e-07	-2.517426e-06	-2.802655e-09	-1.891538e+01	-1.819626e+02
2.400000e-07	-2.506102e-06	-2.755082e-09	-1.883029e+01	-1.816803e+02
2.500000e-07	-2.494343e-06	-2.744552e-09	-1.874193e+01	-1.813754e+02
2.600000e-07	-2.482141e-06	-2.766526e-09	-1.865025e+01	-1.810471e+02
2.700000e-07	-2.469417e-06	-2.767601e-09	-1.855465e+01	-1.806947e+02
2.800000e-07	-2.456254e-06	-2.741013e-09	-1.845574e+01	-1.803180e+02
2.900000e-07	-2.442621e-06	-2.712896e-09	-1.835331e+01	-1.799169e+02
3.000000e-07	-2.428439e-06	-2.730655e-09	-1.824674e+01	-1.794919e+02
3.100000e-07	-2.413744e-06	-2.731991e-09	-1.813633e+01	-1.790437e+02
3.200000e-07	-2.398488e-06	-2.720871e-09	-1.802170e+01	-1.785731e+02
3.300000e-07	-2.382545e-06	-2.692439e-09	-1.790191e+01	-1.780815e+02
3.400000e-07	-2.366013e-06	-2.681457e-09	-1.777769e+01	-1.775701e+02
3.500000e-07	-2.349140e-06	-2.691283e-09	-1.765091e+01	-1.770404e+02
3.600000e-07	-2.332013e-06	-2.694573e-09	-1.752222e+01	-1.764938e+02
3.700000e-07	-2.314579e-06	-2.670212e-09	-1.739122e+01	-1.759318e+02
3.800000e-07	-2.296731e-06	-2.648686e-09	-1.725712e+01	-1.753555e+02
3.900000e-07	-2.278453e-06	-2.658276e-09	-1.711978e+01	-1.747658e+02
4.000000e-07	-2.259770e-06	-2.658288e-09	-1.697940e+01	-1.741635e+02
4.100000e-07	-2.240632e-06	-2.637674e-09	-1.683561e+01	-1.735487e+02
4.200000e-07	-2.221154e-06	-2.619075e-09	-1.668925e+01	-1.729214e+02
4.300000e-07	-2.201492e-06	-2.610333e-09	-1.654152e+01	-1.722811e+02
4.400000e-07	-2.181622e-06	-2.604541e-09	-1.639222e+01	-1.716269e+02
4.500000e-07	-2.161486e-06	-2.603673e-09	-1.624092e+01	-1.709576e+02
4.600000e-07	-2.141029e-06	-2.584416e-09	-1.608721e+01	-1.702719e+02
4.700000e-07	-2.120174e-06	-2.559339e-09	-1.593051e+01	-1.695680e+02
4.800000e-07	-2.098924e-06	-2.562726e-09	-1.577084e+01	-1.688444e+02
4.900000e-07	-2.077349e-06	-2.563512e-09	-1.560873e+01	-1.680995e+02
5.000000e-07	-2.055423e-06	-2.533107e-09	-1.544398e+01	-1.673316e+02
5.100000e-07	-2.033053e-06	-2.512388e-09	-1.527590e+01	-1.665395e+02
5.200000e-07	-2.010317e-06	-2.514589e-09	-1.510507e+01	-1.657223e+02
5.300000e-07	-1.987318e-06	-2.500791e-09	-1.493226e+01	-1.648792e+02
5.400000e-07	-1.963976e-06	-2.476589e-09	-1.475687e+01	-1.640100e+02
5.500000e-07	-1.940357e-06	-2.466638e-09	-1.457941e+01	-1.631149e+02
5.600000e-07	-1.916611e-06	-2.454312e-09	-1.440098e+01	-1.621943e+02
5.700000e-07	-1.892669e-06	-2.436247e-09	-1.422109e+01	-1.612489e+02
5.800000e-07	-1.868309e-06	-2.424871e-09	-1.403805e+01	-1.602798e+02
5.900000e-07	-1.843370e-06	-2.409593e-09	-1.385067e+01	-1.592882e+02
6.000000e-07	-1.817900e-06	-2.388524e-09	-1.365929e+01	-1.582751e+02
6.100000e-07	-1.791904e-06	-2.370231e-09	-1.346397e+01	-1.572416e+02
6.200000e-07	-1.765409e-06	-2.357232e-09	-1.326489e+01	-1.561885e+02
6.300000e-07	-1.738505e-06	-2.338427e-09	-1.306274e+01	-1.551163e+02
6.400000e-07	-1.711264e-06	-2.316071e-09	-1.285805e+01	-1.540252e+02
6.500000e-07	-1.683783e-06	-2.300244e-09	-1.265156e+01	-1.529148e+02
6.600000e-07	-1.656161e-06	-2.286061e-09	-1.244402e+01	-1.517843e+02
6.700000e-07	-1.628421e-06	-2.265635e-09	-1.223559e+01	-1.506323e+02
6.800000e-07	-1.600473e-06	-2.242931e-09	-1.202560e+01	-1.494572e+02
6.900000e-07	-1.572192e-06	-2.230199e-09	-1.181310e+01	-1.482569e+02
7.000000e-07	-1.543620e-06	-2.216951e-09	-1.159842e+01	-1.470291e+02
7.100000e-07	-1.514809e-06	-2.189786e-09	-1.138194e+01	-1.457712e+02
7.200000e-07	-1.485697e-06	-2.164744e-09	-1.116320e+01	-1.444809e+02
7.300000e-07	-1.456328e-06	-2.148515e-09	-1.094252e+01	-1.431558e+02
7.400000e-07	-1.426735e-06	-2.129623e-09	-1.072016e+01	-1.417941e+02
7.500000e-07	-1.396930e-06	-2.105091e-09	-1.049622e+01	-1.403941e+02
7.600000e-07	-1.366925e-06	-2.081248e-09	-1.027076e+01	-1.389548e+02
7.700000e-07	-1.336701e-06	-2.059143e-09	-1.004367e+01	-1.374759e+02
7.800000e-07	-1.306216e-06	-2.037370e-09	-9.814610e+00	-1.359574e+02
7.900000e-07	-1.275466e-06	-2.016518e-09	-9.583565e+00	-1.344002e+02
8.000000e-07	-1.244513e-06	-1.990842e-09	-9.350989e+00	-1.328055e+02
8.100000e-07	-1.213405e-06	-1.960558e-09	-9.117249e+00	-1.311751e+02
8.200000e-07	-1.182124e-06	-1.936112e-09	-8.882211e+00	-1.295110e+02
8.300000e-07	-1.150668e-06	-1.916824e-09	-8.645859e+00	-1.278155e+02
8.400000e-07	-1.119096e-06	-1.891728e-09	-8.408635e+00	-1.260907e+02
8.500000e-07	-1.087445e-06	-1.860058e-09	-8.170819e+00	-1.243384e+02
8.600000e-07	-1.055690e-06	-1.830607e-09	-7.932221e+00	-1.225602e+02
8.700000e-07	-1.023821e-06	-1.805931e-09	-7.692764e+00	-1.207569e+02
8.800000e-07	-9.918099e-07	-1.777990e-09	-7.452236e+00	-1.189288e+02
8.900000e-07	-9.596059e-07	-1.746804e-09	-7.210263e+00	-1.170751e+02
9.000000e-07	-9.271811e-07	-1.716336e-09	-6.966631e+00	-1.151944e+02
9.100000e-07	-8.945276e-07	-1.687535e-09	-6.721279e+00	-1.132842e+02
9.200000e-07	-8.616435e-07	-1.658015e-09	-6.474196e+00	-1.113413e+02
9.300000e-07	-8.285272e-07	-1.624381e-09	-6.225367e+00	-1.093616e+02
9.400000e-07	-7.952140e-07	-1.591160e-09	-5.975060e+00	-1.073407e+02
9.500000e-07	-7.616849e-07	-1.559556e-09	-5.723129e+00	-1.052734e+02
9.600000e-07	-7.278707e-07	-1.527770e-09	-5.469057e+00	-1.031546e+02
9.700000e-07	-6.937780e-07	-1.495345e-09	-5.212892e+00	-1.009792e+02
9.800000e-07	-6.594362e-07	-1.461263e-09	-4.954855e+00	-9.874204e+01
9.900000e-07	-6.249358e-07	-1.425681e-09	-4.695627e+00	-9.643873e+01
1.000000e-06	-5.903020e-07	-1.389192e-09	-4.435397e+00	-9.406537e+01
1.010000e-06	-5.553793e-07	-1.354203e-09	-4.172995e+00	-9.161885e+01
1.020000e-06	-5.202839e-07	-1.318247e-09	-3.909296e+00	-8.909696e+01
1.030000e-06	-4.851538e-07	-1.276932e-09	-3.645336e+00	-8.649844e+01
1.040000e-06	-4.499037e-07	-1.233004e-09	-3.380475e+00	-8.382297e+01
1.050000e-06	-4.145200e-07	-1.191727e-09	-3.114610e+00	-8.107114e+01
1.060000e-06	-3.790574e-07	-1.152699e-09	-2.848152e+00	-7.824436e+01
1.070000e-06	-3.435895e-07	-1.112309e-09	-2.581654e+00	-7.534470e+01
1.080000e-06	-3.081288e-07	-1.068397e-09	-2.315211e+00	-7.237474e+01
1.090000e-06	-2.726293e-07	-1.020826e-09	-2.048476e+00	-6.933741e+01
1.100000e-06	-2.370736e-07	-9.739767e-10	-1.781317e+00	-6.623578e+01
1.110000e-06	-2.015053e-07	-9.291997e-10	-1.514066e+00	-6.307287e+01
1.120000e-06	-1.659442e-07	-8.813813e-10	-1.246867e+00	-5.985153e+01
1.130000e-06	-1.303707e-07	-8.292775e-10	-9.795760e-01	-5.657428e+01
1.140000e-06	-9.477534e-08	-7.778055e-10	-7.121206e-01	-5.324326e+01
1.150000e-06	-5.918059e-08	-7.277364e-10	-4.446696e-01	-4.986015e+01
1.160000e-06	-2.359856e-08	-6.768024e-10	-1.773143e-01	-4.642619e+01
1.170000e-06	1.198478e-08	-6.235978e-10	9.005091e-02	-4.294228e+01
1.180000e-06	4.757828e-08	-5.706633e-10	3.574925e-01	-3.940901e+01
1.190000e-06	8.315801e-08	-5.208313e-10	6.248306e-01	-3.582686e+01
1.200000e-06	1.187239e-07	-4.695366e-10	8.920646e-01	-3.219633e+01
1.210000e-06	1.542937e-07	-4.146326e-10	1.159328e+00	-2.851812e+01
1.220000e-06	1.898369e-07	-3.578743e-10	1.426392e+00	-2.479334e+01
1.230000e-06	2.253526e-07	-3.026232e-10	1.693249e+00	-2.102364e+01
1.240000e-06	2.608665e-07	-2.482239e-10	1.960092e+00	-1.721139e+01
1.250000e-06	2.963605e-07	-1.921708e-10	2.226786e+00	-1.335978e+01
1.260000e-06	3.318269e-07	-1.342478e-10	2.493272e+00	-9.472890e+00
1.270000e-06	3.672490e-07	-7.526901e-11	2.759427e+00	-5.555703e+00
1.280000e-06	4.026134e-07	-1.795110e-11	3.025147e+00	-1.614085e+00
1.290000e-06	4.379063e-07	3.935778e-11	3.290330e+00	2.345302e+00
1.300000e-06	4.731421e-07	9.948068e-11	3.555083e+00	6.315139e+00
1.310000e-06	5.083168e-07	1.603322e-10	3.819378e+00	1.028762e+01
1.320000e-06	5.433807e-07	2.196301e-10	4.082840e+00	1.425464e+01
1.330000e-06	5.783396e-07	2.792816e-10	4.345513e+00	1.820806e+01
1.340000e-06	6.131729e-07	3.400846e-10	4.607243e+00	2.213989e+01
1.350000e-06	6.478281e-07	4.016567e-10	4.867635e+00	2.604257e+01
1.360000e-06	6.822655e-07	4.604910e-10	5.126390e+00	2.990912e+01
1.370000e-06	7.165299e-07	5.166888e-10	5.383845e+00	3.373337e+01
1.380000e-06	7.505871e-07	5.732805e-10	5.639742e+00	3.751008e+01
1.390000e-06	7.843043e-07	6.292261e-10	5.893086e+00	4.123502e+01
1.400000e-06	8.176934e-07	6.830191e-10	6.143964e+00	4.490503e+01
1.410000e-06	8.508634e-07	7.343730e-10	6.393197e+00	4.851802e+01
1.420000e-06	8.838283e-07	7.857074e-10	6.640887e+00	5.207290e+01
1.430000e-06	9.165037e-07	8.370949e-10	6.886403e+00	5.556947e+01
1.440000e-06	9.488674e-07	8.862347e-10	7.129576e+00	5.900828e+01
1.450000e-06	9.810113e-07	9.342234e-10	7.371099e+00	6.239050e+01
1.460000e-06	1.013043e-06	9.843004e-10	7.611777e+00	6.571769e+01
1.470000e-06	1.044988e-06	1.035376e-09	7.851805e+00	6.899162e+01
1.480000e-06	1.076825e-06	1.083962e-09	8.091023e+00	7.221409e+01
1.490000e-06	1.108559e-06	1.130077e-09	8.329463e+00	7.538679e+01
1.500000e-06	1.140228e-06	1.176033e-09	8.567418e+00	7.851108e+01
1.510000e-06	1.171847e-06	1.223064e-09	8.804994e+00	8.158796e+01
1.520000e-06	1.203336e-06	1.269688e-09	9.041594e+00	8.461795e+01
1.530000e-06	1.234615e-06	1.313681e-09	9.276623e+00	8.760103e+01
1.540000e-06	1.265671e-06	1.355968e-09	9.509965e+00	9.053671e+01
1.550000e-06	1.296500e-06	1.399713e-09	9.741608e+00	9.342401e+01
1.560000e-06	1.327006e-06	1.442290e-09	9.970824e+00	9.626155e+01
1.570000e-06	1.357177e-06	1.480863e-09	1.019752e+01	9.904762e+01
1.580000e-06	1.387149e-06	1.519323e-09	1.042273e+01	1.017804e+02
1.590000e-06	1.416931e-06	1.558727e-09	1.064650e+01	1.044578e+02
1.600000e-06	1.446503e-06	1.597343e-09	1.086870e+01	1.070780e+02
1.610000e-06	1.475853e-06	1.634428e-09	1.108923e+01	1.096393e+02
1.620000e-06	1.505010e-06	1.669782e-09	1.130830e+01	1.121400e+02
1.630000e-06	1.533931e-06	1.703494e-09	1.152562e+01	1.145792e+02
1.640000e-06	1.562533e-06	1.738171e-09	1.174053e+01	1.169561e+02
1.650000e-06	1.590774e-06	1.773718e-09	1.195272e+01	1.192703e+02
1.660000e-06	1.618729e-06	1.806828e-09	1.216276e+01	1.215220e+02
1.670000e-06	1.646529e-06	1.838997e-09	1.237165e+01	1.237119e+02
1.680000e-06	1.674228e-06	1.871103e-09	1.257977e+01	1.258408e+02
1.690000e-06	1.701859e-06	1.902176e-09	1.278739e+01	1.279101e+02
1.700000e-06	1.729311e-06	1.931219e-09	1.299365e+01	1.299213e+02
1.710000e-06	1.756468e-06	1.959524e-09	1.319771e+01	1.318763e+02
1.720000e-06	1.783222e-06	1.989061e-09	1.339873e+01	1.337770e+02
1.730000e-06	1.809452e-06	2.018061e-09	1.359582e+01	1.356252e+02
1.740000e-06	1.835147e-06	2.045201e-09	1.378888e+01	1.374229e+02
1.750000e-06	1.860254e-06	2.071339e-09	1.397753e+01	1.391720e+02
1.760000e-06	1.884778e-06	2.097179e-09	1.416180e+01	1.408741e+02
1.770000e-06	1.908898e-06	2.123456e-09	1.434303e+01	1.425308e+02
1.780000e-06	1.932750e-06	2.149973e-09	1.452225e+01	1.441435e+02
1.790000e-06	1.956383e-06	2.174690e-09	1.469982e+01	1.457134e+02
1.800000e-06	1.979824e-06	2.196800e-09	1.487595e+01	1.472416e+02
1.810000e-06	2.003004e-06	2.218571e-09	1.505012e+01	1.487289e+02
1.820000e-06	2.025794e-06	2.240458e-09	1.522136e+01	1.501762e+02
1.830000e-06	2.048167e-06	2.262165e-09	1.538947e+01	1.515842e+02
1.840000e-06	2.070184e-06	2.285260e-09	1.555490e+01	1.529535e+02
1.850000e-06	2.091856e-06	2.307383e-09	1.571774e+01	1.542848e+02
1.860000e-06	2.113176e-06	2.327882e-09	1.587793e+01	1.555786e+02
1.870000e-06	2.134172e-06	2.349041e-09	1.603569e+01	1.568356e+02
1.880000e-06	2.154803e-06	2.369166e-09	1.619071e+01	1.580563e+02
1.890000e-06	2.175024e-06	2.387517e-09	1.634264e+01	1.592415e+02
1.900000e-06	2.194926e-06	2.405531e-09	1.649218e+01	1.603918e+02
1.910000e-06	2.214635e-06	2.422746e-09	1.664027e+01	1.615079e+02
1.920000e-06	2.234132e-06	2.439781e-09	1.678676e+01	1.625904e+02
1.930000e-06	2.253358e-06	2.457114e-09	1.693123e+01	1.636401e+02
1.940000e-06	2.272188e-06	2.474004e-09	1.707271e+01	1.646576e+02
1.950000e-06	2.290483e-06	2.489838e-09	1.721018e+01	1.656435e+02
1.960000e-06	2.308282e-06	2.505560e-09	1.734391e+01	1.665986e+02
1.970000e-06	2.325662e-06	2.522468e-09	1.747450e+01	1.675232e+02
1.980000e-06	2.342643e-06	2.538208e-09	1.760209e+01	1.684181e+02
1.990000e-06	2.359299e-06	2.551994e-09	1.772724e+01	1.692837e+02
2.000000e-06	2.375676e-06	2.565918e-09	1.785029e+01	1.701205e+02
2.010000e-06	2.391641e-06	2.580366e-09	1.797025e+01	1.709290e+02
2.020000e-06	2.407023e-06	2.592988e-09	1.808583e+01	1.717097e+02
2.030000e-06	2.421869e-06	2.603915e-09	1.819738e+01	1.724631e+02
2.040000e-06	2.436204e-06	2.615490e-09	1.830509e+01	1.731897e+02
2.050000e-06	2.450038e-06	2.628525e-09	1.840904e+01	1.738900e+02
2.060000e-06	2.463463e-06	2.641853e-09	1.850991e+01	1.745647e+02
2.070000e-06	2.476415e-06	2.653866e-09	1.860722e+01	1.752143e+02
2.080000e-06	2.488898e-06	2.664811e-09	1.870102e+01	1.758394e+02
2.090000e-06	2.500950e-06	2.674792e-09	1.879158e+01	1.764408e+02
2.100000e-06	2.512639e-06	2.684342e-09	1.887940e+01	1.770190e+02
2.110000e-06	2.523936e-06	2.691614e-09	1.896429e+01	1.775747e+02
2.120000e-06	2.534651e-06	2.699692e-09	1.904480e+01	1.781085e+02
2.130000e-06	2.544629e-06	2.709666e-09	1.911977e+01	1.786210e+02
2.140000e-06	2.553802e-06	2.717841e-09	1.918870e+01	1.791127e+02
2.150000e-06	2.562298e-06	2.724507e-09	1.925253e+01	1.795840e+02
2.160000e-06	2.570344e-06	2.731345e-09	1.931298e+01	1.800352e+02
2.170000e-06	2.578103e-06	2.739446e-09	1.937129e+01	1.804666e+02
2.180000e-06	2.585594e-06	2.746427e-09	1.942757e+01	1.808782e+02
2.190000e-06	2.592767e-06	2.752174e-09	1.948147e+01	1.812703e+02
2.200000e-06	2.599485e-06	2.757962e-09	1.953195e+01	1.816426e+02
2.210000e-06	2.605747e-06	2.765830e-09	1.957899e+01	1.819951e+02
2.220000e-06	2.611536e-06	2.774349e-09	1.962249e+01	1.823277e+02
2.230000e-06	2.616804e-06	2.781212e-09	1.966208e+01	1.826400e+02
2.240000e-06	2.621628e-06	2.785613e-09	1.969832e+01	1.829319e+02
2.250000e-06	2.625977e-06	2.789011e-09	1.973100e+01	1.832031e+02
2.260000e-06	2.629961e-06	2.794997e-09	1.976094e+01	1.834535e+02
2.270000e-06	2.633698e-06	2.800250e-09	1.978902e+01	1.836828e+02
2.280000e-06	2.637167e-06	2.802693e-09	1.981508e+01	1.838909e+02
2.290000e-06	2.640244e-06	2.805391e-09	1.983820e+01	1.840780e+02
2.300000e-06	2.642726e-06	2.809712e-09	1.985685e+01	1.842439e+02
2.310000e-06	2.644409e-06	2.813408e-09	1.986950e+01	1.843890e+02
2.320000e-06	2.645306e-06	2.815357e-09	1.987623e+01	1.845135e+02
2.330000e-06	2.645608e-06	2.816847e-09	1.987850e+01	1.846177e+02
2.340000e-06	2.645501e-06	2.818441e-09	1.987770e+01	1.847023e+02
2.350000e-06	2.645131e-06	2.821313e-09	1.987492e+01	1.847678e+02
2.360000e-06	2.644461e-06	2.822857e-09	1.986989e+01	1.848148e+02
2.370000e-06	2.643387e-06	2.821732e-09	1.986182e+01	1.848442e+02
2.380000e-06	2.641844e-06	2.823245e-09	1.985022e+01	1.848567e+02
2.390000e-06	2.639878e-06	2.825612e-09	1.983545e+01	1.848533e+02
2.400000e-06	2.637557e-06	2.826247e-09	1.981801e+01	1.848348e+02
2.410000e-06	2.634801e-06	2.821867e-09	1.979730e+01	1.848020e+02
2.420000e-06	2.631538e-06	2.811193e-09	1.977279e+01	1.847558e+02
2.430000e-06	2.627807e-06	2.811659e-09	1.974475e+01	1.846969e+02
2.440000e-06	2.623726e-06	2.822336e-09	1.971409e+01	1.846261e+02
2.450000e-06	2.619406e-06	2.848602e-09	1.968162e+01	1.845438e+02
2.460000e-06	2.614715e-06	2.823600e-09	1.964638e+01	1.844504e+02
2.470000e-06	2.609336e-06	2.808290e-09	1.960597e+01	1.843461e+02
2.480000e-06	2.603323e-06	2.816234e-09	1.956078e+01	1.842309e+02
2.490000e-06	2.596874e-06	2.841851e-09	1.951232e+01	1.841047e+02
2.500000e-06	2.589878e-06	2.841365e-09	1.945976e+01	1.839669e+02
2.510000e-06	2.582236e-06	2.821735e-09	1.940234e+01	1.838170e+02
2.520000e-06	2.574128e-06	2.808579e-09	1.934142e+01	1.836540e+02
2.530000e-06	2.565723e-06	2.810425e-09	1.927827e+01	1.834770e+02
2.540000e-06	2.556891e-06	2.838543e-09	1.921190e+01	1.832846e+02
2.550000e-06	2.547544e-06	2.819451e-09	1.914167e+01	1.830757e+02
2.560000e-06	2.537780e-06	2.791416e-09	1.906831e+01	1.828488e+02
2.570000e-06	2.527739e-06	2.782542e-09	1.899286e+01	1.826026e+02
2.580000e-06	2.517266e-06	2.821331e-09	1.891417e+01	1.823356e+02
2.590000e-06	2.506234e-06	2.814446e-09	1.883128e+01	1.820469e+02
2.600000e-06	2.494808e-06	2.776678e-09	1.874543e+01	1.817352e+02
2.610000e-06	2.482943e-06	2.768033e-09	1.865627e+01	1.813998e+02
2.620000e-06	2.470511e-06	2.792881e-09	1.856286e+01	1.810403e+02
2.630000e-06	2.457631e-06	2.792131e-09	1.846608e+01	1.806565e+02
2.640000e-06	2.444248e-06	2.761296e-09	1.836553e+01	1.802483e+02
2.650000e-06	2.430122e-06	2.758117e-09	1.825939e+01	1.798165e+02
2.660000e-06	2.415185e-06	2.757756e-09	1.814716e+01	1.793616e+02
2.670000e-06	2.399600e-06	2.749104e-09	1.803005e+01	1.788847e+02
2.680000e-06	2.383619e-06	2.742502e-09	1.790998e+01	1.783872e+02
2.690000e-06	2.367326e-06	2.734568e-09	1.778755e+01	1.778703e+02
2.700000e-06	2.350781e-06	2.712183e-09	1.766324e+01	1.773355e+02
2.710000e-06	2.333973e-06	2.708685e-09	1.753695e+01	1.767844e+02
2.720000e-06	2.316728e-06	2.727929e-09	1.740737e+01	1.762181e+02
2.730000e-06	2.298974e-06	2.709694e-09	1.727397e+01	1.756379e+02
2.740000e-06	2.280845e-06	2.681339e-09	1.713776e+01	1.750445e+02
2.750000e-06	2.262416e-06	2.684699e-09	1.699929e+01	1.744386e+02
2.760000e-06	2.243599e-06	2.683919e-09	1.685790e+01	1.738203e+02
2.770000e-06	2.224313e-06	2.657665e-09	1.671299e+01	1.731893e+02
2.780000e-06	2.204594e-06	2.643992e-09	1.656482e+01	1.725451e+02
2.790000e-06	2.184642e-06	2.642430e-09	1.641491e+01	1.718867e+02
2.800000e-06	2.164535e-06	2.628541e-09	1.626383e+01	1.712128e+02
2.810000e-06	2.144187e-06	2.623414e-09	1.611094e+01	1.705219e+02
2.820000e-06	2.123594e-06	2.615782e-09	1.595621e+01	1.698125e+02
2.830000e-06	2.102631e-06	2.595819e-09	1.579869e+01	1.690829e+02
2.840000e-06	2.081119e-06	2.588948e-09	1.563706e+01	1.683313e+02
2.850000e-06	2.059041e-06	2.584254e-09	1.547117e+01	1.675565e+02
2.860000e-06	2.036335e-06	2.561877e-09	1.530056e+01	1.667571e+02
2.870000e-06	2.012980e-06	2.548509e-09	1.512508e+01	1.659324e+02
2.880000e-06	1.989152e-06	2.543262e-09	1.494604e+01	1.650816e+02
2.890000e-06	1.965074e-06	2.525714e-09	1.476513e+01	1.642048e+02
2.900000e-06	1.940859e-06	2.509347e-09	1.458318e+01	1.633021e+02
2.910000e-06	1.916483e-06	2.500804e-09	1.440002e+01	1.623741e+02
2.920000e-06	1.891854e-06	2.486274e-09	1.421497e+01	1.614217e+02
2.930000e-06	1.866880e-06	2.471145e-09	1.402732e+01	1.604459e+02
2.940000e-06	1.841595e-06	2.458570e-09	1.383733e+01	1.594479e+02
2.950000e-06	1.815942e-06	2.440785e-09	1.364458e+01	1.584287e+02
