# Temperatura_=_20.0
# Concentracion g/m^3_=_9000.0
# C_Vs_to_Am_M_A/Vsm_=_65563218390.804596
# pendiente_HvsI_1/m_=_3716.3
# ordenada_HvsI_A/m_=_1297.0
# frecuencia_Hz_=_213029.43878598194

Tiempo_(s)	Campo_(V.s)	Magnetizacion_(V.s)	Campo_(kA/m)	Magnetizacion_(A/m)
0.000000e+00	-2.639474e-06	-2.798600e-09	-1.982398e+01	-1.840974e+02
1.000000e-08	-2.639745e-06	-2.800239e-09	-1.982602e+01	-1.841580e+02
2.000000e-08	-2.639671e-06	-2.802190e-09	-1.982546e+01	-1.841968e+02
3.000000e-08	-2.639080e-06	-2.802603e-09	-1.982102e+01	-1.842139e+02
4.000000e-08	-2.637873e-06	-2.800851e-09	-1.981196e+01	-1.842100e+02
5.000000e-08	-2.635958e-06	-2.800030e-09	-1.979758e+01	-1.841860e+02
6.000000e-08	-2.633368e-06	-2.802855e-09	-1.977813e+01	-1.841431e+02
7.000000e-08	-2.630275e-06	-2.794995e-09	-1.975489e+01	-1.840823e+02
8.000000e-08	-2.626758e-06	-2.795049e-09	-1.972848e+01	-1.840053e+02
9.000000e-08	-2.622888e-06	-2.809964e-09	-1.969942e+01	-1.839136e+02
1.000000e-07	-2.618664e-06	-2.790048e-09	-1.966769e+01	-1.838085e+02
1.100000e-07	-2.614057e-06	-2.790904e-09	-1.963309e+01	-1.836917e+02
1.200000e-07	-2.608962e-06	-2.785643e-09	-1.959482e+01	-1.835643e+02
1.300000e-07	-2.603406e-06	-2.799701e-09	-1.955309e+01	-1.834275e+02
1.400000e-07	-2.597527e-06	-2.783357e-09	-1.950894e+01	-1.832820e+02
1.500000e-07	-2.591173e-06	-2.771746e-09	-1.946122e+01	-1.831282e+02
1.600000e-07	-2.584215e-06	-2.782830e-09	-1.940896e+01	-1.829661e+02
1.700000e-07	-2.576844e-06	-2.771060e-09	-1.935359e+01	-1.827951e+02
1.800000e-07	-2.569198e-06	-2.786060e-09	-1.929617e+01	-1.826146e+02
1.900000e-07	-2.561225e-06	-2.753850e-09	-1.923629e+01	-1.824233e+02
2.000000e-07	-2.552734e-06	-2.761107e-09	-1.917251e+01	-1.822197e+02
2.100000e-07	-2.543641e-06	-2.758032e-09	-1.910422e+01	-1.820021e+02
2.200000e-07	-2.534061e-06	-2.780173e-09	-1.903227e+01	-1.817686e+02
2.300000e-07	-2.523809e-06	-2.766796e-09	-1.895527e+01	-1.815173e+02
2.400000e-07	-2.512762e-06	-2.739166e-09	-1.887231e+01	-1.812463e+02
2.500000e-07	-2.501204e-06	-2.761277e-09	-1.878550e+01	-1.809540e+02
2.600000e-07	-2.489280e-06	-2.767775e-09	-1.869594e+01	-1.806389e+02
2.700000e-07	-2.476839e-06	-2.750315e-09	-1.860250e+01	-1.803002e+02
2.800000e-07	-2.463848e-06	-2.703694e-09	-1.850493e+01	-1.799370e+02
2.900000e-07	-2.450479e-06	-2.725374e-09	-1.840452e+01	-1.795492e+02
3.000000e-07	-2.436679e-06	-2.733623e-09	-1.830088e+01	-1.791371e+02
3.100000e-07	-2.422273e-06	-2.716833e-09	-1.819268e+01	-1.787012e+02
3.200000e-07	-2.407314e-06	-2.700126e-09	-1.808033e+01	-1.782426e+02
3.300000e-07	-2.391772e-06	-2.693485e-09	-1.796360e+01	-1.777625e+02
3.400000e-07	-2.375509e-06	-2.692583e-09	-1.784145e+01	-1.772624e+02
3.500000e-07	-2.358849e-06	-2.693496e-09	-1.771633e+01	-1.767439e+02
3.600000e-07	-2.341940e-06	-2.686508e-09	-1.758933e+01	-1.762085e+02
3.700000e-07	-2.324698e-06	-2.650990e-09	-1.745983e+01	-1.756576e+02
3.800000e-07	-2.307085e-06	-2.647408e-09	-1.732755e+01	-1.750924e+02
3.900000e-07	-2.289070e-06	-2.664615e-09	-1.719225e+01	-1.745137e+02
4.000000e-07	-2.270640e-06	-2.651654e-09	-1.705382e+01	-1.739221e+02
4.100000e-07	-2.251708e-06	-2.618064e-09	-1.691164e+01	-1.733177e+02
4.200000e-07	-2.232425e-06	-2.613614e-09	-1.676681e+01	-1.727003e+02
4.300000e-07	-2.212901e-06	-2.617435e-09	-1.662017e+01	-1.720691e+02
4.400000e-07	-2.193160e-06	-2.607156e-09	-1.647191e+01	-1.714233e+02
4.500000e-07	-2.173192e-06	-2.592665e-09	-1.632194e+01	-1.707616e+02
4.600000e-07	-2.152889e-06	-2.572580e-09	-1.616945e+01	-1.700827e+02
4.700000e-07	-2.132160e-06	-2.559403e-09	-1.601376e+01	-1.693852e+02
4.800000e-07	-2.111030e-06	-2.561024e-09	-1.585506e+01	-1.686677e+02
4.900000e-07	-2.089575e-06	-2.552579e-09	-1.569392e+01	-1.679289e+02
5.000000e-07	-2.067824e-06	-2.525758e-09	-1.553056e+01	-1.671679e+02
5.100000e-07	-2.045703e-06	-2.511020e-09	-1.536442e+01	-1.663839e+02
5.200000e-07	-2.023186e-06	-2.511033e-09	-1.519530e+01	-1.655767e+02
5.300000e-07	-2.000331e-06	-2.498326e-09	-1.502365e+01	-1.647460e+02
5.400000e-07	-1.977135e-06	-2.476850e-09	-1.484943e+01	-1.638922e+02
5.500000e-07	-1.953680e-06	-2.462565e-09	-1.467327e+01	-1.630160e+02
5.600000e-07	-1.930044e-06	-2.452244e-09	-1.449576e+01	-1.621180e+02
5.700000e-07	-1.906211e-06	-2.440237e-09	-1.431676e+01	-1.611992e+02
5.800000e-07	-1.882061e-06	-2.424752e-09	-1.413537e+01	-1.602605e+02
5.900000e-07	-1.857439e-06	-2.412370e-09	-1.395045e+01	-1.593028e+02
6.000000e-07	-1.832315e-06	-2.396579e-09	-1.376175e+01	-1.583267e+02
6.100000e-07	-1.806640e-06	-2.378155e-09	-1.356892e+01	-1.573327e+02
6.200000e-07	-1.780390e-06	-2.363610e-09	-1.337176e+01	-1.563207e+02
6.300000e-07	-1.753649e-06	-2.348724e-09	-1.317092e+01	-1.552904e+02
6.400000e-07	-1.726523e-06	-2.331035e-09	-1.296719e+01	-1.542408e+02
6.500000e-07	-1.699106e-06	-2.314323e-09	-1.276127e+01	-1.531707e+02
6.600000e-07	-1.671508e-06	-2.297787e-09	-1.255399e+01	-1.520785e+02
6.700000e-07	-1.643787e-06	-2.275652e-09	-1.234580e+01	-1.509621e+02
6.800000e-07	-1.615874e-06	-2.257403e-09	-1.213615e+01	-1.498192e+02
6.900000e-07	-1.587716e-06	-2.246130e-09	-1.192467e+01	-1.486475e+02
7.000000e-07	-1.559310e-06	-2.226152e-09	-1.171133e+01	-1.474447e+02
7.100000e-07	-1.530560e-06	-2.200314e-09	-1.149539e+01	-1.462084e+02
7.200000e-07	-1.501503e-06	-2.182833e-09	-1.127716e+01	-1.449369e+02
7.300000e-07	-1.472248e-06	-2.170430e-09	-1.105744e+01	-1.436284e+02
7.400000e-07	-1.442764e-06	-2.150304e-09	-1.083600e+01	-1.422819e+02
7.500000e-07	-1.413087e-06	-2.121955e-09	-1.061310e+01	-1.408969e+02
7.600000e-07	-1.383203e-06	-2.096540e-09	-1.038866e+01	-1.394733e+02
7.700000e-07	-1.353138e-06	-2.078014e-09	-1.016285e+01	-1.380118e+02
7.800000e-07	-1.322829e-06	-2.059715e-09	-9.935212e+00	-1.365134e+02
7.900000e-07	-1.292196e-06	-2.033962e-09	-9.705144e+00	-1.349796e+02
8.000000e-07	-1.261336e-06	-2.003394e-09	-9.473370e+00	-1.334122e+02
8.100000e-07	-1.230288e-06	-1.977982e-09	-9.240177e+00	-1.318132e+02
8.200000e-07	-1.199051e-06	-1.958316e-09	-9.005568e+00	-1.301845e+02
8.300000e-07	-1.167666e-06	-1.935893e-09	-8.769854e+00	-1.285280e+02
8.400000e-07	-1.136167e-06	-1.906697e-09	-8.533273e+00	-1.268452e+02
8.500000e-07	-1.104554e-06	-1.876387e-09	-8.295841e+00	-1.251372e+02
8.600000e-07	-1.072841e-06	-1.852146e-09	-8.057662e+00	-1.234045e+02
8.700000e-07	-1.041009e-06	-1.830691e-09	-7.818584e+00	-1.216469e+02
8.800000e-07	-1.009019e-06	-1.803049e-09	-7.578318e+00	-1.198635e+02
8.900000e-07	-9.768344e-07	-1.769907e-09	-7.336594e+00	-1.180526e+02
9.000000e-07	-9.445182e-07	-1.740755e-09	-7.093881e+00	-1.162118e+02
9.100000e-07	-9.119670e-07	-1.716071e-09	-6.849402e+00	-1.143380e+02
9.200000e-07	-8.790761e-07	-1.687121e-09	-6.602373e+00	-1.124278e+02
9.300000e-07	-8.459634e-07	-1.652620e-09	-6.353677e+00	-1.104769e+02
9.400000e-07	-8.126392e-07	-1.618084e-09	-6.103393e+00	-1.084811e+02
9.500000e-07	-7.791178e-07	-1.586943e-09	-5.851627e+00	-1.064359e+02
9.600000e-07	-7.453392e-07	-1.558493e-09	-5.597931e+00	-1.043370e+02
9.700000e-07	-7.112835e-07	-1.526549e-09	-5.342152e+00	-1.021802e+02
9.800000e-07	-6.770065e-07	-1.490119e-09	-5.084712e+00	-9.996185e+01
9.900000e-07	-6.425555e-07	-1.454241e-09	-4.825966e+00	-9.767856e+01
1.000000e-06	-6.079648e-07	-1.421153e-09	-4.566169e+00	-9.532769e+01
1.010000e-06	-5.731138e-07	-1.388125e-09	-4.304418e+00	-9.290726e+01
1.020000e-06	-5.380598e-07	-1.350338e-09	-4.041142e+00	-9.041593e+01
1.030000e-06	-5.029865e-07	-1.308995e-09	-3.777721e+00	-8.785307e+01
1.040000e-06	-4.678483e-07	-1.267935e-09	-3.513813e+00	-8.521866e+01
1.050000e-06	-4.325443e-07	-1.227794e-09	-3.248659e+00	-8.251325e+01
1.060000e-06	-3.971223e-07	-1.187151e-09	-2.982619e+00	-7.973784e+01
1.070000e-06	-3.616560e-07	-1.144704e-09	-2.716247e+00	-7.689378e+01
1.080000e-06	-3.261865e-07	-1.102064e-09	-2.449850e+00	-7.398266e+01
1.090000e-06	-2.906915e-07	-1.058406e-09	-2.183262e+00	-7.100615e+01
1.100000e-06	-2.551672e-07	-1.011761e-09	-1.916454e+00	-6.796596e+01
1.110000e-06	-2.196341e-07	-9.645104e-10	-1.649580e+00	-6.486372e+01
1.120000e-06	-1.840680e-07	-9.171020e-10	-1.382458e+00	-6.170087e+01
1.130000e-06	-1.484753e-07	-8.689101e-10	-1.115136e+00	-5.847873e+01
1.140000e-06	-1.128841e-07	-8.193768e-10	-8.478250e-01	-5.519837e+01
1.150000e-06	-7.730386e-08	-7.700296e-10	-5.805969e-01	-5.186074e+01
1.160000e-06	-4.174308e-08	-7.200150e-10	-3.135148e-01	-4.846666e+01
1.170000e-06	-6.176581e-09	-6.674789e-10	-4.638971e-02	-4.501690e+01
1.180000e-06	2.942338e-08	-6.149651e-10	2.209867e-01	-4.151233e+01
1.190000e-06	6.501034e-08	-5.633061e-10	4.882655e-01	-3.795394e+01
1.200000e-06	1.005689e-07	-5.104606e-10	7.553305e-01	-3.434304e+01
1.210000e-06	1.361295e-07	-4.561552e-10	1.022411e+00	-3.068131e+01
1.220000e-06	1.716982e-07	-4.014046e-10	1.289554e+00	-2.697092e+01
1.230000e-06	2.072744e-07	-3.449401e-10	1.556751e+00	-2.321463e+01
1.240000e-06	2.428260e-07	-2.888103e-10	1.823764e+00	-1.941581e+01
1.250000e-06	2.783024e-07	-2.331170e-10	2.090213e+00	-1.557849e+01
1.260000e-06	3.137623e-07	-1.751316e-10	2.356538e+00	-1.170738e+01
1.270000e-06	3.492081e-07	-1.170600e-10	2.622755e+00	-7.807806e+00
1.280000e-06	3.845691e-07	-5.979145e-11	2.888337e+00	-3.885649e+00
1.290000e-06	4.198950e-07	-2.982503e-12	3.153655e+00	5.271872e-02
1.300000e-06	4.551573e-07	5.560146e-11	3.418496e+00	4.000566e+00
1.310000e-06	4.903505e-07	1.150008e-10	3.682818e+00	7.950928e+00
1.320000e-06	5.255136e-07	1.745731e-10	3.946913e+00	1.189675e+01
1.330000e-06	5.605824e-07	2.328479e-10	4.210299e+00	1.583104e+01
1.340000e-06	5.954815e-07	2.905842e-10	4.472412e+00	1.974701e+01
1.350000e-06	6.301320e-07	3.506882e-10	4.732657e+00	2.363820e+01
1.360000e-06	6.646074e-07	4.107302e-10	4.991588e+00	2.749864e+01
1.370000e-06	6.989909e-07	4.682293e-10	5.249828e+00	3.132289e+01
1.380000e-06	7.331892e-07	5.241780e-10	5.506677e+00	3.510618e+01
1.390000e-06	7.671042e-07	5.817229e-10	5.761398e+00	3.884444e+01
1.400000e-06	8.007375e-07	6.379735e-10	6.014004e+00	4.253431e+01
1.410000e-06	8.341490e-07	6.913532e-10	6.264944e+00	4.617315e+01
1.420000e-06	8.673256e-07	7.430863e-10	6.514120e+00	4.975901e+01
1.430000e-06	9.002517e-07	7.940668e-10	6.761414e+00	5.329059e+01
1.440000e-06	9.328839e-07	8.443583e-10	7.006501e+00	5.676715e+01
1.450000e-06	9.652941e-07	8.941674e-10	7.249919e+00	6.018846e+01
1.460000e-06	9.975261e-07	9.445550e-10	7.492001e+00	6.355463e+01
1.470000e-06	1.029550e-06	9.946961e-10	7.732519e+00	6.686610e+01
1.480000e-06	1.061452e-06	1.043089e-09	7.972119e+00	7.012347e+01
1.490000e-06	1.093236e-06	1.090998e-09	8.210837e+00	7.332744e+01
1.500000e-06	1.124912e-06	1.138917e-09	8.448744e+00	7.647871e+01
1.510000e-06	1.156503e-06	1.186260e-09	8.686013e+00	7.957789e+01
1.520000e-06	1.188011e-06	1.233737e-09	8.922652e+00	8.262544e+01
1.530000e-06	1.219415e-06	1.281346e-09	9.158513e+00	8.562164e+01
1.540000e-06	1.250660e-06	1.327139e-09	9.393182e+00	8.856656e+01
1.550000e-06	1.281635e-06	1.369454e-09	9.625826e+00	9.146001e+01
1.560000e-06	1.312276e-06	1.410462e-09	9.855958e+00	9.430159e+01
1.570000e-06	1.342658e-06	1.451447e-09	1.008414e+01	9.709070e+01
1.580000e-06	1.372791e-06	1.492365e-09	1.031046e+01	9.982654e+01
1.590000e-06	1.402647e-06	1.532572e-09	1.053470e+01	1.025082e+02
1.600000e-06	1.432297e-06	1.571070e-09	1.075738e+01	1.051347e+02
1.610000e-06	1.461785e-06	1.609635e-09	1.097886e+01	1.077050e+02
1.620000e-06	1.491047e-06	1.646999e-09	1.119863e+01	1.102182e+02
1.630000e-06	1.520055e-06	1.681734e-09	1.141650e+01	1.126734e+02
1.640000e-06	1.548806e-06	1.716447e-09	1.163244e+01	1.150698e+02
1.650000e-06	1.577259e-06	1.751217e-09	1.184613e+01	1.174072e+02
1.660000e-06	1.605414e-06	1.784730e-09	1.205760e+01	1.196850e+02
1.670000e-06	1.633349e-06	1.818417e-09	1.226740e+01	1.219036e+02
1.680000e-06	1.661155e-06	1.851738e-09	1.247624e+01	1.240631e+02
1.690000e-06	1.688830e-06	1.882782e-09	1.268409e+01	1.261642e+02
1.700000e-06	1.716377e-06	1.913059e-09	1.289099e+01	1.282080e+02
1.710000e-06	1.743742e-06	1.944254e-09	1.309652e+01	1.301955e+02
1.720000e-06	1.770767e-06	1.974783e-09	1.329949e+01	1.321284e+02
1.730000e-06	1.797328e-06	2.004139e-09	1.349898e+01	1.340081e+02
1.740000e-06	1.823318e-06	2.031889e-09	1.369418e+01	1.358367e+02
1.750000e-06	1.848728e-06	2.057673e-09	1.388502e+01	1.376159e+02
1.760000e-06	1.873547e-06	2.083348e-09	1.407142e+01	1.393477e+02
1.770000e-06	1.897843e-06	2.109356e-09	1.425390e+01	1.410339e+02
1.780000e-06	1.921860e-06	2.135907e-09	1.443428e+01	1.426764e+02
1.790000e-06	1.945656e-06	2.163375e-09	1.461301e+01	1.442768e+02
1.800000e-06	1.969203e-06	2.188956e-09	1.478986e+01	1.458365e+02
1.810000e-06	1.992477e-06	2.211073e-09	1.496466e+01	1.473568e+02
1.820000e-06	2.015419e-06	2.232955e-09	1.513697e+01	1.488387e+02
1.830000e-06	2.038002e-06	2.255928e-09	1.530658e+01	1.502828e+02
1.840000e-06	2.060207e-06	2.278269e-09	1.547335e+01	1.516897e+02
1.850000e-06	2.082081e-06	2.299662e-09	1.563764e+01	1.530596e+02
1.860000e-06	2.103664e-06	2.321184e-09	1.579974e+01	1.543926e+02
1.870000e-06	2.124848e-06	2.341629e-09	1.595884e+01	1.556887e+02
1.880000e-06	2.145611e-06	2.361167e-09	1.611479e+01	1.569476e+02
1.890000e-06	2.166039e-06	2.381048e-09	1.626821e+01	1.581692e+02
1.900000e-06	2.186134e-06	2.399733e-09	1.641913e+01	1.593534e+02
1.910000e-06	2.205926e-06	2.416536e-09	1.656778e+01	1.605001e+02
1.920000e-06	2.225495e-06	2.433269e-09	1.671476e+01	1.616092e+02
1.930000e-06	2.244869e-06	2.450954e-09	1.686027e+01	1.626811e+02
1.940000e-06	2.263898e-06	2.467826e-09	1.700319e+01	1.637160e+02
1.950000e-06	2.282468e-06	2.482373e-09	1.714266e+01	1.647148e+02
1.960000e-06	2.300521e-06	2.497418e-09	1.727825e+01	1.656782e+02
1.970000e-06	2.318072e-06	2.513992e-09	1.741007e+01	1.666073e+02
1.980000e-06	2.335189e-06	2.529349e-09	1.753863e+01	1.675033e+02
1.990000e-06	2.351957e-06	2.542714e-09	1.766456e+01	1.683677e+02
2.000000e-06	2.368487e-06	2.555278e-09	1.778871e+01	1.692020e+02
2.010000e-06	2.384600e-06	2.568956e-09	1.790973e+01	1.700078e+02
2.020000e-06	2.400157e-06	2.581572e-09	1.802658e+01	1.707865e+02
2.030000e-06	2.415212e-06	2.592354e-09	1.813965e+01	1.715396e+02
2.040000e-06	2.429750e-06	2.603641e-09	1.824883e+01	1.722687e+02
2.050000e-06	2.443809e-06	2.616038e-09	1.835443e+01	1.729748e+02
2.060000e-06	2.457453e-06	2.628029e-09	1.845690e+01	1.736590e+02
2.070000e-06	2.470671e-06	2.638855e-09	1.855618e+01	1.743221e+02
2.080000e-06	2.483438e-06	2.649567e-09	1.865206e+01	1.749648e+02
2.090000e-06	2.495740e-06	2.660312e-09	1.874446e+01	1.755874e+02
2.100000e-06	2.507648e-06	2.671077e-09	1.883389e+01	1.761900e+02
2.110000e-06	2.519162e-06	2.681170e-09	1.892037e+01	1.767728e+02
2.120000e-06	2.530138e-06	2.689930e-09	1.900281e+01	1.773356e+02
2.130000e-06	2.540511e-06	2.698764e-09	1.908072e+01	1.778781e+02
2.140000e-06	2.550223e-06	2.707448e-09	1.915365e+01	1.784000e+02
2.150000e-06	2.559168e-06	2.714936e-09	1.922084e+01	1.789011e+02
2.160000e-06	2.567470e-06	2.722005e-09	1.928319e+01	1.793812e+02
2.170000e-06	2.575391e-06	2.729742e-09	1.934268e+01	1.798399e+02
2.180000e-06	2.582994e-06	2.738426e-09	1.939979e+01	1.802772e+02
2.190000e-06	2.590265e-06	2.746320e-09	1.945439e+01	1.806929e+02
2.200000e-06	2.597215e-06	2.752819e-09	1.950659e+01	1.810873e+02
2.210000e-06	2.603668e-06	2.759054e-09	1.955506e+01	1.814602e+02
2.220000e-06	2.609608e-06	2.767682e-09	1.959967e+01	1.818120e+02
2.230000e-06	2.615136e-06	2.776008e-09	1.964120e+01	1.821427e+02
2.240000e-06	2.620179e-06	2.780909e-09	1.967907e+01	1.824527e+02
2.250000e-06	2.624750e-06	2.783635e-09	1.971340e+01	1.827420e+02
2.260000e-06	2.628942e-06	2.786937e-09	1.974488e+01	1.830108e+02
2.270000e-06	2.632835e-06	2.792531e-09	1.977412e+01	1.832591e+02
2.280000e-06	2.636450e-06	2.797849e-09	1.980127e+01	1.834869e+02
2.290000e-06	2.639703e-06	2.802205e-09	1.982571e+01	1.836940e+02
2.300000e-06	2.642439e-06	2.806357e-09	1.984625e+01	1.838802e+02
2.310000e-06	2.644525e-06	2.810309e-09	1.986192e+01	1.840451e+02
2.320000e-06	2.645891e-06	2.813747e-09	1.987218e+01	1.841886e+02
2.330000e-06	2.646567e-06	2.815995e-09	1.987725e+01	1.843103e+02
2.340000e-06	2.646733e-06	2.817327e-09	1.987850e+01	1.844099e+02
2.350000e-06	2.646528e-06	2.819494e-09	1.987696e+01	1.844874e+02
2.360000e-06	2.646020e-06	2.823261e-09	1.987314e+01	1.845427e+02
2.370000e-06	2.645123e-06	2.824455e-09	1.986641e+01	1.845762e+02
2.380000e-06	2.643802e-06	2.823229e-09	1.985649e+01	1.845881e+02
2.390000e-06	2.642077e-06	2.824194e-09	1.984353e+01	1.845793e+02
2.400000e-06	2.639931e-06	2.821189e-09	1.982741e+01	1.845506e+02
2.410000e-06	2.637441e-06	2.825521e-09	1.980872e+01	1.845033e+02
2.420000e-06	2.634480e-06	2.827650e-09	1.978647e+01	1.844385e+02
2.430000e-06	2.630923e-06	2.804371e-09	1.975976e+01	1.843578e+02
2.440000e-06	2.626940e-06	2.824646e-09	1.972985e+01	1.842628e+02
2.450000e-06	2.622703e-06	2.823512e-09	1.969802e+01	1.841548e+02
2.460000e-06	2.618217e-06	2.820132e-09	1.966433e+01	1.840354e+02
2.470000e-06	2.613231e-06	2.808179e-09	1.962689e+01	1.839058e+02
2.480000e-06	2.607455e-06	2.813304e-09	1.958350e+01	1.837669e+02
2.490000e-06	2.601168e-06	2.814674e-09	1.953629e+01	1.836195e+02
2.500000e-06	2.594571e-06	2.804125e-09	1.948673e+01	1.834637e+02
2.510000e-06	2.587347e-06	2.809122e-09	1.943248e+01	1.832996e+02
2.520000e-06	2.579491e-06	2.795543e-09	1.937348e+01	1.831265e+02
2.530000e-06	2.571256e-06	2.810917e-09	1.931163e+01	1.829436e+02
2.540000e-06	2.562732e-06	2.801322e-09	1.924761e+01	1.827496e+02
2.550000e-06	2.553698e-06	2.795274e-09	1.917976e+01	1.825428e+02
2.560000e-06	2.544088e-06	2.770538e-09	1.910758e+01	1.823216e+02
2.570000e-06	2.534125e-06	2.787109e-09	1.903275e+01	1.820839e+02
2.580000e-06	2.523790e-06	2.803890e-09	1.895513e+01	1.818280e+02
2.590000e-06	2.512935e-06	2.776845e-09	1.887360e+01	1.815520e+02
2.600000e-06	2.501617e-06	2.752757e-09	1.878860e+01	1.812543e+02
2.610000e-06	2.489949e-06	2.769315e-09	1.870097e+01	1.809336e+02
2.620000e-06	2.477840e-06	2.794874e-09	1.861002e+01	1.805889e+02
2.630000e-06	2.465227e-06	2.753436e-09	1.851529e+01	1.802198e+02
2.640000e-06	2.452131e-06	2.729819e-09	1.841693e+01	1.798260e+02
2.650000e-06	2.438410e-06	2.748342e-09	1.831388e+01	1.794080e+02
2.660000e-06	2.423843e-06	2.752098e-09	1.820447e+01	1.789665e+02
2.670000e-06	2.408509e-06	2.731842e-09	1.808930e+01	1.785026e+02
2.680000e-06	2.392735e-06	2.724550e-09	1.797083e+01	1.780175e+02
2.690000e-06	2.376640e-06	2.718396e-09	1.784995e+01	1.775129e+02
2.700000e-06	2.360223e-06	2.696365e-09	1.772665e+01	1.769901e+02
2.710000e-06	2.343561e-06	2.710976e-09	1.760150e+01	1.764509e+02
2.720000e-06	2.326580e-06	2.713417e-09	1.747397e+01	1.758965e+02
2.730000e-06	2.309128e-06	2.672478e-09	1.734289e+01	1.753280e+02
2.740000e-06	2.291253e-06	2.661852e-09	1.720864e+01	1.747462e+02
2.750000e-06	2.273045e-06	2.684344e-09	1.707189e+01	1.741516e+02
2.760000e-06	2.254456e-06	2.671687e-09	1.693228e+01	1.735442e+02
2.770000e-06	2.235403e-06	2.639821e-09	1.678918e+01	1.729235e+02
2.780000e-06	2.215929e-06	2.638293e-09	1.664292e+01	1.722890e+02
2.790000e-06	2.196136e-06	2.631802e-09	1.649426e+01	1.716395e+02
2.800000e-06	2.176070e-06	2.619640e-09	1.634355e+01	1.709738e+02
2.810000e-06	2.155810e-06	2.617800e-09	1.619139e+01	1.702905e+02
2.820000e-06	2.135411e-06	2.605481e-09	1.603818e+01	1.695883e+02
2.830000e-06	2.114687e-06	2.588376e-09	1.588253e+01	1.688657e+02
2.840000e-06	2.093413e-06	2.585257e-09	1.572275e+01	1.681216e+02
2.850000e-06	2.071636e-06	2.577298e-09	1.555919e+01	1.673551e+02
2.860000e-06	2.049319e-06	2.561403e-09	1.539158e+01	1.665655e+02
2.870000e-06	2.026311e-06	2.546828e-09	1.521878e+01	1.657525e+02
2.880000e-06	2.002713e-06	2.532070e-09	1.504154e+01	1.649162e+02
2.890000e-06	1.978760e-06	2.518972e-09	1.486163e+01	1.640569e+02
2.900000e-06	1.954593e-06	2.505827e-09	1.468013e+01	1.631753e+02
2.910000e-06	1.930257e-06	2.492478e-09	1.449735e+01	1.622722e+02
2.920000e-06	1.905681e-06	2.481005e-09	1.431277e+01	1.613485e+02
2.930000e-06	1.880875e-06	2.465944e-09	1.412646e+01	1.604052e+02
2.940000e-06	1.855753e-06	2.449057e-09	1.393778e+01	1.594430e+02
