# Temperatura_=_20.0
# Concentracion g/m^3_=_9000.0
# C_Vs_to_Am_M_A/Vsm_=_65563218390.804596
# pendiente_HvsI_1/m_=_3716.3
# ordenada_HvsI_A/m_=_1297.0
# frecuencia_Hz_=_213029.30917234984

Tiempo_(s)	Campo_(V.s)	Magnetizacion_(V.s)	Campo_(kA/m)	Magnetizacion_(A/m)
0.000000e+00	-2.638347e-06	-2.820557e-09	-1.982660e+01	-1.850974e+02
1.000000e-08	-2.638502e-06	-2.821967e-09	-1.982777e+01	-1.851603e+02
2.000000e-08	-2.638299e-06	-2.822372e-09	-1.982624e+01	-1.852030e+02
3.000000e-08	-2.637668e-06	-2.822166e-09	-1.982151e+01	-1.852258e+02
4.000000e-08	-2.636536e-06	-2.822381e-09	-1.981300e+01	-1.852295e+02
5.000000e-08	-2.634711e-06	-2.828340e-09	-1.979928e+01	-1.852148e+02
6.000000e-08	-2.632135e-06	-2.827004e-09	-1.977992e+01	-1.851826e+02
7.000000e-08	-2.628953e-06	-2.803142e-09	-1.975601e+01	-1.851341e+02
8.000000e-08	-2.625340e-06	-2.812269e-09	-1.972886e+01	-1.850707e+02
9.000000e-08	-2.621384e-06	-2.835155e-09	-1.969913e+01	-1.849940e+02
1.000000e-07	-2.617104e-06	-2.844069e-09	-1.966697e+01	-1.849053e+02
1.100000e-07	-2.612463e-06	-2.816808e-09	-1.963210e+01	-1.848063e+02
1.200000e-07	-2.607364e-06	-2.789882e-09	-1.959378e+01	-1.846984e+02
1.300000e-07	-2.601831e-06	-2.804995e-09	-1.955219e+01	-1.845828e+02
1.400000e-07	-2.595937e-06	-2.822435e-09	-1.950790e+01	-1.844604e+02
1.500000e-07	-2.589575e-06	-2.825127e-09	-1.946010e+01	-1.843320e+02
1.600000e-07	-2.582609e-06	-2.795452e-09	-1.940775e+01	-1.841975e+02
1.700000e-07	-2.575169e-06	-2.771774e-09	-1.935184e+01	-1.840565e+02
1.800000e-07	-2.567473e-06	-2.796618e-09	-1.929400e+01	-1.839083e+02
1.900000e-07	-2.559453e-06	-2.819610e-09	-1.923373e+01	-1.837515e+02
2.000000e-07	-2.550887e-06	-2.809899e-09	-1.916936e+01	-1.835842e+02
2.100000e-07	-2.541886e-06	-2.760959e-09	-1.910172e+01	-1.834041e+02
2.200000e-07	-2.532369e-06	-2.773201e-09	-1.903020e+01	-1.832088e+02
2.300000e-07	-2.522056e-06	-2.813715e-09	-1.895271e+01	-1.829957e+02
2.400000e-07	-2.511008e-06	-2.809650e-09	-1.886968e+01	-1.827618e+02
2.500000e-07	-2.499454e-06	-2.787304e-09	-1.878285e+01	-1.825048e+02
2.600000e-07	-2.487527e-06	-2.766044e-09	-1.869322e+01	-1.822221e+02
2.700000e-07	-2.475090e-06	-2.781889e-09	-1.859976e+01	-1.819119e+02
2.800000e-07	-2.462140e-06	-2.777543e-09	-1.850245e+01	-1.815726e+02
2.900000e-07	-2.448748e-06	-2.776103e-09	-1.840181e+01	-1.812034e+02
3.000000e-07	-2.434885e-06	-2.745715e-09	-1.829763e+01	-1.808040e+02
3.100000e-07	-2.420502e-06	-2.737996e-09	-1.818955e+01	-1.803748e+02
3.200000e-07	-2.405550e-06	-2.750728e-09	-1.807719e+01	-1.799168e+02
3.300000e-07	-2.389930e-06	-2.743781e-09	-1.795980e+01	-1.794315e+02
3.400000e-07	-2.373621e-06	-2.717580e-09	-1.783725e+01	-1.789208e+02
3.500000e-07	-2.356956e-06	-2.701483e-09	-1.771201e+01	-1.783873e+02
3.600000e-07	-2.340047e-06	-2.713925e-09	-1.758495e+01	-1.778332e+02
3.700000e-07	-2.322774e-06	-2.706068e-09	-1.745514e+01	-1.772613e+02
3.800000e-07	-2.305087e-06	-2.691472e-09	-1.732223e+01	-1.766738e+02
3.900000e-07	-2.287031e-06	-2.676217e-09	-1.718654e+01	-1.760730e+02
4.000000e-07	-2.268609e-06	-2.670212e-09	-1.704811e+01	-1.754605e+02
4.100000e-07	-2.249711e-06	-2.664403e-09	-1.690609e+01	-1.748375e+02
4.200000e-07	-2.230408e-06	-2.655981e-09	-1.676103e+01	-1.742048e+02
4.300000e-07	-2.210835e-06	-2.637869e-09	-1.661395e+01	-1.735622e+02
4.400000e-07	-2.191024e-06	-2.624316e-09	-1.646507e+01	-1.729094e+02
4.500000e-07	-2.170937e-06	-2.625055e-09	-1.631412e+01	-1.722452e+02
4.600000e-07	-2.150564e-06	-2.618991e-09	-1.616102e+01	-1.715681e+02
4.700000e-07	-2.129860e-06	-2.598095e-09	-1.600543e+01	-1.708762e+02
4.800000e-07	-2.108781e-06	-2.582230e-09	-1.584703e+01	-1.701676e+02
4.900000e-07	-2.087334e-06	-2.581663e-09	-1.568586e+01	-1.694400e+02
5.000000e-07	-2.065530e-06	-2.572169e-09	-1.552201e+01	-1.686915e+02
5.100000e-07	-2.043363e-06	-2.548712e-09	-1.535543e+01	-1.679203e+02
5.200000e-07	-2.020776e-06	-2.533978e-09	-1.518569e+01	-1.671248e+02
5.300000e-07	-1.997881e-06	-2.530362e-09	-1.501364e+01	-1.663039e+02
5.400000e-07	-1.974682e-06	-2.517658e-09	-1.483931e+01	-1.654571e+02
5.500000e-07	-1.951159e-06	-2.500015e-09	-1.466254e+01	-1.645841e+02
5.600000e-07	-1.927450e-06	-2.486317e-09	-1.448437e+01	-1.636851e+02
5.700000e-07	-1.903521e-06	-2.472350e-09	-1.430455e+01	-1.627606e+02
5.800000e-07	-1.879229e-06	-2.460758e-09	-1.412200e+01	-1.618116e+02
5.900000e-07	-1.854482e-06	-2.452860e-09	-1.393603e+01	-1.608390e+02
6.000000e-07	-1.829284e-06	-2.433464e-09	-1.374667e+01	-1.598438e+02
6.100000e-07	-1.803599e-06	-2.408607e-09	-1.355366e+01	-1.588269e+02
6.200000e-07	-1.777392e-06	-2.394483e-09	-1.335671e+01	-1.577889e+02
6.300000e-07	-1.750691e-06	-2.384497e-09	-1.315607e+01	-1.567301e+02
6.400000e-07	-1.723554e-06	-2.366434e-09	-1.295214e+01	-1.556504e+02
6.500000e-07	-1.696123e-06	-2.342080e-09	-1.274600e+01	-1.545492e+02
6.600000e-07	-1.668510e-06	-2.322710e-09	-1.253849e+01	-1.534254e+02
6.700000e-07	-1.640772e-06	-2.309970e-09	-1.233005e+01	-1.522774e+02
6.800000e-07	-1.612870e-06	-2.293447e-09	-1.212037e+01	-1.511035e+02
6.900000e-07	-1.584672e-06	-2.270258e-09	-1.190847e+01	-1.499013e+02
7.000000e-07	-1.556222e-06	-2.247834e-09	-1.169467e+01	-1.486686e+02
7.100000e-07	-1.527508e-06	-2.229428e-09	-1.147889e+01	-1.474031e+02
7.200000e-07	-1.498506e-06	-2.211395e-09	-1.126095e+01	-1.461026e+02
7.300000e-07	-1.469226e-06	-2.190698e-09	-1.104092e+01	-1.447652e+02
7.400000e-07	-1.439690e-06	-2.167227e-09	-1.081896e+01	-1.433896e+02
7.500000e-07	-1.409990e-06	-2.142716e-09	-1.059577e+01	-1.419749e+02
7.600000e-07	-1.380063e-06	-2.123051e-09	-1.037087e+01	-1.405207e+02
7.700000e-07	-1.349885e-06	-2.103182e-09	-1.014409e+01	-1.390274e+02
7.800000e-07	-1.319490e-06	-2.076942e-09	-9.915679e+00	-1.374961e+02
7.900000e-07	-1.288897e-06	-2.049015e-09	-9.685783e+00	-1.359281e+02
8.000000e-07	-1.258072e-06	-2.024838e-09	-9.454137e+00	-1.343255e+02
8.100000e-07	-1.227043e-06	-2.000697e-09	-9.220962e+00	-1.326906e+02
8.200000e-07	-1.195824e-06	-1.972787e-09	-8.986361e+00	-1.310258e+02
8.300000e-07	-1.164430e-06	-1.945923e-09	-8.750438e+00	-1.293333e+02
8.400000e-07	-1.132893e-06	-1.920427e-09	-8.513445e+00	-1.276153e+02
8.500000e-07	-1.101230e-06	-1.893009e-09	-8.275508e+00	-1.258735e+02
8.600000e-07	-1.069500e-06	-1.866222e-09	-8.037058e+00	-1.241090e+02
8.700000e-07	-1.037683e-06	-1.840048e-09	-7.797966e+00	-1.223220e+02
8.800000e-07	-1.005693e-06	-1.810947e-09	-7.557567e+00	-1.205122e+02
8.900000e-07	-9.734995e-07	-1.780221e-09	-7.315638e+00	-1.186782e+02
9.000000e-07	-9.411472e-07	-1.750137e-09	-7.072518e+00	-1.168177e+02
9.100000e-07	-9.086066e-07	-1.721528e-09	-6.827981e+00	-1.149279e+02
9.200000e-07	-8.758786e-07	-1.691313e-09	-6.582038e+00	-1.130049e+02
9.300000e-07	-8.429243e-07	-1.659123e-09	-6.334394e+00	-1.110445e+02
9.400000e-07	-8.097170e-07	-1.625819e-09	-6.084848e+00	-1.090419e+02
9.500000e-07	-7.762999e-07	-1.593664e-09	-5.833726e+00	-1.069923e+02
9.600000e-07	-7.426525e-07	-1.563564e-09	-5.580872e+00	-1.048908e+02
9.700000e-07	-7.087032e-07	-1.531712e-09	-5.325751e+00	-1.027327e+02
9.800000e-07	-6.745104e-07	-1.498017e-09	-5.068799e+00	-1.005137e+02
9.900000e-07	-6.400973e-07	-1.462858e-09	-4.810192e+00	-9.822992e+01
1.000000e-06	-6.055137e-07	-1.426332e-09	-4.550304e+00	-9.587834e+01
1.010000e-06	-5.707962e-07	-1.390039e-09	-4.289410e+00	-9.345656e+01
1.020000e-06	-5.358491e-07	-1.353122e-09	-4.026790e+00	-9.096300e+01
1.030000e-06	-5.007662e-07	-1.313827e-09	-3.763150e+00	-8.839684e+01
1.040000e-06	-4.655981e-07	-1.271597e-09	-3.498869e+00	-8.575797e+01
1.050000e-06	-4.303007e-07	-1.229574e-09	-3.233617e+00	-8.304691e+01
1.060000e-06	-3.949056e-07	-1.189647e-09	-2.967630e+00	-8.026470e+01
1.070000e-06	-3.594550e-07	-1.148164e-09	-2.701227e+00	-7.741274e+01
1.080000e-06	-3.239462e-07	-1.106194e-09	-2.434386e+00	-7.449268e+01
1.090000e-06	-2.883802e-07	-1.062436e-09	-2.167115e+00	-7.150623e+01
1.100000e-06	-2.528125e-07	-1.015290e-09	-1.899831e+00	-6.845509e+01
1.110000e-06	-2.172739e-07	-9.682494e-10	-1.632766e+00	-6.534081e+01
1.120000e-06	-1.817092e-07	-9.213779e-10	-1.365505e+00	-6.216471e+01
1.130000e-06	-1.461020e-07	-8.720157e-10	-1.097925e+00	-5.892789e+01
1.140000e-06	-1.104976e-07	-8.206206e-10	-8.303655e-01	-5.563118e+01
1.150000e-06	-7.488255e-08	-7.713947e-10	-5.627262e-01	-5.227522e+01
1.160000e-06	-3.925986e-08	-7.226374e-10	-2.950293e-01	-4.886053e+01
1.170000e-06	-3.641118e-09	-6.710704e-10	-2.736222e-02	-4.538760e+01
1.180000e-06	3.197910e-08	-6.174800e-10	2.403160e-01	-4.185702e+01
1.190000e-06	6.761642e-08	-5.633644e-10	5.081227e-01	-3.826965e+01
1.200000e-06	1.032320e-07	-5.111819e-10	7.757663e-01	-3.462672e+01
1.210000e-06	1.388104e-07	-4.576090e-10	1.043130e+00	-3.092998e+01
1.220000e-06	1.743970e-07	-4.011709e-10	1.310555e+00	-2.718183e+01
1.230000e-06	2.099878e-07	-3.445329e-10	1.578013e+00	-2.338538e+01
1.240000e-06	2.455495e-07	-2.892896e-10	1.845251e+00	-1.954452e+01
1.250000e-06	2.810736e-07	-2.338884e-10	2.112207e+00	-1.566392e+01
1.260000e-06	3.165640e-07	-1.751532e-10	2.378910e+00	-1.174903e+01
1.270000e-06	3.519820e-07	-1.153611e-10	2.645068e+00	-7.805982e+00
1.280000e-06	3.873563e-07	-5.590772e-11	2.910899e+00	-3.841527e+00
1.290000e-06	4.227458e-07	2.971894e-12	3.176843e+00	1.371373e-01
1.300000e-06	4.580990e-07	6.254161e-11	3.442514e+00	4.122498e+00
1.310000e-06	4.933148e-07	1.230183e-10	3.707154e+00	8.106910e+00
1.320000e-06	5.284333e-07	1.834781e-10	3.971062e+00	1.208277e+01
1.330000e-06	5.634716e-07	2.418849e-10	4.234367e+00	1.604269e+01
1.340000e-06	5.983610e-07	2.996948e-10	4.496553e+00	1.997968e+01
1.350000e-06	6.330755e-07	3.580831e-10	4.757425e+00	2.388726e+01
1.360000e-06	6.675753e-07	4.176924e-10	5.016684e+00	2.775960e+01
1.370000e-06	7.018254e-07	4.753834e-10	5.274066e+00	3.159161e+01
1.380000e-06	7.358160e-07	5.306970e-10	5.529498e+00	3.537897e+01
1.390000e-06	7.696305e-07	5.879835e-10	5.783607e+00	3.911817e+01
1.400000e-06	8.032473e-07	6.450990e-10	6.036229e+00	4.280648e+01
1.410000e-06	8.366142e-07	7.000502e-10	6.286974e+00	4.644193e+01
1.420000e-06	8.697252e-07	7.520436e-10	6.535796e+00	5.002320e+01
1.430000e-06	9.025245e-07	8.039627e-10	6.782276e+00	5.354956e+01
1.440000e-06	9.350914e-07	8.561159e-10	7.027009e+00	5.702076e+01
1.450000e-06	9.674546e-07	9.073139e-10	7.270211e+00	6.043693e+01
1.460000e-06	9.996265e-07	9.558760e-10	7.511976e+00	6.379846e+01
1.470000e-06	1.031661e-06	1.003858e-09	7.752706e+00	6.710588e+01
1.480000e-06	1.063540e-06	1.053353e-09	7.992275e+00	7.035981e+01
1.490000e-06	1.095306e-06	1.102749e-09	8.230984e+00	7.356083e+01
1.500000e-06	1.127016e-06	1.149833e-09	8.469284e+00	7.670945e+01
1.510000e-06	1.158657e-06	1.195973e-09	8.707057e+00	7.980604e+01
1.520000e-06	1.190190e-06	1.244677e-09	8.944022e+00	8.285083e+01
1.530000e-06	1.221562e-06	1.292625e-09	9.179777e+00	8.584386e+01
1.540000e-06	1.252731e-06	1.336995e-09	9.414000e+00	8.878502e+01
1.550000e-06	1.283655e-06	1.377967e-09	9.646390e+00	9.167402e+01
1.560000e-06	1.314267e-06	1.420420e-09	9.876435e+00	9.451045e+01
1.570000e-06	1.344559e-06	1.463429e-09	1.010407e+01	9.729379e+01
1.580000e-06	1.374593e-06	1.502869e-09	1.032977e+01	1.000235e+02
1.590000e-06	1.404404e-06	1.541511e-09	1.055379e+01	1.026988e+02
1.600000e-06	1.434006e-06	1.580088e-09	1.077624e+01	1.053192e+02
1.610000e-06	1.463432e-06	1.618759e-09	1.099738e+01	1.078841e+02
1.620000e-06	1.492656e-06	1.656911e-09	1.121699e+01	1.103929e+02
1.630000e-06	1.521673e-06	1.692519e-09	1.143504e+01	1.128451e+02
1.640000e-06	1.550412e-06	1.726676e-09	1.165101e+01	1.152404e+02
1.650000e-06	1.578764e-06	1.761720e-09	1.186407e+01	1.175787e+02
1.660000e-06	1.606885e-06	1.795629e-09	1.207540e+01	1.198597e+02
1.670000e-06	1.634854e-06	1.827524e-09	1.228557e+01	1.220837e+02
1.680000e-06	1.662641e-06	1.859292e-09	1.249439e+01	1.242508e+02
1.690000e-06	1.690293e-06	1.891039e-09	1.270218e+01	1.263615e+02
1.700000e-06	1.717809e-06	1.922736e-09	1.290896e+01	1.284165e+02
1.710000e-06	1.745087e-06	1.954024e-09	1.311395e+01	1.304167e+02
1.720000e-06	1.772033e-06	1.984093e-09	1.331644e+01	1.323630e+02
1.730000e-06	1.798511e-06	2.013452e-09	1.351542e+01	1.342566e+02
1.740000e-06	1.824423e-06	2.043051e-09	1.371014e+01	1.360989e+02
1.750000e-06	1.849700e-06	2.071177e-09	1.390009e+01	1.378915e+02
1.760000e-06	1.874372e-06	2.097312e-09	1.408550e+01	1.396360e+02
1.770000e-06	1.898628e-06	2.122818e-09	1.426778e+01	1.413340e+02
1.780000e-06	1.922586e-06	2.148601e-09	1.444781e+01	1.429874e+02
1.790000e-06	1.946323e-06	2.174318e-09	1.462619e+01	1.445978e+02
1.800000e-06	1.969878e-06	2.197454e-09	1.480321e+01	1.461670e+02
1.810000e-06	1.993171e-06	2.219336e-09	1.497825e+01	1.476966e+02
1.820000e-06	2.016091e-06	2.242799e-09	1.515049e+01	1.491879e+02
1.830000e-06	2.038623e-06	2.266777e-09	1.531981e+01	1.506421e+02
1.840000e-06	2.060775e-06	2.289614e-09	1.548628e+01	1.520604e+02
1.850000e-06	2.082597e-06	2.312480e-09	1.565027e+01	1.534434e+02
1.860000e-06	2.104095e-06	2.335072e-09	1.581182e+01	1.547917e+02
1.870000e-06	2.125234e-06	2.356812e-09	1.597067e+01	1.561055e+02
1.880000e-06	2.146016e-06	2.377799e-09	1.612685e+01	1.573849e+02
1.890000e-06	2.166433e-06	2.397829e-09	1.628028e+01	1.586296e+02
1.900000e-06	2.186514e-06	2.416185e-09	1.643118e+01	1.598395e+02
1.910000e-06	2.206320e-06	2.433648e-09	1.658002e+01	1.610140e+02
1.920000e-06	2.225897e-06	2.450734e-09	1.672713e+01	1.621529e+02
1.930000e-06	2.245238e-06	2.467188e-09	1.687247e+01	1.632557e+02
1.940000e-06	2.264218e-06	2.483868e-09	1.701511e+01	1.643222e+02
1.950000e-06	2.282769e-06	2.500451e-09	1.715451e+01	1.653523e+02
1.960000e-06	2.300836e-06	2.516369e-09	1.729029e+01	1.663460e+02
1.970000e-06	2.318397e-06	2.530930e-09	1.742225e+01	1.673038e+02
1.980000e-06	2.335541e-06	2.545098e-09	1.755108e+01	1.682264e+02
1.990000e-06	2.352384e-06	2.559865e-09	1.767766e+01	1.691146e+02
2.000000e-06	2.368988e-06	2.574169e-09	1.780244e+01	1.699696e+02
2.010000e-06	2.385196e-06	2.587627e-09	1.792423e+01	1.707929e+02
2.020000e-06	2.400872e-06	2.600942e-09	1.804203e+01	1.715860e+02
2.030000e-06	2.415942e-06	2.613753e-09	1.815528e+01	1.723507e+02
2.040000e-06	2.430369e-06	2.625494e-09	1.826369e+01	1.730886e+02
2.050000e-06	2.444315e-06	2.636462e-09	1.836850e+01	1.738015e+02
2.060000e-06	2.457862e-06	2.648030e-09	1.847030e+01	1.744911e+02
2.070000e-06	2.470979e-06	2.659698e-09	1.856887e+01	1.751588e+02
2.080000e-06	2.483650e-06	2.670868e-09	1.866409e+01	1.758059e+02
2.090000e-06	2.495879e-06	2.680943e-09	1.875599e+01	1.764333e+02
2.100000e-06	2.507675e-06	2.690291e-09	1.884463e+01	1.770418e+02
2.110000e-06	2.519053e-06	2.699951e-09	1.893014e+01	1.776318e+02
2.120000e-06	2.529989e-06	2.708779e-09	1.901232e+01	1.782033e+02
2.130000e-06	2.540308e-06	2.717142e-09	1.908987e+01	1.787563e+02
2.140000e-06	2.549839e-06	2.724350e-09	1.916149e+01	1.792904e+02
2.150000e-06	2.558686e-06	2.731614e-09	1.922797e+01	1.798051e+02
2.160000e-06	2.567021e-06	2.738749e-09	1.929060e+01	1.802998e+02
2.170000e-06	2.574965e-06	2.745807e-09	1.935031e+01	1.807738e+02
2.180000e-06	2.582572e-06	2.753796e-09	1.940747e+01	1.812263e+02
2.190000e-06	2.589802e-06	2.761354e-09	1.946180e+01	1.816569e+02
2.200000e-06	2.596626e-06	2.768659e-09	1.951308e+01	1.820649e+02
2.210000e-06	2.603014e-06	2.775784e-09	1.956109e+01	1.824501e+02
2.220000e-06	2.608969e-06	2.783360e-09	1.960584e+01	1.828122e+02
2.230000e-06	2.614467e-06	2.789338e-09	1.964715e+01	1.831511e+02
2.240000e-06	2.619464e-06	2.794136e-09	1.968470e+01	1.834669e+02
2.250000e-06	2.623978e-06	2.797292e-09	1.971862e+01	1.837598e+02
2.260000e-06	2.628117e-06	2.799733e-09	1.974973e+01	1.840300e+02
2.270000e-06	2.631992e-06	2.805635e-09	1.977885e+01	1.842779e+02
2.280000e-06	2.635584e-06	2.811039e-09	1.980584e+01	1.845037e+02
2.290000e-06	2.638778e-06	2.813813e-09	1.982984e+01	1.847079e+02
2.300000e-06	2.641424e-06	2.816419e-09	1.984973e+01	1.848907e+02
2.310000e-06	2.643388e-06	2.819941e-09	1.986449e+01	1.850522e+02
2.320000e-06	2.644633e-06	2.824723e-09	1.987384e+01	1.851928e+02
2.330000e-06	2.645189e-06	2.828067e-09	1.987802e+01	1.853125e+02
2.340000e-06	2.645253e-06	2.829462e-09	1.987850e+01	1.854114e+02
2.350000e-06	2.645036e-06	2.830714e-09	1.987688e+01	1.854898e+02
2.360000e-06	2.644540e-06	2.833694e-09	1.987314e+01	1.855477e+02
2.370000e-06	2.643648e-06	2.835403e-09	1.986644e+01	1.855856e+02
2.380000e-06	2.642300e-06	2.834200e-09	1.985631e+01	1.856037e+02
2.390000e-06	2.640524e-06	2.827446e-09	1.984297e+01	1.856029e+02
2.400000e-06	2.638327e-06	2.823354e-09	1.982645e+01	1.855839e+02
2.410000e-06	2.635696e-06	2.847973e-09	1.980668e+01	1.855476e+02
2.420000e-06	2.632643e-06	2.840662e-09	1.978374e+01	1.854955e+02
2.430000e-06	2.629126e-06	2.819722e-09	1.975731e+01	1.854288e+02
2.440000e-06	2.625159e-06	2.814021e-09	1.972750e+01	1.853490e+02
2.450000e-06	2.620899e-06	2.825163e-09	1.969549e+01	1.852578e+02
2.460000e-06	2.616331e-06	2.846189e-09	1.966116e+01	1.851566e+02
2.470000e-06	2.611223e-06	2.832332e-09	1.962278e+01	1.850468e+02
2.480000e-06	2.605375e-06	2.813666e-09	1.957883e+01	1.849297e+02
2.490000e-06	2.598963e-06	2.806449e-09	1.953065e+01	1.848059e+02
2.500000e-06	2.592223e-06	2.825360e-09	1.947999e+01	1.846761e+02
2.510000e-06	2.584963e-06	2.843327e-09	1.942544e+01	1.845402e+02
2.520000e-06	2.577113e-06	2.823288e-09	1.936645e+01	1.843978e+02
2.530000e-06	2.568879e-06	2.796706e-09	1.930457e+01	1.842477e+02
2.540000e-06	2.560336e-06	2.798976e-09	1.924037e+01	1.840886e+02
2.550000e-06	2.551294e-06	2.831509e-09	1.917242e+01	1.839185e+02
2.560000e-06	2.541702e-06	2.814943e-09	1.910034e+01	1.837350e+02
2.570000e-06	2.531755e-06	2.780237e-09	1.902559e+01	1.835357e+02
2.580000e-06	2.521444e-06	2.785279e-09	1.894811e+01	1.833178e+02
2.590000e-06	2.510583e-06	2.804432e-09	1.886648e+01	1.830785e+02
2.600000e-06	2.499221e-06	2.797957e-09	1.878110e+01	1.828155e+02
2.610000e-06	2.487499e-06	2.776497e-09	1.869301e+01	1.825262e+02
2.620000e-06	2.475311e-06	2.779423e-09	1.860142e+01	1.822090e+02
2.630000e-06	2.462598e-06	2.769572e-09	1.850589e+01	1.818625e+02
2.640000e-06	2.449424e-06	2.767476e-09	1.840689e+01	1.814860e+02
2.650000e-06	2.435634e-06	2.766926e-09	1.830326e+01	1.810792e+02
2.660000e-06	2.421015e-06	2.755105e-09	1.819341e+01	1.806428e+02
2.670000e-06	2.405664e-06	2.741720e-09	1.807805e+01	1.801780e+02
2.680000e-06	2.389846e-06	2.745115e-09	1.795917e+01	1.796863e+02
2.690000e-06	2.373721e-06	2.745270e-09	1.783800e+01	1.791699e+02
2.700000e-06	2.357328e-06	2.722896e-09	1.771481e+01	1.786311e+02
2.710000e-06	2.340633e-06	2.715520e-09	1.758935e+01	1.780725e+02
2.720000e-06	2.323592e-06	2.712733e-09	1.746129e+01	1.774967e+02
2.730000e-06	2.306126e-06	2.702645e-09	1.733004e+01	1.769058e+02
2.740000e-06	2.288194e-06	2.693290e-09	1.719528e+01	1.763021e+02
2.750000e-06	2.269910e-06	2.684916e-09	1.705788e+01	1.756871e+02
2.760000e-06	2.251248e-06	2.677534e-09	1.691764e+01	1.750618e+02
2.770000e-06	2.232135e-06	2.671422e-09	1.677401e+01	1.744268e+02
2.780000e-06	2.212644e-06	2.659933e-09	1.662754e+01	1.737819e+02
2.790000e-06	2.192879e-06	2.641413e-09	1.647901e+01	1.731265e+02
2.800000e-06	2.172879e-06	2.634829e-09	1.632871e+01	1.724594e+02
2.810000e-06	2.152628e-06	2.629793e-09	1.617653e+01	1.717789e+02
2.820000e-06	2.132171e-06	2.618359e-09	1.602280e+01	1.710832e+02
2.830000e-06	2.111400e-06	2.602994e-09	1.586671e+01	1.703702e+02
2.840000e-06	2.090072e-06	2.588587e-09	1.570644e+01	1.696378e+02
2.850000e-06	2.068121e-06	2.584173e-09	1.554148e+01	1.688839e+02
2.860000e-06	2.045616e-06	2.579483e-09	1.537236e+01	1.681069e+02
2.870000e-06	2.022520e-06	2.559072e-09	1.519880e+01	1.673053e+02
2.880000e-06	1.998882e-06	2.542323e-09	1.502117e+01	1.664782e+02
2.890000e-06	1.974924e-06	2.534769e-09	1.484113e+01	1.656250e+02
2.900000e-06	1.950779e-06	2.519335e-09	1.465968e+01	1.647456e+02
2.910000e-06	1.926456e-06	2.506539e-09	1.447690e+01	1.638403e+02
2.920000e-06	1.901936e-06	2.495679e-09	1.429264e+01	1.629098e+02
2.930000e-06	1.877146e-06	2.475438e-09	1.410634e+01	1.619550e+02
2.940000e-06	1.851972e-06	2.461313e-09	1.391717e+01	1.609768e+02
