# Temperatura_=_20.0
# Concentracion g/m^3_=_9000.0
# C_Vs_to_Am_M_A/Vsm_=_65563218390.804596
# pendiente_HvsI_1/m_=_3716.3
# ordenada_HvsI_A/m_=_1297.0
# frecuencia_Hz_=_135479.07497577136

Tiempo_(s)	Campo_(V.s)	Magnetizacion_(V.s)	Campo_(kA/m)	Magnetizacion_(A/m)
0.000000e+00	-7.943399e-06	-4.730405e-09	-5.691436e+01	-3.129580e+02
1.000000e-08	-7.943662e-06	-4.724978e-09	-5.691624e+01	-3.129472e+02
2.000000e-08	-7.943539e-06	-4.722579e-09	-5.691537e+01	-3.129314e+02
3.000000e-08	-7.943008e-06	-4.723292e-09	-5.691156e+01	-3.129107e+02
4.000000e-08	-7.941832e-06	-4.723947e-09	-5.690313e+01	-3.128850e+02
5.000000e-08	-7.939737e-06	-4.722170e-09	-5.688812e+01	-3.128542e+02
6.000000e-08	-7.936848e-06	-4.719714e-09	-5.686742e+01	-3.128184e+02
7.000000e-08	-7.933418e-06	-4.717297e-09	-5.684285e+01	-3.127775e+02
8.000000e-08	-7.929569e-06	-4.709188e-09	-5.681527e+01	-3.127314e+02
9.000000e-08	-7.925288e-06	-4.701928e-09	-5.678459e+01	-3.126800e+02
1.000000e-07	-7.920382e-06	-4.712921e-09	-5.674944e+01	-3.126233e+02
1.100000e-07	-7.914649e-06	-4.754164e-09	-5.670837e+01	-3.125612e+02
1.200000e-07	-7.908003e-06	-4.775685e-09	-5.666075e+01	-3.124937e+02
1.300000e-07	-7.900616e-06	-4.722401e-09	-5.660782e+01	-3.124207e+02
1.400000e-07	-7.892918e-06	-4.639865e-09	-5.655266e+01	-3.123421e+02
1.500000e-07	-7.885095e-06	-4.662476e-09	-5.649661e+01	-3.122578e+02
1.600000e-07	-7.876885e-06	-4.777471e-09	-5.643779e+01	-3.121678e+02
1.700000e-07	-7.868147e-06	-4.803683e-09	-5.637518e+01	-3.120718e+02
1.800000e-07	-7.858742e-06	-4.697188e-09	-5.630780e+01	-3.119696e+02
1.900000e-07	-7.848461e-06	-4.657636e-09	-5.623413e+01	-3.118609e+02
2.000000e-07	-7.837308e-06	-4.743039e-09	-5.615422e+01	-3.117455e+02
2.100000e-07	-7.825621e-06	-4.828479e-09	-5.607048e+01	-3.116229e+02
2.200000e-07	-7.813451e-06	-4.808223e-09	-5.598329e+01	-3.114925e+02
2.300000e-07	-7.800549e-06	-4.694163e-09	-5.589084e+01	-3.113539e+02
2.400000e-07	-7.787068e-06	-4.643508e-09	-5.579425e+01	-3.112063e+02
2.500000e-07	-7.773186e-06	-4.734526e-09	-5.569479e+01	-3.110491e+02
2.600000e-07	-7.758602e-06	-4.837055e-09	-5.559029e+01	-3.108813e+02
2.700000e-07	-7.742943e-06	-4.762980e-09	-5.547810e+01	-3.107022e+02
2.800000e-07	-7.726481e-06	-4.650588e-09	-5.536015e+01	-3.105110e+02
2.900000e-07	-7.709571e-06	-4.714097e-09	-5.523899e+01	-3.103066e+02
3.000000e-07	-7.692182e-06	-4.828122e-09	-5.511439e+01	-3.100883e+02
3.100000e-07	-7.674339e-06	-4.779386e-09	-5.498655e+01	-3.098551e+02
3.200000e-07	-7.656067e-06	-4.690419e-09	-5.485563e+01	-3.096064e+02
3.300000e-07	-7.637247e-06	-4.739035e-09	-5.472079e+01	-3.093415e+02
3.400000e-07	-7.617863e-06	-4.825597e-09	-5.458190e+01	-3.090598e+02
3.500000e-07	-7.598064e-06	-4.807906e-09	-5.444004e+01	-3.087611e+02
3.600000e-07	-7.577903e-06	-4.749076e-09	-5.429558e+01	-3.084450e+02
3.700000e-07	-7.557250e-06	-4.709184e-09	-5.414761e+01	-3.081116e+02
3.800000e-07	-7.536091e-06	-4.725057e-09	-5.399600e+01	-3.077612e+02
3.900000e-07	-7.514464e-06	-4.776262e-09	-5.384105e+01	-3.073942e+02
4.000000e-07	-7.492234e-06	-4.769589e-09	-5.368177e+01	-3.070114e+02
4.100000e-07	-7.469410e-06	-4.691126e-09	-5.351824e+01	-3.066138e+02
4.200000e-07	-7.446079e-06	-4.664095e-09	-5.335107e+01	-3.062025e+02
4.300000e-07	-7.422249e-06	-4.744834e-09	-5.318033e+01	-3.057789e+02
4.400000e-07	-7.397939e-06	-4.785062e-09	-5.300615e+01	-3.053448e+02
4.500000e-07	-7.373066e-06	-4.693374e-09	-5.282793e+01	-3.049019e+02
4.600000e-07	-7.347642e-06	-4.636314e-09	-5.264577e+01	-3.044520e+02
4.700000e-07	-7.321575e-06	-4.728829e-09	-5.245900e+01	-3.039973e+02
4.800000e-07	-7.294764e-06	-4.760150e-09	-5.226690e+01	-3.035399e+02
4.900000e-07	-7.267371e-06	-4.662040e-09	-5.207063e+01	-3.030816e+02
5.000000e-07	-7.239496e-06	-4.637901e-09	-5.187091e+01	-3.026245e+02
5.100000e-07	-7.211210e-06	-4.701039e-09	-5.166823e+01	-3.021706e+02
5.200000e-07	-7.182551e-06	-4.693672e-09	-5.146289e+01	-3.017214e+02
5.300000e-07	-7.153414e-06	-4.661712e-09	-5.125413e+01	-3.012784e+02
5.400000e-07	-7.123745e-06	-4.655976e-09	-5.104155e+01	-3.008429e+02
5.500000e-07	-7.093604e-06	-4.639553e-09	-5.082559e+01	-3.004157e+02
5.600000e-07	-7.063007e-06	-4.643431e-09	-5.060636e+01	-2.999974e+02
5.700000e-07	-7.031960e-06	-4.669075e-09	-5.038391e+01	-2.995881e+02
5.800000e-07	-7.000432e-06	-4.633983e-09	-5.015801e+01	-2.991876e+02
5.900000e-07	-6.968481e-06	-4.591652e-09	-4.992909e+01	-2.987953e+02
6.000000e-07	-6.936101e-06	-4.614942e-09	-4.969708e+01	-2.984101e+02
6.100000e-07	-6.903190e-06	-4.638851e-09	-4.946128e+01	-2.980307e+02
6.200000e-07	-6.869617e-06	-4.607445e-09	-4.922073e+01	-2.976554e+02
6.300000e-07	-6.835287e-06	-4.575861e-09	-4.897475e+01	-2.972820e+02
6.400000e-07	-6.800336e-06	-4.588428e-09	-4.872433e+01	-2.969082e+02
6.500000e-07	-6.764868e-06	-4.609182e-09	-4.847020e+01	-2.965316e+02
6.600000e-07	-6.728995e-06	-4.588928e-09	-4.821317e+01	-2.961494e+02
6.700000e-07	-6.692791e-06	-4.547714e-09	-4.795377e+01	-2.957588e+02
6.800000e-07	-6.656142e-06	-4.545481e-09	-4.769118e+01	-2.953571e+02
6.900000e-07	-6.618980e-06	-4.563395e-09	-4.742491e+01	-2.949416e+02
7.000000e-07	-6.581329e-06	-4.549946e-09	-4.715514e+01	-2.945096e+02
7.100000e-07	-6.543218e-06	-4.524239e-09	-4.688208e+01	-2.940589e+02
7.200000e-07	-6.504677e-06	-4.518067e-09	-4.660594e+01	-2.935873e+02
7.300000e-07	-6.465749e-06	-4.515524e-09	-4.632702e+01	-2.930930e+02
7.400000e-07	-6.426411e-06	-4.509147e-09	-4.604516e+01	-2.925748e+02
7.500000e-07	-6.386730e-06	-4.495803e-09	-4.576085e+01	-2.920315e+02
7.600000e-07	-6.346714e-06	-4.474968e-09	-4.547413e+01	-2.914628e+02
7.700000e-07	-6.306180e-06	-4.462386e-09	-4.518371e+01	-2.908686e+02
7.800000e-07	-6.265170e-06	-4.468281e-09	-4.488987e+01	-2.902493e+02
7.900000e-07	-6.223672e-06	-4.460086e-09	-4.459254e+01	-2.896057e+02
8.000000e-07	-6.181487e-06	-4.435442e-09	-4.429028e+01	-2.889393e+02
8.100000e-07	-6.138617e-06	-4.425451e-09	-4.398312e+01	-2.882516e+02
8.200000e-07	-6.095195e-06	-4.434200e-09	-4.367200e+01	-2.875448e+02
8.300000e-07	-6.051325e-06	-4.429557e-09	-4.335767e+01	-2.868212e+02
8.400000e-07	-6.007136e-06	-4.406689e-09	-4.304106e+01	-2.860833e+02
8.500000e-07	-5.962658e-06	-4.390092e-09	-4.272238e+01	-2.853337e+02
8.600000e-07	-5.917719e-06	-4.388674e-09	-4.240039e+01	-2.845751e+02
8.700000e-07	-5.872315e-06	-4.383671e-09	-4.207507e+01	-2.838102e+02
8.800000e-07	-5.826522e-06	-4.363116e-09	-4.174696e+01	-2.830416e+02
8.900000e-07	-5.780328e-06	-4.341663e-09	-4.141598e+01	-2.822715e+02
9.000000e-07	-5.733817e-06	-4.334285e-09	-4.108273e+01	-2.815020e+02
9.100000e-07	-5.687007e-06	-4.330230e-09	-4.074734e+01	-2.807349e+02
9.200000e-07	-5.639820e-06	-4.316997e-09	-4.040925e+01	-2.799713e+02
9.300000e-07	-5.592123e-06	-4.298123e-09	-4.006750e+01	-2.792121e+02
9.400000e-07	-5.543922e-06	-4.282228e-09	-3.972214e+01	-2.784577e+02
9.500000e-07	-5.495300e-06	-4.273132e-09	-3.937376e+01	-2.777079e+02
9.600000e-07	-5.446201e-06	-4.264843e-09	-3.902197e+01	-2.769619e+02
9.700000e-07	-5.396536e-06	-4.248748e-09	-3.866612e+01	-2.762187e+02
9.800000e-07	-5.346307e-06	-4.227269e-09	-3.830622e+01	-2.754765e+02
9.900000e-07	-5.295581e-06	-4.214197e-09	-3.794278e+01	-2.747332e+02
1.000000e-06	-5.244298e-06	-4.209951e-09	-3.757533e+01	-2.739865e+02
1.010000e-06	-5.192484e-06	-4.200625e-09	-3.720409e+01	-2.732335e+02
1.020000e-06	-5.140300e-06	-4.181808e-09	-3.683019e+01	-2.724712e+02
1.030000e-06	-5.087765e-06	-4.167242e-09	-3.645378e+01	-2.716965e+02
1.040000e-06	-5.034901e-06	-4.161022e-09	-3.607500e+01	-2.709063e+02
1.050000e-06	-4.981725e-06	-4.153990e-09	-3.569400e+01	-2.700974e+02
1.060000e-06	-4.928181e-06	-4.137604e-09	-3.531036e+01	-2.692668e+02
1.070000e-06	-4.874240e-06	-4.117164e-09	-3.492388e+01	-2.684118e+02
1.080000e-06	-4.819913e-06	-4.099340e-09	-3.453462e+01	-2.675299e+02
1.090000e-06	-4.765317e-06	-4.084719e-09	-3.414344e+01	-2.666189e+02
1.100000e-06	-4.710447e-06	-4.068658e-09	-3.375030e+01	-2.656774e+02
1.110000e-06	-4.655138e-06	-4.051243e-09	-3.335401e+01	-2.647041e+02
1.120000e-06	-4.599543e-06	-4.034305e-09	-3.295567e+01	-2.636983e+02
1.130000e-06	-4.543726e-06	-4.020829e-09	-3.255574e+01	-2.626600e+02
1.140000e-06	-4.487635e-06	-4.008372e-09	-3.215385e+01	-2.615897e+02
1.150000e-06	-4.431252e-06	-3.990827e-09	-3.174987e+01	-2.604881e+02
1.160000e-06	-4.374496e-06	-3.968850e-09	-3.134321e+01	-2.593567e+02
1.170000e-06	-4.317466e-06	-3.948135e-09	-3.093460e+01	-2.581974e+02
1.180000e-06	-4.260222e-06	-3.932104e-09	-3.052444e+01	-2.570122e+02
1.190000e-06	-4.202667e-06	-3.912818e-09	-3.011206e+01	-2.558034e+02
1.200000e-06	-4.144732e-06	-3.888495e-09	-2.969695e+01	-2.545738e+02
1.210000e-06	-4.086381e-06	-3.865450e-09	-2.927888e+01	-2.533259e+02
1.220000e-06	-4.027612e-06	-3.851552e-09	-2.885779e+01	-2.520622e+02
1.230000e-06	-3.968436e-06	-3.839777e-09	-2.843380e+01	-2.507851e+02
1.240000e-06	-3.908889e-06	-3.817909e-09	-2.800715e+01	-2.494969e+02
1.250000e-06	-3.849052e-06	-3.795127e-09	-2.757841e+01	-2.481994e+02
1.260000e-06	-3.789009e-06	-3.773547e-09	-2.714820e+01	-2.468938e+02
1.270000e-06	-3.728732e-06	-3.751971e-09	-2.671632e+01	-2.455811e+02
1.280000e-06	-3.668240e-06	-3.726952e-09	-2.628290e+01	-2.442616e+02
1.290000e-06	-3.607610e-06	-3.698084e-09	-2.584848e+01	-2.429348e+02
1.300000e-06	-3.546869e-06	-3.672956e-09	-2.541328e+01	-2.415999e+02
1.310000e-06	-3.485911e-06	-3.652070e-09	-2.497651e+01	-2.402551e+02
1.320000e-06	-3.424704e-06	-3.632325e-09	-2.453796e+01	-2.388983e+02
1.330000e-06	-3.363260e-06	-3.607167e-09	-2.409772e+01	-2.375264e+02
1.340000e-06	-3.301451e-06	-3.582049e-09	-2.365486e+01	-2.361363e+02
1.350000e-06	-3.239394e-06	-3.563542e-09	-2.321022e+01	-2.347239e+02
1.360000e-06	-3.177252e-06	-3.545009e-09	-2.276497e+01	-2.332849e+02
1.370000e-06	-3.114898e-06	-3.518140e-09	-2.231821e+01	-2.318150e+02
1.380000e-06	-3.052276e-06	-3.484840e-09	-2.186952e+01	-2.303094e+02
1.390000e-06	-2.989463e-06	-3.455144e-09	-2.141947e+01	-2.287634e+02
1.400000e-06	-2.926463e-06	-3.430426e-09	-2.096808e+01	-2.271723e+02
1.410000e-06	-2.863276e-06	-3.403921e-09	-2.051534e+01	-2.255317e+02
1.420000e-06	-2.799927e-06	-3.375280e-09	-2.006144e+01	-2.238376e+02
1.430000e-06	-2.736415e-06	-3.352003e-09	-1.960638e+01	-2.220861e+02
1.440000e-06	-2.672663e-06	-3.333290e-09	-1.914960e+01	-2.202742e+02
1.450000e-06	-2.608681e-06	-3.308510e-09	-1.869117e+01	-2.183992e+02
1.460000e-06	-2.544601e-06	-3.276911e-09	-1.823204e+01	-2.164591e+02
1.470000e-06	-2.480404e-06	-3.243469e-09	-1.777206e+01	-2.144527e+02
1.480000e-06	-2.415979e-06	-3.208652e-09	-1.731046e+01	-2.123792e+02
1.490000e-06	-2.351322e-06	-3.172088e-09	-1.684719e+01	-2.102387e+02
1.500000e-06	-2.286505e-06	-3.137446e-09	-1.638278e+01	-2.080318e+02
1.510000e-06	-2.221576e-06	-3.103188e-09	-1.591757e+01	-2.057594e+02
1.520000e-06	-2.156388e-06	-3.071730e-09	-1.545050e+01	-2.034230e+02
1.530000e-06	-2.090963e-06	-3.040156e-09	-1.498173e+01	-2.010244e+02
1.540000e-06	-2.025419e-06	-3.006639e-09	-1.451210e+01	-1.985653e+02
1.550000e-06	-1.959778e-06	-2.973317e-09	-1.404178e+01	-1.960476e+02
1.560000e-06	-1.894130e-06	-2.935842e-09	-1.357142e+01	-1.934727e+02
1.570000e-06	-1.828394e-06	-2.894104e-09	-1.310042e+01	-1.908419e+02
1.580000e-06	-1.762425e-06	-2.850102e-09	-1.262775e+01	-1.881555e+02
1.590000e-06	-1.696231e-06	-2.807789e-09	-1.215348e+01	-1.854134e+02
1.600000e-06	-1.629902e-06	-2.766062e-09	-1.167823e+01	-1.826143e+02
1.610000e-06	-1.563482e-06	-2.722210e-09	-1.120233e+01	-1.797559e+02
1.620000e-06	-1.496900e-06	-2.674268e-09	-1.072527e+01	-1.768347e+02
1.630000e-06	-1.430115e-06	-2.624638e-09	-1.024676e+01	-1.738456e+02
1.640000e-06	-1.363143e-06	-2.579748e-09	-9.766904e+00	-1.707825e+02
1.650000e-06	-1.295995e-06	-2.536866e-09	-9.285788e+00	-1.676375e+02
1.660000e-06	-1.228756e-06	-2.488556e-09	-8.804025e+00	-1.644014e+02
1.670000e-06	-1.161499e-06	-2.433387e-09	-8.322125e+00	-1.610635e+02
1.680000e-06	-1.094243e-06	-2.375182e-09	-7.840235e+00	-1.576119e+02
1.690000e-06	-1.026888e-06	-2.318427e-09	-7.357642e+00	-1.540334e+02
1.700000e-06	-9.593611e-07	-2.258377e-09	-6.873811e+00	-1.503139e+02
1.710000e-06	-8.917302e-07	-2.194430e-09	-6.389236e+00	-1.464385e+02
1.720000e-06	-8.240400e-07	-2.130191e-09	-5.904237e+00	-1.423917e+02
1.730000e-06	-7.562784e-07	-2.065937e-09	-5.418726e+00	-1.381576e+02
1.740000e-06	-6.885251e-07	-1.999336e-09	-4.933275e+00	-1.337208e+02
1.750000e-06	-6.207587e-07	-1.927968e-09	-4.447729e+00	-1.290658e+02
1.760000e-06	-5.528617e-07	-1.852800e-09	-3.961247e+00	-1.241780e+02
1.770000e-06	-4.849174e-07	-1.774441e-09	-3.474428e+00	-1.190441e+02
1.780000e-06	-4.169486e-07	-1.692105e-09	-2.987432e+00	-1.136520e+02
1.790000e-06	-3.489462e-07	-1.605027e-09	-2.500195e+00	-1.079915e+02
1.800000e-06	-2.809374e-07	-1.514453e-09	-2.012913e+00	-1.020544e+02
1.810000e-06	-2.128984e-07	-1.422332e-09	-1.525414e+00	-9.583506e+01
1.820000e-06	-1.448619e-07	-1.329089e-09	-1.037934e+00	-8.933040e+01
1.830000e-06	-7.687473e-08	-1.230218e-09	-5.508065e-01	-8.254032e+01
1.840000e-06	-8.864060e-09	-1.126145e-09	-6.351089e-02	-7.546776e+01
1.850000e-06	5.914362e-08	-1.019981e-09	4.237634e-01	-6.811889e+01
1.860000e-06	1.270923e-07	-9.088000e-10	9.106146e-01	-6.050317e+01
1.870000e-06	1.950137e-07	-7.913715e-10	1.397271e+00	-5.263333e+01
1.880000e-06	2.629183e-07	-6.688751e-10	1.883806e+00	-4.452536e+01
1.890000e-06	3.308231e-07	-5.420452e-10	2.370344e+00	-3.619837e+01
1.900000e-06	3.987290e-07	-4.098060e-10	2.856889e+00	-2.767444e+01
1.910000e-06	4.666398e-07	-2.722570e-10	3.343469e+00	-1.897839e+01
1.920000e-06	5.345830e-07	-1.326976e-10	3.830281e+00	-1.013747e+01
1.930000e-06	6.024992e-07	7.064791e-12	4.316900e+00	-1.181066e+00
1.940000e-06	6.703493e-07	1.457613e-10	4.803045e+00	7.859687e+00
1.950000e-06	7.381873e-07	2.870888e-10	5.289103e+00	1.695233e+01
1.960000e-06	8.059607e-07	4.324157e-10	5.774699e+00	2.606350e+01
1.970000e-06	8.736242e-07	5.761698e-10	6.259507e+00	3.515939e+01
1.980000e-06	9.411826e-07	7.182269e-10	6.743562e+00	4.420623e+01
1.990000e-06	1.008609e-06	8.601067e-10	7.226673e+00	5.317071e+01
2.000000e-06	1.075941e-06	1.002792e-09	7.709103e+00	6.202050e+01
2.010000e-06	1.143218e-06	1.143709e-09	8.191144e+00	7.072463e+01
2.020000e-06	1.210428e-06	1.275987e-09	8.672704e+00	7.925395e+01
2.030000e-06	1.277476e-06	1.401773e-09	9.153099e+00	8.758149e+01
2.040000e-06	1.344369e-06	1.525175e-09	9.632386e+00	9.568277e+01
2.050000e-06	1.411183e-06	1.644036e-09	1.011111e+01	1.035361e+02
2.060000e-06	1.477910e-06	1.754092e-09	1.058921e+01	1.111230e+02
2.070000e-06	1.544688e-06	1.857118e-09	1.106767e+01	1.184279e+02
2.080000e-06	1.611384e-06	1.958636e-09	1.154555e+01	1.254387e+02
2.090000e-06	1.677733e-06	2.057031e-09	1.202094e+01	1.321469e+02
2.100000e-06	1.743833e-06	2.149288e-09	1.249454e+01	1.385470e+02
2.110000e-06	1.809749e-06	2.235749e-09	1.296683e+01	1.446370e+02
2.120000e-06	1.875458e-06	2.318533e-09	1.343764e+01	1.504183e+02
2.130000e-06	1.941043e-06	2.396453e-09	1.390755e+01	1.558949e+02
2.140000e-06	2.006484e-06	2.468599e-09	1.437643e+01	1.610738e+02
2.150000e-06	2.071707e-06	2.538958e-09	1.484376e+01	1.659647e+02
2.160000e-06	2.136756e-06	2.608316e-09	1.530983e+01	1.705793e+02
2.170000e-06	2.201752e-06	2.672240e-09	1.577553e+01	1.749312e+02
2.180000e-06	2.266693e-06	2.729772e-09	1.624083e+01	1.790357e+02
2.190000e-06	2.331391e-06	2.784556e-09	1.670439e+01	1.829091e+02
2.200000e-06	2.395839e-06	2.841223e-09	1.716616e+01	1.865687e+02
2.210000e-06	2.460129e-06	2.895991e-09	1.762680e+01	1.900323e+02
2.220000e-06	2.524309e-06	2.943815e-09	1.808665e+01	1.933176e+02
2.230000e-06	2.588345e-06	2.989232e-09	1.854546e+01	1.964422e+02
2.240000e-06	2.652124e-06	3.035652e-09	1.900244e+01	1.994234e+02
2.250000e-06	2.715639e-06	3.078903e-09	1.945753e+01	2.022774e+02
2.260000e-06	2.778931e-06	3.116383e-09	1.991101e+01	2.050195e+02
2.270000e-06	2.842064e-06	3.153589e-09	2.036336e+01	2.076639e+02
2.280000e-06	2.905042e-06	3.193313e-09	2.081459e+01	2.102234e+02
2.290000e-06	2.967876e-06	3.232914e-09	2.126480e+01	2.127091e+02
2.300000e-06	3.030557e-06	3.268590e-09	2.171390e+01	2.151308e+02
2.310000e-06	3.093024e-06	3.300286e-09	2.216148e+01	2.174967e+02
2.320000e-06	3.155345e-06	3.333563e-09	2.260801e+01	2.198132e+02
2.330000e-06	3.217456e-06	3.368461e-09	2.305303e+01	2.220855e+02
2.340000e-06	3.279325e-06	3.400641e-09	2.349633e+01	2.243171e+02
2.350000e-06	3.341065e-06	3.429871e-09	2.393869e+01	2.265103e+02
2.360000e-06	3.402612e-06	3.457686e-09	2.437968e+01	2.286662e+02
2.370000e-06	3.463905e-06	3.486675e-09	2.481884e+01	2.307849e+02
2.380000e-06	3.524952e-06	3.515965e-09	2.525624e+01	2.328657e+02
2.390000e-06	3.585727e-06	3.544462e-09	2.569169e+01	2.349070e+02
2.400000e-06	3.646223e-06	3.572272e-09	2.612515e+01	2.369070e+02
2.410000e-06	3.706507e-06	3.598026e-09	2.655708e+01	2.388634e+02
2.420000e-06	3.766614e-06	3.623256e-09	2.698775e+01	2.407738e+02
2.430000e-06	3.826517e-06	3.646869e-09	2.741695e+01	2.426358e+02
2.440000e-06	3.886192e-06	3.669870e-09	2.784452e+01	2.444474e+02
2.450000e-06	3.945623e-06	3.695250e-09	2.827034e+01	2.462067e+02
2.460000e-06	4.004737e-06	3.717736e-09	2.869389e+01	2.479121e+02
2.470000e-06	4.063472e-06	3.737862e-09	2.911473e+01	2.495628e+02
2.480000e-06	4.121872e-06	3.763085e-09	2.953316e+01	2.511583e+02
2.490000e-06	4.179921e-06	3.787927e-09	2.994908e+01	2.526988e+02
2.500000e-06	4.237574e-06	3.809910e-09	3.036217e+01	2.541851e+02
2.510000e-06	4.294866e-06	3.829952e-09	3.077267e+01	2.556185e+02
2.520000e-06	4.351765e-06	3.847565e-09	3.118035e+01	2.570010e+02
2.530000e-06	4.408211e-06	3.864289e-09	3.158478e+01	2.583348e+02
2.540000e-06	4.464256e-06	3.879995e-09	3.198634e+01	2.596229e+02
2.550000e-06	4.520010e-06	3.896294e-09	3.238582e+01	2.608685e+02
2.560000e-06	4.575547e-06	3.912900e-09	3.278374e+01	2.620748e+02
2.570000e-06	4.630883e-06	3.933576e-09	3.318022e+01	2.632456e+02
2.580000e-06	4.685962e-06	3.957950e-09	3.357487e+01	2.643845e+02
2.590000e-06	4.740706e-06	3.980975e-09	3.396710e+01	2.654950e+02
2.600000e-06	4.795119e-06	4.000238e-09	3.435697e+01	2.665807e+02
2.610000e-06	4.849260e-06	4.016853e-09	3.474489e+01	2.676448e+02
2.620000e-06	4.903092e-06	4.034387e-09	3.513060e+01	2.686903e+02
2.630000e-06	4.956555e-06	4.052381e-09	3.551366e+01	2.697199e+02
2.640000e-06	5.009653e-06	4.065435e-09	3.589410e+01	2.707358e+02
2.650000e-06	5.062351e-06	4.076927e-09	3.627168e+01	2.717397e+02
2.660000e-06	5.114643e-06	4.092592e-09	3.664636e+01	2.727331e+02
2.670000e-06	5.166522e-06	4.110515e-09	3.701807e+01	2.737167e+02
2.680000e-06	5.217874e-06	4.124809e-09	3.738601e+01	2.746912e+02
2.690000e-06	5.268738e-06	4.138711e-09	3.775044e+01	2.756565e+02
2.700000e-06	5.319140e-06	4.155175e-09	3.811158e+01	2.766122e+02
2.710000e-06	5.369003e-06	4.169834e-09	3.846884e+01	2.775578e+02
2.720000e-06	5.418305e-06	4.181149e-09	3.882210e+01	2.784922e+02
2.730000e-06	5.467107e-06	4.190747e-09	3.917176e+01	2.794142e+02
2.740000e-06	5.515446e-06	4.200595e-09	3.951811e+01	2.803227e+02
2.750000e-06	5.563391e-06	4.212068e-09	3.986163e+01	2.812161e+02
2.760000e-06	5.611044e-06	4.224921e-09	4.020307e+01	2.820931e+02
2.770000e-06	5.658368e-06	4.238153e-09	4.054214e+01	2.829524e+02
2.780000e-06	5.705306e-06	4.252871e-09	4.087845e+01	2.837928e+02
2.790000e-06	5.751793e-06	4.267055e-09	4.121153e+01	2.846132e+02
2.800000e-06	5.797804e-06	4.279680e-09	4.154120e+01	2.854127e+02
2.810000e-06	5.843432e-06	4.289586e-09	4.186813e+01	2.861909e+02
2.820000e-06	5.888663e-06	4.298826e-09	4.219220e+01	2.869474e+02
2.830000e-06	5.933515e-06	4.309449e-09	4.251357e+01	2.876822e+02
2.840000e-06	5.978045e-06	4.319452e-09	4.283262e+01	2.883955e+02
2.850000e-06	6.022229e-06	4.327205e-09	4.314920e+01	2.890879e+02
2.860000e-06	6.066124e-06	4.336256e-09	4.346371e+01	2.897601e+02
2.870000e-06	6.109743e-06	4.349231e-09	4.377623e+01	2.904132e+02
2.880000e-06	6.153020e-06	4.362925e-09	4.408632e+01	2.910484e+02
2.890000e-06	6.195772e-06	4.374442e-09	4.439264e+01	2.916670e+02
2.900000e-06	6.237827e-06	4.386523e-09	4.469396e+01	2.922705e+02
