# Temperatura_=_20.0
# Concentracion g/m^3_=_9000.0
# C_Vs_to_Am_M_A/Vsm_=_65563218390.804596
# pendiente_HvsI_1/m_=_3716.3
# ordenada_HvsI_A/m_=_1297.0
# frecuencia_Hz_=_135480.21085171963

Tiempo_(s)	Campo_(V.s)	Magnetizacion_(V.s)	Campo_(kA/m)	Magnetizacion_(A/m)
0.000000e+00	-7.971001e-06	-4.812133e-09	-5.691485e+01	-3.190733e+02
1.000000e-08	-7.971207e-06	-4.807343e-09	-5.691632e+01	-3.189830e+02
2.000000e-08	-7.971014e-06	-4.804686e-09	-5.691495e+01	-3.188834e+02
3.000000e-08	-7.970297e-06	-4.806881e-09	-5.690983e+01	-3.187766e+02
4.000000e-08	-7.968836e-06	-4.811188e-09	-5.689940e+01	-3.186645e+02
5.000000e-08	-7.966403e-06	-4.809650e-09	-5.688203e+01	-3.185495e+02
6.000000e-08	-7.963161e-06	-4.806873e-09	-5.685888e+01	-3.184341e+02
7.000000e-08	-7.959531e-06	-4.800981e-09	-5.683296e+01	-3.183208e+02
8.000000e-08	-7.955665e-06	-4.779646e-09	-5.680535e+01	-3.182125e+02
9.000000e-08	-7.951427e-06	-4.754063e-09	-5.677510e+01	-3.181118e+02
1.000000e-07	-7.946498e-06	-4.805967e-09	-5.673990e+01	-3.180215e+02
1.100000e-07	-7.940680e-06	-4.931043e-09	-5.669836e+01	-3.179444e+02
1.200000e-07	-7.933895e-06	-4.964574e-09	-5.664991e+01	-3.178829e+02
1.300000e-07	-7.926395e-06	-4.772660e-09	-5.659636e+01	-3.178394e+02
1.400000e-07	-7.918661e-06	-4.518013e-09	-5.654114e+01	-3.178159e+02
1.500000e-07	-7.910786e-06	-4.700011e-09	-5.648490e+01	-3.178144e+02
1.600000e-07	-7.902515e-06	-5.090390e-09	-5.642585e+01	-3.178361e+02
1.700000e-07	-7.893732e-06	-4.966427e-09	-5.636314e+01	-3.178819e+02
1.800000e-07	-7.884396e-06	-4.598579e-09	-5.629647e+01	-3.179523e+02
1.900000e-07	-7.874064e-06	-4.652550e-09	-5.622270e+01	-3.180473e+02
2.000000e-07	-7.862710e-06	-4.898744e-09	-5.614163e+01	-3.181662e+02
2.100000e-07	-7.850891e-06	-5.031184e-09	-5.605724e+01	-3.183078e+02
2.200000e-07	-7.838714e-06	-4.940728e-09	-5.597030e+01	-3.184704e+02
2.300000e-07	-7.825693e-06	-4.677702e-09	-5.587732e+01	-3.186515e+02
2.400000e-07	-7.811893e-06	-4.635924e-09	-5.577879e+01	-3.188484e+02
2.500000e-07	-7.797807e-06	-5.059728e-09	-5.567821e+01	-3.190576e+02
2.600000e-07	-7.783064e-06	-5.213573e-09	-5.557294e+01	-3.192752e+02
2.700000e-07	-7.767065e-06	-4.755144e-09	-5.545870e+01	-3.194971e+02
2.800000e-07	-7.750328e-06	-4.627075e-09	-5.533920e+01	-3.197187e+02
2.900000e-07	-7.733405e-06	-5.103406e-09	-5.521836e+01	-3.199353e+02
3.000000e-07	-7.715963e-06	-5.206143e-09	-5.509382e+01	-3.201417e+02
3.100000e-07	-7.697950e-06	-4.825670e-09	-5.496520e+01	-3.203332e+02
3.200000e-07	-7.679475e-06	-4.822200e-09	-5.483329e+01	-3.205048e+02
3.300000e-07	-7.660379e-06	-5.105153e-09	-5.469694e+01	-3.206518e+02
3.400000e-07	-7.640753e-06	-5.096522e-09	-5.455681e+01	-3.207696e+02
3.500000e-07	-7.620853e-06	-5.019957e-09	-5.441472e+01	-3.208541e+02
3.600000e-07	-7.600612e-06	-5.020017e-09	-5.427019e+01	-3.209018e+02
3.700000e-07	-7.579800e-06	-4.859796e-09	-5.412159e+01	-3.209093e+02
3.800000e-07	-7.558433e-06	-4.925232e-09	-5.396902e+01	-3.208744e+02
3.900000e-07	-7.536619e-06	-5.152836e-09	-5.381326e+01	-3.207950e+02
4.000000e-07	-7.514240e-06	-5.027439e-09	-5.365347e+01	-3.206701e+02
4.100000e-07	-7.491229e-06	-4.742066e-09	-5.348917e+01	-3.204992e+02
4.200000e-07	-7.467763e-06	-4.878228e-09	-5.332161e+01	-3.202827e+02
4.300000e-07	-7.443956e-06	-5.138612e-09	-5.315163e+01	-3.200217e+02
4.400000e-07	-7.419597e-06	-5.018464e-09	-5.297770e+01	-3.197179e+02
4.500000e-07	-7.394448e-06	-4.740962e-09	-5.279813e+01	-3.193737e+02
4.600000e-07	-7.368692e-06	-4.852556e-09	-5.261423e+01	-3.189921e+02
4.700000e-07	-7.342395e-06	-5.097080e-09	-5.242646e+01	-3.185768e+02
4.800000e-07	-7.315337e-06	-4.965036e-09	-5.223326e+01	-3.181315e+02
4.900000e-07	-7.287691e-06	-4.751582e-09	-5.203585e+01	-3.176607e+02
5.000000e-07	-7.259775e-06	-4.865609e-09	-5.183653e+01	-3.171687e+02
5.100000e-07	-7.231515e-06	-4.981455e-09	-5.163475e+01	-3.166602e+02
5.200000e-07	-7.202691e-06	-4.899645e-09	-5.142894e+01	-3.161397e+02
5.300000e-07	-7.173306e-06	-4.847686e-09	-5.121912e+01	-3.156117e+02
5.400000e-07	-7.143438e-06	-4.842886e-09	-5.100586e+01	-3.150803e+02
5.500000e-07	-7.113127e-06	-4.847515e-09	-5.078943e+01	-3.145494e+02
5.600000e-07	-7.082318e-06	-4.904203e-09	-5.056945e+01	-3.140224e+02
5.700000e-07	-7.050951e-06	-4.894753e-09	-5.034547e+01	-3.135020e+02
5.800000e-07	-7.019204e-06	-4.782237e-09	-5.011880e+01	-3.129906e+02
5.900000e-07	-6.987132e-06	-4.780634e-09	-4.988980e+01	-3.124897e+02
6.000000e-07	-6.954597e-06	-4.871354e-09	-4.965748e+01	-3.120003e+02
6.100000e-07	-6.921475e-06	-4.867430e-09	-4.942099e+01	-3.115227e+02
6.200000e-07	-6.887532e-06	-4.764601e-09	-4.917863e+01	-3.110564e+02
6.300000e-07	-6.852775e-06	-4.737976e-09	-4.893046e+01	-3.106003e+02
6.400000e-07	-6.817481e-06	-4.815963e-09	-4.867844e+01	-3.101527e+02
6.500000e-07	-6.781834e-06	-4.853886e-09	-4.842391e+01	-3.097113e+02
6.600000e-07	-6.745847e-06	-4.757618e-09	-4.816697e+01	-3.092736e+02
6.700000e-07	-6.709407e-06	-4.702676e-09	-4.790677e+01	-3.088362e+02
6.800000e-07	-6.672521e-06	-4.771481e-09	-4.764340e+01	-3.083959e+02
6.900000e-07	-6.635100e-06	-4.804798e-09	-4.737620e+01	-3.079491e+02
7.000000e-07	-6.597192e-06	-4.732035e-09	-4.710553e+01	-3.074922e+02
7.100000e-07	-6.558854e-06	-4.699436e-09	-4.683179e+01	-3.070215e+02
7.200000e-07	-6.520016e-06	-4.726973e-09	-4.655447e+01	-3.065337e+02
7.300000e-07	-6.480821e-06	-4.736304e-09	-4.627461e+01	-3.060256e+02
7.400000e-07	-6.441355e-06	-4.721602e-09	-4.599282e+01	-3.054943e+02
7.500000e-07	-6.401653e-06	-4.691465e-09	-4.570933e+01	-3.049376e+02
7.600000e-07	-6.361567e-06	-4.656801e-09	-4.542311e+01	-3.043535e+02
7.700000e-07	-6.320861e-06	-4.673525e-09	-4.513246e+01	-3.037406e+02
7.800000e-07	-6.279498e-06	-4.703822e-09	-4.483712e+01	-3.030984e+02
7.900000e-07	-6.237492e-06	-4.664281e-09	-4.453719e+01	-3.024265e+02
8.000000e-07	-6.194842e-06	-4.608914e-09	-4.423265e+01	-3.017256e+02
8.100000e-07	-6.151649e-06	-4.624976e-09	-4.392424e+01	-3.009966e+02
8.200000e-07	-6.108051e-06	-4.661050e-09	-4.361294e+01	-3.002411e+02
8.300000e-07	-6.064086e-06	-4.632084e-09	-4.329903e+01	-2.994612e+02
8.400000e-07	-6.019777e-06	-4.578641e-09	-4.298265e+01	-2.986593e+02
8.500000e-07	-5.975067e-06	-4.571355e-09	-4.266341e+01	-2.978382e+02
8.600000e-07	-5.929859e-06	-4.598791e-09	-4.234061e+01	-2.970009e+02
8.700000e-07	-5.884259e-06	-4.587121e-09	-4.201502e+01	-2.961506e+02
8.800000e-07	-5.838362e-06	-4.538217e-09	-4.168730e+01	-2.952903e+02
8.900000e-07	-5.792162e-06	-4.512768e-09	-4.135742e+01	-2.944232e+02
9.000000e-07	-5.745626e-06	-4.529008e-09	-4.102515e+01	-2.935521e+02
9.100000e-07	-5.698668e-06	-4.531316e-09	-4.068985e+01	-2.926796e+02
9.200000e-07	-5.651270e-06	-4.502699e-09	-4.035142e+01	-2.918079e+02
9.300000e-07	-5.603425e-06	-4.470593e-09	-4.000980e+01	-2.909387e+02
9.400000e-07	-5.555017e-06	-4.459180e-09	-3.966415e+01	-2.900735e+02
9.500000e-07	-5.506093e-06	-4.459989e-09	-3.931482e+01	-2.892127e+02
9.600000e-07	-5.456681e-06	-4.450362e-09	-3.896201e+01	-2.883567e+02
9.700000e-07	-5.406610e-06	-4.416255e-09	-3.860449e+01	-2.875049e+02
9.800000e-07	-5.355899e-06	-4.388302e-09	-3.824240e+01	-2.866564e+02
9.900000e-07	-5.304693e-06	-4.387381e-09	-3.787678e+01	-2.858096e+02
1.000000e-06	-5.253054e-06	-4.386532e-09	-3.750806e+01	-2.849625e+02
1.010000e-06	-5.200935e-06	-4.358004e-09	-3.713592e+01	-2.841127e+02
1.020000e-06	-5.148378e-06	-4.331864e-09	-3.676065e+01	-2.832573e+02
1.030000e-06	-5.095503e-06	-4.328298e-09	-3.638311e+01	-2.823932e+02
1.040000e-06	-5.042371e-06	-4.326669e-09	-3.600374e+01	-2.815174e+02
1.050000e-06	-4.988943e-06	-4.308299e-09	-3.562225e+01	-2.806264e+02
1.060000e-06	-4.935137e-06	-4.284463e-09	-3.523806e+01	-2.797171e+02
1.070000e-06	-4.880934e-06	-4.270056e-09	-3.485104e+01	-2.787864e+02
1.080000e-06	-4.826355e-06	-4.258530e-09	-3.446133e+01	-2.778314e+02
1.090000e-06	-4.771482e-06	-4.241806e-09	-3.406952e+01	-2.768496e+02
1.100000e-06	-4.716289e-06	-4.220459e-09	-3.367543e+01	-2.758388e+02
1.110000e-06	-4.660800e-06	-4.202948e-09	-3.327923e+01	-2.747976e+02
1.120000e-06	-4.605036e-06	-4.189119e-09	-3.288106e+01	-2.737246e+02
1.130000e-06	-4.549026e-06	-4.174586e-09	-3.248113e+01	-2.726193e+02
1.140000e-06	-4.492800e-06	-4.155061e-09	-3.207966e+01	-2.714816e+02
1.150000e-06	-4.436262e-06	-4.136122e-09	-3.167597e+01	-2.703121e+02
1.160000e-06	-4.379369e-06	-4.118959e-09	-3.126974e+01	-2.691117e+02
1.170000e-06	-4.322129e-06	-4.102408e-09	-3.086104e+01	-2.678819e+02
1.180000e-06	-4.264465e-06	-4.080559e-09	-3.044930e+01	-2.666246e+02
1.190000e-06	-4.206287e-06	-4.058321e-09	-3.003389e+01	-2.653418e+02
1.200000e-06	-4.147745e-06	-4.039030e-09	-2.961589e+01	-2.640359e+02
1.210000e-06	-4.088878e-06	-4.024372e-09	-2.919557e+01	-2.627095e+02
1.220000e-06	-4.029706e-06	-4.006821e-09	-2.877306e+01	-2.613651e+02
1.230000e-06	-3.970238e-06	-3.986812e-09	-2.834845e+01	-2.600049e+02
1.240000e-06	-3.910386e-06	-3.967816e-09	-2.792109e+01	-2.586314e+02
1.250000e-06	-3.850275e-06	-3.950822e-09	-2.749188e+01	-2.572463e+02
1.260000e-06	-3.789928e-06	-3.928952e-09	-2.706100e+01	-2.558511e+02
1.270000e-06	-3.729408e-06	-3.903578e-09	-2.662886e+01	-2.544468e+02
1.280000e-06	-3.668784e-06	-3.878524e-09	-2.619599e+01	-2.530338e+02
1.290000e-06	-3.607960e-06	-3.854841e-09	-2.576170e+01	-2.516121e+02
1.300000e-06	-3.546909e-06	-3.830946e-09	-2.532578e+01	-2.501807e+02
1.310000e-06	-3.485706e-06	-3.804486e-09	-2.488878e+01	-2.487383e+02
1.320000e-06	-3.424325e-06	-3.777735e-09	-2.445050e+01	-2.472828e+02
1.330000e-06	-3.362674e-06	-3.753871e-09	-2.401030e+01	-2.458116e+02
1.340000e-06	-3.300735e-06	-3.733471e-09	-2.356804e+01	-2.443214e+02
1.350000e-06	-3.238507e-06	-3.711520e-09	-2.312371e+01	-2.428086e+02
1.360000e-06	-3.176027e-06	-3.684109e-09	-2.267759e+01	-2.412691e+02
1.370000e-06	-3.113344e-06	-3.654033e-09	-2.223002e+01	-2.396986e+02
1.380000e-06	-3.050455e-06	-3.625315e-09	-2.178098e+01	-2.380927e+02
1.390000e-06	-2.987315e-06	-3.594609e-09	-2.133014e+01	-2.364468e+02
1.400000e-06	-2.924019e-06	-3.563021e-09	-2.087819e+01	-2.347565e+02
1.410000e-06	-2.860609e-06	-3.531456e-09	-2.042543e+01	-2.330176e+02
1.420000e-06	-2.797084e-06	-3.505007e-09	-1.997185e+01	-2.312262e+02
1.430000e-06	-2.733431e-06	-3.483692e-09	-1.951735e+01	-2.293788e+02
1.440000e-06	-2.669614e-06	-3.460639e-09	-1.906169e+01	-2.274725e+02
1.450000e-06	-2.605612e-06	-3.429892e-09	-1.860469e+01	-2.255047e+02
1.460000e-06	-2.541420e-06	-3.398587e-09	-1.814635e+01	-2.234738e+02
1.470000e-06	-2.477072e-06	-3.369497e-09	-1.768688e+01	-2.213786e+02
1.480000e-06	-2.412481e-06	-3.335760e-09	-1.722569e+01	-2.192187e+02
1.490000e-06	-2.347589e-06	-3.295483e-09	-1.676235e+01	-2.169940e+02
1.500000e-06	-2.282457e-06	-3.257334e-09	-1.629729e+01	-2.147053e+02
1.510000e-06	-2.217127e-06	-3.223838e-09	-1.583081e+01	-2.123537e+02
1.520000e-06	-2.151584e-06	-3.191919e-09	-1.536283e+01	-2.099406e+02
1.530000e-06	-2.085848e-06	-3.157526e-09	-1.489346e+01	-2.074676e+02
1.540000e-06	-2.020013e-06	-3.121011e-09	-1.442338e+01	-2.049365e+02
1.550000e-06	-1.954048e-06	-3.086829e-09	-1.395237e+01	-2.023487e+02
1.560000e-06	-1.887924e-06	-3.050248e-09	-1.348023e+01	-1.997054e+02
1.570000e-06	-1.821633e-06	-3.007380e-09	-1.300690e+01	-1.970074e+02
1.580000e-06	-1.755231e-06	-2.961928e-09	-1.253277e+01	-1.942548e+02
1.590000e-06	-1.688711e-06	-2.915546e-09	-1.205780e+01	-1.914465e+02
1.600000e-06	-1.622048e-06	-2.866524e-09	-1.158181e+01	-1.885809e+02
1.610000e-06	-1.555264e-06	-2.816332e-09	-1.110496e+01	-1.856546e+02
1.620000e-06	-1.488330e-06	-2.767140e-09	-1.062704e+01	-1.826634e+02
1.630000e-06	-1.421279e-06	-2.721587e-09	-1.014827e+01	-1.796014e+02
1.640000e-06	-1.354069e-06	-2.675946e-09	-9.668373e+00	-1.764612e+02
1.650000e-06	-1.286676e-06	-2.628576e-09	-9.187175e+00	-1.732342e+02
1.660000e-06	-1.219136e-06	-2.578951e-09	-8.704921e+00	-1.699099e+02
1.670000e-06	-1.151566e-06	-2.522963e-09	-8.222454e+00	-1.664769e+02
1.680000e-06	-1.083962e-06	-2.460589e-09	-7.739751e+00	-1.629220e+02
1.690000e-06	-1.016310e-06	-2.395735e-09	-7.256697e+00	-1.592312e+02
1.700000e-06	-9.486416e-07	-2.331150e-09	-6.773528e+00	-1.553894e+02
1.710000e-06	-8.809092e-07	-2.266417e-09	-6.289902e+00	-1.513810e+02
1.720000e-06	-8.131614e-07	-2.200943e-09	-5.806167e+00	-1.471897e+02
1.730000e-06	-7.453664e-07	-2.135137e-09	-5.322094e+00	-1.427993e+02
1.740000e-06	-6.774904e-07	-2.067293e-09	-4.837443e+00	-1.381938e+02
1.750000e-06	-6.095856e-07	-1.996449e-09	-4.352587e+00	-1.333576e+02
1.760000e-06	-5.415804e-07	-1.921146e-09	-3.867013e+00	-1.282762e+02
1.770000e-06	-4.735415e-07	-1.841962e-09	-3.381200e+00	-1.229364e+02
1.780000e-06	-4.055581e-07	-1.757353e-09	-2.895782e+00	-1.173266e+02
1.790000e-06	-3.375133e-07	-1.667020e-09	-2.409926e+00	-1.114371e+02
1.800000e-06	-2.694186e-07	-1.574360e-09	-1.923713e+00	-1.052608e+02
1.810000e-06	-2.013178e-07	-1.480108e-09	-1.437457e+00	-9.879298e+01
1.820000e-06	-1.331775e-07	-1.380733e-09	-9.509194e-01	-9.203185e+01
1.830000e-06	-6.502994e-08	-1.276025e-09	-4.643293e-01	-8.497875e+01
1.840000e-06	3.032607e-09	-1.170773e-09	2.165354e-02	-7.763823e+01
1.850000e-06	7.107834e-08	-1.062737e-09	5.075164e-01	-7.001818e+01
1.860000e-06	1.392367e-07	-9.477596e-10	9.941831e-01	-6.212987e+01
1.870000e-06	2.073909e-07	-8.263975e-10	1.480821e+00	-5.398795e+01
1.880000e-06	2.755167e-07	-6.994843e-10	1.967255e+00	-4.561033e+01
1.890000e-06	3.436454e-07	-5.667046e-10	2.453710e+00	-3.701806e+01
1.900000e-06	4.117524e-07	-4.296823e-10	2.940011e+00	-2.823510e+01
1.910000e-06	4.798192e-07	-2.917711e-10	3.426024e+00	-1.928809e+01
1.920000e-06	5.478749e-07	-1.512355e-10	3.911958e+00	-1.020599e+01
1.930000e-06	6.159420e-07	-7.237398e-12	4.397973e+00	-1.019762e+00
1.940000e-06	6.839139e-07	1.358604e-10	4.883309e+00	8.238079e+00
1.950000e-06	7.518162e-07	2.772442e-10	5.368148e+00	1.753387e+01
1.960000e-06	8.196887e-07	4.210720e-10	5.852773e+00	2.683329e+01
1.970000e-06	8.874709e-07	5.686506e-10	6.336755e+00	3.610178e+01
1.980000e-06	9.550915e-07	7.158211e-10	6.819582e+00	4.530509e+01
1.990000e-06	1.022656e-06	8.612378e-10	7.302005e+00	5.440971e+01
2.000000e-06	1.090199e-06	1.005494e-09	7.784279e+00	6.338331e+01
2.010000e-06	1.157612e-06	1.147059e-09	8.265627e+00	7.219524e+01
2.020000e-06	1.224922e-06	1.282269e-09	8.746240e+00	8.081686e+01
2.030000e-06	1.292190e-06	1.410475e-09	9.226544e+00	8.922195e+01
2.040000e-06	1.359397e-06	1.531409e-09	9.706422e+00	9.738702e+01
2.050000e-06	1.426539e-06	1.645244e-09	1.018583e+01	1.052915e+02
2.060000e-06	1.493596e-06	1.754615e-09	1.066463e+01	1.129182e+02
2.070000e-06	1.560485e-06	1.859618e-09	1.114223e+01	1.202529e+02
2.080000e-06	1.627340e-06	1.959318e-09	1.161960e+01	1.272851e+02
2.090000e-06	1.694094e-06	2.055714e-09	1.209624e+01	1.340077e+02
2.100000e-06	1.760618e-06	2.149860e-09	1.257123e+01	1.404168e+02
2.110000e-06	1.827017e-06	2.239492e-09	1.304534e+01	1.465120e+02
2.120000e-06	1.893253e-06	2.323769e-09	1.351828e+01	1.522960e+02
2.130000e-06	1.959246e-06	2.402901e-09	1.398948e+01	1.577742e+02
2.140000e-06	2.025048e-06	2.477444e-09	1.445933e+01	1.629549e+02
2.150000e-06	2.090689e-06	2.548666e-09	1.492802e+01	1.678487e+02
2.160000e-06	2.156113e-06	2.614673e-09	1.539516e+01	1.724683e+02
2.170000e-06	2.221450e-06	2.675669e-09	1.586168e+01	1.768281e+02
2.180000e-06	2.286663e-06	2.736643e-09	1.632732e+01	1.809438e+02
2.190000e-06	2.351583e-06	2.797914e-09	1.679087e+01	1.848322e+02
2.200000e-06	2.416299e-06	2.856277e-09	1.725295e+01	1.885106e+02
2.210000e-06	2.480897e-06	2.910890e-09	1.771420e+01	1.919968e+02
2.220000e-06	2.545327e-06	2.963771e-09	1.817424e+01	1.953082e+02
2.230000e-06	2.609448e-06	3.015172e-09	1.863208e+01	1.984621e+02
2.240000e-06	2.673310e-06	3.061805e-09	1.908807e+01	2.014752e+02
2.250000e-06	2.736951e-06	3.101624e-09	1.954249e+01	2.043630e+02
2.260000e-06	2.800354e-06	3.140157e-09	1.999520e+01	2.071403e+02
2.270000e-06	2.863616e-06	3.180814e-09	2.044691e+01	2.098204e+02
2.280000e-06	2.926766e-06	3.221144e-09	2.089781e+01	2.124151e+02
2.290000e-06	2.989799e-06	3.259007e-09	2.134788e+01	2.149350e+02
2.300000e-06	3.052724e-06	3.294170e-09	2.179718e+01	2.173890e+02
2.310000e-06	3.115487e-06	3.330451e-09	2.224532e+01	2.197845e+02
2.320000e-06	3.178011e-06	3.367760e-09	2.269176e+01	2.221274e+02
2.330000e-06	3.240352e-06	3.401682e-09	2.313689e+01	2.244224e+02
2.340000e-06	3.302480e-06	3.432511e-09	2.358050e+01	2.266727e+02
2.350000e-06	3.364297e-06	3.462600e-09	2.402189e+01	2.288803e+02
2.360000e-06	3.425850e-06	3.490484e-09	2.446139e+01	2.310463e+02
2.370000e-06	3.487205e-06	3.514773e-09	2.489948e+01	2.331709e+02
2.380000e-06	3.548318e-06	3.538745e-09	2.533584e+01	2.352537e+02
2.390000e-06	3.609172e-06	3.566576e-09	2.577035e+01	2.372937e+02
2.400000e-06	3.669874e-06	3.595706e-09	2.620378e+01	2.392894e+02
2.410000e-06	3.730391e-06	3.622396e-09	2.663589e+01	2.412395e+02
2.420000e-06	3.790655e-06	3.647978e-09	2.706618e+01	2.431425e+02
2.430000e-06	3.850668e-06	3.674905e-09	2.749469e+01	2.449969e+02
2.440000e-06	3.910472e-06	3.701301e-09	2.792170e+01	2.468018e+02
2.450000e-06	3.970044e-06	3.723849e-09	2.834706e+01	2.485562e+02
2.460000e-06	4.029322e-06	3.742403e-09	2.877032e+01	2.502599e+02
2.470000e-06	4.088395e-06	3.761305e-09	2.919212e+01	2.519130e+02
2.480000e-06	4.147149e-06	3.782289e-09	2.961164e+01	2.535162e+02
2.490000e-06	4.205536e-06	3.802513e-09	3.002853e+01	2.550707e+02
2.500000e-06	4.263605e-06	3.821322e-09	3.044316e+01	2.565781e+02
2.510000e-06	4.321170e-06	3.840994e-09	3.085419e+01	2.580406e+02
2.520000e-06	4.378157e-06	3.863162e-09	3.126109e+01	2.594608e+02
2.530000e-06	4.434639e-06	3.884379e-09	3.166439e+01	2.608414e+02
2.540000e-06	4.490694e-06	3.903172e-09	3.206463e+01	2.621856e+02
2.550000e-06	4.546486e-06	3.920717e-09	3.246300e+01	2.634968e+02
2.560000e-06	4.602092e-06	3.939086e-09	3.286004e+01	2.647782e+02
2.570000e-06	4.657433e-06	3.958796e-09	3.325519e+01	2.660332e+02
2.580000e-06	4.712509e-06	3.978400e-09	3.364845e+01	2.672651e+02
2.590000e-06	4.767323e-06	3.997211e-09	3.403983e+01	2.684767e+02
2.600000e-06	4.821863e-06	4.015326e-09	3.442926e+01	2.696709e+02
2.610000e-06	4.876130e-06	4.034281e-09	3.481673e+01	2.708500e+02
2.620000e-06	4.930123e-06	4.054872e-09	3.520226e+01	2.720159e+02
2.630000e-06	4.983750e-06	4.076190e-09	3.558517e+01	2.731702e+02
2.640000e-06	5.036923e-06	4.094122e-09	3.596483e+01	2.743137e+02
2.650000e-06	5.089739e-06	4.109518e-09	3.634195e+01	2.754472e+02
2.660000e-06	5.142277e-06	4.126839e-09	3.671709e+01	2.765706e+02
2.670000e-06	5.194328e-06	4.143703e-09	3.708875e+01	2.776837e+02
2.680000e-06	5.245829e-06	4.157471e-09	3.745647e+01	2.787855e+02
2.690000e-06	5.296887e-06	4.172245e-09	3.782104e+01	2.798750e+02
2.700000e-06	5.347469e-06	4.189895e-09	3.818221e+01	2.809508e+02
2.710000e-06	5.397481e-06	4.204840e-09	3.853930e+01	2.820111e+02
2.720000e-06	5.446909e-06	4.218635e-09	3.889223e+01	2.830543e+02
2.730000e-06	5.495908e-06	4.232921e-09	3.924210e+01	2.840783e+02
2.740000e-06	5.544473e-06	4.246327e-09	3.958886e+01	2.850813e+02
2.750000e-06	5.592548e-06	4.258186e-09	3.993213e+01	2.860615e+02
2.760000e-06	5.640242e-06	4.267061e-09	4.027268e+01	2.870173e+02
2.770000e-06	5.687604e-06	4.278576e-09	4.061085e+01	2.879473e+02
2.780000e-06	5.734526e-06	4.292387e-09	4.094589e+01	2.888503e+02
2.790000e-06	5.781025e-06	4.307625e-09	4.127790e+01	2.897256e+02
2.800000e-06	5.827202e-06	4.323296e-09	4.160762e+01	2.905726e+02
2.810000e-06	5.873018e-06	4.337220e-09	4.193475e+01	2.913913e+02
2.820000e-06	5.918375e-06	4.350120e-09	4.225862e+01	2.921820e+02
2.830000e-06	5.963348e-06	4.364228e-09	4.257973e+01	2.929453e+02
2.840000e-06	6.008014e-06	4.375939e-09	4.289866e+01	2.936825e+02
2.850000e-06	6.052306e-06	4.384090e-09	4.321491e+01	2.943947e+02
2.860000e-06	6.096218e-06	4.393792e-09	4.352846e+01	2.950838e+02
2.870000e-06	6.139789e-06	4.407666e-09	4.383956e+01	2.957516e+02
2.880000e-06	6.183027e-06	4.421988e-09	4.414830e+01	2.964002e+02
2.890000e-06	6.225906e-06	4.434303e-09	4.445446e+01	2.970320e+02
2.900000e-06	6.268214e-06	4.448127e-09	4.475655e+01	2.976492e+02
