# Temperatura_=_20.0
# Concentracion g/m^3_=_9000.0
# C_Vs_to_Am_M_A/Vsm_=_65563218390.804596
# pendiente_HvsI_1/m_=_3716.3
# ordenada_HvsI_A/m_=_1297.0
# frecuencia_Hz_=_135477.609846701

Tiempo_(s)	Campo_(V.s)	Magnetizacion_(V.s)	Campo_(kA/m)	Magnetizacion_(A/m)
0.000000e+00	-7.963472e-06	-4.698687e-09	-5.692110e+01	-3.127401e+02
1.000000e-08	-7.963707e-06	-4.693870e-09	-5.692278e+01	-3.126295e+02
2.000000e-08	-7.963490e-06	-4.689699e-09	-5.692124e+01	-3.125125e+02
3.000000e-08	-7.962740e-06	-4.692904e-09	-5.691587e+01	-3.123933e+02
4.000000e-08	-7.961345e-06	-4.695905e-09	-5.690590e+01	-3.122761e+02
5.000000e-08	-7.959080e-06	-4.691161e-09	-5.688971e+01	-3.121656e+02
6.000000e-08	-7.956015e-06	-4.685184e-09	-5.686780e+01	-3.120665e+02
7.000000e-08	-7.952436e-06	-4.680084e-09	-5.684222e+01	-3.119837e+02
8.000000e-08	-7.948549e-06	-4.662625e-09	-5.681444e+01	-3.119220e+02
9.000000e-08	-7.944234e-06	-4.646426e-09	-5.678360e+01	-3.118862e+02
1.000000e-07	-7.939221e-06	-4.697682e-09	-5.674776e+01	-3.118808e+02
1.100000e-07	-7.933297e-06	-4.801774e-09	-5.670542e+01	-3.119098e+02
1.200000e-07	-7.926443e-06	-4.833608e-09	-5.665643e+01	-3.119769e+02
1.300000e-07	-7.919005e-06	-4.667248e-09	-5.660326e+01	-3.120851e+02
1.400000e-07	-7.911283e-06	-4.476606e-09	-5.654807e+01	-3.122370e+02
1.500000e-07	-7.903362e-06	-4.621085e-09	-5.649145e+01	-3.124340e+02
1.600000e-07	-7.895096e-06	-4.912219e-09	-5.643237e+01	-3.126770e+02
1.700000e-07	-7.886222e-06	-4.805553e-09	-5.636894e+01	-3.129659e+02
1.800000e-07	-7.876663e-06	-4.532409e-09	-5.630061e+01	-3.132997e+02
1.900000e-07	-7.866248e-06	-4.549926e-09	-5.622617e+01	-3.136763e+02
2.000000e-07	-7.854979e-06	-4.741091e-09	-5.614562e+01	-3.140928e+02
2.100000e-07	-7.843268e-06	-4.858137e-09	-5.606191e+01	-3.145454e+02
2.200000e-07	-7.831159e-06	-4.779030e-09	-5.597536e+01	-3.150292e+02
2.300000e-07	-7.818286e-06	-4.560463e-09	-5.588335e+01	-3.155387e+02
2.400000e-07	-7.804707e-06	-4.555167e-09	-5.578629e+01	-3.160676e+02
2.500000e-07	-7.790761e-06	-4.899885e-09	-5.568660e+01	-3.166089e+02
2.600000e-07	-7.776019e-06	-4.994229e-09	-5.558123e+01	-3.171551e+02
2.700000e-07	-7.760046e-06	-4.655471e-09	-5.546706e+01	-3.176985e+02
2.800000e-07	-7.743352e-06	-4.605597e-09	-5.534774e+01	-3.182309e+02
2.900000e-07	-7.726349e-06	-4.986898e-09	-5.522621e+01	-3.187443e+02
3.000000e-07	-7.708870e-06	-5.092004e-09	-5.510127e+01	-3.192307e+02
3.100000e-07	-7.690862e-06	-4.870734e-09	-5.497255e+01	-3.196823e+02
3.200000e-07	-7.672373e-06	-4.874822e-09	-5.484040e+01	-3.200917e+02
3.300000e-07	-7.653349e-06	-5.044624e-09	-5.470442e+01	-3.204523e+02
3.400000e-07	-7.633846e-06	-5.058132e-09	-5.456502e+01	-3.207580e+02
3.500000e-07	-7.613998e-06	-5.031019e-09	-5.442314e+01	-3.210035e+02
3.600000e-07	-7.593746e-06	-4.963348e-09	-5.427838e+01	-3.211846e+02
3.700000e-07	-7.572959e-06	-4.847519e-09	-5.412981e+01	-3.212980e+02
3.800000e-07	-7.551701e-06	-4.946017e-09	-5.397786e+01	-3.213417e+02
3.900000e-07	-7.529933e-06	-5.119118e-09	-5.382227e+01	-3.213146e+02
4.000000e-07	-7.507536e-06	-4.981079e-09	-5.366218e+01	-3.212170e+02
4.100000e-07	-7.484543e-06	-4.794944e-09	-5.349783e+01	-3.210500e+02
4.200000e-07	-7.461072e-06	-4.924802e-09	-5.333006e+01	-3.208161e+02
4.300000e-07	-7.437200e-06	-5.102997e-09	-5.315943e+01	-3.205188e+02
4.400000e-07	-7.412807e-06	-4.994138e-09	-5.298508e+01	-3.201624e+02
4.500000e-07	-7.387727e-06	-4.801588e-09	-5.280581e+01	-3.197521e+02
4.600000e-07	-7.362055e-06	-4.873589e-09	-5.262231e+01	-3.192938e+02
4.700000e-07	-7.335755e-06	-5.045171e-09	-5.243433e+01	-3.187941e+02
4.800000e-07	-7.308734e-06	-4.971684e-09	-5.224119e+01	-3.182598e+02
4.900000e-07	-7.281185e-06	-4.808685e-09	-5.204427e+01	-3.176981e+02
5.000000e-07	-7.253272e-06	-4.857120e-09	-5.184476e+01	-3.171160e+02
5.100000e-07	-7.224958e-06	-4.952138e-09	-5.164237e+01	-3.165207e+02
5.200000e-07	-7.196177e-06	-4.923413e-09	-5.143665e+01	-3.159190e+02
5.300000e-07	-7.166885e-06	-4.869618e-09	-5.122728e+01	-3.153173e+02
5.400000e-07	-7.137040e-06	-4.839816e-09	-5.101395e+01	-3.147214e+02
5.500000e-07	-7.106646e-06	-4.835271e-09	-5.079671e+01	-3.141363e+02
5.600000e-07	-7.075860e-06	-4.895168e-09	-5.057666e+01	-3.135664e+02
5.700000e-07	-7.044676e-06	-4.898800e-09	-5.035376e+01	-3.130152e+02
5.800000e-07	-7.013001e-06	-4.799555e-09	-5.012735e+01	-3.124850e+02
5.900000e-07	-6.981013e-06	-4.775393e-09	-4.989871e+01	-3.119775e+02
6.000000e-07	-6.948677e-06	-4.860079e-09	-4.966758e+01	-3.114931e+02
6.100000e-07	-6.915633e-06	-4.872918e-09	-4.943139e+01	-3.110314e+02
6.200000e-07	-6.881785e-06	-4.793250e-09	-4.918945e+01	-3.105911e+02
6.300000e-07	-6.847229e-06	-4.759518e-09	-4.894245e+01	-3.101698e+02
6.400000e-07	-6.812009e-06	-4.807747e-09	-4.869070e+01	-3.097647e+02
6.500000e-07	-6.776349e-06	-4.836205e-09	-4.843582e+01	-3.093721e+02
6.600000e-07	-6.740398e-06	-4.784420e-09	-4.817884e+01	-3.089879e+02
6.700000e-07	-6.704124e-06	-4.736364e-09	-4.791957e+01	-3.086076e+02
6.800000e-07	-6.667405e-06	-4.764462e-09	-4.765711e+01	-3.082262e+02
6.900000e-07	-6.630112e-06	-4.789104e-09	-4.739055e+01	-3.078391e+02
7.000000e-07	-6.592270e-06	-4.752271e-09	-4.712007e+01	-3.074414e+02
7.100000e-07	-6.554003e-06	-4.725011e-09	-4.684654e+01	-3.070284e+02
7.200000e-07	-6.515312e-06	-4.729187e-09	-4.656998e+01	-3.065958e+02
7.300000e-07	-6.476143e-06	-4.728695e-09	-4.629001e+01	-3.061399e+02
7.400000e-07	-6.436539e-06	-4.721671e-09	-4.600694e+01	-3.056574e+02
7.500000e-07	-6.396694e-06	-4.705639e-09	-4.572213e+01	-3.051455e+02
7.600000e-07	-6.356611e-06	-4.674887e-09	-4.543563e+01	-3.046024e+02
7.700000e-07	-6.316030e-06	-4.676823e-09	-4.514556e+01	-3.040269e+02
7.800000e-07	-6.274883e-06	-4.697849e-09	-4.485145e+01	-3.034186e+02
7.900000e-07	-6.233141e-06	-4.674620e-09	-4.455309e+01	-3.027778e+02
8.000000e-07	-6.190653e-06	-4.636160e-09	-4.424939e+01	-3.021055e+02
8.100000e-07	-6.147508e-06	-4.647563e-09	-4.394101e+01	-3.014036e+02
8.200000e-07	-6.103941e-06	-4.668403e-09	-4.362960e+01	-3.006743e+02
8.300000e-07	-6.060013e-06	-4.642249e-09	-4.331561e+01	-2.999205e+02
8.400000e-07	-6.015752e-06	-4.598635e-09	-4.299924e+01	-2.991454e+02
8.500000e-07	-5.971161e-06	-4.594040e-09	-4.268052e+01	-2.983526e+02
8.600000e-07	-5.926157e-06	-4.611362e-09	-4.235884e+01	-2.975458e+02
8.700000e-07	-5.880698e-06	-4.601096e-09	-4.203391e+01	-2.967287e+02
8.800000e-07	-5.834790e-06	-4.565389e-09	-4.170577e+01	-2.959049e+02
8.900000e-07	-5.788503e-06	-4.546040e-09	-4.137492e+01	-2.950779e+02
9.000000e-07	-5.741914e-06	-4.558248e-09	-4.104191e+01	-2.942507e+02
9.100000e-07	-5.694978e-06	-4.561400e-09	-4.070642e+01	-2.934260e+02
9.200000e-07	-5.647686e-06	-4.533317e-09	-4.036839e+01	-2.926058e+02
9.300000e-07	-5.600024e-06	-4.500211e-09	-4.002771e+01	-2.917917e+02
9.400000e-07	-5.551856e-06	-4.490497e-09	-3.968342e+01	-2.909845e+02
9.500000e-07	-5.503113e-06	-4.495626e-09	-3.933502e+01	-2.901845e+02
9.600000e-07	-5.453856e-06	-4.486179e-09	-3.898293e+01	-2.893910e+02
9.700000e-07	-5.404019e-06	-4.453658e-09	-3.862671e+01	-2.886030e+02
9.800000e-07	-5.353360e-06	-4.427982e-09	-3.826461e+01	-2.878187e+02
9.900000e-07	-5.302091e-06	-4.430594e-09	-3.789816e+01	-2.870356e+02
1.000000e-06	-5.250495e-06	-4.432157e-09	-3.752936e+01	-2.862509e+02
1.010000e-06	-5.198502e-06	-4.407504e-09	-3.715772e+01	-2.854614e+02
1.020000e-06	-5.146088e-06	-4.379877e-09	-3.678308e+01	-2.846635e+02
1.030000e-06	-5.093317e-06	-4.373208e-09	-3.640588e+01	-2.838534e+02
1.040000e-06	-5.040210e-06	-4.373059e-09	-3.602628e+01	-2.830274e+02
1.050000e-06	-4.986775e-06	-4.357223e-09	-3.564435e+01	-2.821816e+02
1.060000e-06	-4.933048e-06	-4.332354e-09	-3.526032e+01	-2.813126e+02
1.070000e-06	-4.878943e-06	-4.312348e-09	-3.487359e+01	-2.804170e+02
1.080000e-06	-4.824441e-06	-4.300921e-09	-3.448401e+01	-2.794919e+02
1.090000e-06	-4.769595e-06	-4.288078e-09	-3.409199e+01	-2.785351e+02
1.100000e-06	-4.714382e-06	-4.266776e-09	-3.369734e+01	-2.775445e+02
1.110000e-06	-4.658807e-06	-4.245343e-09	-3.330010e+01	-2.765191e+02
1.120000e-06	-4.602971e-06	-4.231094e-09	-3.290100e+01	-2.754581e+02
1.130000e-06	-4.546993e-06	-4.219910e-09	-3.250088e+01	-2.743617e+02
1.140000e-06	-4.490818e-06	-4.203612e-09	-3.209936e+01	-2.732305e+02
1.150000e-06	-4.434364e-06	-4.182129e-09	-3.169584e+01	-2.720659e+02
1.160000e-06	-4.377543e-06	-4.161744e-09	-3.128969e+01	-2.708696e+02
1.170000e-06	-4.320374e-06	-4.145125e-09	-3.088106e+01	-2.696439e+02
1.180000e-06	-4.262993e-06	-4.128689e-09	-3.047092e+01	-2.683917e+02
1.190000e-06	-4.205287e-06	-4.108226e-09	-3.005845e+01	-2.671157e+02
1.200000e-06	-4.147008e-06	-4.087096e-09	-2.964188e+01	-2.658191e+02
1.210000e-06	-4.088158e-06	-4.068291e-09	-2.922123e+01	-2.645051e+02
1.220000e-06	-4.028939e-06	-4.052604e-09	-2.879795e+01	-2.631766e+02
1.230000e-06	-3.969395e-06	-4.034334e-09	-2.837234e+01	-2.618365e+02
1.240000e-06	-3.909585e-06	-4.013321e-09	-2.794484e+01	-2.604872e+02
1.250000e-06	-3.849650e-06	-3.994049e-09	-2.751643e+01	-2.591307e+02
1.260000e-06	-3.789599e-06	-3.974133e-09	-2.708720e+01	-2.577685e+02
1.270000e-06	-3.729330e-06	-3.951475e-09	-2.665641e+01	-2.564014e+02
1.280000e-06	-3.668821e-06	-3.926873e-09	-2.622391e+01	-2.550295e+02
1.290000e-06	-3.608092e-06	-3.903534e-09	-2.578983e+01	-2.536521e+02
1.300000e-06	-3.547118e-06	-3.880739e-09	-2.535400e+01	-2.522680e+02
1.310000e-06	-3.485846e-06	-3.856441e-09	-2.491604e+01	-2.508749e+02
1.320000e-06	-3.424322e-06	-3.830782e-09	-2.447629e+01	-2.494701e+02
1.330000e-06	-3.362581e-06	-3.805225e-09	-2.403497e+01	-2.480502e+02
1.340000e-06	-3.300606e-06	-3.780954e-09	-2.359199e+01	-2.466110e+02
1.350000e-06	-3.238367e-06	-3.756780e-09	-2.314712e+01	-2.451482e+02
1.360000e-06	-3.175918e-06	-3.731383e-09	-2.270075e+01	-2.436568e+02
1.370000e-06	-3.113317e-06	-3.703817e-09	-2.225329e+01	-2.421319e+02
1.380000e-06	-3.050496e-06	-3.673499e-09	-2.180426e+01	-2.405683e+02
1.390000e-06	-2.987427e-06	-3.643825e-09	-2.135346e+01	-2.389609e+02
1.400000e-06	-2.924147e-06	-3.615827e-09	-2.090114e+01	-2.373047e+02
1.410000e-06	-2.860706e-06	-3.588243e-09	-2.044769e+01	-2.355953e+02
1.420000e-06	-2.797096e-06	-3.562912e-09	-1.999301e+01	-2.338285e+02
1.430000e-06	-2.733351e-06	-3.540890e-09	-1.953738e+01	-2.320009e+02
1.440000e-06	-2.669498e-06	-3.517813e-09	-1.908097e+01	-2.301094e+02
1.450000e-06	-2.605525e-06	-3.489863e-09	-1.862371e+01	-2.281520e+02
1.460000e-06	-2.541388e-06	-3.459285e-09	-1.816527e+01	-2.261273e+02
1.470000e-06	-2.477066e-06	-3.426897e-09	-1.770551e+01	-2.240345e+02
1.480000e-06	-2.412568e-06	-3.391291e-09	-1.724449e+01	-2.218739e+02
1.490000e-06	-2.347920e-06	-3.353804e-09	-1.678241e+01	-2.196462e+02
1.500000e-06	-2.283122e-06	-3.317860e-09	-1.631924e+01	-2.173528e+02
1.510000e-06	-2.218106e-06	-3.282962e-09	-1.585452e+01	-2.149958e+02
1.520000e-06	-2.152782e-06	-3.250199e-09	-1.538760e+01	-2.125773e+02
1.530000e-06	-2.087217e-06	-3.217980e-09	-1.491895e+01	-2.100999e+02
1.540000e-06	-2.021609e-06	-3.182779e-09	-1.445000e+01	-2.075662e+02
1.550000e-06	-1.955849e-06	-3.147550e-09	-1.397997e+01	-2.049785e+02
1.560000e-06	-1.889749e-06	-3.110404e-09	-1.350750e+01	-2.023389e+02
1.570000e-06	-1.823452e-06	-3.069340e-09	-1.303363e+01	-1.996488e+02
1.580000e-06	-1.757075e-06	-3.025495e-09	-1.255918e+01	-1.969088e+02
1.590000e-06	-1.690610e-06	-2.981673e-09	-1.208410e+01	-1.941187e+02
1.600000e-06	-1.624023e-06	-2.936825e-09	-1.160815e+01	-1.912771e+02
1.610000e-06	-1.557201e-06	-2.890182e-09	-1.113052e+01	-1.883811e+02
1.620000e-06	-1.490171e-06	-2.842969e-09	-1.065140e+01	-1.854266e+02
1.630000e-06	-1.422989e-06	-2.795914e-09	-1.017121e+01	-1.824080e+02
1.640000e-06	-1.355717e-06	-2.749667e-09	-9.690362e+00	-1.793179e+02
1.650000e-06	-1.288354e-06	-2.702394e-09	-9.208866e+00	-1.761475e+02
1.660000e-06	-1.220867e-06	-2.653427e-09	-8.726485e+00	-1.728865e+02
1.670000e-06	-1.153287e-06	-2.599525e-09	-8.243439e+00	-1.695229e+02
1.680000e-06	-1.085674e-06	-2.539904e-09	-7.760155e+00	-1.660434e+02
1.690000e-06	-1.018037e-06	-2.479047e-09	-7.276701e+00	-1.624339e+02
1.700000e-06	-9.503227e-07	-2.416543e-09	-6.792693e+00	-1.586787e+02
1.710000e-06	-8.825443e-07	-2.353192e-09	-6.308228e+00	-1.547619e+02
1.720000e-06	-8.147401e-07	-2.288726e-09	-5.823579e+00	-1.506669e+02
1.730000e-06	-7.469301e-07	-2.222185e-09	-5.338888e+00	-1.463770e+02
1.740000e-06	-6.791005e-07	-2.154595e-09	-4.854057e+00	-1.418760e+02
1.750000e-06	-6.112039e-07	-2.083265e-09	-4.368748e+00	-1.371479e+02
1.760000e-06	-5.432424e-07	-2.006374e-09	-3.882974e+00	-1.321779e+02
1.770000e-06	-4.752798e-07	-1.926210e-09	-3.397193e+00	-1.269525e+02
1.780000e-06	-4.073423e-07	-1.843831e-09	-2.911591e+00	-1.214598e+02
1.790000e-06	-3.393954e-07	-1.755899e-09	-2.425922e+00	-1.156900e+02
1.800000e-06	-2.713642e-07	-1.664883e-09	-1.939650e+00	-1.096356e+02
1.810000e-06	-2.032420e-07	-1.573271e-09	-1.452728e+00	-1.032917e+02
1.820000e-06	-1.351059e-07	-1.478119e-09	-9.657066e-01	-9.665646e+01
1.830000e-06	-6.701017e-08	-1.378124e-09	-4.789736e-01	-8.973082e+01
1.840000e-06	1.029785e-09	-1.275563e-09	7.360670e-03	-8.251917e+01
1.850000e-06	6.901023e-08	-1.167666e-09	4.932696e-01	-7.502911e+01
1.860000e-06	1.369815e-07	-1.051508e-09	9.791131e-01	-6.727164e+01
1.870000e-06	2.049473e-07	-9.317814e-10	1.464917e+00	-5.926105e+01
1.880000e-06	2.728610e-07	-8.082418e-10	1.950349e+00	-5.101485e+01
1.890000e-06	3.407736e-07	-6.769742e-10	2.435773e+00	-4.255365e+01
1.900000e-06	4.087351e-07	-5.405575e-10	2.921547e+00	-3.390091e+01
1.910000e-06	4.767139e-07	-4.039219e-10	3.407444e+00	-2.508269e+01
1.920000e-06	5.446716e-07	-2.663323e-10	3.893190e+00	-1.612735e+01
1.930000e-06	6.126058e-07	-1.247172e-10	4.378768e+00	-7.065174e+00
1.940000e-06	6.805795e-07	1.838860e-11	4.864629e+00	2.072032e+00
1.950000e-06	7.485332e-07	1.610945e-10	5.350346e+00	1.125134e+01
1.960000e-06	8.163964e-07	3.036774e-10	5.835418e+00	2.043916e+01
1.970000e-06	8.842071e-07	4.474794e-10	6.320114e+00	2.960171e+01
1.980000e-06	9.519451e-07	5.945969e-10	6.804290e+00	3.870545e+01
1.990000e-06	1.019579e-06	7.410194e-10	7.287718e+00	4.771755e+01
2.000000e-06	1.087152e-06	8.809109e-10	7.770720e+00	5.660635e+01
2.010000e-06	1.154683e-06	1.015238e-09	8.253414e+00	6.534174e+01
2.020000e-06	1.222129e-06	1.147764e-09	8.735503e+00	7.389555e+01
2.030000e-06	1.289553e-06	1.274882e-09	9.217435e+00	8.224192e+01
2.040000e-06	1.356896e-06	1.393056e-09	9.698789e+00	9.035760e+01
2.050000e-06	1.424131e-06	1.507212e-09	1.017937e+01	9.822214e+01
2.060000e-06	1.491361e-06	1.618544e-09	1.065992e+01	1.058182e+02
2.070000e-06	1.558557e-06	1.726484e-09	1.114021e+01	1.131315e+02
2.080000e-06	1.625549e-06	1.829370e-09	1.161906e+01	1.201512e+02
2.090000e-06	1.692246e-06	1.926607e-09	1.209579e+01	1.268696e+02
2.100000e-06	1.758754e-06	2.020840e-09	1.257118e+01	1.332824e+02
2.110000e-06	1.825069e-06	2.109401e-09	1.304518e+01	1.393881e+02
2.120000e-06	1.891214e-06	2.189949e-09	1.351797e+01	1.451888e+02
2.130000e-06	1.957103e-06	2.263999e-09	1.398893e+01	1.506889e+02
2.140000e-06	2.022664e-06	2.335274e-09	1.445755e+01	1.558956e+02
2.150000e-06	2.088003e-06	2.405309e-09	1.492458e+01	1.608186e+02
2.160000e-06	2.153166e-06	2.472305e-09	1.539034e+01	1.654693e+02
2.170000e-06	2.218236e-06	2.534564e-09	1.585545e+01	1.698612e+02
2.180000e-06	2.283134e-06	2.595881e-09	1.631933e+01	1.740089e+02
2.190000e-06	2.347776e-06	2.657356e-09	1.678137e+01	1.779281e+02
2.200000e-06	2.412247e-06	2.715972e-09	1.724220e+01	1.816353e+02
2.210000e-06	2.476573e-06	2.771032e-09	1.770199e+01	1.851475e+02
2.220000e-06	2.540726e-06	2.821620e-09	1.816054e+01	1.884816e+02
2.230000e-06	2.604704e-06	2.869098e-09	1.861784e+01	1.916542e+02
2.240000e-06	2.668532e-06	2.914825e-09	1.907406e+01	1.946818e+02
2.250000e-06	2.732229e-06	2.955941e-09	1.952936e+01	1.975797e+02
2.260000e-06	2.795773e-06	2.993463e-09	1.998356e+01	2.003626e+02
2.270000e-06	2.859163e-06	3.031498e-09	2.043665e+01	2.030441e+02
2.280000e-06	2.922385e-06	3.071269e-09	2.088855e+01	2.056363e+02
2.290000e-06	2.985424e-06	3.110292e-09	2.133914e+01	2.081502e+02
2.300000e-06	3.048251e-06	3.146105e-09	2.178821e+01	2.105954e+02
2.310000e-06	3.110892e-06	3.178979e-09	2.223595e+01	2.129800e+02
2.320000e-06	3.173395e-06	3.212609e-09	2.268271e+01	2.153108e+02
2.330000e-06	3.235707e-06	3.246235e-09	2.312811e+01	2.175932e+02
2.340000e-06	3.297787e-06	3.277061e-09	2.357184e+01	2.198314e+02
2.350000e-06	3.359625e-06	3.307189e-09	2.401384e+01	2.220283e+02
2.360000e-06	3.421197e-06	3.335712e-09	2.445395e+01	2.241858e+02
2.370000e-06	3.482513e-06	3.362900e-09	2.489222e+01	2.263050e+02
2.380000e-06	3.543541e-06	3.390220e-09	2.532844e+01	2.283860e+02
2.390000e-06	3.604272e-06	3.419461e-09	2.576252e+01	2.304283e+02
2.400000e-06	3.664775e-06	3.448857e-09	2.619498e+01	2.324312e+02
2.410000e-06	3.725096e-06	3.474132e-09	2.662615e+01	2.343934e+02
2.420000e-06	3.785212e-06	3.497833e-09	2.705584e+01	2.363134e+02
2.430000e-06	3.845168e-06	3.523245e-09	2.748439e+01	2.381898e+02
2.440000e-06	3.904935e-06	3.548553e-09	2.791159e+01	2.400212e+02
2.450000e-06	3.964491e-06	3.571455e-09	2.833729e+01	2.418063e+02
2.460000e-06	4.023859e-06	3.591525e-09	2.876164e+01	2.435442e+02
2.470000e-06	4.082970e-06	3.611480e-09	2.918415e+01	2.452342e+02
2.480000e-06	4.141671e-06	3.633339e-09	2.960373e+01	2.468760e+02
2.490000e-06	4.199821e-06	3.654559e-09	3.001937e+01	2.484698e+02
2.500000e-06	4.257536e-06	3.673897e-09	3.043191e+01	2.500160e+02
2.510000e-06	4.314835e-06	3.694754e-09	3.084147e+01	2.515157e+02
2.520000e-06	4.371652e-06	3.717578e-09	3.124758e+01	2.529702e+02
2.530000e-06	4.427993e-06	3.739693e-09	3.165030e+01	2.543812e+02
2.540000e-06	4.484009e-06	3.761723e-09	3.205069e+01	2.557506e+02
2.550000e-06	4.539873e-06	3.782288e-09	3.244999e+01	2.570809e+02
2.560000e-06	4.595558e-06	3.800682e-09	3.284801e+01	2.583743e+02
2.570000e-06	4.650989e-06	3.819364e-09	3.324422e+01	2.596335e+02
2.580000e-06	4.706090e-06	3.837313e-09	3.363807e+01	2.608613e+02
2.590000e-06	4.760903e-06	3.854508e-09	3.402986e+01	2.620600e+02
2.600000e-06	4.815423e-06	3.872890e-09	3.441956e+01	2.632325e+02
2.610000e-06	4.869579e-06	3.892136e-09	3.480665e+01	2.643810e+02
2.620000e-06	4.923395e-06	3.912157e-09	3.519132e+01	2.655079e+02
2.630000e-06	4.976911e-06	3.933119e-09	3.557384e+01	2.666152e+02
2.640000e-06	5.030106e-06	3.952143e-09	3.595407e+01	2.677047e+02
2.650000e-06	5.082896e-06	3.969151e-09	3.633140e+01	2.687777e+02
2.660000e-06	5.135289e-06	3.986130e-09	3.670589e+01	2.698357e+02
2.670000e-06	5.187349e-06	3.999875e-09	3.707800e+01	2.708793e+02
2.680000e-06	5.239049e-06	4.010687e-09	3.744754e+01	2.719092e+02
2.690000e-06	5.290285e-06	4.023764e-09	3.781377e+01	2.729258e+02
2.700000e-06	5.340971e-06	4.038655e-09	3.817606e+01	2.739290e+02
2.710000e-06	5.391068e-06	4.051600e-09	3.853414e+01	2.749187e+02
2.720000e-06	5.440580e-06	4.064897e-09	3.888804e+01	2.758944e+02
2.730000e-06	5.489498e-06	4.080256e-09	3.923769e+01	2.768558e+02
2.740000e-06	5.537815e-06	4.093889e-09	3.958305e+01	2.778020e+02
2.750000e-06	5.585704e-06	4.104193e-09	3.992536e+01	2.787323e+02
2.760000e-06	5.633378e-06	4.114433e-09	4.026612e+01	2.796461e+02
2.770000e-06	5.680801e-06	4.126183e-09	4.060509e+01	2.805425e+02
2.780000e-06	5.727827e-06	4.139658e-09	4.094122e+01	2.814209e+02
2.790000e-06	5.774403e-06	4.152199e-09	4.127413e+01	2.822805e+02
2.800000e-06	5.820567e-06	4.163300e-09	4.160411e+01	2.831210e+02
2.810000e-06	5.866310e-06	4.174524e-09	4.193107e+01	2.839419e+02
2.820000e-06	5.911627e-06	4.186735e-09	4.225498e+01	2.847430e+02
2.830000e-06	5.956552e-06	4.200344e-09	4.257609e+01	2.855243e+02
2.840000e-06	6.001039e-06	4.213223e-09	4.289408e+01	2.862858e+02
2.850000e-06	6.045165e-06	4.223044e-09	4.320948e+01	2.870277e+02
2.860000e-06	6.089075e-06	4.232354e-09	4.352334e+01	2.877507e+02
2.870000e-06	6.132763e-06	4.244700e-09	4.383561e+01	2.884551e+02
2.880000e-06	6.176143e-06	4.257220e-09	4.414568e+01	2.891417e+02
2.890000e-06	6.219094e-06	4.268005e-09	4.445268e+01	2.898113e+02
2.900000e-06	6.261350e-06	4.280254e-09	4.475472e+01	2.904649e+02
