# Temperatura_=_20.0
# Concentracion g/m^3_=_9000.0
# C_Vs_to_Am_M_A/Vsm_=_65563218390.804596
# pendiente_HvsI_1/m_=_3716.3
# ordenada_HvsI_A/m_=_1297.0
# frecuencia_Hz_=_135477.52085854165

Tiempo_(s)	Campo_(V.s)	Magnetizacion_(V.s)	Campo_(kA/m)	Magnetizacion_(A/m)
0.000000e+00	-7.939789e-06	-4.814785e-09	-5.691375e+01	-3.163305e+02
1.000000e-08	-7.940082e-06	-4.810768e-09	-5.691585e+01	-3.163213e+02
2.000000e-08	-7.939905e-06	-4.807295e-09	-5.691458e+01	-3.163019e+02
3.000000e-08	-7.939095e-06	-4.804366e-09	-5.690877e+01	-3.162712e+02
4.000000e-08	-7.937491e-06	-4.804163e-09	-5.689727e+01	-3.162282e+02
5.000000e-08	-7.935079e-06	-4.807564e-09	-5.687999e+01	-3.161720e+02
6.000000e-08	-7.932037e-06	-4.811277e-09	-5.685818e+01	-3.161018e+02
7.000000e-08	-7.928556e-06	-4.813802e-09	-5.683323e+01	-3.160172e+02
8.000000e-08	-7.924700e-06	-4.816714e-09	-5.680559e+01	-3.159176e+02
9.000000e-08	-7.920344e-06	-4.825621e-09	-5.677436e+01	-3.158030e+02
1.000000e-07	-7.915293e-06	-4.820426e-09	-5.673816e+01	-3.156735e+02
1.100000e-07	-7.909365e-06	-4.802093e-09	-5.669567e+01	-3.155293e+02
1.200000e-07	-7.902630e-06	-4.784264e-09	-5.664739e+01	-3.153711e+02
1.300000e-07	-7.895291e-06	-4.801046e-09	-5.659478e+01	-3.151995e+02
1.400000e-07	-7.887627e-06	-4.842788e-09	-5.653984e+01	-3.150157e+02
1.500000e-07	-7.879771e-06	-4.818581e-09	-5.648353e+01	-3.148206e+02
1.600000e-07	-7.871483e-06	-4.764403e-09	-5.642412e+01	-3.146155e+02
1.700000e-07	-7.862581e-06	-4.784581e-09	-5.636031e+01	-3.144019e+02
1.800000e-07	-7.853016e-06	-4.809587e-09	-5.629175e+01	-3.141811e+02
1.900000e-07	-7.842679e-06	-4.800091e-09	-5.621765e+01	-3.139544e+02
2.000000e-07	-7.831571e-06	-4.787483e-09	-5.613802e+01	-3.137234e+02
2.100000e-07	-7.819828e-06	-4.771844e-09	-5.605385e+01	-3.134892e+02
2.200000e-07	-7.807465e-06	-4.762963e-09	-5.596523e+01	-3.132529e+02
2.300000e-07	-7.794456e-06	-4.765673e-09	-5.587198e+01	-3.130155e+02
2.400000e-07	-7.780915e-06	-4.777936e-09	-5.577491e+01	-3.127777e+02
2.500000e-07	-7.766799e-06	-4.705446e-09	-5.567372e+01	-3.125400e+02
2.600000e-07	-7.751929e-06	-4.659942e-09	-5.556713e+01	-3.123027e+02
2.700000e-07	-7.736206e-06	-4.705442e-09	-5.545443e+01	-3.120657e+02
2.800000e-07	-7.719645e-06	-4.744459e-09	-5.533572e+01	-3.118286e+02
2.900000e-07	-7.702503e-06	-4.688704e-09	-5.521284e+01	-3.115910e+02
3.000000e-07	-7.684966e-06	-4.693176e-09	-5.508713e+01	-3.113521e+02
3.100000e-07	-7.667045e-06	-4.768849e-09	-5.495868e+01	-3.111107e+02
3.200000e-07	-7.648582e-06	-4.756966e-09	-5.482633e+01	-3.108657e+02
3.300000e-07	-7.629514e-06	-4.704306e-09	-5.468964e+01	-3.106158e+02
3.400000e-07	-7.610047e-06	-4.751886e-09	-5.455010e+01	-3.103595e+02
3.500000e-07	-7.590229e-06	-4.762023e-09	-5.440805e+01	-3.100953e+02
3.600000e-07	-7.569938e-06	-4.713097e-09	-5.426260e+01	-3.098217e+02
3.700000e-07	-7.549145e-06	-4.733212e-09	-5.411354e+01	-3.095375e+02
3.800000e-07	-7.527891e-06	-4.749008e-09	-5.396119e+01	-3.092412e+02
3.900000e-07	-7.506105e-06	-4.713136e-09	-5.380503e+01	-3.089320e+02
4.000000e-07	-7.483666e-06	-4.692054e-09	-5.364418e+01	-3.086087e+02
4.100000e-07	-7.460702e-06	-4.735427e-09	-5.347957e+01	-3.082710e+02
4.200000e-07	-7.437396e-06	-4.721938e-09	-5.331251e+01	-3.079184e+02
4.300000e-07	-7.413638e-06	-4.661655e-09	-5.314221e+01	-3.075509e+02
4.400000e-07	-7.389244e-06	-4.678029e-09	-5.296735e+01	-3.071690e+02
4.500000e-07	-7.364237e-06	-4.732892e-09	-5.278810e+01	-3.067731e+02
4.600000e-07	-7.338705e-06	-4.663865e-09	-5.260507e+01	-3.063643e+02
4.700000e-07	-7.312493e-06	-4.615287e-09	-5.241719e+01	-3.059438e+02
4.800000e-07	-7.285567e-06	-4.676643e-09	-5.222417e+01	-3.055132e+02
4.900000e-07	-7.258177e-06	-4.687968e-09	-5.202784e+01	-3.050739e+02
5.000000e-07	-7.230338e-06	-4.611584e-09	-5.182828e+01	-3.046281e+02
5.100000e-07	-7.202038e-06	-4.627011e-09	-5.162542e+01	-3.041775e+02
5.200000e-07	-7.173274e-06	-4.656073e-09	-5.141924e+01	-3.037242e+02
5.300000e-07	-7.143975e-06	-4.623846e-09	-5.120922e+01	-3.032701e+02
5.400000e-07	-7.114207e-06	-4.612179e-09	-5.099584e+01	-3.028172e+02
5.500000e-07	-7.084015e-06	-4.624175e-09	-5.077942e+01	-3.023670e+02
5.600000e-07	-7.053327e-06	-4.593247e-09	-5.055944e+01	-3.019211e+02
5.700000e-07	-7.022166e-06	-4.587153e-09	-5.033607e+01	-3.014806e+02
5.800000e-07	-6.990603e-06	-4.609415e-09	-5.010982e+01	-3.010464e+02
5.900000e-07	-6.958643e-06	-4.592422e-09	-4.988073e+01	-3.006189e+02
6.000000e-07	-6.926166e-06	-4.562227e-09	-4.964793e+01	-3.001983e+02
6.100000e-07	-6.893028e-06	-4.568240e-09	-4.941039e+01	-2.997841e+02
6.200000e-07	-6.859176e-06	-4.582441e-09	-4.916773e+01	-2.993757e+02
6.300000e-07	-6.824709e-06	-4.570748e-09	-4.892067e+01	-2.989717e+02
6.400000e-07	-6.789731e-06	-4.547954e-09	-4.866994e+01	-2.985708e+02
6.500000e-07	-6.754275e-06	-4.539766e-09	-4.841579e+01	-2.981708e+02
6.600000e-07	-6.718393e-06	-4.553327e-09	-4.815858e+01	-2.977697e+02
6.700000e-07	-6.682102e-06	-4.545538e-09	-4.789844e+01	-2.973650e+02
6.800000e-07	-6.645409e-06	-4.522815e-09	-4.763542e+01	-2.969539e+02
6.900000e-07	-6.608284e-06	-4.514149e-09	-4.736929e+01	-2.965339e+02
7.000000e-07	-6.570656e-06	-4.517171e-09	-4.709957e+01	-2.961020e+02
7.100000e-07	-6.532479e-06	-4.504225e-09	-4.682591e+01	-2.956555e+02
7.200000e-07	-6.493873e-06	-4.499497e-09	-4.654918e+01	-2.951919e+02
7.300000e-07	-6.454890e-06	-4.492068e-09	-4.626974e+01	-2.947088e+02
7.400000e-07	-6.415593e-06	-4.478136e-09	-4.598806e+01	-2.942041e+02
7.500000e-07	-6.376026e-06	-4.471651e-09	-4.570443e+01	-2.936761e+02
7.600000e-07	-6.335972e-06	-4.475345e-09	-4.541731e+01	-2.931234e+02
7.700000e-07	-6.295420e-06	-4.461117e-09	-4.512663e+01	-2.925451e+02
7.800000e-07	-6.254343e-06	-4.447911e-09	-4.483219e+01	-2.919408e+02
7.900000e-07	-6.212628e-06	-4.444385e-09	-4.453316e+01	-2.913105e+02
8.000000e-07	-6.170302e-06	-4.441248e-09	-4.422977e+01	-2.906549e+02
8.100000e-07	-6.127395e-06	-4.427420e-09	-4.392220e+01	-2.899748e+02
8.200000e-07	-6.084064e-06	-4.417262e-09	-4.361160e+01	-2.892718e+02
8.300000e-07	-6.040313e-06	-4.409871e-09	-4.329798e+01	-2.885477e+02
8.400000e-07	-5.996131e-06	-4.398372e-09	-4.298128e+01	-2.878047e+02
8.500000e-07	-5.951569e-06	-4.382278e-09	-4.266185e+01	-2.870452e+02
8.600000e-07	-5.906600e-06	-4.370822e-09	-4.233951e+01	-2.862719e+02
8.700000e-07	-5.861249e-06	-4.364767e-09	-4.201442e+01	-2.854873e+02
8.800000e-07	-5.815488e-06	-4.353215e-09	-4.168640e+01	-2.846944e+02
8.900000e-07	-5.769295e-06	-4.336508e-09	-4.135528e+01	-2.838956e+02
9.000000e-07	-5.722739e-06	-4.325250e-09	-4.102156e+01	-2.830936e+02
9.100000e-07	-5.675801e-06	-4.319983e-09	-4.068510e+01	-2.822905e+02
9.200000e-07	-5.628480e-06	-4.306081e-09	-4.034590e+01	-2.814881e+02
9.300000e-07	-5.580823e-06	-4.286188e-09	-4.000428e+01	-2.806881e+02
9.400000e-07	-5.532743e-06	-4.267919e-09	-3.965963e+01	-2.798914e+02
9.500000e-07	-5.484060e-06	-4.257783e-09	-3.931067e+01	-2.790986e+02
9.600000e-07	-5.434718e-06	-4.246781e-09	-3.895697e+01	-2.783096e+02
9.700000e-07	-5.384816e-06	-4.232757e-09	-3.859927e+01	-2.775240e+02
9.800000e-07	-5.334358e-06	-4.212747e-09	-3.823758e+01	-2.767407e+02
9.900000e-07	-5.283432e-06	-4.196924e-09	-3.787253e+01	-2.759583e+02
1.000000e-06	-5.232110e-06	-4.186544e-09	-3.750465e+01	-2.751746e+02
1.010000e-06	-5.180309e-06	-4.176586e-09	-3.713333e+01	-2.743874e+02
1.020000e-06	-5.128072e-06	-4.158220e-09	-3.675888e+01	-2.735939e+02
1.030000e-06	-5.075459e-06	-4.138530e-09	-3.638175e+01	-2.727911e+02
1.040000e-06	-5.022573e-06	-4.127339e-09	-3.600265e+01	-2.719758e+02
1.050000e-06	-4.969449e-06	-4.123155e-09	-3.562185e+01	-2.711449e+02
1.060000e-06	-4.915898e-06	-4.109410e-09	-3.523799e+01	-2.702952e+02
1.070000e-06	-4.861877e-06	-4.088897e-09	-3.485075e+01	-2.694235e+02
1.080000e-06	-4.807507e-06	-4.071680e-09	-3.446102e+01	-2.685270e+02
1.090000e-06	-4.752851e-06	-4.059905e-09	-3.406924e+01	-2.676032e+02
1.100000e-06	-4.697867e-06	-4.044913e-09	-3.367511e+01	-2.666499e+02
1.110000e-06	-4.642551e-06	-4.025679e-09	-3.327859e+01	-2.656654e+02
1.120000e-06	-4.587002e-06	-4.005864e-09	-3.288041e+01	-2.646483e+02
1.130000e-06	-4.531229e-06	-3.988756e-09	-3.248061e+01	-2.635979e+02
1.140000e-06	-4.475159e-06	-3.972367e-09	-3.207870e+01	-2.625142e+02
1.150000e-06	-4.418772e-06	-3.954863e-09	-3.167450e+01	-2.613973e+02
1.160000e-06	-4.362062e-06	-3.936990e-09	-3.126800e+01	-2.602482e+02
1.170000e-06	-4.305100e-06	-3.919106e-09	-3.085969e+01	-2.590682e+02
1.180000e-06	-4.247790e-06	-3.902835e-09	-3.044888e+01	-2.578590e+02
1.190000e-06	-4.189999e-06	-3.884896e-09	-3.003462e+01	-2.566228e+02
1.200000e-06	-4.131804e-06	-3.865750e-09	-2.961747e+01	-2.553618e+02
1.210000e-06	-4.073223e-06	-3.845161e-09	-2.919755e+01	-2.540787e+02
1.220000e-06	-4.014275e-06	-3.827345e-09	-2.877500e+01	-2.527759e+02
1.230000e-06	-3.955069e-06	-3.808314e-09	-2.835060e+01	-2.514560e+02
1.240000e-06	-3.895576e-06	-3.786628e-09	-2.792415e+01	-2.501215e+02
1.250000e-06	-3.835698e-06	-3.766117e-09	-2.749493e+01	-2.487743e+02
1.260000e-06	-3.775598e-06	-3.746511e-09	-2.706412e+01	-2.474164e+02
1.270000e-06	-3.715313e-06	-3.725652e-09	-2.663199e+01	-2.460490e+02
1.280000e-06	-3.654793e-06	-3.703436e-09	-2.619817e+01	-2.446730e+02
1.290000e-06	-3.594080e-06	-3.678654e-09	-2.576297e+01	-2.432887e+02
1.300000e-06	-3.533244e-06	-3.654356e-09	-2.532689e+01	-2.418956e+02
1.310000e-06	-3.472253e-06	-3.629949e-09	-2.488970e+01	-2.404927e+02
1.320000e-06	-3.410988e-06	-3.606317e-09	-2.445054e+01	-2.390786e+02
1.330000e-06	-3.349446e-06	-3.581543e-09	-2.400939e+01	-2.376508e+02
1.340000e-06	-3.287668e-06	-3.558390e-09	-2.356656e+01	-2.362066e+02
1.350000e-06	-3.225639e-06	-3.536102e-09	-2.312192e+01	-2.347427e+02
1.360000e-06	-3.163338e-06	-3.514187e-09	-2.267534e+01	-2.332554e+02
1.370000e-06	-3.100767e-06	-3.488581e-09	-2.222682e+01	-2.317404e+02
1.380000e-06	-3.037956e-06	-3.458578e-09	-2.177658e+01	-2.301935e+02
1.390000e-06	-2.975045e-06	-3.428322e-09	-2.132563e+01	-2.286102e+02
1.400000e-06	-2.912014e-06	-3.401819e-09	-2.087381e+01	-2.269861e+02
1.410000e-06	-2.848788e-06	-3.375005e-09	-2.042059e+01	-2.253168e+02
1.420000e-06	-2.785368e-06	-3.346206e-09	-1.996599e+01	-2.235982e+02
1.430000e-06	-2.721852e-06	-3.322336e-09	-1.951070e+01	-2.218265e+02
1.440000e-06	-2.658246e-06	-3.301755e-09	-1.905475e+01	-2.199984e+02
1.450000e-06	-2.594441e-06	-3.277680e-09	-1.859739e+01	-2.181109e+02
1.460000e-06	-2.530519e-06	-3.248513e-09	-1.813919e+01	-2.161619e+02
1.470000e-06	-2.466466e-06	-3.217219e-09	-1.768005e+01	-2.141497e+02
1.480000e-06	-2.402186e-06	-3.185896e-09	-1.721928e+01	-2.120730e+02
1.490000e-06	-2.337729e-06	-3.154010e-09	-1.675724e+01	-2.099316e+02
1.500000e-06	-2.273145e-06	-3.120650e-09	-1.629429e+01	-2.077254e+02
1.510000e-06	-2.208318e-06	-3.086034e-09	-1.582959e+01	-2.054551e+02
1.520000e-06	-2.143216e-06	-3.050968e-09	-1.536293e+01	-2.031214e+02
1.530000e-06	-2.077912e-06	-3.018311e-09	-1.489482e+01	-2.007256e+02
1.540000e-06	-2.012456e-06	-2.985362e-09	-1.442563e+01	-1.982691e+02
1.550000e-06	-1.946873e-06	-2.951945e-09	-1.395552e+01	-1.957529e+02
1.560000e-06	-1.881063e-06	-2.914353e-09	-1.348378e+01	-1.931783e+02
1.570000e-06	-1.814991e-06	-2.875556e-09	-1.301016e+01	-1.905459e+02
1.580000e-06	-1.748785e-06	-2.835079e-09	-1.253559e+01	-1.878557e+02
1.590000e-06	-1.682545e-06	-2.791506e-09	-1.206076e+01	-1.851070e+02
1.600000e-06	-1.616167e-06	-2.744714e-09	-1.158496e+01	-1.822982e+02
1.610000e-06	-1.549610e-06	-2.698416e-09	-1.110787e+01	-1.794267e+02
1.620000e-06	-1.482987e-06	-2.652035e-09	-1.063030e+01	-1.764886e+02
1.630000e-06	-1.416209e-06	-2.604489e-09	-1.015163e+01	-1.734786e+02
1.640000e-06	-1.349204e-06	-2.557289e-09	-9.671324e+00	-1.703902e+02
1.650000e-06	-1.282062e-06	-2.510333e-09	-9.190037e+00	-1.672153e+02
1.660000e-06	-1.214814e-06	-2.461268e-09	-8.707995e+00	-1.639444e+02
1.670000e-06	-1.147502e-06	-2.407186e-09	-8.225487e+00	-1.605669e+02
1.680000e-06	-1.080177e-06	-2.349560e-09	-7.742889e+00	-1.570705e+02
1.690000e-06	-1.012758e-06	-2.287410e-09	-7.259624e+00	-1.534420e+02
1.700000e-06	-9.452493e-07	-2.222763e-09	-6.775707e+00	-1.496672e+02
1.710000e-06	-8.777301e-07	-2.159117e-09	-6.291718e+00	-1.457311e+02
1.720000e-06	-8.102000e-07	-2.094349e-09	-5.807651e+00	-1.416182e+02
1.730000e-06	-7.426742e-07	-2.023955e-09	-5.323614e+00	-1.373128e+02
1.740000e-06	-6.750536e-07	-1.953419e-09	-4.838898e+00	-1.327993e+02
1.750000e-06	-6.073094e-07	-1.884033e-09	-4.353296e+00	-1.280626e+02
1.760000e-06	-5.395401e-07	-1.809106e-09	-3.867514e+00	-1.230882e+02
1.770000e-06	-4.717329e-07	-1.727966e-09	-3.381461e+00	-1.178631e+02
1.780000e-06	-4.038745e-07	-1.644586e-09	-2.895040e+00	-1.123754e+02
1.790000e-06	-3.360464e-07	-1.558788e-09	-2.408837e+00	-1.066153e+02
1.800000e-06	-2.682237e-07	-1.468243e-09	-1.922673e+00	-1.005752e+02
1.810000e-06	-2.003404e-07	-1.372817e-09	-1.436074e+00	-9.424985e+01
1.820000e-06	-1.324129e-07	-1.275323e-09	-9.491579e-01	-8.763683e+01
1.830000e-06	-6.450464e-08	-1.175618e-09	-4.623802e-01	-8.073668e+01
1.840000e-06	3.344072e-09	-1.072300e-09	2.397087e-02	-7.355306e+01
1.850000e-06	7.117294e-08	-9.627003e-10	5.101797e-01	-6.609291e+01
1.860000e-06	1.390061e-07	-8.475010e-10	9.964193e-01	-5.836651e+01
1.870000e-06	2.067939e-07	-7.289570e-10	1.482334e+00	-5.038745e+01
1.880000e-06	2.745563e-07	-6.055925e-10	1.968066e+00	-4.217260e+01
1.890000e-06	3.423564e-07	-4.749358e-10	2.454069e+00	-3.374196e+01
1.900000e-06	4.101915e-07	-3.392816e-10	2.940322e+00	-2.511851e+01
1.910000e-06	4.780468e-07	-2.020132e-10	3.426720e+00	-1.632793e+01
1.920000e-06	5.459155e-07	-6.346286e-11	3.913214e+00	-7.398309e+00
1.930000e-06	6.137815e-07	7.717573e-11	4.399689e+00	1.640171e+00
1.940000e-06	6.816300e-07	2.186904e-10	4.886039e+00	1.075567e+01
1.950000e-06	7.494299e-07	3.608314e-10	5.372040e+00	1.991509e+01
1.960000e-06	8.171312e-07	5.013640e-10	5.857334e+00	2.908453e+01
1.970000e-06	8.847566e-07	6.422069e-10	6.342085e+00	3.822977e+01
1.980000e-06	9.523438e-07	7.876998e-10	6.826561e+00	4.731672e+01
1.990000e-06	1.019882e-06	9.332217e-10	7.310684e+00	5.631192e+01
2.000000e-06	1.087325e-06	1.074183e-09	7.794132e+00	6.518299e+01
2.010000e-06	1.154647e-06	1.210902e-09	8.276708e+00	7.389909e+01
2.020000e-06	1.221875e-06	1.344430e-09	8.758603e+00	8.243131e+01
2.030000e-06	1.288968e-06	1.469872e-09	9.239540e+00	9.075306e+01
2.040000e-06	1.355956e-06	1.586477e-09	9.719725e+00	9.884041e+01
2.050000e-06	1.422925e-06	1.698860e-09	1.019976e+01	1.066723e+02
2.060000e-06	1.489873e-06	1.807862e-09	1.067966e+01	1.142310e+02
2.070000e-06	1.556728e-06	1.912195e-09	1.115889e+01	1.215018e+02
2.080000e-06	1.623416e-06	2.012221e-09	1.163692e+01	1.284736e+02
2.090000e-06	1.689877e-06	2.108374e-09	1.211332e+01	1.351386e+02
2.100000e-06	1.756085e-06	2.201922e-09	1.258791e+01	1.414927e+02
2.110000e-06	1.822079e-06	2.290091e-09	1.306097e+01	1.475349e+02
2.120000e-06	1.887882e-06	2.371819e-09	1.353266e+01	1.532673e+02
2.130000e-06	1.953489e-06	2.448059e-09	1.400294e+01	1.586953e+02
2.140000e-06	2.018825e-06	2.522200e-09	1.447128e+01	1.638266e+02
2.150000e-06	2.083978e-06	2.594047e-09	1.493831e+01	1.686718e+02
2.160000e-06	2.148990e-06	2.659612e-09	1.540433e+01	1.732435e+02
2.170000e-06	2.213787e-06	2.720420e-09	1.586880e+01	1.775558e+02
2.180000e-06	2.278429e-06	2.780959e-09	1.633216e+01	1.816246e+02
2.190000e-06	2.342923e-06	2.841276e-09	1.679447e+01	1.854667e+02
2.200000e-06	2.407298e-06	2.897512e-09	1.725592e+01	1.890996e+02
2.210000e-06	2.471541e-06	2.949757e-09	1.771642e+01	1.925412e+02
2.220000e-06	2.535549e-06	2.999496e-09	1.817525e+01	1.958093e+02
2.230000e-06	2.599370e-06	3.046600e-09	1.863273e+01	1.989213e+02
2.240000e-06	2.663084e-06	3.089736e-09	1.908944e+01	2.018941e+02
2.250000e-06	2.726625e-06	3.130282e-09	1.954491e+01	2.047436e+02
2.260000e-06	2.789954e-06	3.170625e-09	1.999886e+01	2.074847e+02
2.270000e-06	2.853158e-06	3.211237e-09	2.045192e+01	2.101309e+02
2.280000e-06	2.916209e-06	3.249715e-09	2.090388e+01	2.126942e+02
2.290000e-06	2.979013e-06	3.287110e-09	2.135407e+01	2.151853e+02
2.300000e-06	3.041659e-06	3.323286e-09	2.180313e+01	2.176132e+02
2.310000e-06	3.104227e-06	3.357770e-09	2.225163e+01	2.199852e+02
2.320000e-06	3.166610e-06	3.392303e-09	2.269879e+01	2.223072e+02
2.330000e-06	3.228733e-06	3.424958e-09	2.314411e+01	2.245837e+02
2.340000e-06	3.290630e-06	3.455337e-09	2.358779e+01	2.268176e+02
2.350000e-06	3.352279e-06	3.484981e-09	2.402970e+01	2.290108e+02
2.360000e-06	3.413654e-06	3.513398e-09	2.446965e+01	2.311640e+02
2.370000e-06	3.474789e-06	3.540373e-09	2.490787e+01	2.332770e+02
2.380000e-06	3.535637e-06	3.568689e-09	2.534404e+01	2.353488e+02
2.390000e-06	3.596200e-06	3.599637e-09	2.577817e+01	2.373780e+02
2.400000e-06	3.656586e-06	3.628822e-09	2.621103e+01	2.393627e+02
2.410000e-06	3.716797e-06	3.654136e-09	2.664263e+01	2.413010e+02
2.420000e-06	3.776796e-06	3.679979e-09	2.707272e+01	2.431907e+02
2.430000e-06	3.836593e-06	3.706939e-09	2.750135e+01	2.450301e+02
2.440000e-06	3.896173e-06	3.731612e-09	2.792843e+01	2.468174e+02
2.450000e-06	3.955566e-06	3.753107e-09	2.835417e+01	2.485515e+02
2.460000e-06	4.014668e-06	3.773266e-09	2.877782e+01	2.502316e+02
2.470000e-06	4.073496e-06	3.795174e-09	2.919951e+01	2.518573e+02
2.480000e-06	4.131993e-06	3.819610e-09	2.961882e+01	2.534292e+02
2.490000e-06	4.189930e-06	3.841208e-09	3.003413e+01	2.549479e+02
2.500000e-06	4.247389e-06	3.860020e-09	3.044600e+01	2.564151e+02
2.510000e-06	4.304369e-06	3.881394e-09	3.085444e+01	2.578327e+02
2.520000e-06	4.360917e-06	3.903852e-09	3.125979e+01	2.592033e+02
2.530000e-06	4.417163e-06	3.924122e-09	3.166297e+01	2.605296e+02
2.540000e-06	4.473126e-06	3.943296e-09	3.206412e+01	2.618149e+02
2.550000e-06	4.528819e-06	3.961672e-09	3.246334e+01	2.630626e+02
2.560000e-06	4.584292e-06	3.980589e-09	3.286098e+01	2.642763e+02
2.570000e-06	4.639596e-06	4.001330e-09	3.325741e+01	2.654596e+02
2.580000e-06	4.694669e-06	4.020030e-09	3.365218e+01	2.666161e+02
2.590000e-06	4.749466e-06	4.035791e-09	3.404497e+01	2.677489e+02
2.600000e-06	4.803924e-06	4.053786e-09	3.443534e+01	2.688614e+02
2.610000e-06	4.857965e-06	4.074476e-09	3.482271e+01	2.699562e+02
2.620000e-06	4.911670e-06	4.093957e-09	3.520768e+01	2.710357e+02
2.630000e-06	4.965125e-06	4.111875e-09	3.559085e+01	2.721019e+02
2.640000e-06	5.018195e-06	4.128661e-09	3.597127e+01	2.731564e+02
2.650000e-06	5.070844e-06	4.146295e-09	3.634866e+01	2.742000e+02
2.660000e-06	5.123127e-06	4.163083e-09	3.672344e+01	2.752333e+02
2.670000e-06	5.175007e-06	4.175666e-09	3.709532e+01	2.762565e+02
2.680000e-06	5.226378e-06	4.185059e-09	3.746356e+01	2.772691e+02
2.690000e-06	5.277211e-06	4.197642e-09	3.782794e+01	2.782705e+02
2.700000e-06	5.327506e-06	4.213154e-09	3.818846e+01	2.792596e+02
2.710000e-06	5.377230e-06	4.226895e-09	3.854490e+01	2.802352e+02
2.720000e-06	5.426416e-06	4.239670e-09	3.889747e+01	2.811958e+02
2.730000e-06	5.475109e-06	4.252694e-09	3.924650e+01	2.821398e+02
2.740000e-06	5.523384e-06	4.265224e-09	3.959255e+01	2.830656e+02
2.750000e-06	5.571263e-06	4.275503e-09	3.993575e+01	2.839717e+02
2.760000e-06	5.618824e-06	4.285273e-09	4.027668e+01	2.848567e+02
2.770000e-06	5.666064e-06	4.295934e-09	4.061530e+01	2.857193e+02
2.780000e-06	5.712858e-06	4.308044e-09	4.095073e+01	2.865586e+02
2.790000e-06	5.759216e-06	4.321573e-09	4.128304e+01	2.873738e+02
2.800000e-06	5.805155e-06	4.333294e-09	4.161233e+01	2.881646e+02
2.810000e-06	5.850711e-06	4.342996e-09	4.193888e+01	2.889309e+02
2.820000e-06	5.895850e-06	4.355405e-09	4.226245e+01	2.896729e+02
2.830000e-06	5.940573e-06	4.369781e-09	4.258303e+01	2.903914e+02
2.840000e-06	5.985025e-06	4.381696e-09	4.290167e+01	2.910873e+02
2.850000e-06	6.029185e-06	4.390628e-09	4.321822e+01	2.917617e+02
2.860000e-06	6.073018e-06	4.399899e-09	4.353242e+01	2.924163e+02
2.870000e-06	6.116579e-06	4.411438e-09	4.384467e+01	2.930526e+02
2.880000e-06	6.159737e-06	4.422731e-09	4.415403e+01	2.936724e+02
2.890000e-06	6.202308e-06	4.432507e-09	4.445919e+01	2.942778e+02
2.900000e-06	6.244240e-06	4.445184e-09	4.475976e+01	2.948707e+02
