# Temperatura_=_20.0
# Concentracion g/m^3_=_9000.0
# C_Vs_to_Am_M_A/Vsm_=_65563218390.804596
# pendiente_HvsI_1/m_=_3716.3
# ordenada_HvsI_A/m_=_1297.0
# frecuencia_Hz_=_135478.58516336523

Tiempo_(s)	Campo_(V.s)	Magnetizacion_(V.s)	Campo_(kA/m)	Magnetizacion_(A/m)
0.000000e+00	-7.985008e-06	-4.704340e-09	-5.691788e+01	-3.127752e+02
1.000000e-08	-7.985284e-06	-4.699492e-09	-5.691985e+01	-3.126220e+02
2.000000e-08	-7.985130e-06	-4.695338e-09	-5.691875e+01	-3.124602e+02
3.000000e-08	-7.984357e-06	-4.695729e-09	-5.691324e+01	-3.122936e+02
4.000000e-08	-7.982732e-06	-4.696386e-09	-5.690166e+01	-3.121261e+02
5.000000e-08	-7.980272e-06	-4.690991e-09	-5.688412e+01	-3.119621e+02
6.000000e-08	-7.977181e-06	-4.684819e-09	-5.686209e+01	-3.118056e+02
7.000000e-08	-7.973683e-06	-4.680489e-09	-5.683716e+01	-3.116610e+02
8.000000e-08	-7.969857e-06	-4.666814e-09	-5.680988e+01	-3.115323e+02
9.000000e-08	-7.965535e-06	-4.657307e-09	-5.677908e+01	-3.114234e+02
1.000000e-07	-7.960530e-06	-4.692905e-09	-5.674340e+01	-3.113380e+02
1.100000e-07	-7.954678e-06	-4.768261e-09	-5.670168e+01	-3.112792e+02
1.200000e-07	-7.947918e-06	-4.778993e-09	-5.665350e+01	-3.112499e+02
1.300000e-07	-7.940494e-06	-4.652097e-09	-5.660058e+01	-3.112521e+02
1.400000e-07	-7.932817e-06	-4.536792e-09	-5.654586e+01	-3.112874e+02
1.500000e-07	-7.925016e-06	-4.640026e-09	-5.649025e+01	-3.113568e+02
1.600000e-07	-7.916790e-06	-4.827703e-09	-5.643162e+01	-3.114602e+02
1.700000e-07	-7.907892e-06	-4.782697e-09	-5.636819e+01	-3.115973e+02
1.800000e-07	-7.898204e-06	-4.588056e-09	-5.629914e+01	-3.117664e+02
1.900000e-07	-7.887649e-06	-4.614905e-09	-5.622390e+01	-3.119656e+02
2.000000e-07	-7.876396e-06	-4.765373e-09	-5.614369e+01	-3.121918e+02
2.100000e-07	-7.864701e-06	-4.838208e-09	-5.606032e+01	-3.124415e+02
2.200000e-07	-7.852482e-06	-4.767609e-09	-5.597322e+01	-3.127103e+02
2.300000e-07	-7.839503e-06	-4.594161e-09	-5.588071e+01	-3.129935e+02
2.400000e-07	-7.825932e-06	-4.597580e-09	-5.578397e+01	-3.132855e+02
2.500000e-07	-7.811993e-06	-4.843566e-09	-5.568461e+01	-3.135807e+02
2.600000e-07	-7.797264e-06	-4.948486e-09	-5.557962e+01	-3.138730e+02
2.700000e-07	-7.781349e-06	-4.687730e-09	-5.546618e+01	-3.141561e+02
2.800000e-07	-7.764703e-06	-4.606620e-09	-5.534753e+01	-3.144236e+02
2.900000e-07	-7.747766e-06	-4.879438e-09	-5.522680e+01	-3.146694e+02
3.000000e-07	-7.730351e-06	-4.978875e-09	-5.510266e+01	-3.148875e+02
3.100000e-07	-7.712320e-06	-4.797327e-09	-5.497414e+01	-3.150722e+02
3.200000e-07	-7.693734e-06	-4.802281e-09	-5.484165e+01	-3.152182e+02
3.300000e-07	-7.674594e-06	-4.958700e-09	-5.470522e+01	-3.153210e+02
3.400000e-07	-7.655045e-06	-4.973205e-09	-5.456588e+01	-3.153765e+02
3.500000e-07	-7.635168e-06	-4.938489e-09	-5.442419e+01	-3.153815e+02
3.600000e-07	-7.614843e-06	-4.895182e-09	-5.427931e+01	-3.153338e+02
3.700000e-07	-7.594021e-06	-4.814381e-09	-5.413089e+01	-3.152317e+02
3.800000e-07	-7.572726e-06	-4.872320e-09	-5.397909e+01	-3.150748e+02
3.900000e-07	-7.550939e-06	-4.979552e-09	-5.382380e+01	-3.148634e+02
4.000000e-07	-7.528499e-06	-4.889834e-09	-5.366384e+01	-3.145988e+02
4.100000e-07	-7.505392e-06	-4.745946e-09	-5.349913e+01	-3.142832e+02
4.200000e-07	-7.481895e-06	-4.831335e-09	-5.333165e+01	-3.139197e+02
4.300000e-07	-7.458096e-06	-4.966357e-09	-5.316201e+01	-3.135119e+02
4.400000e-07	-7.433781e-06	-4.883393e-09	-5.298868e+01	-3.130644e+02
4.500000e-07	-7.408673e-06	-4.752548e-09	-5.280971e+01	-3.125822e+02
4.600000e-07	-7.382799e-06	-4.810468e-09	-5.262528e+01	-3.120707e+02
4.700000e-07	-7.356326e-06	-4.926401e-09	-5.243657e+01	-3.115356e+02
4.800000e-07	-7.329251e-06	-4.857272e-09	-5.224358e+01	-3.109831e+02
4.900000e-07	-7.301731e-06	-4.756825e-09	-5.204742e+01	-3.104189e+02
5.000000e-07	-7.273868e-06	-4.785357e-09	-5.184881e+01	-3.098490e+02
5.100000e-07	-7.245511e-06	-4.844906e-09	-5.164667e+01	-3.092790e+02
5.200000e-07	-7.216594e-06	-4.823390e-09	-5.144055e+01	-3.087141e+02
5.300000e-07	-7.187175e-06	-4.788531e-09	-5.123085e+01	-3.081589e+02
5.400000e-07	-7.157265e-06	-4.758211e-09	-5.101765e+01	-3.076176e+02
5.500000e-07	-7.126847e-06	-4.769063e-09	-5.080083e+01	-3.070934e+02
5.600000e-07	-7.095984e-06	-4.811290e-09	-5.058083e+01	-3.065891e+02
5.700000e-07	-7.064688e-06	-4.798666e-09	-5.035775e+01	-3.061064e+02
5.800000e-07	-7.032989e-06	-4.726162e-09	-5.013180e+01	-3.056461e+02
5.900000e-07	-7.000962e-06	-4.724426e-09	-4.990351e+01	-3.052082e+02
6.000000e-07	-6.968485e-06	-4.773017e-09	-4.967201e+01	-3.047919e+02
6.100000e-07	-6.935312e-06	-4.769589e-09	-4.943555e+01	-3.043955e+02
6.200000e-07	-6.901291e-06	-4.713597e-09	-4.919305e+01	-3.040166e+02
6.300000e-07	-6.866472e-06	-4.694755e-09	-4.894485e+01	-3.036521e+02
6.400000e-07	-6.831185e-06	-4.728843e-09	-4.869333e+01	-3.032983e+02
6.500000e-07	-6.795598e-06	-4.745519e-09	-4.843965e+01	-3.029510e+02
6.600000e-07	-6.759686e-06	-4.703134e-09	-4.818367e+01	-3.026057e+02
6.700000e-07	-6.723356e-06	-4.661550e-09	-4.792471e+01	-3.022576e+02
6.800000e-07	-6.686461e-06	-4.681907e-09	-4.766172e+01	-3.019020e+02
6.900000e-07	-6.649085e-06	-4.698029e-09	-4.739530e+01	-3.015340e+02
7.000000e-07	-6.611233e-06	-4.670210e-09	-4.712549e+01	-3.011491e+02
7.100000e-07	-6.572873e-06	-4.640446e-09	-4.685205e+01	-3.007430e+02
7.200000e-07	-6.534049e-06	-4.640440e-09	-4.657531e+01	-3.003119e+02
7.300000e-07	-6.494835e-06	-4.640969e-09	-4.629579e+01	-2.998524e+02
7.400000e-07	-6.455337e-06	-4.636673e-09	-4.601424e+01	-2.993618e+02
7.500000e-07	-6.415521e-06	-4.618061e-09	-4.573043e+01	-2.988381e+02
7.600000e-07	-6.375281e-06	-4.596355e-09	-4.544360e+01	-2.982800e+02
7.700000e-07	-6.334508e-06	-4.596411e-09	-4.515296e+01	-2.976870e+02
7.800000e-07	-6.293034e-06	-4.607495e-09	-4.485733e+01	-2.970591e+02
7.900000e-07	-6.250853e-06	-4.583404e-09	-4.455666e+01	-2.963975e+02
8.000000e-07	-6.208054e-06	-4.553110e-09	-4.425159e+01	-2.957036e+02
8.100000e-07	-6.164731e-06	-4.555606e-09	-4.394278e+01	-2.949797e+02
8.200000e-07	-6.121057e-06	-4.568667e-09	-4.363147e+01	-2.942287e+02
8.300000e-07	-6.077111e-06	-4.548662e-09	-4.331821e+01	-2.934537e+02
8.400000e-07	-6.032778e-06	-4.516779e-09	-4.300221e+01	-2.926583e+02
8.500000e-07	-5.987978e-06	-4.506573e-09	-4.268286e+01	-2.918464e+02
8.600000e-07	-5.942735e-06	-4.515239e-09	-4.236037e+01	-2.910218e+02
8.700000e-07	-5.897109e-06	-4.507372e-09	-4.203514e+01	-2.901886e+02
8.800000e-07	-5.851139e-06	-4.476871e-09	-4.170746e+01	-2.893503e+02
8.900000e-07	-5.804792e-06	-4.454778e-09	-4.137710e+01	-2.885106e+02
9.000000e-07	-5.758041e-06	-4.456990e-09	-4.104385e+01	-2.876725e+02
9.100000e-07	-5.710900e-06	-4.455195e-09	-4.070783e+01	-2.868388e+02
9.200000e-07	-5.663443e-06	-4.430724e-09	-4.036955e+01	-2.860115e+02
9.300000e-07	-5.615665e-06	-4.400946e-09	-4.002899e+01	-2.851921e+02
9.400000e-07	-5.567483e-06	-4.387354e-09	-3.968554e+01	-2.843816e+02
9.500000e-07	-5.518668e-06	-4.386542e-09	-3.933758e+01	-2.835800e+02
9.600000e-07	-5.469095e-06	-4.376182e-09	-3.898422e+01	-2.827870e+02
9.700000e-07	-5.418901e-06	-4.351010e-09	-3.862643e+01	-2.820013e+02
9.800000e-07	-5.368214e-06	-4.327855e-09	-3.826513e+01	-2.812211e+02
9.900000e-07	-5.317010e-06	-4.323117e-09	-3.790015e+01	-2.804443e+02
1.000000e-06	-5.265257e-06	-4.318998e-09	-3.753124e+01	-2.796678e+02
1.010000e-06	-5.213068e-06	-4.297863e-09	-3.715923e+01	-2.788887e+02
1.020000e-06	-5.160498e-06	-4.270478e-09	-3.678451e+01	-2.781033e+02
1.030000e-06	-5.107604e-06	-4.259482e-09	-3.640748e+01	-2.773079e+02
1.040000e-06	-5.054421e-06	-4.256638e-09	-3.602838e+01	-2.764990e+02
1.050000e-06	-5.000901e-06	-4.245433e-09	-3.564689e+01	-2.756726e+02
1.060000e-06	-4.947043e-06	-4.225160e-09	-3.526298e+01	-2.748254e+02
1.070000e-06	-4.892782e-06	-4.210579e-09	-3.487621e+01	-2.739542e+02
1.080000e-06	-4.838123e-06	-4.200933e-09	-3.448659e+01	-2.730559e+02
1.090000e-06	-4.783146e-06	-4.188906e-09	-3.409471e+01	-2.721282e+02
1.100000e-06	-4.727950e-06	-4.169934e-09	-3.370127e+01	-2.711691e+02
1.110000e-06	-4.672568e-06	-4.151338e-09	-3.330650e+01	-2.701775e+02
1.120000e-06	-4.616934e-06	-4.137375e-09	-3.290993e+01	-2.691524e+02
1.130000e-06	-4.561051e-06	-4.124337e-09	-3.251159e+01	-2.680938e+02
1.140000e-06	-4.504852e-06	-4.104434e-09	-3.211100e+01	-2.670021e+02
1.150000e-06	-4.448289e-06	-4.083472e-09	-3.170782e+01	-2.658785e+02
1.160000e-06	-4.391321e-06	-4.068810e-09	-3.130175e+01	-2.647244e+02
1.170000e-06	-4.333931e-06	-4.056774e-09	-3.089267e+01	-2.635418e+02
1.180000e-06	-4.276044e-06	-4.040071e-09	-3.048004e+01	-2.623331e+02
1.190000e-06	-4.217655e-06	-4.019172e-09	-3.006384e+01	-2.611008e+02
1.200000e-06	-4.158934e-06	-4.001706e-09	-2.964527e+01	-2.598478e+02
1.210000e-06	-4.099914e-06	-3.985870e-09	-2.922457e+01	-2.585767e+02
1.220000e-06	-4.040597e-06	-3.968810e-09	-2.880175e+01	-2.572903e+02
1.230000e-06	-3.980985e-06	-3.948511e-09	-2.837683e+01	-2.559911e+02
1.240000e-06	-3.921103e-06	-3.927476e-09	-2.794998e+01	-2.546811e+02
1.250000e-06	-3.861043e-06	-3.909552e-09	-2.752187e+01	-2.533620e+02
1.260000e-06	-3.800730e-06	-3.890735e-09	-2.709196e+01	-2.520352e+02
1.270000e-06	-3.740185e-06	-3.869019e-09	-2.666039e+01	-2.507011e+02
1.280000e-06	-3.679479e-06	-3.845718e-09	-2.622767e+01	-2.493598e+02
1.290000e-06	-3.618502e-06	-3.822862e-09	-2.579302e+01	-2.480106e+02
1.300000e-06	-3.557328e-06	-3.801006e-09	-2.535697e+01	-2.466520e+02
1.310000e-06	-3.495993e-06	-3.775641e-09	-2.491977e+01	-2.452821e+02
1.320000e-06	-3.434441e-06	-3.750883e-09	-2.448102e+01	-2.438979e+02
1.330000e-06	-3.372645e-06	-3.726849e-09	-2.404053e+01	-2.424963e+02
1.340000e-06	-3.310669e-06	-3.703841e-09	-2.359876e+01	-2.410735e+02
1.350000e-06	-3.248380e-06	-3.680030e-09	-2.315475e+01	-2.396251e+02
1.360000e-06	-3.185744e-06	-3.656878e-09	-2.270828e+01	-2.381466e+02
1.370000e-06	-3.122895e-06	-3.631592e-09	-2.226029e+01	-2.366332e+02
1.380000e-06	-3.059791e-06	-3.601064e-09	-2.181048e+01	-2.350802e+02
1.390000e-06	-2.996522e-06	-3.569872e-09	-2.135949e+01	-2.334828e+02
1.400000e-06	-2.933122e-06	-3.540563e-09	-2.090756e+01	-2.318366e+02
1.410000e-06	-2.869562e-06	-3.511681e-09	-2.045451e+01	-2.301372e+02
1.420000e-06	-2.805897e-06	-3.483848e-09	-2.000070e+01	-2.283810e+02
1.430000e-06	-2.742107e-06	-3.458911e-09	-1.954600e+01	-2.265647e+02
1.440000e-06	-2.678199e-06	-3.434690e-09	-1.909045e+01	-2.246858e+02
1.450000e-06	-2.614155e-06	-3.406643e-09	-1.863394e+01	-2.227424e+02
1.460000e-06	-2.549899e-06	-3.376911e-09	-1.817592e+01	-2.207333e+02
1.470000e-06	-2.485477e-06	-3.344564e-09	-1.771671e+01	-2.186581e+02
1.480000e-06	-2.420817e-06	-3.307976e-09	-1.725581e+01	-2.165170e+02
1.490000e-06	-2.355932e-06	-3.271870e-09	-1.679330e+01	-2.143109e+02
1.500000e-06	-2.290823e-06	-3.237852e-09	-1.632920e+01	-2.120413e+02
1.510000e-06	-2.225288e-06	-3.203567e-09	-1.586206e+01	-2.097101e+02
1.520000e-06	-2.159429e-06	-3.171078e-09	-1.539261e+01	-2.073196e+02
1.530000e-06	-2.093488e-06	-3.140332e-09	-1.492258e+01	-2.048721e+02
1.540000e-06	-2.027358e-06	-3.107017e-09	-1.445120e+01	-2.023701e+02
1.550000e-06	-1.961031e-06	-3.071361e-09	-1.397841e+01	-1.998156e+02
1.560000e-06	-1.894588e-06	-3.031117e-09	-1.350480e+01	-1.972105e+02
1.570000e-06	-1.828061e-06	-2.988598e-09	-1.303059e+01	-1.945559e+02
1.580000e-06	-1.761436e-06	-2.945704e-09	-1.255568e+01	-1.918521e+02
1.590000e-06	-1.694626e-06	-2.901435e-09	-1.207945e+01	-1.890986e+02
1.600000e-06	-1.627654e-06	-2.853919e-09	-1.160207e+01	-1.862934e+02
1.610000e-06	-1.560577e-06	-2.807518e-09	-1.112394e+01	-1.834336e+02
1.620000e-06	-1.493341e-06	-2.763433e-09	-1.064467e+01	-1.805146e+02
1.630000e-06	-1.425943e-06	-2.718598e-09	-1.016425e+01	-1.775303e+02
1.640000e-06	-1.358514e-06	-2.672398e-09	-9.683613e+00	-1.744730e+02
1.650000e-06	-1.291044e-06	-2.625898e-09	-9.202679e+00	-1.713337e+02
1.660000e-06	-1.223563e-06	-2.576603e-09	-8.721671e+00	-1.681016e+02
1.670000e-06	-1.156090e-06	-2.521406e-09	-8.240719e+00	-1.647644e+02
1.680000e-06	-1.088562e-06	-2.461709e-09	-7.759373e+00	-1.613088e+02
1.690000e-06	-1.020931e-06	-2.401860e-09	-7.277290e+00	-1.577200e+02
1.700000e-06	-9.531832e-07	-2.341208e-09	-6.794379e+00	-1.539825e+02
1.710000e-06	-8.853852e-07	-2.278389e-09	-6.311108e+00	-1.500799e+02
1.720000e-06	-8.175440e-07	-2.214238e-09	-5.827530e+00	-1.459957e+02
1.730000e-06	-7.496446e-07	-2.149188e-09	-5.343537e+00	-1.417131e+02
1.740000e-06	-6.817428e-07	-2.081157e-09	-4.859526e+00	-1.372155e+02
1.750000e-06	-6.137829e-07	-2.010176e-09	-4.375102e+00	-1.324873e+02
1.760000e-06	-5.457954e-07	-1.934661e-09	-3.890481e+00	-1.275134e+02
1.770000e-06	-4.777999e-07	-1.854912e-09	-3.405802e+00	-1.222806e+02
1.780000e-06	-4.097268e-07	-1.772963e-09	-2.920571e+00	-1.167769e+02
1.790000e-06	-3.416697e-07	-1.687550e-09	-2.435454e+00	-1.109929e+02
1.800000e-06	-2.736235e-07	-1.596363e-09	-1.950414e+00	-1.049210e+02
1.810000e-06	-2.055265e-07	-1.501815e-09	-1.465012e+00	-9.855682e+01
1.820000e-06	-1.373793e-07	-1.406896e-09	-9.792526e-01	-9.189854e+01
1.830000e-06	-6.923505e-08	-1.309483e-09	-4.935139e-01	-8.494761e+01
1.840000e-06	-1.106295e-09	-1.205967e-09	-7.885775e-03	-7.770870e+01
1.850000e-06	6.703813e-08	-1.095686e-09	4.778540e-01	-7.018983e+01
1.860000e-06	1.351590e-07	-9.801154e-10	9.634263e-01	-6.240241e+01
1.870000e-06	2.032370e-07	-8.605430e-10	1.448692e+00	-5.436118e+01
1.880000e-06	2.712638e-07	-7.357178e-10	1.933594e+00	-4.608415e+01
1.890000e-06	3.392466e-07	-6.030493e-10	2.418181e+00	-3.759242e+01
1.900000e-06	4.072804e-07	-4.678185e-10	2.903133e+00	-2.890996e+01
1.910000e-06	4.753693e-07	-3.305841e-10	3.388476e+00	-2.006337e+01
1.920000e-06	5.433891e-07	-1.900985e-10	3.873328e+00	-1.108152e+01
1.930000e-06	6.113853e-07	-4.610837e-11	4.358011e+00	-1.995206e+00
1.940000e-06	6.793747e-07	9.825379e-11	4.842646e+00	7.163266e+00
1.950000e-06	7.473502e-07	2.410215e-10	5.327182e+00	1.636050e+01
1.960000e-06	8.152939e-07	3.838706e-10	5.811491e+00	2.556249e+01
1.970000e-06	8.831477e-07	5.299145e-10	6.295159e+00	3.473504e+01
1.980000e-06	9.508975e-07	6.769450e-10	6.778086e+00	4.384431e+01
1.990000e-06	1.018584e-06	8.201377e-10	7.260563e+00	5.285719e+01
2.000000e-06	1.086238e-06	9.587619e-10	7.742808e+00	6.174182e+01
2.010000e-06	1.153811e-06	1.096329e-09	8.224469e+00	7.046798e+01
2.020000e-06	1.221337e-06	1.231287e-09	8.705806e+00	7.900748e+01
2.030000e-06	1.288773e-06	1.358775e-09	9.186497e+00	8.733452e+01
2.040000e-06	1.356059e-06	1.477693e-09	9.666118e+00	9.542599e+01
2.050000e-06	1.423278e-06	1.593061e-09	1.014526e+01	1.032617e+02
2.060000e-06	1.490478e-06	1.705382e-09	1.062427e+01	1.108247e+02
2.070000e-06	1.557630e-06	1.811199e-09	1.110293e+01	1.181010e+02
2.080000e-06	1.624707e-06	1.910727e-09	1.158106e+01	1.250805e+02
2.090000e-06	1.691587e-06	2.007636e-09	1.205779e+01	1.317559e+02
2.100000e-06	1.758275e-06	2.102899e-09	1.253315e+01	1.381235e+02
2.110000e-06	1.824893e-06	2.190713e-09	1.300801e+01	1.441828e+02
2.120000e-06	1.891334e-06	2.271837e-09	1.348161e+01	1.499364e+02
2.130000e-06	1.957578e-06	2.351030e-09	1.395380e+01	1.553896e+02
2.140000e-06	2.023687e-06	2.428331e-09	1.442503e+01	1.605504e+02
2.150000e-06	2.089548e-06	2.501652e-09	1.489450e+01	1.654291e+02
2.160000e-06	2.155147e-06	2.566856e-09	1.536209e+01	1.700381e+02
2.170000e-06	2.220560e-06	2.627199e-09	1.582836e+01	1.743913e+02
2.180000e-06	2.285789e-06	2.688157e-09	1.629332e+01	1.785042e+02
2.190000e-06	2.350857e-06	2.749516e-09	1.675713e+01	1.823929e+02
2.200000e-06	2.415721e-06	2.807009e-09	1.721949e+01	1.860744e+02
2.210000e-06	2.480336e-06	2.859328e-09	1.768006e+01	1.895659e+02
2.220000e-06	2.544667e-06	2.912495e-09	1.813862e+01	1.928846e+02
2.230000e-06	2.608775e-06	2.966179e-09	1.859559e+01	1.960473e+02
2.240000e-06	2.672743e-06	3.012068e-09	1.905156e+01	1.990700e+02
2.250000e-06	2.736538e-06	3.054080e-09	1.950630e+01	2.019682e+02
2.260000e-06	2.800160e-06	3.097211e-09	1.995980e+01	2.047561e+02
2.270000e-06	2.863600e-06	3.138343e-09	2.041201e+01	2.074466e+02
2.280000e-06	2.926907e-06	3.176429e-09	2.086327e+01	2.100514e+02
2.290000e-06	2.990096e-06	3.209871e-09	2.131368e+01	2.125805e+02
2.300000e-06	3.053095e-06	3.242967e-09	2.176274e+01	2.150427e+02
2.310000e-06	3.115886e-06	3.276719e-09	2.221033e+01	2.174452e+02
2.320000e-06	3.178443e-06	3.312040e-09	2.265624e+01	2.197937e+02
2.330000e-06	3.240858e-06	3.346868e-09	2.310114e+01	2.220925e+02
2.340000e-06	3.303152e-06	3.380449e-09	2.354518e+01	2.243446e+02
2.350000e-06	3.365222e-06	3.413748e-09	2.398761e+01	2.265518e+02
2.360000e-06	3.427005e-06	3.444299e-09	2.442801e+01	2.287151e+02
2.370000e-06	3.488481e-06	3.470526e-09	2.486622e+01	2.308344e+02
2.380000e-06	3.549729e-06	3.494121e-09	2.530280e+01	2.329090e+02
2.390000e-06	3.610734e-06	3.518482e-09	2.573765e+01	2.349376e+02
2.400000e-06	3.671473e-06	3.545187e-09	2.617060e+01	2.369186e+02
2.410000e-06	3.731985e-06	3.569578e-09	2.660194e+01	2.388503e+02
2.420000e-06	3.792246e-06	3.592724e-09	2.703148e+01	2.407309e+02
2.430000e-06	3.852254e-06	3.619270e-09	2.745922e+01	2.425588e+02
2.440000e-06	3.912089e-06	3.648572e-09	2.788573e+01	2.443325e+02
2.450000e-06	3.971766e-06	3.675258e-09	2.831112e+01	2.460510e+02
2.460000e-06	4.031261e-06	3.696308e-09	2.873521e+01	2.477138e+02
2.470000e-06	4.090533e-06	3.716186e-09	2.915770e+01	2.493207e+02
2.480000e-06	4.149582e-06	3.737278e-09	2.957861e+01	2.508723e+02
2.490000e-06	4.208278e-06	3.755415e-09	2.999700e+01	2.523696e+02
2.500000e-06	4.266402e-06	3.769444e-09	3.041131e+01	2.538142e+02
2.510000e-06	4.324087e-06	3.786693e-09	3.082249e+01	2.552082e+02
2.520000e-06	4.381372e-06	3.808411e-09	3.123083e+01	2.565543e+02
2.530000e-06	4.438093e-06	3.830212e-09	3.163514e+01	2.578554e+02
2.540000e-06	4.494383e-06	3.849628e-09	3.203638e+01	2.591151e+02
2.550000e-06	4.550355e-06	3.868899e-09	3.243535e+01	2.603368e+02
2.560000e-06	4.606065e-06	3.888602e-09	3.283246e+01	2.615244e+02
2.570000e-06	4.661590e-06	3.907665e-09	3.322825e+01	2.626817e+02
2.580000e-06	4.716914e-06	3.923745e-09	3.362260e+01	2.638125e+02
2.590000e-06	4.771972e-06	3.938358e-09	3.401506e+01	2.649205e+02
2.600000e-06	4.826703e-06	3.954926e-09	3.440519e+01	2.660092e+02
2.610000e-06	4.881089e-06	3.972692e-09	3.479286e+01	2.670817e+02
2.620000e-06	4.935131e-06	3.990925e-09	3.517807e+01	2.681407e+02
2.630000e-06	4.988816e-06	4.008799e-09	3.556074e+01	2.691887e+02
2.640000e-06	5.042198e-06	4.026045e-09	3.594126e+01	2.702275e+02
2.650000e-06	5.095258e-06	4.044885e-09	3.631948e+01	2.712584e+02
2.660000e-06	5.147853e-06	4.064952e-09	3.669438e+01	2.722823e+02
2.670000e-06	5.199960e-06	4.082055e-09	3.706580e+01	2.732997e+02
2.680000e-06	5.251689e-06	4.095063e-09	3.743453e+01	2.743103e+02
2.690000e-06	5.302992e-06	4.109679e-09	3.780022e+01	2.753136e+02
2.700000e-06	5.353709e-06	4.125023e-09	3.816174e+01	2.763087e+02
2.710000e-06	5.403858e-06	4.137024e-09	3.851920e+01	2.772943e+02
2.720000e-06	5.453514e-06	4.149558e-09	3.887316e+01	2.782686e+02
2.730000e-06	5.502580e-06	4.162032e-09	3.922291e+01	2.792300e+02
2.740000e-06	5.551089e-06	4.173751e-09	3.956868e+01	2.801765e+02
2.750000e-06	5.599221e-06	4.186011e-09	3.991177e+01	2.811062e+02
2.760000e-06	5.646994e-06	4.198698e-09	4.025230e+01	2.820169e+02
2.770000e-06	5.694483e-06	4.212309e-09	4.059080e+01	2.829069e+02
2.780000e-06	5.741672e-06	4.227002e-09	4.092717e+01	2.837745e+02
2.790000e-06	5.788479e-06	4.240464e-09	4.126082e+01	2.846182e+02
2.800000e-06	5.834818e-06	4.252357e-09	4.159113e+01	2.854367e+02
2.810000e-06	5.880617e-06	4.263026e-09	4.191759e+01	2.862291e+02
2.820000e-06	5.925954e-06	4.275129e-09	4.224075e+01	2.869950e+02
2.830000e-06	5.970903e-06	4.289688e-09	4.256115e+01	2.877341e+02
2.840000e-06	6.015523e-06	4.302644e-09	4.287921e+01	2.884467e+02
2.850000e-06	6.059827e-06	4.314325e-09	4.319501e+01	2.891333e+02
2.860000e-06	6.103761e-06	4.326556e-09	4.350818e+01	2.897949e+02
2.870000e-06	6.147390e-06	4.339849e-09	4.381917e+01	2.904327e+02
2.880000e-06	6.190767e-06	4.352387e-09	4.412837e+01	2.910483e+02
2.890000e-06	6.233753e-06	4.364853e-09	4.443477e+01	2.916435e+02
2.900000e-06	6.276210e-06	4.379045e-09	4.473741e+01	2.922204e+02
