# Temperatura_=_20.0
# Concentracion g/m^3_=_9000.0
# C_Vs_to_Am_M_A/Vsm_=_65563218390.804596
# pendiente_HvsI_1/m_=_3716.3
# ordenada_HvsI_A/m_=_1297.0
# frecuencia_Hz_=_135478.8191357995

Tiempo_(s)	Campo_(V.s)	Magnetizacion_(V.s)	Campo_(kA/m)	Magnetizacion_(A/m)
0.000000e+00	-7.959913e-06	-4.860999e-09	-5.691387e+01	-3.197303e+02
1.000000e-08	-7.960038e-06	-4.855583e-09	-5.691477e+01	-3.196890e+02
2.000000e-08	-7.959846e-06	-4.853304e-09	-5.691340e+01	-3.196398e+02
3.000000e-08	-7.959041e-06	-4.855710e-09	-5.690764e+01	-3.195825e+02
4.000000e-08	-7.957371e-06	-4.857297e-09	-5.689570e+01	-3.195167e+02
5.000000e-08	-7.954967e-06	-4.854326e-09	-5.687851e+01	-3.194424e+02
6.000000e-08	-7.951892e-06	-4.854214e-09	-5.685652e+01	-3.193593e+02
7.000000e-08	-7.948284e-06	-4.853646e-09	-5.683072e+01	-3.192673e+02
8.000000e-08	-7.944332e-06	-4.843526e-09	-5.680247e+01	-3.191664e+02
9.000000e-08	-7.939909e-06	-4.827632e-09	-5.677085e+01	-3.190564e+02
1.000000e-07	-7.934732e-06	-4.849729e-09	-5.673383e+01	-3.189375e+02
1.100000e-07	-7.928635e-06	-4.920344e-09	-5.669024e+01	-3.188098e+02
1.200000e-07	-7.921645e-06	-4.940497e-09	-5.664026e+01	-3.186734e+02
1.300000e-07	-7.914102e-06	-4.840419e-09	-5.658633e+01	-3.185286e+02
1.400000e-07	-7.906370e-06	-4.682789e-09	-5.653104e+01	-3.183756e+02
1.500000e-07	-7.898372e-06	-4.766222e-09	-5.647385e+01	-3.182148e+02
1.600000e-07	-7.889947e-06	-5.005095e-09	-5.641362e+01	-3.180464e+02
1.700000e-07	-7.880977e-06	-4.967085e-09	-5.634948e+01	-3.178707e+02
1.800000e-07	-7.871268e-06	-4.729306e-09	-5.628006e+01	-3.176881e+02
1.900000e-07	-7.860664e-06	-4.744007e-09	-5.620424e+01	-3.174988e+02
2.000000e-07	-7.849264e-06	-4.904117e-09	-5.612273e+01	-3.173030e+02
2.100000e-07	-7.837374e-06	-4.991575e-09	-5.603771e+01	-3.171008e+02
2.200000e-07	-7.824972e-06	-4.930818e-09	-5.594904e+01	-3.168923e+02
2.300000e-07	-7.811847e-06	-4.767179e-09	-5.585519e+01	-3.166773e+02
2.400000e-07	-7.798053e-06	-4.708534e-09	-5.575657e+01	-3.164557e+02
2.500000e-07	-7.783776e-06	-4.921863e-09	-5.565449e+01	-3.162271e+02
2.600000e-07	-7.768704e-06	-5.033003e-09	-5.554672e+01	-3.159912e+02
2.700000e-07	-7.752565e-06	-4.768020e-09	-5.543132e+01	-3.157474e+02
2.800000e-07	-7.735838e-06	-4.628908e-09	-5.531173e+01	-3.154951e+02
2.900000e-07	-7.718751e-06	-4.874379e-09	-5.518955e+01	-3.152335e+02
3.000000e-07	-7.701122e-06	-4.974123e-09	-5.506350e+01	-3.149620e+02
3.100000e-07	-7.682955e-06	-4.738136e-09	-5.493361e+01	-3.146797e+02
3.200000e-07	-7.664337e-06	-4.676438e-09	-5.480049e+01	-3.143857e+02
3.300000e-07	-7.645204e-06	-4.856589e-09	-5.466369e+01	-3.140794e+02
3.400000e-07	-7.625593e-06	-4.896531e-09	-5.452347e+01	-3.137599e+02
3.500000e-07	-7.605672e-06	-4.817635e-09	-5.438103e+01	-3.134266e+02
3.600000e-07	-7.585303e-06	-4.810551e-09	-5.423539e+01	-3.130791e+02
3.700000e-07	-7.564312e-06	-4.720818e-09	-5.408531e+01	-3.127170e+02
3.800000e-07	-7.542895e-06	-4.750282e-09	-5.393217e+01	-3.123400e+02
3.900000e-07	-7.521022e-06	-4.888831e-09	-5.377577e+01	-3.119482e+02
4.000000e-07	-7.498511e-06	-4.836413e-09	-5.361482e+01	-3.115418e+02
4.100000e-07	-7.475423e-06	-4.645097e-09	-5.344974e+01	-3.111214e+02
4.200000e-07	-7.451868e-06	-4.701911e-09	-5.328132e+01	-3.106876e+02
4.300000e-07	-7.427882e-06	-4.879486e-09	-5.310982e+01	-3.102413e+02
4.400000e-07	-7.403275e-06	-4.834886e-09	-5.293388e+01	-3.097838e+02
4.500000e-07	-7.377984e-06	-4.638837e-09	-5.275305e+01	-3.093163e+02
4.600000e-07	-7.352171e-06	-4.663680e-09	-5.256848e+01	-3.088406e+02
4.700000e-07	-7.325825e-06	-4.837795e-09	-5.238011e+01	-3.083581e+02
4.800000e-07	-7.298759e-06	-4.791648e-09	-5.218658e+01	-3.078708e+02
4.900000e-07	-7.271097e-06	-4.629184e-09	-5.198880e+01	-3.073805e+02
5.000000e-07	-7.243061e-06	-4.668238e-09	-5.178834e+01	-3.068890e+02
5.100000e-07	-7.214662e-06	-4.760657e-09	-5.158528e+01	-3.063981e+02
5.200000e-07	-7.185811e-06	-4.721235e-09	-5.137900e+01	-3.059097e+02
5.300000e-07	-7.156378e-06	-4.684335e-09	-5.116855e+01	-3.054252e+02
5.400000e-07	-7.126380e-06	-4.663424e-09	-5.095406e+01	-3.049461e+02
5.500000e-07	-7.095912e-06	-4.647786e-09	-5.073621e+01	-3.044734e+02
5.600000e-07	-7.065011e-06	-4.695274e-09	-5.051527e+01	-3.040081e+02
5.700000e-07	-7.033655e-06	-4.715184e-09	-5.029107e+01	-3.035507e+02
5.800000e-07	-7.001851e-06	-4.619963e-09	-5.006368e+01	-3.031013e+02
5.900000e-07	-6.969627e-06	-4.591893e-09	-4.983327e+01	-3.026598e+02
6.000000e-07	-6.936883e-06	-4.663703e-09	-4.959915e+01	-3.022257e+02
6.100000e-07	-6.903509e-06	-4.679823e-09	-4.936052e+01	-3.017981e+02
6.200000e-07	-6.869464e-06	-4.605385e-09	-4.911710e+01	-3.013757e+02
6.300000e-07	-6.834734e-06	-4.570905e-09	-4.886877e+01	-3.009569e+02
6.400000e-07	-6.799426e-06	-4.609093e-09	-4.861632e+01	-3.005398e+02
6.500000e-07	-6.763720e-06	-4.644475e-09	-4.836102e+01	-3.001224e+02
6.600000e-07	-6.727623e-06	-4.599136e-09	-4.810292e+01	-2.997023e+02
6.700000e-07	-6.691128e-06	-4.548312e-09	-4.784198e+01	-2.992771e+02
6.800000e-07	-6.654243e-06	-4.571883e-09	-4.757825e+01	-2.988443e+02
6.900000e-07	-6.616856e-06	-4.602926e-09	-4.731094e+01	-2.984012e+02
7.000000e-07	-6.578984e-06	-4.566758e-09	-4.704015e+01	-2.979454e+02
7.100000e-07	-6.540679e-06	-4.533155e-09	-4.676626e+01	-2.974746e+02
7.200000e-07	-6.501911e-06	-4.532747e-09	-4.648907e+01	-2.969867e+02
7.300000e-07	-6.462770e-06	-4.534631e-09	-4.620921e+01	-2.964795e+02
7.400000e-07	-6.423323e-06	-4.531581e-09	-4.592716e+01	-2.959517e+02
7.500000e-07	-6.383509e-06	-4.516706e-09	-4.564249e+01	-2.954018e+02
7.600000e-07	-6.343263e-06	-4.488468e-09	-4.535473e+01	-2.948290e+02
7.700000e-07	-6.302509e-06	-4.488389e-09	-4.506333e+01	-2.942328e+02
7.800000e-07	-6.261172e-06	-4.508777e-09	-4.476777e+01	-2.936131e+02
7.900000e-07	-6.219259e-06	-4.486762e-09	-4.446809e+01	-2.929702e+02
8.000000e-07	-6.176719e-06	-4.445927e-09	-4.416393e+01	-2.923048e+02
8.100000e-07	-6.133616e-06	-4.446925e-09	-4.385574e+01	-2.916180e+02
8.200000e-07	-6.089994e-06	-4.467239e-09	-4.354383e+01	-2.909112e+02
8.300000e-07	-6.045934e-06	-4.448825e-09	-4.322881e+01	-2.901860e+02
8.400000e-07	-6.001643e-06	-4.413086e-09	-4.291213e+01	-2.894444e+02
8.500000e-07	-5.957004e-06	-4.405977e-09	-4.259295e+01	-2.886885e+02
8.600000e-07	-5.911868e-06	-4.421326e-09	-4.227022e+01	-2.879203e+02
8.700000e-07	-5.866237e-06	-4.412071e-09	-4.194396e+01	-2.871421e+02
8.800000e-07	-5.820215e-06	-4.378405e-09	-4.161490e+01	-2.863559e+02
8.900000e-07	-5.773827e-06	-4.357310e-09	-4.128323e+01	-2.855637e+02
9.000000e-07	-5.727108e-06	-4.364193e-09	-4.094918e+01	-2.847673e+02
9.100000e-07	-5.680138e-06	-4.361787e-09	-4.061334e+01	-2.839681e+02
9.200000e-07	-5.632696e-06	-4.336801e-09	-4.027413e+01	-2.831674e+02
9.300000e-07	-5.584663e-06	-4.308650e-09	-3.993069e+01	-2.823658e+02
9.400000e-07	-5.536242e-06	-4.300823e-09	-3.958448e+01	-2.815639e+02
9.500000e-07	-5.487395e-06	-4.300451e-09	-3.923522e+01	-2.807617e+02
9.600000e-07	-5.437940e-06	-4.288512e-09	-3.888161e+01	-2.799586e+02
9.700000e-07	-5.387854e-06	-4.260586e-09	-3.852349e+01	-2.791539e+02
9.800000e-07	-5.337161e-06	-4.238266e-09	-3.816103e+01	-2.783464e+02
9.900000e-07	-5.285952e-06	-4.234970e-09	-3.779489e+01	-2.775343e+02
1.000000e-06	-5.234353e-06	-4.230990e-09	-3.742595e+01	-2.767158e+02
1.010000e-06	-5.182283e-06	-4.206609e-09	-3.705365e+01	-2.758886e+02
1.020000e-06	-5.129796e-06	-4.181436e-09	-3.667836e+01	-2.750505e+02
1.030000e-06	-5.077015e-06	-4.174313e-09	-3.630098e+01	-2.741989e+02
1.040000e-06	-5.023957e-06	-4.171206e-09	-3.592161e+01	-2.733313e+02
1.050000e-06	-4.970581e-06	-4.156290e-09	-3.553996e+01	-2.724451e+02
1.060000e-06	-4.916807e-06	-4.134451e-09	-3.515548e+01	-2.715380e+02
1.070000e-06	-4.862679e-06	-4.119149e-09	-3.476846e+01	-2.706077e+02
1.080000e-06	-4.808220e-06	-4.108454e-09	-3.437908e+01	-2.696523e+02
1.090000e-06	-4.753432e-06	-4.093737e-09	-3.398734e+01	-2.686702e+02
1.100000e-06	-4.698373e-06	-4.071850e-09	-3.359366e+01	-2.676600e+02
1.110000e-06	-4.642973e-06	-4.051403e-09	-3.319755e+01	-2.666210e+02
1.120000e-06	-4.587212e-06	-4.035389e-09	-3.279886e+01	-2.655526e+02
1.130000e-06	-4.531186e-06	-4.020526e-09	-3.239826e+01	-2.644550e+02
1.140000e-06	-4.474861e-06	-4.000339e-09	-3.199553e+01	-2.633285e+02
1.150000e-06	-4.418216e-06	-3.978289e-09	-3.159052e+01	-2.621739e+02
1.160000e-06	-4.361221e-06	-3.959184e-09	-3.118300e+01	-2.609925e+02
1.170000e-06	-4.303918e-06	-3.946286e-09	-3.077328e+01	-2.597858e+02
1.180000e-06	-4.246340e-06	-3.930492e-09	-3.036159e+01	-2.585555e+02
1.190000e-06	-4.188420e-06	-3.907923e-09	-2.994746e+01	-2.573037e+02
1.200000e-06	-4.130083e-06	-3.883216e-09	-2.953035e+01	-2.560323e+02
1.210000e-06	-4.071406e-06	-3.864236e-09	-2.911081e+01	-2.547435e+02
1.220000e-06	-4.012428e-06	-3.847704e-09	-2.868911e+01	-2.534392e+02
1.230000e-06	-3.953052e-06	-3.826955e-09	-2.826457e+01	-2.521212e+02
1.240000e-06	-3.893321e-06	-3.804164e-09	-2.783749e+01	-2.507910e+02
1.250000e-06	-3.833292e-06	-3.784566e-09	-2.740828e+01	-2.494498e+02
1.260000e-06	-3.773055e-06	-3.767791e-09	-2.697758e+01	-2.480984e+02
1.270000e-06	-3.712616e-06	-3.749557e-09	-2.654543e+01	-2.467371e+02
1.280000e-06	-3.651947e-06	-3.725581e-09	-2.611165e+01	-2.453656e+02
1.290000e-06	-3.591072e-06	-3.698870e-09	-2.567639e+01	-2.439832e+02
1.300000e-06	-3.529970e-06	-3.673470e-09	-2.523951e+01	-2.425884e+02
1.310000e-06	-3.468652e-06	-3.650574e-09	-2.480108e+01	-2.411795e+02
1.320000e-06	-3.407108e-06	-3.625517e-09	-2.436103e+01	-2.397538e+02
1.330000e-06	-3.345330e-06	-3.598729e-09	-2.391932e+01	-2.383086e+02
1.340000e-06	-3.283307e-06	-3.575963e-09	-2.347585e+01	-2.368405e+02
1.350000e-06	-3.221078e-06	-3.555970e-09	-2.303091e+01	-2.353456e+02
1.360000e-06	-3.158640e-06	-3.533048e-09	-2.258447e+01	-2.338202e+02
1.370000e-06	-3.096006e-06	-3.503029e-09	-2.213664e+01	-2.322600e+02
1.380000e-06	-3.033230e-06	-3.471531e-09	-2.168778e+01	-2.306609e+02
1.390000e-06	-2.970240e-06	-3.442991e-09	-2.123740e+01	-2.290186e+02
1.400000e-06	-2.907038e-06	-3.414659e-09	-2.078550e+01	-2.273294e+02
1.410000e-06	-2.843654e-06	-3.382516e-09	-2.033231e+01	-2.255894e+02
1.420000e-06	-2.780135e-06	-3.352553e-09	-1.987814e+01	-2.237954e+02
1.430000e-06	-2.716475e-06	-3.328605e-09	-1.942297e+01	-2.219444e+02
1.440000e-06	-2.652548e-06	-3.304791e-09	-1.896588e+01	-2.200341e+02
1.450000e-06	-2.588439e-06	-3.275090e-09	-1.850750e+01	-2.180628e+02
1.460000e-06	-2.524129e-06	-3.243320e-09	-1.804768e+01	-2.160293e+02
1.470000e-06	-2.459536e-06	-3.211720e-09	-1.758584e+01	-2.139329e+02
1.480000e-06	-2.394858e-06	-3.178217e-09	-1.712338e+01	-2.117737e+02
1.490000e-06	-2.330059e-06	-3.142336e-09	-1.666006e+01	-2.095523e+02
1.500000e-06	-2.265009e-06	-3.106078e-09	-1.619496e+01	-2.072696e+02
1.510000e-06	-2.199814e-06	-3.070959e-09	-1.572881e+01	-2.049270e+02
1.520000e-06	-2.134449e-06	-3.039584e-09	-1.526144e+01	-2.025262e+02
1.530000e-06	-2.068818e-06	-3.006543e-09	-1.479218e+01	-2.000689e+02
1.540000e-06	-2.003055e-06	-2.972564e-09	-1.432197e+01	-1.975567e+02
1.550000e-06	-1.937235e-06	-2.939735e-09	-1.385135e+01	-1.949911e+02
1.560000e-06	-1.871298e-06	-2.905449e-09	-1.337990e+01	-1.923731e+02
1.570000e-06	-1.805171e-06	-2.866308e-09	-1.290709e+01	-1.897032e+02
1.580000e-06	-1.738914e-06	-2.821844e-09	-1.243334e+01	-1.869812e+02
1.590000e-06	-1.672566e-06	-2.775650e-09	-1.195895e+01	-1.842056e+02
1.600000e-06	-1.605958e-06	-2.729201e-09	-1.148270e+01	-1.813742e+02
1.610000e-06	-1.539194e-06	-2.682095e-09	-1.100533e+01	-1.784835e+02
1.620000e-06	-1.472388e-06	-2.633935e-09	-1.052766e+01	-1.755286e+02
1.630000e-06	-1.405408e-06	-2.585722e-09	-1.004876e+01	-1.725031e+02
1.640000e-06	-1.338283e-06	-2.539767e-09	-9.568804e+00	-1.693993e+02
1.650000e-06	-1.271008e-06	-2.493913e-09	-9.087784e+00	-1.662079e+02
1.660000e-06	-1.203523e-06	-2.443036e-09	-8.605262e+00	-1.629184e+02
1.670000e-06	-1.135942e-06	-2.386884e-09	-8.122057e+00	-1.595185e+02
1.680000e-06	-1.068330e-06	-2.327912e-09	-7.638626e+00	-1.559952e+02
1.690000e-06	-1.000735e-06	-2.267742e-09	-7.155316e+00	-1.523341e+02
1.700000e-06	-9.331614e-07	-2.203436e-09	-6.672162e+00	-1.485200e+02
1.710000e-06	-8.655611e-07	-2.137026e-09	-6.188816e+00	-1.445370e+02
1.720000e-06	-7.979236e-07	-2.070990e-09	-5.705203e+00	-1.403691e+02
1.730000e-06	-7.301889e-07	-2.004811e-09	-5.220896e+00	-1.360001e+02
1.740000e-06	-6.623728e-07	-1.935507e-09	-4.736007e+00	-1.314140e+02
1.750000e-06	-5.945019e-07	-1.862072e-09	-4.250725e+00	-1.265955e+02
1.760000e-06	-5.265965e-07	-1.785560e-09	-3.765198e+00	-1.215305e+02
1.770000e-06	-4.586081e-07	-1.706801e-09	-3.279077e+00	-1.162060e+02
1.780000e-06	-3.905761e-07	-1.622990e-09	-2.792643e+00	-1.106109e+02
1.790000e-06	-3.225801e-07	-1.533608e-09	-2.306468e+00	-1.047358e+02
1.800000e-06	-2.545033e-07	-1.441255e-09	-1.819714e+00	-9.857412e+01
1.810000e-06	-1.863864e-07	-1.346923e-09	-1.332674e+00	-9.212156e+01
1.820000e-06	-1.182809e-07	-1.247406e-09	-8.457160e-01	-8.537687e+01
1.830000e-06	-5.018820e-08	-1.142576e-09	-3.588488e-01	-7.834182e+01
1.840000e-06	1.788268e-08	-1.035622e-09	1.278623e-01	-7.102142e+01
1.850000e-06	8.596216e-08	-9.247289e-10	6.146348e-01	-6.342399e+01
1.860000e-06	1.539694e-07	-8.072875e-10	1.100891e+00	-5.556121e+01
1.870000e-06	2.219222e-07	-6.839904e-10	1.586758e+00	-4.744809e+01
1.880000e-06	2.899049e-07	-5.581448e-10	2.072838e+00	-3.910284e+01
1.890000e-06	3.579641e-07	-4.277664e-10	2.559466e+00	-3.054680e+01
1.900000e-06	4.260545e-07	-2.914740e-10	3.046316e+00	-2.180415e+01
1.910000e-06	4.940746e-07	-1.523408e-10	3.532664e+00	-1.290167e+01
1.920000e-06	5.620372e-07	-1.294319e-11	4.018601e+00	-3.868454e+00
1.930000e-06	6.299701e-07	1.281239e-10	4.504325e+00	5.264506e+00
1.940000e-06	6.978655e-07	2.718780e-10	4.989782e+00	1.446470e+01
1.950000e-06	7.657260e-07	4.164889e-10	5.474988e+00	2.369852e+01
1.960000e-06	8.334889e-07	5.599784e-10	5.959497e+00	3.293175e+01
1.970000e-06	9.011101e-07	7.042692e-10	6.442993e+00	4.213001e+01
1.980000e-06	9.686033e-07	8.495665e-10	6.925574e+00	5.125926e+01
1.990000e-06	1.036030e-06	9.943540e-10	7.407677e+00	6.028621e+01
2.000000e-06	1.103456e-06	1.137030e-09	7.889780e+00	6.917887e+01
2.010000e-06	1.170885e-06	1.274366e-09	8.371901e+00	7.790688e+01
2.020000e-06	1.238312e-06	1.404908e-09	8.854011e+00	8.644197e+01
2.030000e-06	1.305648e-06	1.529741e-09	9.335468e+00	9.475830e+01
2.040000e-06	1.372846e-06	1.651803e-09	9.815937e+00	1.028328e+02
2.050000e-06	1.439835e-06	1.767218e-09	1.029491e+01	1.106453e+02
2.060000e-06	1.506634e-06	1.874333e-09	1.077253e+01	1.181790e+02
2.070000e-06	1.573396e-06	1.978527e-09	1.124988e+01	1.254203e+02
2.080000e-06	1.640060e-06	2.080333e-09	1.172653e+01	1.323591e+02
2.090000e-06	1.706601e-06	2.176925e-09	1.220230e+01	1.389887e+02
2.100000e-06	1.772959e-06	2.267235e-09	1.267677e+01	1.453057e+02
2.110000e-06	1.839080e-06	2.352259e-09	1.314954e+01	1.513102e+02
2.120000e-06	1.905016e-06	2.433387e-09	1.362098e+01	1.570053e+02
2.130000e-06	1.970832e-06	2.512461e-09	1.409157e+01	1.623969e+02
2.140000e-06	2.036565e-06	2.586751e-09	1.456157e+01	1.674937e+02
2.150000e-06	2.102161e-06	2.653834e-09	1.503058e+01	1.723068e+02
2.160000e-06	2.167496e-06	2.717692e-09	1.549773e+01	1.768492e+02
2.170000e-06	2.232573e-06	2.781454e-09	1.596304e+01	1.811357e+02
2.180000e-06	2.297444e-06	2.842822e-09	1.642687e+01	1.851823e+02
2.190000e-06	2.362080e-06	2.900204e-09	1.688902e+01	1.890061e+02
2.200000e-06	2.426620e-06	2.955378e-09	1.735048e+01	1.926246e+02
2.210000e-06	2.491035e-06	3.008545e-09	1.781106e+01	1.960557e+02
2.220000e-06	2.555153e-06	3.060818e-09	1.826950e+01	1.993172e+02
2.230000e-06	2.619016e-06	3.109949e-09	1.872613e+01	2.024263e+02
2.240000e-06	2.682762e-06	3.155119e-09	1.918192e+01	2.053996e+02
2.250000e-06	2.746350e-06	3.198346e-09	1.963657e+01	2.082528e+02
2.260000e-06	2.809692e-06	3.239906e-09	2.008948e+01	2.110003e+02
2.270000e-06	2.872848e-06	3.279654e-09	2.054104e+01	2.136553e+02
2.280000e-06	2.935837e-06	3.315310e-09	2.099142e+01	2.162293e+02
2.290000e-06	2.998669e-06	3.349888e-09	2.144067e+01	2.187326e+02
2.300000e-06	3.061400e-06	3.385214e-09	2.188920e+01	2.211736e+02
2.310000e-06	3.124010e-06	3.420145e-09	2.233687e+01	2.235594e+02
2.320000e-06	3.186433e-06	3.456116e-09	2.278319e+01	2.258953e+02
2.330000e-06	3.248647e-06	3.492881e-09	2.322803e+01	2.281852e+02
2.340000e-06	3.310657e-06	3.527352e-09	2.367141e+01	2.304320e+02
2.350000e-06	3.372386e-06	3.557396e-09	2.411277e+01	2.326368e+02
2.360000e-06	3.433910e-06	3.584240e-09	2.455267e+01	2.348003e+02
2.370000e-06	3.495247e-06	3.610917e-09	2.499123e+01	2.369218e+02
2.380000e-06	3.556259e-06	3.635832e-09	2.542747e+01	2.390002e+02
2.390000e-06	3.616969e-06	3.661227e-09	2.586156e+01	2.410339e+02
2.400000e-06	3.677467e-06	3.689791e-09	2.629412e+01	2.430209e+02
2.410000e-06	3.737854e-06	3.719044e-09	2.672589e+01	2.449592e+02
2.420000e-06	3.798076e-06	3.747874e-09	2.715648e+01	2.468466e+02
2.430000e-06	3.858032e-06	3.775333e-09	2.758517e+01	2.486813e+02
2.440000e-06	3.917738e-06	3.800174e-09	2.801207e+01	2.504619e+02
2.450000e-06	3.977174e-06	3.822712e-09	2.843704e+01	2.521872e+02
2.460000e-06	4.036345e-06	3.840967e-09	2.886012e+01	2.538566e+02
2.470000e-06	4.095204e-06	3.858871e-09	2.928096e+01	2.554701e+02
2.480000e-06	4.153666e-06	3.878052e-09	2.969897e+01	2.570284e+02
2.490000e-06	4.211755e-06	3.899529e-09	3.011431e+01	2.585326e+02
2.500000e-06	4.269439e-06	3.924133e-09	3.052675e+01	2.599846e+02
2.510000e-06	4.326759e-06	3.949593e-09	3.093659e+01	2.613867e+02
2.520000e-06	4.383697e-06	3.971726e-09	3.134371e+01	2.627417e+02
2.530000e-06	4.440139e-06	3.992118e-09	3.174727e+01	2.640530e+02
2.540000e-06	4.496192e-06	4.009588e-09	3.214806e+01	2.653241e+02
2.550000e-06	4.551997e-06	4.024746e-09	3.254707e+01	2.665588e+02
2.560000e-06	4.607569e-06	4.040758e-09	3.294440e+01	2.677611e+02
2.570000e-06	4.662859e-06	4.059028e-09	3.333974e+01	2.689350e+02
2.580000e-06	4.717851e-06	4.077415e-09	3.373293e+01	2.700842e+02
2.590000e-06	4.772631e-06	4.097115e-09	3.412461e+01	2.712124e+02
2.600000e-06	4.827126e-06	4.117503e-09	3.451425e+01	2.723229e+02
2.610000e-06	4.881256e-06	4.134535e-09	3.490129e+01	2.734189e+02
2.620000e-06	4.935121e-06	4.152586e-09	3.528643e+01	2.745027e+02
2.630000e-06	4.988556e-06	4.169572e-09	3.566849e+01	2.755765e+02
2.640000e-06	5.041535e-06	4.185009e-09	3.604729e+01	2.766418e+02
2.650000e-06	5.094200e-06	4.201371e-09	3.642385e+01	2.776995e+02
2.660000e-06	5.146521e-06	4.218139e-09	3.679795e+01	2.787503e+02
2.670000e-06	5.198461e-06	4.231397e-09	3.716932e+01	2.797939e+02
2.680000e-06	5.249838e-06	4.245138e-09	3.753667e+01	2.808299e+02
2.690000e-06	5.300632e-06	4.262393e-09	3.789985e+01	2.818572e+02
2.700000e-06	5.351027e-06	4.278696e-09	3.826018e+01	2.828746e+02
2.710000e-06	5.400974e-06	4.290539e-09	3.861730e+01	2.838805e+02
2.720000e-06	5.450280e-06	4.303387e-09	3.896984e+01	2.848728e+02
2.730000e-06	5.499037e-06	4.316090e-09	3.931846e+01	2.858497e+02
2.740000e-06	5.547449e-06	4.328002e-09	3.966461e+01	2.868091e+02
2.750000e-06	5.595453e-06	4.338084e-09	4.000784e+01	2.877490e+02
2.760000e-06	5.643021e-06	4.349969e-09	4.034795e+01	2.886675e+02
2.770000e-06	5.690228e-06	4.363386e-09	4.068549e+01	2.895630e+02
2.780000e-06	5.737103e-06	4.377677e-09	4.102065e+01	2.904338e+02
2.790000e-06	5.783607e-06	4.390705e-09	4.135315e+01	2.912790e+02
2.800000e-06	5.829642e-06	4.400753e-09	4.168231e+01	2.920977e+02
2.810000e-06	5.875208e-06	4.411821e-09	4.200811e+01	2.928896e+02
2.820000e-06	5.920379e-06	4.425655e-09	4.233108e+01	2.936546e+02
2.830000e-06	5.965202e-06	4.439417e-09	4.265157e+01	2.943932e+02
2.840000e-06	6.009656e-06	4.450062e-09	4.296942e+01	2.951062e+02
2.850000e-06	6.053710e-06	4.459370e-09	4.328441e+01	2.957947e+02
2.860000e-06	6.097413e-06	4.470832e-09	4.359688e+01	2.964602e+02
2.870000e-06	6.140856e-06	4.483384e-09	4.390750e+01	2.971045e+02
2.880000e-06	6.184020e-06	4.493988e-09	4.421613e+01	2.977296e+02
2.890000e-06	6.226735e-06	4.505389e-09	4.452154e+01	2.983376e+02
2.900000e-06	6.268828e-06	4.520524e-09	4.482251e+01	2.989308e+02
2.910000e-06	6.310178e-06	4.535856e-09	4.511816e+01	2.995114e+02
