# Temperatura_=_20.0
# Concentracion g/m^3_=_9000.0
# C_Vs_to_Am_M_A/Vsm_=_65563218390.804596
# pendiente_HvsI_1/m_=_3716.3
# ordenada_HvsI_A/m_=_1297.0
# frecuencia_Hz_=_135478.64810455174

Tiempo_(s)	Campo_(V.s)	Magnetizacion_(V.s)	Campo_(kA/m)	Magnetizacion_(A/m)
0.000000e+00	-7.981447e-06	-4.664886e-09	-5.691341e+01	-3.086236e+02
1.000000e-08	-7.981857e-06	-4.662175e-09	-5.691633e+01	-3.083946e+02
2.000000e-08	-7.981939e-06	-4.661271e-09	-5.691692e+01	-3.081579e+02
3.000000e-08	-7.981431e-06	-4.663544e-09	-5.691329e+01	-3.079212e+02
4.000000e-08	-7.980135e-06	-4.665494e-09	-5.690405e+01	-3.076925e+02
5.000000e-08	-7.977936e-06	-4.661813e-09	-5.688837e+01	-3.074806e+02
6.000000e-08	-7.974923e-06	-4.656518e-09	-5.686688e+01	-3.072941e+02
7.000000e-08	-7.971416e-06	-4.654584e-09	-5.684188e+01	-3.071419e+02
8.000000e-08	-7.967629e-06	-4.647707e-09	-5.681488e+01	-3.070326e+02
9.000000e-08	-7.963484e-06	-4.632415e-09	-5.678532e+01	-3.069746e+02
1.000000e-07	-7.958735e-06	-4.649090e-09	-5.675145e+01	-3.069753e+02
1.100000e-07	-7.953115e-06	-4.712190e-09	-5.671138e+01	-3.070418e+02
1.200000e-07	-7.946485e-06	-4.762409e-09	-5.666410e+01	-3.071799e+02
1.300000e-07	-7.939143e-06	-4.706360e-09	-5.661175e+01	-3.073944e+02
1.400000e-07	-7.931502e-06	-4.560399e-09	-5.655726e+01	-3.076887e+02
1.500000e-07	-7.923716e-06	-4.571424e-09	-5.650174e+01	-3.080647e+02
1.600000e-07	-7.915611e-06	-4.770970e-09	-5.644395e+01	-3.085229e+02
1.700000e-07	-7.906992e-06	-4.798236e-09	-5.638249e+01	-3.090621e+02
1.800000e-07	-7.897752e-06	-4.628228e-09	-5.631660e+01	-3.096795e+02
1.900000e-07	-7.887617e-06	-4.581002e-09	-5.624433e+01	-3.103707e+02
2.000000e-07	-7.876520e-06	-4.676926e-09	-5.616520e+01	-3.111297e+02
2.100000e-07	-7.864892e-06	-4.779775e-09	-5.608228e+01	-3.119488e+02
2.200000e-07	-7.852887e-06	-4.785485e-09	-5.599668e+01	-3.128192e+02
2.300000e-07	-7.840104e-06	-4.659521e-09	-5.590553e+01	-3.137306e+02
2.400000e-07	-7.826604e-06	-4.572442e-09	-5.580927e+01	-3.146717e+02
2.500000e-07	-7.812806e-06	-4.767630e-09	-5.571087e+01	-3.156305e+02
2.600000e-07	-7.798325e-06	-4.967958e-09	-5.560761e+01	-3.165942e+02
2.700000e-07	-7.782598e-06	-4.816901e-09	-5.549547e+01	-3.175496e+02
2.800000e-07	-7.766013e-06	-4.662551e-09	-5.537721e+01	-3.184836e+02
2.900000e-07	-7.749115e-06	-4.865185e-09	-5.525671e+01	-3.193830e+02
3.000000e-07	-7.731839e-06	-5.061537e-09	-5.513352e+01	-3.202352e+02
3.100000e-07	-7.714008e-06	-4.965915e-09	-5.500638e+01	-3.210281e+02
3.200000e-07	-7.695635e-06	-4.876644e-09	-5.487536e+01	-3.217508e+02
3.300000e-07	-7.676717e-06	-4.960749e-09	-5.474047e+01	-3.223933e+02
3.400000e-07	-7.657304e-06	-5.017952e-09	-5.460203e+01	-3.229471e+02
3.500000e-07	-7.637572e-06	-5.013558e-09	-5.446133e+01	-3.234051e+02
3.600000e-07	-7.617500e-06	-4.988872e-09	-5.431820e+01	-3.237621e+02
3.700000e-07	-7.596913e-06	-4.887429e-09	-5.417141e+01	-3.240144e+02
3.800000e-07	-7.575732e-06	-4.874467e-09	-5.402037e+01	-3.241602e+02
3.900000e-07	-7.554064e-06	-5.010209e-09	-5.386586e+01	-3.241997e+02
4.000000e-07	-7.531925e-06	-5.026474e-09	-5.370799e+01	-3.241348e+02
4.100000e-07	-7.509100e-06	-4.864271e-09	-5.354523e+01	-3.239691e+02
4.200000e-07	-7.485686e-06	-4.840598e-09	-5.337828e+01	-3.237080e+02
4.300000e-07	-7.461951e-06	-5.005779e-09	-5.320903e+01	-3.233581e+02
4.400000e-07	-7.437755e-06	-5.042555e-09	-5.303650e+01	-3.229276e+02
4.500000e-07	-7.412704e-06	-4.875527e-09	-5.285787e+01	-3.224258e+02
4.600000e-07	-7.386910e-06	-4.840409e-09	-5.267394e+01	-3.218627e+02
4.700000e-07	-7.360624e-06	-4.970477e-09	-5.248649e+01	-3.212491e+02
4.800000e-07	-7.333761e-06	-4.977140e-09	-5.229494e+01	-3.205960e+02
4.900000e-07	-7.306359e-06	-4.871643e-09	-5.209955e+01	-3.199147e+02
5.000000e-07	-7.278543e-06	-4.864137e-09	-5.190120e+01	-3.192161e+02
5.100000e-07	-7.250347e-06	-4.898641e-09	-5.170014e+01	-3.185109e+02
5.200000e-07	-7.221675e-06	-4.905912e-09	-5.149569e+01	-3.178090e+02
5.300000e-07	-7.192503e-06	-4.911289e-09	-5.128767e+01	-3.171194e+02
5.400000e-07	-7.162854e-06	-4.869310e-09	-5.107625e+01	-3.164501e+02
5.500000e-07	-7.132629e-06	-4.815359e-09	-5.086073e+01	-3.158079e+02
5.600000e-07	-7.101897e-06	-4.864263e-09	-5.064159e+01	-3.151982e+02
5.700000e-07	-7.070781e-06	-4.909989e-09	-5.041971e+01	-3.146247e+02
5.800000e-07	-7.039289e-06	-4.843688e-09	-5.019515e+01	-3.140900e+02
5.900000e-07	-7.007392e-06	-4.788665e-09	-4.996770e+01	-3.135950e+02
6.000000e-07	-6.975012e-06	-4.825381e-09	-4.973681e+01	-3.131391e+02
6.100000e-07	-6.941930e-06	-4.863101e-09	-4.950091e+01	-3.127203e+02
6.200000e-07	-6.907981e-06	-4.826490e-09	-4.925883e+01	-3.123353e+02
6.300000e-07	-6.873411e-06	-4.777656e-09	-4.901232e+01	-3.119796e+02
6.400000e-07	-6.838343e-06	-4.781694e-09	-4.876226e+01	-3.116478e+02
6.500000e-07	-6.802778e-06	-4.819448e-09	-4.850866e+01	-3.113337e+02
6.600000e-07	-6.766862e-06	-4.805958e-09	-4.825255e+01	-3.110303e+02
6.700000e-07	-6.730561e-06	-4.757596e-09	-4.799370e+01	-3.107305e+02
6.800000e-07	-6.693796e-06	-4.749428e-09	-4.773154e+01	-3.104269e+02
6.900000e-07	-6.656534e-06	-4.776504e-09	-4.746583e+01	-3.101121e+02
7.000000e-07	-6.618737e-06	-4.773034e-09	-4.719631e+01	-3.097791e+02
7.100000e-07	-6.580505e-06	-4.747756e-09	-4.692369e+01	-3.094215e+02
7.200000e-07	-6.541841e-06	-4.726574e-09	-4.664799e+01	-3.090332e+02
7.300000e-07	-6.502715e-06	-4.723233e-09	-4.636899e+01	-3.086093e+02
7.400000e-07	-6.463260e-06	-4.730470e-09	-4.608765e+01	-3.081457e+02
7.500000e-07	-6.423575e-06	-4.722151e-09	-4.580467e+01	-3.076394e+02
7.600000e-07	-6.383600e-06	-4.686301e-09	-4.551962e+01	-3.070885e+02
7.700000e-07	-6.343071e-06	-4.674186e-09	-4.523061e+01	-3.064923e+02
7.800000e-07	-6.301869e-06	-4.697279e-09	-4.493682e+01	-3.058512e+02
7.900000e-07	-6.260004e-06	-4.695284e-09	-4.463829e+01	-3.051667e+02
8.000000e-07	-6.217493e-06	-4.656346e-09	-4.433516e+01	-3.044413e+02
8.100000e-07	-6.174425e-06	-4.640799e-09	-4.402805e+01	-3.036786e+02
8.200000e-07	-6.130888e-06	-4.659921e-09	-4.371760e+01	-3.028828e+02
8.300000e-07	-6.086977e-06	-4.660871e-09	-4.340449e+01	-3.020588e+02
8.400000e-07	-6.042681e-06	-4.629506e-09	-4.308862e+01	-3.012121e+02
8.500000e-07	-5.997972e-06	-4.603322e-09	-4.276982e+01	-3.003483e+02
8.600000e-07	-5.952875e-06	-4.607125e-09	-4.244824e+01	-2.994732e+02
8.700000e-07	-5.907361e-06	-4.613661e-09	-4.212369e+01	-2.985925e+02
8.800000e-07	-5.861425e-06	-4.596899e-09	-4.179614e+01	-2.977117e+02
8.900000e-07	-5.815178e-06	-4.566326e-09	-4.146636e+01	-2.968356e+02
9.000000e-07	-5.768592e-06	-4.558447e-09	-4.113417e+01	-2.959687e+02
9.100000e-07	-5.721607e-06	-4.566293e-09	-4.079914e+01	-2.951146e+02
9.200000e-07	-5.674232e-06	-4.558534e-09	-4.046132e+01	-2.942761e+02
9.300000e-07	-5.626437e-06	-4.524847e-09	-4.012051e+01	-2.934550e+02
9.400000e-07	-5.578142e-06	-4.499643e-09	-3.977613e+01	-2.926522e+02
9.500000e-07	-5.529300e-06	-4.500297e-09	-3.942785e+01	-2.918675e+02
9.600000e-07	-5.479969e-06	-4.504716e-09	-3.907609e+01	-2.910999e+02
9.700000e-07	-5.430078e-06	-4.482985e-09	-3.872032e+01	-2.903472e+02
9.800000e-07	-5.379502e-06	-4.451848e-09	-3.835968e+01	-2.896066e+02
9.900000e-07	-5.328296e-06	-4.440867e-09	-3.799455e+01	-2.888742e+02
1.000000e-06	-5.276717e-06	-4.443688e-09	-3.762675e+01	-2.881457e+02
1.010000e-06	-5.224793e-06	-4.430822e-09	-3.725650e+01	-2.874162e+02
1.020000e-06	-5.172502e-06	-4.404762e-09	-3.688363e+01	-2.866804e+02
1.030000e-06	-5.119821e-06	-4.388115e-09	-3.650797e+01	-2.859331e+02
1.040000e-06	-5.066711e-06	-4.385086e-09	-3.612926e+01	-2.851686e+02
1.050000e-06	-5.013281e-06	-4.380312e-09	-3.574827e+01	-2.843818e+02
1.060000e-06	-4.959487e-06	-4.364294e-09	-3.536468e+01	-2.835678e+02
1.070000e-06	-4.905304e-06	-4.343008e-09	-3.497832e+01	-2.827220e+02
1.080000e-06	-4.850831e-06	-4.326237e-09	-3.458988e+01	-2.818406e+02
1.090000e-06	-4.796042e-06	-4.315711e-09	-3.419920e+01	-2.809205e+02
1.100000e-06	-4.740920e-06	-4.301911e-09	-3.380614e+01	-2.799594e+02
1.110000e-06	-4.685477e-06	-4.281105e-09	-3.341079e+01	-2.789558e+02
1.120000e-06	-4.629697e-06	-4.259270e-09	-3.301304e+01	-2.779093e+02
1.130000e-06	-4.573708e-06	-4.242660e-09	-3.261380e+01	-2.768202e+02
1.140000e-06	-4.517533e-06	-4.226096e-09	-3.221323e+01	-2.756898e+02
1.150000e-06	-4.461022e-06	-4.206909e-09	-3.181027e+01	-2.745202e+02
1.160000e-06	-4.404064e-06	-4.188529e-09	-3.140412e+01	-2.733141e+02
1.170000e-06	-4.346761e-06	-4.174298e-09	-3.099550e+01	-2.720752e+02
1.180000e-06	-4.289113e-06	-4.161107e-09	-3.058443e+01	-2.708073e+02
1.190000e-06	-4.231019e-06	-4.144921e-09	-3.017018e+01	-2.695146e+02
1.200000e-06	-4.172493e-06	-4.122876e-09	-2.975285e+01	-2.682017e+02
1.210000e-06	-4.113542e-06	-4.100941e-09	-2.933249e+01	-2.668729e+02
1.220000e-06	-4.054254e-06	-4.081972e-09	-2.890972e+01	-2.655327e+02
1.230000e-06	-3.994649e-06	-4.063716e-09	-2.848469e+01	-2.641849e+02
1.240000e-06	-3.934750e-06	-4.042386e-09	-2.805757e+01	-2.628330e+02
1.250000e-06	-3.874630e-06	-4.021592e-09	-2.762887e+01	-2.614799e+02
1.260000e-06	-3.814339e-06	-4.002177e-09	-2.719896e+01	-2.601278e+02
1.270000e-06	-3.753919e-06	-3.979869e-09	-2.676812e+01	-2.587777e+02
1.280000e-06	-3.693311e-06	-3.956077e-09	-2.633594e+01	-2.574301e+02
1.290000e-06	-3.632487e-06	-3.934085e-09	-2.590222e+01	-2.560843e+02
1.300000e-06	-3.571423e-06	-3.911107e-09	-2.546679e+01	-2.547387e+02
1.310000e-06	-3.510131e-06	-3.885759e-09	-2.502974e+01	-2.533907e+02
1.320000e-06	-3.448647e-06	-3.860667e-09	-2.459131e+01	-2.520368e+02
1.330000e-06	-3.386823e-06	-3.836923e-09	-2.415046e+01	-2.506727e+02
1.340000e-06	-3.324723e-06	-3.816346e-09	-2.370764e+01	-2.492934e+02
1.350000e-06	-3.262427e-06	-3.798453e-09	-2.326343e+01	-2.478933e+02
1.360000e-06	-3.199885e-06	-3.778521e-09	-2.281746e+01	-2.464663e+02
1.370000e-06	-3.137142e-06	-3.754267e-09	-2.237006e+01	-2.450061e+02
1.380000e-06	-3.074228e-06	-3.726746e-09	-2.192144e+01	-2.435063e+02
1.390000e-06	-3.011162e-06	-3.697817e-09	-2.147173e+01	-2.419607e+02
1.400000e-06	-2.947873e-06	-3.668186e-09	-2.102044e+01	-2.403631e+02
1.410000e-06	-2.884359e-06	-3.638702e-09	-2.056754e+01	-2.387081e+02
1.420000e-06	-2.820695e-06	-3.610296e-09	-2.011356e+01	-2.369906e+02
1.430000e-06	-2.756954e-06	-3.586246e-09	-1.965905e+01	-2.352062e+02
1.440000e-06	-2.693100e-06	-3.563953e-09	-1.920372e+01	-2.333517e+02
1.450000e-06	-2.629117e-06	-3.538010e-09	-1.874748e+01	-2.314245e+02
1.460000e-06	-2.564962e-06	-3.509174e-09	-1.829001e+01	-2.294231e+02
1.470000e-06	-2.500603e-06	-3.477947e-09	-1.783108e+01	-2.273468e+02
1.480000e-06	-2.435996e-06	-3.445110e-09	-1.737039e+01	-2.251961e+02
1.490000e-06	-2.371074e-06	-3.410790e-09	-1.690745e+01	-2.229723e+02
1.500000e-06	-2.305965e-06	-3.377330e-09	-1.644317e+01	-2.206775e+02
1.510000e-06	-2.240667e-06	-3.342689e-09	-1.597755e+01	-2.183144e+02
1.520000e-06	-2.175111e-06	-3.310877e-09	-1.551009e+01	-2.158862e+02
1.530000e-06	-2.109360e-06	-3.282390e-09	-1.504124e+01	-2.133966e+02
1.540000e-06	-2.043435e-06	-3.248082e-09	-1.457115e+01	-2.108492e+02
1.550000e-06	-1.977292e-06	-3.209825e-09	-1.409950e+01	-2.082474e+02
1.560000e-06	-1.910962e-06	-3.171811e-09	-1.362652e+01	-2.055945e+02
1.570000e-06	-1.844439e-06	-3.133473e-09	-1.315216e+01	-2.028931e+02
1.580000e-06	-1.777801e-06	-3.092900e-09	-1.267699e+01	-2.001446e+02
1.590000e-06	-1.711047e-06	-3.049635e-09	-1.220098e+01	-1.973499e+02
1.600000e-06	-1.644132e-06	-3.004779e-09	-1.172383e+01	-1.945082e+02
1.610000e-06	-1.577193e-06	-2.959703e-09	-1.124651e+01	-1.916174e+02
1.620000e-06	-1.510150e-06	-2.914288e-09	-1.076844e+01	-1.886738e+02
1.630000e-06	-1.442902e-06	-2.867322e-09	-1.028892e+01	-1.856719e+02
1.640000e-06	-1.375569e-06	-2.821090e-09	-9.808785e+00	-1.826046e+02
1.650000e-06	-1.308127e-06	-2.775841e-09	-9.327875e+00	-1.794628e+02
1.660000e-06	-1.240618e-06	-2.729356e-09	-8.846487e+00	-1.762359e+02
1.670000e-06	-1.173082e-06	-2.676815e-09	-8.364913e+00	-1.729114e+02
1.680000e-06	-1.105483e-06	-2.617010e-09	-7.882882e+00	-1.694755e+02
1.690000e-06	-1.037852e-06	-2.555754e-09	-7.400627e+00	-1.659128e+02
1.700000e-06	-9.701482e-07	-2.494373e-09	-6.917848e+00	-1.622071e+02
1.710000e-06	-9.024137e-07	-2.429494e-09	-6.434853e+00	-1.583412e+02
1.720000e-06	-8.347038e-07	-2.362665e-09	-5.952033e+00	-1.542975e+02
1.730000e-06	-7.669320e-07	-2.297335e-09	-5.468772e+00	-1.500580e+02
1.740000e-06	-6.990828e-07	-2.231088e-09	-4.984959e+00	-1.456052e+02
1.750000e-06	-6.312073e-07	-2.159350e-09	-4.500958e+00	-1.409222e+02
1.760000e-06	-5.632830e-07	-2.083528e-09	-4.016609e+00	-1.359929e+02
1.770000e-06	-4.952870e-07	-2.006054e-09	-3.531749e+00	-1.308027e+02
1.780000e-06	-4.272264e-07	-1.925178e-09	-3.046429e+00	-1.253389e+02
1.790000e-06	-3.591312e-07	-1.839768e-09	-2.560861e+00	-1.195908e+02
1.800000e-06	-2.910619e-07	-1.748944e-09	-2.075479e+00	-1.135502e+02
1.810000e-06	-2.229798e-07	-1.654706e-09	-1.590005e+00	-1.072117e+02
1.820000e-06	-1.548324e-07	-1.559670e-09	-1.104066e+00	-1.005730e+02
1.830000e-06	-8.663473e-08	-1.462828e-09	-6.177674e-01	-9.363493e+01
1.840000e-06	-1.850028e-08	-1.358501e-09	-1.319202e-01	-8.640186e+01
1.850000e-06	4.958488e-08	-1.246581e-09	3.535755e-01	-7.888150e+01
1.860000e-06	1.176710e-07	-1.130761e-09	8.390782e-01	-7.108511e+01
1.870000e-06	1.857318e-07	-1.012554e-09	1.324400e+00	-6.302742e+01
1.880000e-06	2.538435e-07	-8.873080e-10	1.810085e+00	-5.472650e+01
1.890000e-06	3.219550e-07	-7.538065e-10	2.295769e+00	-4.620361e+01
1.900000e-06	3.900291e-07	-6.167044e-10	2.781186e+00	-3.748296e+01
1.910000e-06	4.580761e-07	-4.783476e-10	3.266409e+00	-2.859143e+01
1.920000e-06	5.260428e-07	-3.388039e-10	3.751060e+00	-1.955825e+01
1.930000e-06	5.939418e-07	-1.952469e-10	4.235229e+00	-1.041457e+01
1.940000e-06	6.619005e-07	-4.973069e-11	4.719822e+00	-1.193099e+00
1.950000e-06	7.299090e-07	9.455287e-11	5.204771e+00	8.072368e+00
1.960000e-06	7.978501e-07	2.380084e-10	5.689240e+00	1.734741e+01
1.970000e-06	8.656745e-07	3.826110e-10	6.172876e+00	2.659746e+01
1.980000e-06	9.334287e-07	5.292789e-10	6.656012e+00	3.578826e+01
1.990000e-06	1.001129e-06	6.753436e-10	7.138767e+00	4.488635e+01
2.000000e-06	1.068754e-06	8.185159e-10	7.620980e+00	5.385949e+01
2.010000e-06	1.136338e-06	9.593512e-10	8.102898e+00	6.267711e+01
2.020000e-06	1.203873e-06	1.095337e-09	8.584475e+00	7.131067e+01
2.030000e-06	1.271327e-06	1.223431e-09	9.065466e+00	7.973399e+01
2.040000e-06	1.338715e-06	1.345408e-09	9.545990e+00	8.792362e+01
2.050000e-06	1.405951e-06	1.461324e-09	1.002543e+01	9.585898e+01
2.060000e-06	1.473046e-06	1.570482e-09	1.050387e+01	1.035226e+02
2.070000e-06	1.540131e-06	1.674860e-09	1.098223e+01	1.109004e+02
2.080000e-06	1.607107e-06	1.774338e-09	1.145982e+01	1.179814e+02
2.090000e-06	1.673927e-06	1.870433e-09	1.193630e+01	1.247580e+02
2.100000e-06	1.740626e-06	1.965403e-09	1.241191e+01	1.312259e+02
2.110000e-06	1.807159e-06	2.055174e-09	1.288633e+01	1.373841e+02
2.120000e-06	1.873504e-06	2.137918e-09	1.335942e+01	1.432344e+02
2.130000e-06	1.939692e-06	2.217345e-09	1.383139e+01	1.487817e+02
2.140000e-06	2.005766e-06	2.291984e-09	1.430254e+01	1.540331e+02
2.150000e-06	2.071663e-06	2.360500e-09	1.477243e+01	1.589985e+02
2.160000e-06	2.137338e-06	2.425343e-09	1.524074e+01	1.636894e+02
2.170000e-06	2.202843e-06	2.486758e-09	1.570784e+01	1.681192e+02
2.180000e-06	2.268164e-06	2.544862e-09	1.617362e+01	1.723026e+02
2.190000e-06	2.333186e-06	2.603136e-09	1.663728e+01	1.762556e+02
2.200000e-06	2.397981e-06	2.660940e-09	1.709932e+01	1.799944e+02
2.210000e-06	2.462654e-06	2.714784e-09	1.756048e+01	1.835359e+02
2.220000e-06	2.527001e-06	2.766866e-09	1.801932e+01	1.868971e+02
2.230000e-06	2.591024e-06	2.816951e-09	1.847585e+01	1.900946e+02
2.240000e-06	2.654908e-06	2.860262e-09	1.893139e+01	1.931446e+02
2.250000e-06	2.718685e-06	2.897458e-09	1.938616e+01	1.960625e+02
2.260000e-06	2.782308e-06	2.935873e-09	1.983984e+01	1.988629e+02
2.270000e-06	2.845738e-06	2.976309e-09	2.029214e+01	2.015592e+02
2.280000e-06	2.909047e-06	3.014566e-09	2.074358e+01	2.041637e+02
2.290000e-06	2.972265e-06	3.051515e-09	2.119437e+01	2.066871e+02
2.300000e-06	3.035340e-06	3.088389e-09	2.164414e+01	2.091391e+02
2.310000e-06	3.098212e-06	3.124951e-09	2.209246e+01	2.115277e+02
2.320000e-06	3.160892e-06	3.160254e-09	2.253941e+01	2.138597e+02
2.330000e-06	3.223417e-06	3.192297e-09	2.298526e+01	2.161406e+02
2.340000e-06	3.285735e-06	3.222751e-09	2.342963e+01	2.183746e+02
2.350000e-06	3.347807e-06	3.254769e-09	2.387225e+01	2.205645e+02
2.360000e-06	3.409602e-06	3.283970e-09	2.431289e+01	2.227124e+02
2.370000e-06	3.471141e-06	3.309359e-09	2.475171e+01	2.248194e+02
2.380000e-06	3.532458e-06	3.336464e-09	2.518894e+01	2.268856e+02
2.390000e-06	3.593503e-06	3.366881e-09	2.562424e+01	2.289107e+02
2.400000e-06	3.654281e-06	3.397182e-09	2.605763e+01	2.308939e+02
2.410000e-06	3.714767e-06	3.423820e-09	2.648893e+01	2.328339e+02
2.420000e-06	3.774928e-06	3.450226e-09	2.691793e+01	2.347294e+02
2.430000e-06	3.834861e-06	3.478070e-09	2.734529e+01	2.365789e+02
2.440000e-06	3.894667e-06	3.504663e-09	2.777175e+01	2.383810e+02
2.450000e-06	3.954363e-06	3.528211e-09	2.819743e+01	2.401344e+02
2.460000e-06	4.013896e-06	3.547977e-09	2.862194e+01	2.418383e+02
2.470000e-06	4.073160e-06	3.568365e-09	2.904453e+01	2.434918e+02
2.480000e-06	4.132095e-06	3.591259e-09	2.946479e+01	2.450949e+02
2.490000e-06	4.190736e-06	3.611460e-09	2.988293e+01	2.466475e+02
2.500000e-06	4.249068e-06	3.629863e-09	3.029888e+01	2.481503e+02
2.510000e-06	4.306904e-06	3.650747e-09	3.071130e+01	2.496043e+02
2.520000e-06	4.364161e-06	3.672283e-09	3.111958e+01	2.510108e+02
2.530000e-06	4.420948e-06	3.692493e-09	3.152451e+01	2.523719e+02
2.540000e-06	4.477305e-06	3.712432e-09	3.192637e+01	2.536895e+02
2.550000e-06	4.533256e-06	3.730515e-09	3.232535e+01	2.549663e+02
2.560000e-06	4.588930e-06	3.746952e-09	3.272234e+01	2.562048e+02
2.570000e-06	4.644405e-06	3.763623e-09	3.311792e+01	2.574082e+02
2.580000e-06	4.699693e-06	3.779059e-09	3.351216e+01	2.585794e+02
2.590000e-06	4.754702e-06	3.795942e-09	3.390442e+01	2.597214e+02
2.600000e-06	4.809425e-06	3.814508e-09	3.429463e+01	2.608373e+02
2.610000e-06	4.863861e-06	3.832718e-09	3.468280e+01	2.619302e+02
2.620000e-06	4.917896e-06	3.852642e-09	3.506810e+01	2.630027e+02
2.630000e-06	4.971596e-06	3.874266e-09	3.545102e+01	2.640576e+02
2.640000e-06	5.024985e-06	3.893559e-09	3.583172e+01	2.650971e+02
2.650000e-06	5.078019e-06	3.908543e-09	3.620990e+01	2.661234e+02
2.660000e-06	5.130658e-06	3.922071e-09	3.658525e+01	2.671382e+02
2.670000e-06	5.182863e-06	3.935483e-09	3.695751e+01	2.681430e+02
2.680000e-06	5.234672e-06	3.945970e-09	3.732694e+01	2.691386e+02
2.690000e-06	5.286105e-06	3.956953e-09	3.769369e+01	2.701260e+02
2.700000e-06	5.337123e-06	3.972086e-09	3.805749e+01	2.711054e+02
2.710000e-06	5.387538e-06	3.986541e-09	3.841699e+01	2.720768e+02
2.720000e-06	5.437258e-06	4.000164e-09	3.877153e+01	2.730400e+02
2.730000e-06	5.486414e-06	4.013058e-09	3.912204e+01	2.739944e+02
2.740000e-06	5.534981e-06	4.024243e-09	3.946836e+01	2.749391e+02
2.750000e-06	5.583102e-06	4.033535e-09	3.981150e+01	2.758732e+02
2.760000e-06	5.630972e-06	4.042756e-09	4.015284e+01	2.767954e+02
2.770000e-06	5.678477e-06	4.055705e-09	4.049159e+01	2.777044e+02
2.780000e-06	5.725657e-06	4.069878e-09	4.082802e+01	2.785988e+02
2.790000e-06	5.772508e-06	4.083368e-09	4.116210e+01	2.794773e+02
2.800000e-06	5.818975e-06	4.097787e-09	4.149344e+01	2.803384e+02
2.810000e-06	5.865009e-06	4.111182e-09	4.182169e+01	2.811808e+02
2.820000e-06	5.910552e-06	4.122320e-09	4.214645e+01	2.820031e+02
2.830000e-06	5.955665e-06	4.133125e-09	4.246814e+01	2.828045e+02
2.840000e-06	6.000376e-06	4.141625e-09	4.278696e+01	2.835837e+02
2.850000e-06	6.044729e-06	4.149722e-09	4.310322e+01	2.843403e+02
2.860000e-06	6.088765e-06	4.158892e-09	4.341723e+01	2.850735e+02
2.870000e-06	6.132513e-06	4.168373e-09	4.372919e+01	2.857831e+02
2.880000e-06	6.175963e-06	4.178822e-09	4.403902e+01	2.864690e+02
2.890000e-06	6.219114e-06	4.192512e-09	4.434672e+01	2.871314e+02
2.900000e-06	6.261765e-06	4.207718e-09	4.465085e+01	2.877708e+02
