# Temperatura_=_20.0
# Concentracion g/m^3_=_9000.0
# C_Vs_to_Am_M_A/Vsm_=_65563218390.804596
# pendiente_HvsI_1/m_=_3716.3
# ordenada_HvsI_A/m_=_1297.0
# frecuencia_Hz_=_135480.5577949848

Tiempo_(s)	Campo_(V.s)	Magnetizacion_(V.s)	Campo_(kA/m)	Magnetizacion_(A/m)
0.000000e+00	-7.895802e-06	-4.667587e-09	-5.690923e+01	-3.100315e+02
1.000000e-08	-7.896173e-06	-4.664043e-09	-5.691190e+01	-3.097794e+02
2.000000e-08	-7.896191e-06	-4.662171e-09	-5.691203e+01	-3.095201e+02
3.000000e-08	-7.895680e-06	-4.663041e-09	-5.690835e+01	-3.092626e+02
4.000000e-08	-7.894366e-06	-4.666624e-09	-5.689888e+01	-3.090164e+02
5.000000e-08	-7.892118e-06	-4.667226e-09	-5.688268e+01	-3.087913e+02
6.000000e-08	-7.889156e-06	-4.666586e-09	-5.686133e+01	-3.085973e+02
7.000000e-08	-7.885724e-06	-4.660863e-09	-5.683659e+01	-3.084442e+02
8.000000e-08	-7.881937e-06	-4.645988e-09	-5.680930e+01	-3.083417e+02
9.000000e-08	-7.877704e-06	-4.633373e-09	-5.677878e+01	-3.082987e+02
1.000000e-07	-7.872815e-06	-4.664427e-09	-5.674355e+01	-3.083234e+02
1.100000e-07	-7.867123e-06	-4.726740e-09	-5.670252e+01	-3.084232e+02
1.200000e-07	-7.860523e-06	-4.749237e-09	-5.665495e+01	-3.086039e+02
1.300000e-07	-7.853256e-06	-4.649939e-09	-5.660258e+01	-3.088703e+02
1.400000e-07	-7.845748e-06	-4.547839e-09	-5.654846e+01	-3.092253e+02
1.500000e-07	-7.838047e-06	-4.607580e-09	-5.649295e+01	-3.096705e+02
1.600000e-07	-7.829976e-06	-4.789725e-09	-5.643479e+01	-3.102054e+02
1.700000e-07	-7.821432e-06	-4.767530e-09	-5.637320e+01	-3.108280e+02
1.800000e-07	-7.812272e-06	-4.609631e-09	-5.630718e+01	-3.115342e+02
1.900000e-07	-7.802165e-06	-4.593622e-09	-5.623434e+01	-3.123183e+02
2.000000e-07	-7.791146e-06	-4.727482e-09	-5.615492e+01	-3.131728e+02
2.100000e-07	-7.779642e-06	-4.815837e-09	-5.607200e+01	-3.140888e+02
2.200000e-07	-7.767648e-06	-4.771441e-09	-5.598556e+01	-3.150556e+02
2.300000e-07	-7.754893e-06	-4.622445e-09	-5.589362e+01	-3.160615e+02
2.400000e-07	-7.741506e-06	-4.613165e-09	-5.579714e+01	-3.170937e+02
2.500000e-07	-7.727672e-06	-4.850192e-09	-5.569743e+01	-3.181387e+02
2.600000e-07	-7.713073e-06	-4.984895e-09	-5.559221e+01	-3.191822e+02
2.700000e-07	-7.697404e-06	-4.795746e-09	-5.547927e+01	-3.202100e+02
2.800000e-07	-7.680989e-06	-4.721470e-09	-5.536096e+01	-3.212077e+02
2.900000e-07	-7.664202e-06	-4.969527e-09	-5.523996e+01	-3.221612e+02
3.000000e-07	-7.646970e-06	-5.108067e-09	-5.511576e+01	-3.230573e+02
3.100000e-07	-7.629274e-06	-4.994363e-09	-5.498822e+01	-3.238835e+02
3.200000e-07	-7.611137e-06	-4.955966e-09	-5.485750e+01	-3.246285e+02
3.300000e-07	-7.592402e-06	-5.046601e-09	-5.472247e+01	-3.252823e+02
3.400000e-07	-7.573075e-06	-5.095227e-09	-5.458317e+01	-3.258366e+02
3.500000e-07	-7.553399e-06	-5.105533e-09	-5.444135e+01	-3.262848e+02
3.600000e-07	-7.533393e-06	-5.030507e-09	-5.429716e+01	-3.266223e+02
3.700000e-07	-7.512944e-06	-4.957609e-09	-5.414977e+01	-3.268462e+02
3.800000e-07	-7.491949e-06	-4.981194e-09	-5.399845e+01	-3.269557e+02
3.900000e-07	-7.470473e-06	-5.105583e-09	-5.384366e+01	-3.269521e+02
4.000000e-07	-7.448468e-06	-5.052650e-09	-5.368505e+01	-3.268386e+02
4.100000e-07	-7.425761e-06	-4.929048e-09	-5.352139e+01	-3.266200e+02
4.200000e-07	-7.402517e-06	-4.964001e-09	-5.335386e+01	-3.263029e+02
4.300000e-07	-7.378897e-06	-5.091437e-09	-5.318362e+01	-3.258957e+02
4.400000e-07	-7.354812e-06	-5.068776e-09	-5.301003e+01	-3.254076e+02
4.500000e-07	-7.330188e-06	-4.959887e-09	-5.283255e+01	-3.248491e+02
4.600000e-07	-7.304952e-06	-4.948341e-09	-5.265066e+01	-3.242317e+02
4.700000e-07	-7.279022e-06	-5.038854e-09	-5.246377e+01	-3.235670e+02
4.800000e-07	-7.252377e-06	-5.039707e-09	-5.227173e+01	-3.228671e+02
4.900000e-07	-7.225090e-06	-4.945180e-09	-5.207505e+01	-3.221441e+02
5.000000e-07	-7.197417e-06	-4.925331e-09	-5.187560e+01	-3.214094e+02
5.100000e-07	-7.169441e-06	-4.990556e-09	-5.167396e+01	-3.206743e+02
5.200000e-07	-7.140977e-06	-5.002543e-09	-5.146880e+01	-3.199489e+02
5.300000e-07	-7.111914e-06	-4.954885e-09	-5.125933e+01	-3.192424e+02
5.400000e-07	-7.082342e-06	-4.928148e-09	-5.104619e+01	-3.185627e+02
5.500000e-07	-7.052343e-06	-4.926928e-09	-5.082997e+01	-3.179163e+02
5.600000e-07	-7.021890e-06	-4.956569e-09	-5.061048e+01	-3.173082e+02
5.700000e-07	-6.990933e-06	-4.957566e-09	-5.038736e+01	-3.167419e+02
5.800000e-07	-6.959532e-06	-4.905686e-09	-5.016104e+01	-3.162191e+02
5.900000e-07	-6.927796e-06	-4.872220e-09	-4.993230e+01	-3.157400e+02
6.000000e-07	-6.895717e-06	-4.914201e-09	-4.970109e+01	-3.153034e+02
6.100000e-07	-6.863174e-06	-4.929686e-09	-4.946653e+01	-3.149063e+02
6.200000e-07	-6.829863e-06	-4.885073e-09	-4.922644e+01	-3.145448e+02
6.300000e-07	-6.795713e-06	-4.848451e-09	-4.898030e+01	-3.142135e+02
6.400000e-07	-6.760948e-06	-4.874918e-09	-4.872974e+01	-3.139063e+02
6.500000e-07	-6.725721e-06	-4.899280e-09	-4.847583e+01	-3.136161e+02
6.600000e-07	-6.690089e-06	-4.871697e-09	-4.821902e+01	-3.133354e+02
6.700000e-07	-6.654126e-06	-4.820599e-09	-4.795981e+01	-3.130565e+02
6.800000e-07	-6.617829e-06	-4.823561e-09	-4.769820e+01	-3.127714e+02
6.900000e-07	-6.581003e-06	-4.847250e-09	-4.743277e+01	-3.124725e+02
7.000000e-07	-6.543546e-06	-4.833973e-09	-4.716280e+01	-3.121525e+02
7.100000e-07	-6.505596e-06	-4.798571e-09	-4.688928e+01	-3.118047e+02
7.200000e-07	-6.467249e-06	-4.791702e-09	-4.661289e+01	-3.114231e+02
7.300000e-07	-6.428487e-06	-4.797897e-09	-4.633351e+01	-3.110028e+02
7.400000e-07	-6.389332e-06	-4.797847e-09	-4.605130e+01	-3.105399e+02
7.500000e-07	-6.349886e-06	-4.780952e-09	-4.576699e+01	-3.100314e+02
7.600000e-07	-6.310175e-06	-4.754180e-09	-4.548077e+01	-3.094759e+02
7.700000e-07	-6.270074e-06	-4.746862e-09	-4.519174e+01	-3.088730e+02
7.800000e-07	-6.229476e-06	-4.760642e-09	-4.489914e+01	-3.082233e+02
7.900000e-07	-6.188204e-06	-4.750822e-09	-4.460166e+01	-3.075289e+02
8.000000e-07	-6.146156e-06	-4.715555e-09	-4.429860e+01	-3.067926e+02
8.100000e-07	-6.103423e-06	-4.706934e-09	-4.399060e+01	-3.060184e+02
8.200000e-07	-6.060113e-06	-4.721921e-09	-4.367844e+01	-3.052108e+02
8.300000e-07	-6.016431e-06	-4.717268e-09	-4.336361e+01	-3.043751e+02
8.400000e-07	-5.972522e-06	-4.686400e-09	-4.304713e+01	-3.035170e+02
8.500000e-07	-5.928298e-06	-4.668390e-09	-4.272839e+01	-3.026424e+02
8.600000e-07	-5.883682e-06	-4.670433e-09	-4.240681e+01	-3.017572e+02
8.700000e-07	-5.838570e-06	-4.670686e-09	-4.208167e+01	-3.008672e+02
8.800000e-07	-5.793062e-06	-4.647717e-09	-4.175367e+01	-2.999778e+02
8.900000e-07	-5.747238e-06	-4.623344e-09	-4.142339e+01	-2.990940e+02
9.000000e-07	-5.701023e-06	-4.617778e-09	-4.109029e+01	-2.982202e+02
9.100000e-07	-5.654425e-06	-4.622419e-09	-4.075444e+01	-2.973597e+02
9.200000e-07	-5.607421e-06	-4.607710e-09	-4.041565e+01	-2.965152e+02
9.300000e-07	-5.560047e-06	-4.580678e-09	-4.007421e+01	-2.956884e+02
9.400000e-07	-5.512248e-06	-4.561537e-09	-3.972969e+01	-2.948799e+02
9.500000e-07	-5.464062e-06	-4.558574e-09	-3.938239e+01	-2.940893e+02
9.600000e-07	-5.415526e-06	-4.551471e-09	-3.903257e+01	-2.933154e+02
9.700000e-07	-5.366345e-06	-4.530225e-09	-3.867809e+01	-2.925558e+02
9.800000e-07	-5.316461e-06	-4.504307e-09	-3.831855e+01	-2.918073e+02
9.900000e-07	-5.265963e-06	-4.492999e-09	-3.795458e+01	-2.910663e+02
1.000000e-06	-5.214899e-06	-4.489256e-09	-3.758654e+01	-2.903280e+02
1.010000e-06	-5.163326e-06	-4.476761e-09	-3.721483e+01	-2.895877e+02
1.020000e-06	-5.111360e-06	-4.454747e-09	-3.684028e+01	-2.888401e+02
1.030000e-06	-5.059084e-06	-4.439607e-09	-3.646350e+01	-2.880799e+02
1.040000e-06	-5.006490e-06	-4.436250e-09	-3.608443e+01	-2.873016e+02
1.050000e-06	-4.953561e-06	-4.431047e-09	-3.570294e+01	-2.865003e+02
1.060000e-06	-4.900226e-06	-4.414630e-09	-3.531852e+01	-2.856711e+02
1.070000e-06	-4.846514e-06	-4.392949e-09	-3.493139e+01	-2.848098e+02
1.080000e-06	-4.792500e-06	-4.379216e-09	-3.454209e+01	-2.839128e+02
1.090000e-06	-4.738251e-06	-4.370843e-09	-3.415109e+01	-2.829773e+02
1.100000e-06	-4.683734e-06	-4.355171e-09	-3.375815e+01	-2.820013e+02
1.110000e-06	-4.628808e-06	-4.331231e-09	-3.336227e+01	-2.809835e+02
1.120000e-06	-4.573512e-06	-4.313410e-09	-3.296373e+01	-2.799238e+02
1.130000e-06	-4.517979e-06	-4.301916e-09	-3.256347e+01	-2.788226e+02
1.140000e-06	-4.462247e-06	-4.287878e-09	-3.216178e+01	-2.776815e+02
1.150000e-06	-4.406290e-06	-4.266435e-09	-3.175846e+01	-2.765027e+02
1.160000e-06	-4.350020e-06	-4.247209e-09	-3.135290e+01	-2.752891e+02
1.170000e-06	-4.293533e-06	-4.231579e-09	-3.094577e+01	-2.740441e+02
1.180000e-06	-4.236799e-06	-4.218834e-09	-3.053685e+01	-2.727716e+02
1.190000e-06	-4.179687e-06	-4.200099e-09	-3.012522e+01	-2.714758e+02
1.200000e-06	-4.122081e-06	-4.177250e-09	-2.971002e+01	-2.701609e+02
1.210000e-06	-4.063956e-06	-4.158570e-09	-2.929109e+01	-2.688311e+02
1.220000e-06	-4.005427e-06	-4.144124e-09	-2.886924e+01	-2.674905e+02
1.230000e-06	-3.946521e-06	-4.125378e-09	-2.844467e+01	-2.661426e+02
1.240000e-06	-3.887258e-06	-4.100475e-09	-2.801753e+01	-2.647906e+02
1.250000e-06	-3.827693e-06	-4.079193e-09	-2.758821e+01	-2.634368e+02
1.260000e-06	-3.767915e-06	-4.063101e-09	-2.715736e+01	-2.620830e+02
1.270000e-06	-3.708039e-06	-4.041620e-09	-2.672580e+01	-2.607299e+02
1.280000e-06	-3.647998e-06	-4.014772e-09	-2.629305e+01	-2.593775e+02
1.290000e-06	-3.587734e-06	-3.990040e-09	-2.585870e+01	-2.580248e+02
1.300000e-06	-3.527288e-06	-3.968688e-09	-2.542303e+01	-2.566699e+02
1.310000e-06	-3.466667e-06	-3.942821e-09	-2.498611e+01	-2.553098e+02
1.320000e-06	-3.405792e-06	-3.915665e-09	-2.454735e+01	-2.539409e+02
1.330000e-06	-3.344620e-06	-3.892286e-09	-2.410645e+01	-2.525587e+02
1.340000e-06	-3.283189e-06	-3.872092e-09	-2.366369e+01	-2.511583e+02
1.350000e-06	-3.221417e-06	-3.850887e-09	-2.321846e+01	-2.497339e+02
1.360000e-06	-3.159406e-06	-3.825078e-09	-2.277152e+01	-2.482797e+02
1.370000e-06	-3.097276e-06	-3.798384e-09	-2.232371e+01	-2.467897e+02
1.380000e-06	-3.034957e-06	-3.770359e-09	-2.187454e+01	-2.452576e+02
1.390000e-06	-2.972521e-06	-3.740991e-09	-2.142453e+01	-2.436777e+02
1.400000e-06	-2.909987e-06	-3.711754e-09	-2.097382e+01	-2.420442e+02
1.410000e-06	-2.847188e-06	-3.683065e-09	-2.052119e+01	-2.403521e+02
1.420000e-06	-2.784091e-06	-3.655774e-09	-2.006642e+01	-2.385969e+02
1.430000e-06	-2.720843e-06	-3.632489e-09	-1.961056e+01	-2.367750e+02
1.440000e-06	-2.657518e-06	-3.609515e-09	-1.915414e+01	-2.348834e+02
1.450000e-06	-2.593972e-06	-3.582147e-09	-1.869613e+01	-2.329202e+02
1.460000e-06	-2.530187e-06	-3.552185e-09	-1.823640e+01	-2.308844e+02
1.470000e-06	-2.466312e-06	-3.521533e-09	-1.777602e+01	-2.287759e+02
1.480000e-06	-2.402343e-06	-3.487123e-09	-1.731496e+01	-2.265956e+02
1.490000e-06	-2.338222e-06	-3.449771e-09	-1.685281e+01	-2.243450e+02
1.500000e-06	-2.273908e-06	-3.413024e-09	-1.638926e+01	-2.220267e+02
1.510000e-06	-2.209501e-06	-3.379043e-09	-1.592504e+01	-2.196435e+02
1.520000e-06	-2.145003e-06	-3.346395e-09	-1.546017e+01	-2.171988e+02
1.530000e-06	-2.080283e-06	-3.312448e-09	-1.499370e+01	-2.146961e+02
1.540000e-06	-2.015349e-06	-3.276339e-09	-1.452569e+01	-2.121390e+02
1.550000e-06	-1.950226e-06	-3.242794e-09	-1.405631e+01	-2.095309e+02
1.560000e-06	-1.884908e-06	-3.205701e-09	-1.358553e+01	-2.068745e+02
1.570000e-06	-1.819463e-06	-3.161612e-09	-1.311383e+01	-2.041722e+02
1.580000e-06	-1.753899e-06	-3.115267e-09	-1.264128e+01	-2.014251e+02
1.590000e-06	-1.688212e-06	-3.071119e-09	-1.216784e+01	-1.986333e+02
1.600000e-06	-1.622375e-06	-3.026370e-09	-1.169332e+01	-1.957958e+02
1.610000e-06	-1.556390e-06	-2.980583e-09	-1.121773e+01	-1.929098e+02
1.620000e-06	-1.490249e-06	-2.932940e-09	-1.074101e+01	-1.899711e+02
1.630000e-06	-1.423823e-06	-2.885523e-09	-1.026225e+01	-1.869737e+02
1.640000e-06	-1.357189e-06	-2.840253e-09	-9.781978e+00	-1.839100e+02
1.650000e-06	-1.290409e-06	-2.794878e-09	-9.300663e+00	-1.807705e+02
1.660000e-06	-1.223503e-06	-2.746071e-09	-8.818435e+00	-1.775442e+02
1.670000e-06	-1.156542e-06	-2.692255e-09	-8.335813e+00	-1.742184e+02
1.680000e-06	-1.089487e-06	-2.634823e-09	-7.852510e+00	-1.707790e+02
1.690000e-06	-1.022354e-06	-2.574179e-09	-7.368645e+00	-1.672107e+02
1.700000e-06	-9.551999e-07	-2.511016e-09	-6.884632e+00	-1.634973e+02
1.710000e-06	-8.879479e-07	-2.446756e-09	-6.399911e+00	-1.596217e+02
1.720000e-06	-8.206466e-07	-2.382058e-09	-5.914835e+00	-1.555665e+02
1.730000e-06	-7.533534e-07	-2.316570e-09	-5.429817e+00	-1.513144e+02
1.740000e-06	-6.860139e-07	-2.248827e-09	-4.944466e+00	-1.468481e+02
1.750000e-06	-6.186087e-07	-2.178090e-09	-4.458641e+00	-1.421512e+02
1.760000e-06	-5.511480e-07	-2.103675e-09	-3.972416e+00	-1.372085e+02
1.770000e-06	-4.836584e-07	-2.027550e-09	-3.485982e+00	-1.320060e+02
1.780000e-06	-4.161443e-07	-1.947929e-09	-2.999372e+00	-1.265317e+02
1.790000e-06	-3.485593e-07	-1.861847e-09	-2.512252e+00	-1.207755e+02
1.800000e-06	-2.808913e-07	-1.773386e-09	-2.024532e+00	-1.147302e+02
1.810000e-06	-2.131707e-07	-1.680355e-09	-1.536435e+00	-1.083911e+02
1.820000e-06	-1.454804e-07	-1.584189e-09	-1.048554e+00	-1.017563e+02
1.830000e-06	-7.785568e-08	-1.484326e-09	-5.611471e-01	-9.482750e+01
1.840000e-06	-1.027756e-08	-1.378854e-09	-7.407583e-02	-8.760938e+01
1.850000e-06	5.727505e-08	-1.268868e-09	4.128116e-01	-8.011011e+01
1.860000e-06	1.249082e-07	-1.154478e-09	9.002798e-01	-7.234122e+01
1.870000e-06	1.925356e-07	-1.036033e-09	1.387706e+00	-6.431755e+01
1.880000e-06	2.600568e-07	-9.124103e-10	1.874367e+00	-5.605718e+01
1.890000e-06	3.275525e-07	-7.828821e-10	2.360845e+00	-4.758121e+01
1.900000e-06	3.950901e-07	-6.496664e-10	2.847624e+00	-3.891355e+01
1.910000e-06	4.626619e-07	-5.127051e-10	3.334649e+00	-3.008066e+01
1.920000e-06	5.302389e-07	-3.735005e-10	3.821713e+00	-2.111117e+01
1.930000e-06	5.978063e-07	-2.305987e-10	4.308707e+00	-1.203557e+01
1.940000e-06	6.653224e-07	-8.632230e-11	4.795331e+00	-2.885745e+00
1.950000e-06	7.328330e-07	5.732219e-11	5.281915e+00	6.305386e+00
1.960000e-06	8.003218e-07	2.014748e-10	5.768343e+00	1.550436e+01
1.970000e-06	8.676792e-07	3.456209e-10	6.253824e+00	2.467762e+01
1.980000e-06	9.348267e-07	4.879721e-10	6.737791e+00	3.379192e+01
1.990000e-06	1.001825e-06	6.313016e-10	7.220681e+00	4.281484e+01
2.000000e-06	1.068826e-06	7.743852e-10	7.703596e+00	5.171515e+01
2.010000e-06	1.135803e-06	9.127579e-10	8.186336e+00	6.046321e+01
2.020000e-06	1.202692e-06	1.046632e-09	8.668435e+00	6.903138e+01
2.030000e-06	1.269458e-06	1.177231e-09	9.149655e+00	7.739429e+01
2.040000e-06	1.336144e-06	1.301507e-09	9.630295e+00	8.552916e+01
2.050000e-06	1.402721e-06	1.418130e-09	1.011015e+01	9.341600e+01
2.060000e-06	1.469078e-06	1.530254e-09	1.058842e+01	1.010378e+02
2.070000e-06	1.535325e-06	1.637669e-09	1.106590e+01	1.083807e+02
2.080000e-06	1.601527e-06	1.738383e-09	1.154305e+01	1.154339e+02
2.090000e-06	1.667578e-06	1.833119e-09	1.201912e+01	1.221899e+02
2.100000e-06	1.733350e-06	1.925613e-09	1.249317e+01	1.286444e+02
2.110000e-06	1.798852e-06	2.014876e-09	1.296528e+01	1.347958e+02
2.120000e-06	1.864159e-06	2.098020e-09	1.343598e+01	1.406459e+02
2.130000e-06	1.929227e-06	2.176449e-09	1.390496e+01	1.461988e+02
2.140000e-06	1.994123e-06	2.251910e-09	1.437270e+01	1.514613e+02
2.150000e-06	2.058869e-06	2.324498e-09	1.483936e+01	1.564426e+02
2.160000e-06	2.123462e-06	2.393974e-09	1.530492e+01	1.611535e+02
2.170000e-06	2.187975e-06	2.457096e-09	1.576990e+01	1.656067e+02
2.180000e-06	2.252403e-06	2.517521e-09	1.623426e+01	1.698164e+02
2.190000e-06	2.316669e-06	2.580355e-09	1.669746e+01	1.737975e+02
2.200000e-06	2.380723e-06	2.641639e-09	1.715913e+01	1.775659e+02
2.210000e-06	2.444647e-06	2.695012e-09	1.761987e+01	1.811379e+02
2.220000e-06	2.508426e-06	2.744786e-09	1.807955e+01	1.845297e+02
2.230000e-06	2.572032e-06	2.795037e-09	1.853800e+01	1.877576e+02
2.240000e-06	2.635480e-06	2.841031e-09	1.899530e+01	1.908375e+02
2.250000e-06	2.698729e-06	2.881948e-09	1.945117e+01	1.937845e+02
2.260000e-06	2.761800e-06	2.921375e-09	1.990576e+01	1.966129e+02
2.270000e-06	2.824681e-06	2.959897e-09	2.035897e+01	1.993362e+02
2.280000e-06	2.887304e-06	2.997421e-09	2.081033e+01	2.019666e+02
2.290000e-06	2.949796e-06	3.034149e-09	2.126074e+01	2.045152e+02
2.300000e-06	3.012213e-06	3.070603e-09	2.171062e+01	2.069916e+02
2.310000e-06	3.074449e-06	3.104986e-09	2.215919e+01	2.094043e+02
2.320000e-06	3.136542e-06	3.138317e-09	2.260672e+01	2.117604e+02
2.330000e-06	3.198487e-06	3.171136e-09	2.305319e+01	2.140657e+02
2.340000e-06	3.260186e-06	3.201838e-09	2.349789e+01	2.163249e+02
2.350000e-06	3.321545e-06	3.232072e-09	2.394013e+01	2.185414e+02
2.360000e-06	3.382613e-06	3.260689e-09	2.438028e+01	2.207175e+02
2.370000e-06	3.443444e-06	3.287124e-09	2.481872e+01	2.228547e+02
2.380000e-06	3.504006e-06	3.312969e-09	2.525523e+01	2.249536e+02
2.390000e-06	3.564353e-06	3.340981e-09	2.569018e+01	2.270142e+02
2.400000e-06	3.624531e-06	3.369439e-09	2.612392e+01	2.290359e+02
2.410000e-06	3.684567e-06	3.394522e-09	2.655662e+01	2.310176e+02
2.420000e-06	3.744471e-06	3.419015e-09	2.698839e+01	2.329580e+02
2.430000e-06	3.804132e-06	3.443511e-09	2.741839e+01	2.348557e+02
2.440000e-06	3.863467e-06	3.468234e-09	2.784606e+01	2.367091e+02
2.450000e-06	3.922542e-06	3.494034e-09	2.827184e+01	2.385170e+02
2.460000e-06	3.981336e-06	3.516805e-09	2.869560e+01	2.402779e+02
2.470000e-06	4.039799e-06	3.537211e-09	2.911697e+01	2.419910e+02
2.480000e-06	4.097875e-06	3.558289e-09	2.953556e+01	2.436555e+02
2.490000e-06	4.155435e-06	3.579534e-09	2.995042e+01	2.452711e+02
2.500000e-06	4.212506e-06	3.598582e-09	3.036176e+01	2.468378e+02
2.510000e-06	4.269193e-06	3.616647e-09	3.077034e+01	2.483561e+02
2.520000e-06	4.325616e-06	3.634310e-09	3.117701e+01	2.498269e+02
2.530000e-06	4.381792e-06	3.652708e-09	3.158190e+01	2.512514e+02
2.540000e-06	4.437686e-06	3.673357e-09	3.198476e+01	2.526313e+02
2.550000e-06	4.493346e-06	3.693081e-09	3.238593e+01	2.539684e+02
2.560000e-06	4.548671e-06	3.712207e-09	3.278468e+01	2.552651e+02
2.570000e-06	4.603661e-06	3.733112e-09	3.318102e+01	2.565237e+02
2.580000e-06	4.658376e-06	3.751923e-09	3.357538e+01	2.577471e+02
2.590000e-06	4.712818e-06	3.768373e-09	3.396778e+01	2.589379e+02
2.600000e-06	4.766961e-06	3.784259e-09	3.435802e+01	2.600989e+02
2.610000e-06	4.820744e-06	3.799992e-09	3.474566e+01	2.612330e+02
2.620000e-06	4.874208e-06	3.817976e-09	3.513100e+01	2.623429e+02
2.630000e-06	4.927347e-06	3.836824e-09	3.551400e+01	2.634313e+02
2.640000e-06	4.980131e-06	3.853748e-09	3.589444e+01	2.645005e+02
2.650000e-06	5.032514e-06	3.871113e-09	3.627199e+01	2.655528e+02
2.660000e-06	5.084531e-06	3.890109e-09	3.664691e+01	2.665902e+02
2.670000e-06	5.136181e-06	3.906815e-09	3.701918e+01	2.676143e+02
2.680000e-06	5.187295e-06	3.921708e-09	3.738759e+01	2.686266e+02
2.690000e-06	5.237835e-06	3.937136e-09	3.775186e+01	2.696280e+02
2.700000e-06	5.287797e-06	3.954363e-09	3.811195e+01	2.706193e+02
2.710000e-06	5.337168e-06	3.967513e-09	3.846780e+01	2.716010e+02
2.720000e-06	5.386029e-06	3.979604e-09	3.881997e+01	2.725729e+02
2.730000e-06	5.434419e-06	3.992302e-09	3.916874e+01	2.735351e+02
2.740000e-06	5.482445e-06	4.004406e-09	3.951489e+01	2.744869e+02
2.750000e-06	5.530186e-06	4.016650e-09	3.985898e+01	2.754276e+02
2.760000e-06	5.577579e-06	4.028471e-09	4.020057e+01	2.763565e+02
2.770000e-06	5.624572e-06	4.040213e-09	4.053927e+01	2.772723e+02
2.780000e-06	5.671176e-06	4.055405e-09	4.087517e+01	2.781739e+02
2.790000e-06	5.717361e-06	4.069959e-09	4.120805e+01	2.790601e+02
2.800000e-06	5.763115e-06	4.079585e-09	4.153782e+01	2.799296e+02
2.810000e-06	5.808491e-06	4.088897e-09	4.186487e+01	2.807811e+02
2.820000e-06	5.853546e-06	4.101253e-09	4.218961e+01	2.816134e+02
2.830000e-06	5.898229e-06	4.116677e-09	4.251166e+01	2.824255e+02
2.840000e-06	5.942508e-06	4.128658e-09	4.283080e+01	2.832164e+02
2.850000e-06	5.986471e-06	4.135892e-09	4.314767e+01	2.839854e+02
2.860000e-06	6.030147e-06	4.145337e-09	4.346246e+01	2.847319e+02
2.870000e-06	6.073556e-06	4.157977e-09	4.377533e+01	2.854557e+02
2.880000e-06	6.116576e-06	4.170247e-09	4.408540e+01	2.861566e+02
2.890000e-06	6.158930e-06	4.180055e-09	4.439067e+01	2.868349e+02
2.900000e-06	6.200562e-06	4.191630e-09	4.469074e+01	2.874911e+02
