# Temperatura_=_20.0
# Concentracion g/m^3_=_9000.0
# C_Vs_to_Am_M_A/Vsm_=_65563218390.804596
# pendiente_HvsI_1/m_=_3716.3
# ordenada_HvsI_A/m_=_1297.0
# frecuencia_Hz_=_135481.8122019976

Tiempo_(s)	Campo_(V.s)	Magnetizacion_(V.s)	Campo_(kA/m)	Magnetizacion_(A/m)
0.000000e+00	-7.861008e-06	-4.865927e-09	-5.691726e+01	-3.258044e+02
1.000000e-08	-7.861233e-06	-4.863629e-09	-5.691888e+01	-3.258507e+02
2.000000e-08	-7.861054e-06	-4.863653e-09	-5.691759e+01	-3.258893e+02
3.000000e-08	-7.860391e-06	-4.863019e-09	-5.691279e+01	-3.259173e+02
4.000000e-08	-7.859124e-06	-4.860582e-09	-5.690362e+01	-3.259319e+02
5.000000e-08	-7.857036e-06	-4.857914e-09	-5.688849e+01	-3.259299e+02
6.000000e-08	-7.854146e-06	-4.855693e-09	-5.686757e+01	-3.259084e+02
7.000000e-08	-7.850727e-06	-4.857480e-09	-5.684282e+01	-3.258644e+02
8.000000e-08	-7.846908e-06	-4.864936e-09	-5.681517e+01	-3.257948e+02
9.000000e-08	-7.842612e-06	-4.859797e-09	-5.678406e+01	-3.256972e+02
1.000000e-07	-7.837627e-06	-4.820106e-09	-5.674797e+01	-3.255690e+02
1.100000e-07	-7.831856e-06	-4.793328e-09	-5.670618e+01	-3.254084e+02
1.200000e-07	-7.825305e-06	-4.836946e-09	-5.665875e+01	-3.252137e+02
1.300000e-07	-7.818078e-06	-4.941576e-09	-5.660642e+01	-3.249837e+02
1.400000e-07	-7.810466e-06	-4.927540e-09	-5.655131e+01	-3.247178e+02
1.500000e-07	-7.802665e-06	-4.734359e-09	-5.649482e+01	-3.244160e+02
1.600000e-07	-7.794640e-06	-4.745082e-09	-5.643672e+01	-3.240786e+02
1.700000e-07	-7.786110e-06	-4.971173e-09	-5.637496e+01	-3.237065e+02
1.800000e-07	-7.776721e-06	-5.004040e-09	-5.630698e+01	-3.233013e+02
1.900000e-07	-7.766526e-06	-4.842394e-09	-5.623317e+01	-3.228647e+02
2.000000e-07	-7.755693e-06	-4.835042e-09	-5.615473e+01	-3.223993e+02
2.100000e-07	-7.744123e-06	-4.893515e-09	-5.607096e+01	-3.219076e+02
2.200000e-07	-7.731994e-06	-4.944112e-09	-5.598313e+01	-3.213929e+02
2.300000e-07	-7.719331e-06	-4.976403e-09	-5.589145e+01	-3.208583e+02
2.400000e-07	-7.706058e-06	-4.862556e-09	-5.579534e+01	-3.203073e+02
2.500000e-07	-7.692291e-06	-4.731275e-09	-5.569567e+01	-3.197436e+02
2.600000e-07	-7.677869e-06	-4.884167e-09	-5.559124e+01	-3.191707e+02
2.700000e-07	-7.662378e-06	-5.065000e-09	-5.547908e+01	-3.185922e+02
2.800000e-07	-7.645865e-06	-4.868710e-09	-5.535952e+01	-3.180114e+02
2.900000e-07	-7.628906e-06	-4.690036e-09	-5.523673e+01	-3.174317e+02
3.000000e-07	-7.611635e-06	-4.899509e-09	-5.511168e+01	-3.168559e+02
3.100000e-07	-7.593918e-06	-5.041060e-09	-5.498340e+01	-3.162867e+02
3.200000e-07	-7.575769e-06	-4.833726e-09	-5.485200e+01	-3.157264e+02
3.300000e-07	-7.557123e-06	-4.776084e-09	-5.471699e+01	-3.151770e+02
3.400000e-07	-7.537861e-06	-4.942735e-09	-5.457753e+01	-3.146400e+02
3.500000e-07	-7.518120e-06	-4.907219e-09	-5.443459e+01	-3.141166e+02
3.600000e-07	-7.498036e-06	-4.854986e-09	-5.428917e+01	-3.136075e+02
3.700000e-07	-7.477602e-06	-4.923236e-09	-5.414122e+01	-3.131130e+02
3.800000e-07	-7.456751e-06	-4.815203e-09	-5.399025e+01	-3.126333e+02
3.900000e-07	-7.435397e-06	-4.780286e-09	-5.383564e+01	-3.121678e+02
4.000000e-07	-7.413416e-06	-4.917820e-09	-5.367649e+01	-3.117161e+02
4.100000e-07	-7.390765e-06	-4.924426e-09	-5.351249e+01	-3.112771e+02
4.200000e-07	-7.367537e-06	-4.731427e-09	-5.334430e+01	-3.108499e+02
4.300000e-07	-7.343879e-06	-4.737877e-09	-5.317301e+01	-3.104332e+02
4.400000e-07	-7.319856e-06	-4.920814e-09	-5.299907e+01	-3.100257e+02
4.500000e-07	-7.295349e-06	-4.901510e-09	-5.282163e+01	-3.096259e+02
4.600000e-07	-7.270210e-06	-4.702312e-09	-5.263961e+01	-3.092325e+02
4.700000e-07	-7.244342e-06	-4.729608e-09	-5.245232e+01	-3.088439e+02
4.800000e-07	-7.217760e-06	-4.897077e-09	-5.225985e+01	-3.084589e+02
4.900000e-07	-7.190560e-06	-4.833610e-09	-5.206291e+01	-3.080762e+02
5.000000e-07	-7.162863e-06	-4.706952e-09	-5.186237e+01	-3.076947e+02
5.100000e-07	-7.134797e-06	-4.759242e-09	-5.165916e+01	-3.073132e+02
5.200000e-07	-7.106378e-06	-4.806096e-09	-5.145340e+01	-3.069309e+02
5.300000e-07	-7.077491e-06	-4.770289e-09	-5.124424e+01	-3.065470e+02
5.400000e-07	-7.048139e-06	-4.768102e-09	-5.103172e+01	-3.061607e+02
5.500000e-07	-7.018296e-06	-4.734804e-09	-5.081564e+01	-3.057715e+02
5.600000e-07	-6.987874e-06	-4.706581e-09	-5.059537e+01	-3.053788e+02
5.700000e-07	-6.956960e-06	-4.762675e-09	-5.037154e+01	-3.049822e+02
5.800000e-07	-6.925615e-06	-4.783471e-09	-5.014459e+01	-3.045813e+02
5.900000e-07	-6.893926e-06	-4.696352e-09	-4.991515e+01	-3.041756e+02
6.000000e-07	-6.861898e-06	-4.672496e-09	-4.968325e+01	-3.037647e+02
6.100000e-07	-6.829407e-06	-4.727798e-09	-4.944800e+01	-3.033481e+02
6.200000e-07	-6.796257e-06	-4.743796e-09	-4.920798e+01	-3.029254e+02
6.300000e-07	-6.762346e-06	-4.684820e-09	-4.896245e+01	-3.024959e+02
6.400000e-07	-6.727765e-06	-4.645500e-09	-4.871206e+01	-3.020589e+02
6.500000e-07	-6.692612e-06	-4.676791e-09	-4.845754e+01	-3.016136e+02
6.600000e-07	-6.657011e-06	-4.712980e-09	-4.819977e+01	-3.011593e+02
6.700000e-07	-6.621069e-06	-4.666063e-09	-4.793954e+01	-3.006949e+02
6.800000e-07	-6.584785e-06	-4.614369e-09	-4.767683e+01	-3.002196e+02
6.900000e-07	-6.547963e-06	-4.637626e-09	-4.741021e+01	-2.997322e+02
7.000000e-07	-6.510602e-06	-4.663200e-09	-4.713971e+01	-2.992316e+02
7.100000e-07	-6.472815e-06	-4.632322e-09	-4.686611e+01	-2.987170e+02
7.200000e-07	-6.434520e-06	-4.602432e-09	-4.658883e+01	-2.981872e+02
7.300000e-07	-6.395689e-06	-4.595500e-09	-4.630768e+01	-2.976413e+02
7.400000e-07	-6.356498e-06	-4.594524e-09	-4.602392e+01	-2.970785e+02
7.500000e-07	-6.317094e-06	-4.597200e-09	-4.573862e+01	-2.964981e+02
7.600000e-07	-6.277422e-06	-4.582082e-09	-4.545138e+01	-2.958996e+02
7.700000e-07	-6.237426e-06	-4.547895e-09	-4.516179e+01	-2.952827e+02
7.800000e-07	-6.197022e-06	-4.545430e-09	-4.486925e+01	-2.946472e+02
7.900000e-07	-6.156106e-06	-4.571803e-09	-4.457299e+01	-2.939933e+02
8.000000e-07	-6.114513e-06	-4.556940e-09	-4.427184e+01	-2.933213e+02
8.100000e-07	-6.072182e-06	-4.513752e-09	-4.396534e+01	-2.926318e+02
8.200000e-07	-6.029212e-06	-4.505008e-09	-4.365423e+01	-2.919256e+02
8.300000e-07	-5.985742e-06	-4.522171e-09	-4.333948e+01	-2.912037e+02
8.400000e-07	-5.941948e-06	-4.510403e-09	-4.302239e+01	-2.904672e+02
8.500000e-07	-5.897820e-06	-4.477021e-09	-4.270289e+01	-2.897176e+02
8.600000e-07	-5.853269e-06	-4.457578e-09	-4.238032e+01	-2.889561e+02
8.700000e-07	-5.808334e-06	-4.460555e-09	-4.205496e+01	-2.881843e+02
8.800000e-07	-5.763080e-06	-4.456896e-09	-4.172731e+01	-2.874037e+02
8.900000e-07	-5.717451e-06	-4.434310e-09	-4.139693e+01	-2.866157e+02
9.000000e-07	-5.671409e-06	-4.412936e-09	-4.106357e+01	-2.858217e+02
9.100000e-07	-5.625011e-06	-4.410496e-09	-4.072763e+01	-2.850229e+02
9.200000e-07	-5.578195e-06	-4.404785e-09	-4.038866e+01	-2.842203e+02
9.300000e-07	-5.530946e-06	-4.386345e-09	-4.004655e+01	-2.834146e+02
9.400000e-07	-5.483376e-06	-4.364173e-09	-3.970212e+01	-2.826064e+02
9.500000e-07	-5.435454e-06	-4.349138e-09	-3.935514e+01	-2.817958e+02
9.600000e-07	-5.387115e-06	-4.341290e-09	-3.900515e+01	-2.809827e+02
9.700000e-07	-5.338312e-06	-4.332972e-09	-3.865179e+01	-2.801666e+02
9.800000e-07	-5.288913e-06	-4.312256e-09	-3.829412e+01	-2.793467e+02
9.900000e-07	-5.238762e-06	-4.289452e-09	-3.793101e+01	-2.785218e+02
1.000000e-06	-5.187936e-06	-4.279909e-09	-3.756300e+01	-2.776906e+02
1.010000e-06	-5.136688e-06	-4.273273e-09	-3.719194e+01	-2.768512e+02
1.020000e-06	-5.085092e-06	-4.252507e-09	-3.681836e+01	-2.760018e+02
1.030000e-06	-5.033094e-06	-4.229259e-09	-3.644188e+01	-2.751402e+02
1.040000e-06	-4.980778e-06	-4.218668e-09	-3.606308e+01	-2.742642e+02
1.050000e-06	-4.928160e-06	-4.211634e-09	-3.568211e+01	-2.733715e+02
1.060000e-06	-4.875129e-06	-4.197361e-09	-3.529814e+01	-2.724598e+02
1.070000e-06	-4.821714e-06	-4.178548e-09	-3.491139e+01	-2.715270e+02
1.080000e-06	-4.767993e-06	-4.163744e-09	-3.452242e+01	-2.705709e+02
1.090000e-06	-4.713971e-06	-4.151190e-09	-3.413128e+01	-2.695897e+02
1.100000e-06	-4.659528e-06	-4.134831e-09	-3.373709e+01	-2.685819e+02
1.110000e-06	-4.604685e-06	-4.113135e-09	-3.334000e+01	-2.675461e+02
1.120000e-06	-4.549606e-06	-4.093849e-09	-3.294121e+01	-2.664814e+02
1.130000e-06	-4.494278e-06	-4.077619e-09	-3.254061e+01	-2.653873e+02
1.140000e-06	-4.438703e-06	-4.060880e-09	-3.213822e+01	-2.642636e+02
1.150000e-06	-4.382932e-06	-4.041413e-09	-3.173441e+01	-2.631106e+02
1.160000e-06	-4.326938e-06	-4.021127e-09	-3.132899e+01	-2.619289e+02
1.170000e-06	-4.270696e-06	-4.001145e-09	-3.092177e+01	-2.607193e+02
1.180000e-06	-4.214220e-06	-3.985426e-09	-3.051286e+01	-2.594833e+02
1.190000e-06	-4.157442e-06	-3.968027e-09	-3.010176e+01	-2.582223e+02
1.200000e-06	-4.100241e-06	-3.944783e-09	-2.968760e+01	-2.569381e+02
1.210000e-06	-4.042531e-06	-3.921926e-09	-2.926975e+01	-2.556324e+02
1.220000e-06	-3.984305e-06	-3.907350e-09	-2.884817e+01	-2.543074e+02
1.230000e-06	-3.925594e-06	-3.891756e-09	-2.842308e+01	-2.529647e+02
1.240000e-06	-3.866454e-06	-3.867189e-09	-2.799487e+01	-2.516061e+02
1.250000e-06	-3.807052e-06	-3.842299e-09	-2.756478e+01	-2.502333e+02
1.260000e-06	-3.747445e-06	-3.822967e-09	-2.713320e+01	-2.488474e+02
1.270000e-06	-3.687669e-06	-3.804122e-09	-2.670039e+01	-2.474493e+02
1.280000e-06	-3.627781e-06	-3.777667e-09	-2.626677e+01	-2.460396e+02
1.290000e-06	-3.567722e-06	-3.746561e-09	-2.583192e+01	-2.446184e+02
1.300000e-06	-3.507460e-06	-3.719303e-09	-2.539560e+01	-2.431850e+02
1.310000e-06	-3.447093e-06	-3.695755e-09	-2.495851e+01	-2.417386e+02
1.320000e-06	-3.386555e-06	-3.673268e-09	-2.452019e+01	-2.402776e+02
1.330000e-06	-3.325751e-06	-3.646707e-09	-2.407994e+01	-2.388001e+02
1.340000e-06	-3.264674e-06	-3.618749e-09	-2.363772e+01	-2.373034e+02
1.350000e-06	-3.203212e-06	-3.597473e-09	-2.319270e+01	-2.357848e+02
1.360000e-06	-3.141417e-06	-3.577826e-09	-2.274528e+01	-2.342408e+02
1.370000e-06	-3.079437e-06	-3.548495e-09	-2.229652e+01	-2.326679e+02
1.380000e-06	-3.017314e-06	-3.511793e-09	-2.184672e+01	-2.310623e+02
1.390000e-06	-2.955025e-06	-3.480527e-09	-2.139572e+01	-2.294200e+02
1.400000e-06	-2.892568e-06	-3.455721e-09	-2.094350e+01	-2.277372e+02
1.410000e-06	-2.829932e-06	-3.429298e-09	-2.048999e+01	-2.260099e+02
1.420000e-06	-2.767129e-06	-3.398621e-09	-2.003526e+01	-2.242344e+02
1.430000e-06	-2.704118e-06	-3.373991e-09	-1.957904e+01	-2.224075e+02
1.440000e-06	-2.640909e-06	-3.353605e-09	-1.912138e+01	-2.205259e+02
1.450000e-06	-2.577525e-06	-3.326661e-09	-1.866245e+01	-2.185872e+02
1.460000e-06	-2.513936e-06	-3.291831e-09	-1.820204e+01	-2.165891e+02
1.470000e-06	-2.450265e-06	-3.258196e-09	-1.774103e+01	-2.145301e+02
1.480000e-06	-2.386551e-06	-3.226236e-09	-1.727971e+01	-2.124090e+02
1.490000e-06	-2.322722e-06	-3.190894e-09	-1.681756e+01	-2.102252e+02
1.500000e-06	-2.258770e-06	-3.154904e-09	-1.635452e+01	-2.079786e+02
1.510000e-06	-2.194649e-06	-3.117395e-09	-1.589025e+01	-2.056696e+02
1.520000e-06	-2.130426e-06	-3.083300e-09	-1.542525e+01	-2.032988e+02
1.530000e-06	-2.066139e-06	-3.051541e-09	-1.495978e+01	-2.008670e+02
1.540000e-06	-2.001703e-06	-3.015784e-09	-1.449324e+01	-1.983753e+02
1.550000e-06	-1.937069e-06	-2.977229e-09	-1.402526e+01	-1.958245e+02
1.560000e-06	-1.872341e-06	-2.938223e-09	-1.355660e+01	-1.932154e+02
1.570000e-06	-1.807461e-06	-2.899521e-09	-1.308684e+01	-1.905484e+02
1.580000e-06	-1.742298e-06	-2.857414e-09	-1.261503e+01	-1.878234e+02
1.590000e-06	-1.677002e-06	-2.807861e-09	-1.214226e+01	-1.850396e+02
1.600000e-06	-1.611534e-06	-2.758859e-09	-1.166823e+01	-1.821952e+02
1.610000e-06	-1.545784e-06	-2.715108e-09	-1.119217e+01	-1.792876e+02
1.620000e-06	-1.479926e-06	-2.667725e-09	-1.071533e+01	-1.763131e+02
1.630000e-06	-1.414042e-06	-2.616386e-09	-1.023830e+01	-1.732666e+02
1.640000e-06	-1.347901e-06	-2.568890e-09	-9.759414e+00	-1.701418e+02
1.650000e-06	-1.281477e-06	-2.524194e-09	-9.278474e+00	-1.669311e+02
1.660000e-06	-1.214924e-06	-2.475106e-09	-8.796601e+00	-1.636253e+02
1.670000e-06	-1.148273e-06	-2.419039e-09	-8.314019e+00	-1.602142e+02
1.680000e-06	-1.081559e-06	-2.359431e-09	-7.830974e+00	-1.566863e+02
1.690000e-06	-1.014735e-06	-2.299455e-09	-7.347144e+00	-1.530287e+02
1.700000e-06	-9.477837e-07	-2.237122e-09	-6.862383e+00	-1.492277e+02
1.710000e-06	-8.807444e-07	-2.171555e-09	-6.376988e+00	-1.452690e+02
1.720000e-06	-8.135872e-07	-2.105151e-09	-5.890739e+00	-1.411373e+02
1.730000e-06	-7.464187e-07	-2.038351e-09	-5.404409e+00	-1.368176e+02
1.740000e-06	-6.792848e-07	-1.971051e-09	-4.918330e+00	-1.322944e+02
1.750000e-06	-6.120811e-07	-1.899048e-09	-4.431744e+00	-1.275528e+02
1.760000e-06	-5.447902e-07	-1.820997e-09	-3.944528e+00	-1.225785e+02
1.770000e-06	-4.774543e-07	-1.743632e-09	-3.456985e+00	-1.173583e+02
1.780000e-06	-4.100711e-07	-1.663697e-09	-2.969101e+00	-1.118803e+02
1.790000e-06	-3.425732e-07	-1.575895e-09	-2.480385e+00	-1.061344e+02
1.800000e-06	-2.750319e-07	-1.482586e-09	-1.991356e+00	-1.001123e+02
1.810000e-06	-2.075735e-07	-1.388139e-09	-1.502926e+00	-9.380842e+01
1.820000e-06	-1.401525e-07	-1.291388e-09	-1.014767e+00	-8.721945e+01
1.830000e-06	-7.273046e-08	-1.188993e-09	-5.266014e-01	-8.034513e+01
1.840000e-06	-5.326054e-09	-1.081912e-09	-3.856304e-02	-7.318820e+01
1.850000e-06	6.207377e-08	-9.747066e-10	4.494422e-01	-6.575460e+01
1.860000e-06	1.294330e-07	-8.642729e-10	9.371532e-01	-5.805352e+01
1.870000e-06	1.968506e-07	-7.466407e-10	1.425287e+00	-5.009746e+01
1.880000e-06	2.642576e-07	-6.212331e-10	1.913344e+00	-4.190222e+01
1.890000e-06	3.316055e-07	-4.924159e-10	2.400974e+00	-3.348671e+01
1.900000e-06	3.990011e-07	-3.612100e-10	2.888949e+00	-2.487292e+01
1.910000e-06	4.663982e-07	-2.240071e-10	3.376934e+00	-1.608558e+01
1.920000e-06	5.338127e-07	-8.256653e-11	3.865046e+00	-7.151978e+00
1.930000e-06	6.011661e-07	5.980700e-11	4.352714e+00	1.898414e+00
1.940000e-06	6.684079e-07	2.012648e-10	4.839576e+00	1.103430e+01
1.950000e-06	7.355947e-07	3.431780e-10	5.326039e+00	2.022296e+01
1.960000e-06	8.026836e-07	4.870596e-10	5.811792e+00	2.943070e+01
1.970000e-06	8.696785e-07	6.307708e-10	6.296866e+00	3.862333e+01
1.980000e-06	9.365959e-07	7.740943e-10	6.781378e+00	4.776660e+01
1.990000e-06	1.003390e-06	9.182991e-10	7.264994e+00	5.682671e+01
2.000000e-06	1.070130e-06	1.062946e-09	7.748224e+00	6.577077e+01
2.010000e-06	1.136814e-06	1.204845e-09	8.231044e+00	7.456728e+01
2.020000e-06	1.203298e-06	1.339902e-09	8.712425e+00	8.318652e+01
2.030000e-06	1.269628e-06	1.470405e-09	9.192679e+00	9.160095e+01
2.040000e-06	1.335857e-06	1.595885e-09	9.672208e+00	9.978562e+01
2.050000e-06	1.401988e-06	1.713525e-09	1.015103e+01	1.077184e+02
2.060000e-06	1.467992e-06	1.821991e-09	1.062893e+01	1.153803e+02
2.070000e-06	1.533801e-06	1.925104e-09	1.110541e+01	1.227555e+02
2.080000e-06	1.599403e-06	2.025938e-09	1.158040e+01	1.298319e+02
2.090000e-06	1.664731e-06	2.124461e-09	1.205341e+01	1.366005e+02
2.100000e-06	1.729888e-06	2.219301e-09	1.252517e+01	1.430561e+02
2.110000e-06	1.794937e-06	2.309069e-09	1.299615e+01	1.491967e+02
2.120000e-06	1.859756e-06	2.395604e-09	1.346547e+01	1.550238e+02
2.130000e-06	1.924410e-06	2.478991e-09	1.393360e+01	1.605420e+02
2.140000e-06	1.989011e-06	2.555152e-09	1.440134e+01	1.657585e+02
2.150000e-06	2.053435e-06	2.625316e-09	1.486780e+01	1.706835e+02
2.160000e-06	2.117662e-06	2.691509e-09	1.533283e+01	1.753293e+02
2.170000e-06	2.181805e-06	2.754347e-09	1.579726e+01	1.797101e+02
2.180000e-06	2.245861e-06	2.812983e-09	1.626105e+01	1.838419e+02
2.190000e-06	2.309756e-06	2.869330e-09	1.672368e+01	1.877416e+02
2.200000e-06	2.373483e-06	2.925225e-09	1.718509e+01	1.914274e+02
2.210000e-06	2.437144e-06	2.981537e-09	1.764602e+01	1.949174e+02
2.220000e-06	2.500703e-06	3.037294e-09	1.810622e+01	1.982301e+02
2.230000e-06	2.564085e-06	3.088389e-09	1.856514e+01	2.013838e+02
2.240000e-06	2.627348e-06	3.135061e-09	1.902319e+01	2.043959e+02
2.250000e-06	2.690366e-06	3.177738e-09	1.947947e+01	2.072834e+02
2.260000e-06	2.753110e-06	3.216674e-09	1.993376e+01	2.100616e+02
2.270000e-06	2.815712e-06	3.252405e-09	2.038703e+01	2.127451e+02
2.280000e-06	2.878192e-06	3.288692e-09	2.083941e+01	2.153466e+02
2.290000e-06	2.940496e-06	3.327630e-09	2.129052e+01	2.178774e+02
2.300000e-06	3.002643e-06	3.364594e-09	2.174049e+01	2.203470e+02
2.310000e-06	3.064666e-06	3.399674e-09	2.218957e+01	2.227635e+02
2.320000e-06	3.126438e-06	3.436311e-09	2.263683e+01	2.251329e+02
2.330000e-06	3.187964e-06	3.474312e-09	2.308230e+01	2.274602e+02
2.340000e-06	3.249232e-06	3.511115e-09	2.352591e+01	2.297484e+02
2.350000e-06	3.310244e-06	3.542727e-09	2.396767e+01	2.319994e+02
2.360000e-06	3.371028e-06	3.569851e-09	2.440777e+01	2.342138e+02
2.370000e-06	3.431550e-06	3.596734e-09	2.484598e+01	2.363914e+02
2.380000e-06	3.491866e-06	3.625034e-09	2.528269e+01	2.385309e+02
2.390000e-06	3.552002e-06	3.652406e-09	2.571811e+01	2.406304e+02
2.400000e-06	3.611954e-06	3.679891e-09	2.615218e+01	2.426879e+02
2.410000e-06	3.671789e-06	3.706661e-09	2.658541e+01	2.447007e+02
2.420000e-06	3.731499e-06	3.735238e-09	2.701774e+01	2.466664e+02
2.430000e-06	3.790989e-06	3.764696e-09	2.744847e+01	2.485826e+02
2.440000e-06	3.850159e-06	3.790756e-09	2.787690e+01	2.504472e+02
2.450000e-06	3.909039e-06	3.815375e-09	2.830321e+01	2.522585e+02
2.460000e-06	3.967630e-06	3.837861e-09	2.872744e+01	2.540153e+02
2.470000e-06	4.025807e-06	3.856922e-09	2.914866e+01	2.557171e+02
2.480000e-06	4.083492e-06	3.874666e-09	2.956633e+01	2.573638e+02
2.490000e-06	4.140700e-06	3.893823e-09	2.998054e+01	2.589562e+02
2.500000e-06	4.197474e-06	3.914692e-09	3.039161e+01	2.604956e+02
2.510000e-06	4.253839e-06	3.936695e-09	3.079972e+01	2.619840e+02
2.520000e-06	4.309909e-06	3.958537e-09	3.120569e+01	2.634238e+02
2.530000e-06	4.365782e-06	3.980045e-09	3.161024e+01	2.648182e+02
2.540000e-06	4.421409e-06	4.002460e-09	3.201300e+01	2.661704e+02
2.550000e-06	4.476688e-06	4.022602e-09	3.241325e+01	2.674842e+02
2.560000e-06	4.531648e-06	4.040119e-09	3.281118e+01	2.687634e+02
2.570000e-06	4.586339e-06	4.057086e-09	3.320717e+01	2.700119e+02
2.580000e-06	4.640799e-06	4.074224e-09	3.360149e+01	2.712337e+02
2.590000e-06	4.694990e-06	4.094026e-09	3.399385e+01	2.724324e+02
2.600000e-06	4.748878e-06	4.113749e-09	3.438403e+01	2.736114e+02
2.610000e-06	4.802512e-06	4.132276e-09	3.477236e+01	2.747738e+02
2.620000e-06	4.855808e-06	4.153448e-09	3.515825e+01	2.759223e+02
2.630000e-06	4.908639e-06	4.176757e-09	3.554077e+01	2.770591e+02
2.640000e-06	4.961074e-06	4.196054e-09	3.592042e+01	2.781857e+02
2.650000e-06	5.013210e-06	4.211736e-09	3.629791e+01	2.793031e+02
2.660000e-06	5.064972e-06	4.227825e-09	3.667269e+01	2.804120e+02
2.670000e-06	5.116240e-06	4.244135e-09	3.704390e+01	2.815123e+02
2.680000e-06	5.167010e-06	4.258577e-09	3.741149e+01	2.826035e+02
2.690000e-06	5.217295e-06	4.271864e-09	3.777558e+01	2.836846e+02
2.700000e-06	5.266960e-06	4.286298e-09	3.813517e+01	2.847542e+02
2.710000e-06	5.316040e-06	4.301160e-09	3.849053e+01	2.858106e+02
2.720000e-06	5.364656e-06	4.314782e-09	3.884254e+01	2.868520e+02
2.730000e-06	5.412850e-06	4.326742e-09	3.919149e+01	2.878763e+02
2.740000e-06	5.460687e-06	4.340115e-09	3.953784e+01	2.888816e+02
2.750000e-06	5.508186e-06	4.353646e-09	3.988176e+01	2.898657e+02
2.760000e-06	5.555378e-06	4.365486e-09	4.022345e+01	2.908268e+02
2.770000e-06	5.602215e-06	4.377382e-09	4.056257e+01	2.917634e+02
2.780000e-06	5.648597e-06	4.391356e-09	4.089840e+01	2.926740e+02
2.790000e-06	5.694531e-06	4.405849e-09	4.123098e+01	2.935577e+02
2.800000e-06	5.740079e-06	4.420311e-09	4.156077e+01	2.944139e+02
2.810000e-06	5.785202e-06	4.432624e-09	4.188748e+01	2.952424e+02
2.820000e-06	5.829916e-06	4.444163e-09	4.221123e+01	2.960436e+02
2.830000e-06	5.874320e-06	4.460301e-09	4.253273e+01	2.968180e+02
2.840000e-06	5.918469e-06	4.476314e-09	4.285239e+01	2.975670e+02
2.850000e-06	5.962338e-06	4.486746e-09	4.317003e+01	2.982919e+02
2.860000e-06	6.005881e-06	4.495885e-09	4.348530e+01	2.989947e+02
2.870000e-06	6.049079e-06	4.509428e-09	4.379807e+01	2.996774e+02
2.880000e-06	6.091788e-06	4.522735e-09	4.410730e+01	3.003424e+02
2.890000e-06	6.133790e-06	4.533237e-09	4.441141e+01	3.009922e+02
2.900000e-06	6.175052e-06	4.546272e-09	4.471017e+01	3.016293e+02
