# Temperatura_=_20.0
# Concentracion g/m^3_=_9000.0
# C_Vs_to_Am_M_A/Vsm_=_65563218390.804596
# pendiente_HvsI_1/m_=_3716.3
# ordenada_HvsI_A/m_=_1297.0
# frecuencia_Hz_=_135479.1556028037

Tiempo_(s)	Campo_(V.s)	Magnetizacion_(V.s)	Campo_(kA/m)	Magnetizacion_(A/m)
0.000000e+00	-7.932030e-06	-4.806294e-09	-5.691266e+01	-3.195716e+02
1.000000e-08	-7.932296e-06	-4.802244e-09	-5.691457e+01	-3.194148e+02
2.000000e-08	-7.932144e-06	-4.800962e-09	-5.691348e+01	-3.192487e+02
3.000000e-08	-7.931365e-06	-4.801263e-09	-5.690789e+01	-3.190775e+02
4.000000e-08	-7.929826e-06	-4.797477e-09	-5.689685e+01	-3.189054e+02
5.000000e-08	-7.927489e-06	-4.794588e-09	-5.688007e+01	-3.187373e+02
6.000000e-08	-7.924443e-06	-4.792223e-09	-5.685822e+01	-3.185778e+02
7.000000e-08	-7.920939e-06	-4.788227e-09	-5.683308e+01	-3.184316e+02
8.000000e-08	-7.917115e-06	-4.776611e-09	-5.680565e+01	-3.183034e+02
9.000000e-08	-7.912841e-06	-4.779950e-09	-5.677498e+01	-3.181975e+02
1.000000e-07	-7.907872e-06	-4.809587e-09	-5.673933e+01	-3.181182e+02
1.100000e-07	-7.901981e-06	-4.818088e-09	-5.669706e+01	-3.180689e+02
1.200000e-07	-7.895212e-06	-4.793117e-09	-5.664849e+01	-3.180528e+02
1.300000e-07	-7.887859e-06	-4.729877e-09	-5.659573e+01	-3.180723e+02
1.400000e-07	-7.880173e-06	-4.777101e-09	-5.654058e+01	-3.181292e+02
1.500000e-07	-7.872249e-06	-4.841099e-09	-5.648373e+01	-3.182244e+02
1.600000e-07	-7.863984e-06	-4.802422e-09	-5.642443e+01	-3.183580e+02
1.700000e-07	-7.855188e-06	-4.751564e-09	-5.636131e+01	-3.185291e+02
1.800000e-07	-7.845691e-06	-4.820457e-09	-5.629317e+01	-3.187361e+02
1.900000e-07	-7.835337e-06	-4.819739e-09	-5.621888e+01	-3.189765e+02
2.000000e-07	-7.824225e-06	-4.840383e-09	-5.613915e+01	-3.192466e+02
2.100000e-07	-7.812556e-06	-4.860630e-09	-5.605543e+01	-3.195423e+02
2.200000e-07	-7.800286e-06	-4.817745e-09	-5.596739e+01	-3.198586e+02
2.300000e-07	-7.787297e-06	-4.770794e-09	-5.587419e+01	-3.201896e+02
2.400000e-07	-7.773856e-06	-4.848859e-09	-5.577775e+01	-3.205293e+02
2.500000e-07	-7.759863e-06	-4.910117e-09	-5.567736e+01	-3.208707e+02
2.600000e-07	-7.744878e-06	-4.830723e-09	-5.556983e+01	-3.212070e+02
2.700000e-07	-7.729111e-06	-4.839370e-09	-5.545671e+01	-3.215309e+02
2.800000e-07	-7.712720e-06	-4.936806e-09	-5.533910e+01	-3.218353e+02
2.900000e-07	-7.695727e-06	-4.928699e-09	-5.521717e+01	-3.221130e+02
3.000000e-07	-7.678306e-06	-4.883481e-09	-5.509218e+01	-3.223573e+02
3.100000e-07	-7.660464e-06	-4.986077e-09	-5.496416e+01	-3.225620e+02
3.200000e-07	-7.642031e-06	-5.041218e-09	-5.483191e+01	-3.227211e+02
3.300000e-07	-7.623004e-06	-4.964388e-09	-5.469539e+01	-3.228297e+02
3.400000e-07	-7.603555e-06	-4.993604e-09	-5.455584e+01	-3.228836e+02
3.500000e-07	-7.583738e-06	-5.080035e-09	-5.441365e+01	-3.228794e+02
3.600000e-07	-7.563464e-06	-4.944655e-09	-5.426818e+01	-3.228149e+02
3.700000e-07	-7.542706e-06	-4.937131e-09	-5.411924e+01	-3.226888e+02
3.800000e-07	-7.521538e-06	-5.013452e-09	-5.396736e+01	-3.225010e+02
3.900000e-07	-7.499891e-06	-4.995446e-09	-5.381204e+01	-3.222523e+02
4.000000e-07	-7.477625e-06	-4.897440e-09	-5.365229e+01	-3.219446e+02
4.100000e-07	-7.454746e-06	-4.947418e-09	-5.348812e+01	-3.215810e+02
4.200000e-07	-7.431345e-06	-4.995390e-09	-5.332023e+01	-3.211652e+02
4.300000e-07	-7.407542e-06	-4.956326e-09	-5.314943e+01	-3.207021e+02
4.400000e-07	-7.383273e-06	-4.905948e-09	-5.297531e+01	-3.201970e+02
4.500000e-07	-7.358447e-06	-4.962346e-09	-5.279718e+01	-3.196560e+02
4.600000e-07	-7.333014e-06	-4.987300e-09	-5.261470e+01	-3.190855e+02
4.700000e-07	-7.306794e-06	-4.904170e-09	-5.242656e+01	-3.184922e+02
4.800000e-07	-7.279884e-06	-4.902280e-09	-5.223349e+01	-3.178830e+02
4.900000e-07	-7.252506e-06	-4.967591e-09	-5.203705e+01	-3.172646e+02
5.000000e-07	-7.224640e-06	-4.915298e-09	-5.183711e+01	-3.166436e+02
5.100000e-07	-7.196330e-06	-4.861012e-09	-5.163398e+01	-3.160263e+02
5.200000e-07	-7.167619e-06	-4.928343e-09	-5.142798e+01	-3.154183e+02
5.300000e-07	-7.138402e-06	-4.916822e-09	-5.121834e+01	-3.148245e+02
5.400000e-07	-7.108640e-06	-4.861441e-09	-5.100480e+01	-3.142494e+02
5.500000e-07	-7.078452e-06	-4.879034e-09	-5.078820e+01	-3.136961e+02
5.600000e-07	-7.047868e-06	-4.898095e-09	-5.056876e+01	-3.131673e+02
5.700000e-07	-7.016764e-06	-4.849501e-09	-5.034558e+01	-3.126644e+02
5.800000e-07	-6.985181e-06	-4.855401e-09	-5.011898e+01	-3.121879e+02
5.900000e-07	-6.953238e-06	-4.862064e-09	-4.988979e+01	-3.117373e+02
6.000000e-07	-6.920859e-06	-4.842417e-09	-4.965746e+01	-3.113112e+02
6.100000e-07	-6.887876e-06	-4.821938e-09	-4.942081e+01	-3.109072e+02
6.200000e-07	-6.854134e-06	-4.832599e-09	-4.917871e+01	-3.105222e+02
6.300000e-07	-6.819649e-06	-4.829098e-09	-4.893128e+01	-3.101524e+02
6.400000e-07	-6.784644e-06	-4.822135e-09	-4.868012e+01	-3.097934e+02
6.500000e-07	-6.749221e-06	-4.800401e-09	-4.842596e+01	-3.094402e+02
6.600000e-07	-6.713400e-06	-4.796904e-09	-4.816893e+01	-3.090878e+02
6.700000e-07	-6.677182e-06	-4.796039e-09	-4.790907e+01	-3.087308e+02
6.800000e-07	-6.640572e-06	-4.776840e-09	-4.764639e+01	-3.083640e+02
6.900000e-07	-6.603481e-06	-4.755152e-09	-4.738026e+01	-3.079821e+02
7.000000e-07	-6.565846e-06	-4.761319e-09	-4.711023e+01	-3.075804e+02
7.100000e-07	-6.527756e-06	-4.752270e-09	-4.683693e+01	-3.071545e+02
7.200000e-07	-6.489227e-06	-4.733279e-09	-4.656049e+01	-3.067005e+02
7.300000e-07	-6.450269e-06	-4.734045e-09	-4.628096e+01	-3.062152e+02
7.400000e-07	-6.410929e-06	-4.727236e-09	-4.599870e+01	-3.056963e+02
7.500000e-07	-6.371258e-06	-4.702216e-09	-4.571406e+01	-3.051420e+02
7.600000e-07	-6.331261e-06	-4.692821e-09	-4.542707e+01	-3.045515e+02
7.700000e-07	-6.290887e-06	-4.696036e-09	-4.513739e+01	-3.039248e+02
7.800000e-07	-6.249961e-06	-4.676516e-09	-4.484374e+01	-3.032628e+02
7.900000e-07	-6.208286e-06	-4.657430e-09	-4.454472e+01	-3.025670e+02
8.000000e-07	-6.165979e-06	-4.652690e-09	-4.424117e+01	-3.018398e+02
8.100000e-07	-6.123107e-06	-4.650249e-09	-4.393356e+01	-3.010840e+02
8.200000e-07	-6.079688e-06	-4.636739e-09	-4.362203e+01	-3.003031e+02
8.300000e-07	-6.035841e-06	-4.627506e-09	-4.330742e+01	-2.995009e+02
8.400000e-07	-5.991617e-06	-4.617933e-09	-4.299011e+01	-2.986814e+02
8.500000e-07	-5.947055e-06	-4.608755e-09	-4.267038e+01	-2.978490e+02
8.600000e-07	-5.902131e-06	-4.594307e-09	-4.234804e+01	-2.970076e+02
8.700000e-07	-5.856786e-06	-4.585895e-09	-4.202269e+01	-2.961615e+02
8.800000e-07	-5.811085e-06	-4.572573e-09	-4.169479e+01	-2.953143e+02
8.900000e-07	-5.765062e-06	-4.558779e-09	-4.136457e+01	-2.944693e+02
9.000000e-07	-5.718567e-06	-4.544075e-09	-4.103097e+01	-2.936294e+02
9.100000e-07	-5.671632e-06	-4.537630e-09	-4.069421e+01	-2.927968e+02
9.200000e-07	-5.624272e-06	-4.522015e-09	-4.035440e+01	-2.919730e+02
9.300000e-07	-5.576563e-06	-4.502118e-09	-4.001208e+01	-2.911587e+02
9.400000e-07	-5.528493e-06	-4.486928e-09	-3.966718e+01	-2.903540e+02
9.500000e-07	-5.479871e-06	-4.478768e-09	-3.931831e+01	-2.895582e+02
9.600000e-07	-5.430686e-06	-4.463877e-09	-3.896541e+01	-2.887698e+02
9.700000e-07	-5.381007e-06	-4.445593e-09	-3.860896e+01	-2.879866e+02
9.800000e-07	-5.330823e-06	-4.430870e-09	-3.824889e+01	-2.872057e+02
9.900000e-07	-5.279973e-06	-4.418893e-09	-3.788403e+01	-2.864240e+02
1.000000e-06	-5.228583e-06	-4.404874e-09	-3.751531e+01	-2.856376e+02
1.010000e-06	-5.176900e-06	-4.391564e-09	-3.714448e+01	-2.848425e+02
1.020000e-06	-5.124786e-06	-4.378532e-09	-3.677056e+01	-2.840344e+02
1.030000e-06	-5.072257e-06	-4.363116e-09	-3.639367e+01	-2.832089e+02
1.040000e-06	-5.019498e-06	-4.350632e-09	-3.601512e+01	-2.823620e+02
1.050000e-06	-4.966405e-06	-4.342185e-09	-3.563417e+01	-2.814896e+02
1.060000e-06	-4.912878e-06	-4.328790e-09	-3.525011e+01	-2.805881e+02
1.070000e-06	-4.858955e-06	-4.307106e-09	-3.486321e+01	-2.796542e+02
1.080000e-06	-4.804642e-06	-4.288931e-09	-3.447351e+01	-2.786855e+02
1.090000e-06	-4.749978e-06	-4.274906e-09	-3.408130e+01	-2.776798e+02
1.100000e-06	-4.695064e-06	-4.259486e-09	-3.368729e+01	-2.766359e+02
1.110000e-06	-4.639909e-06	-4.238137e-09	-3.329155e+01	-2.755534e+02
1.120000e-06	-4.584434e-06	-4.221324e-09	-3.289352e+01	-2.744323e+02
1.130000e-06	-4.528705e-06	-4.206297e-09	-3.249365e+01	-2.732737e+02
1.140000e-06	-4.472776e-06	-4.190800e-09	-3.209236e+01	-2.720792e+02
1.150000e-06	-4.416568e-06	-4.173108e-09	-3.168906e+01	-2.708511e+02
1.160000e-06	-4.360019e-06	-4.155626e-09	-3.128333e+01	-2.695922e+02
1.170000e-06	-4.303087e-06	-4.134070e-09	-3.087484e+01	-2.683059e+02
1.180000e-06	-4.245882e-06	-4.114660e-09	-3.046439e+01	-2.669957e+02
1.190000e-06	-4.188394e-06	-4.094913e-09	-3.005191e+01	-2.656655e+02
1.200000e-06	-4.130365e-06	-4.073633e-09	-2.963554e+01	-2.643192e+02
1.210000e-06	-4.071884e-06	-4.049697e-09	-2.921595e+01	-2.629605e+02
1.220000e-06	-4.013056e-06	-4.031487e-09	-2.879385e+01	-2.615931e+02
1.230000e-06	-3.953845e-06	-4.014867e-09	-2.836901e+01	-2.602200e+02
1.240000e-06	-3.894301e-06	-3.993010e-09	-2.794178e+01	-2.588440e+02
1.250000e-06	-3.834459e-06	-3.970462e-09	-2.751241e+01	-2.574671e+02
1.260000e-06	-3.774429e-06	-3.951451e-09	-2.708169e+01	-2.560907e+02
1.270000e-06	-3.714193e-06	-3.930558e-09	-2.664950e+01	-2.547153e+02
1.280000e-06	-3.653727e-06	-3.905232e-09	-2.621565e+01	-2.533406e+02
1.290000e-06	-3.593123e-06	-3.877453e-09	-2.578081e+01	-2.519655e+02
1.300000e-06	-3.532398e-06	-3.851214e-09	-2.534511e+01	-2.505879e+02
1.310000e-06	-3.471479e-06	-3.827504e-09	-2.490801e+01	-2.492050e+02
1.320000e-06	-3.410270e-06	-3.804733e-09	-2.446884e+01	-2.478130e+02
1.330000e-06	-3.348806e-06	-3.782096e-09	-2.402783e+01	-2.464076e+02
1.340000e-06	-3.287105e-06	-3.759646e-09	-2.358512e+01	-2.449839e+02
1.350000e-06	-3.225174e-06	-3.739647e-09	-2.314077e+01	-2.435363e+02
1.360000e-06	-3.163024e-06	-3.717335e-09	-2.269483e+01	-2.420591e+02
1.370000e-06	-3.100602e-06	-3.688693e-09	-2.224695e+01	-2.405464e+02
1.380000e-06	-3.037985e-06	-3.654811e-09	-2.179767e+01	-2.389921e+02
1.390000e-06	-2.975237e-06	-3.624603e-09	-2.134745e+01	-2.373904e+02
1.400000e-06	-2.912295e-06	-3.597963e-09	-2.089584e+01	-2.357357e+02
1.410000e-06	-2.849145e-06	-3.570522e-09	-2.044274e+01	-2.340229e+02
1.420000e-06	-2.785888e-06	-3.540787e-09	-1.998886e+01	-2.322475e+02
1.430000e-06	-2.722492e-06	-3.516316e-09	-1.953400e+01	-2.304058e+02
1.440000e-06	-2.658828e-06	-3.492986e-09	-1.907721e+01	-2.284945e+02
1.450000e-06	-2.594985e-06	-3.466030e-09	-1.861913e+01	-2.265117e+02
1.460000e-06	-2.531008e-06	-3.434234e-09	-1.816009e+01	-2.244560e+02
1.470000e-06	-2.466880e-06	-3.399623e-09	-1.769997e+01	-2.223270e+02
1.480000e-06	-2.402558e-06	-3.363568e-09	-1.723846e+01	-2.201253e+02
1.490000e-06	-2.338024e-06	-3.329335e-09	-1.677543e+01	-2.178521e+02
1.500000e-06	-2.273327e-06	-3.294512e-09	-1.631122e+01	-2.155095e+02
1.510000e-06	-2.208401e-06	-3.258830e-09	-1.584537e+01	-2.131000e+02
1.520000e-06	-2.143310e-06	-3.226158e-09	-1.537834e+01	-2.106267e+02
1.530000e-06	-2.078070e-06	-3.192865e-09	-1.491024e+01	-2.080928e+02
1.540000e-06	-2.012579e-06	-3.154938e-09	-1.444034e+01	-2.055016e+02
1.550000e-06	-1.946923e-06	-3.115705e-09	-1.396926e+01	-2.028562e+02
1.560000e-06	-1.881214e-06	-3.074080e-09	-1.349780e+01	-2.001594e+02
1.570000e-06	-1.815444e-06	-3.029906e-09	-1.302589e+01	-1.974133e+02
1.580000e-06	-1.749534e-06	-2.988121e-09	-1.255298e+01	-1.946191e+02
1.590000e-06	-1.683455e-06	-2.946035e-09	-1.207886e+01	-1.917771e+02
1.600000e-06	-1.617228e-06	-2.901173e-09	-1.160368e+01	-1.888861e+02
1.610000e-06	-1.550839e-06	-2.854306e-09	-1.112733e+01	-1.859439e+02
1.620000e-06	-1.484250e-06	-2.806293e-09	-1.064956e+01	-1.829463e+02
1.630000e-06	-1.417496e-06	-2.756685e-09	-1.017059e+01	-1.798878e+02
1.640000e-06	-1.350600e-06	-2.706363e-09	-9.690616e+00	-1.767612e+02
1.650000e-06	-1.283570e-06	-2.656954e-09	-9.209667e+00	-1.735573e+02
1.660000e-06	-1.216432e-06	-2.607658e-09	-8.727951e+00	-1.702657e+02
1.670000e-06	-1.149187e-06	-2.557000e-09	-8.245464e+00	-1.668741e+02
1.680000e-06	-1.081914e-06	-2.504128e-09	-7.762782e+00	-1.633688e+02
1.690000e-06	-1.014617e-06	-2.446912e-09	-7.279924e+00	-1.597350e+02
1.700000e-06	-9.472215e-07	-2.384482e-09	-6.796355e+00	-1.559567e+02
1.710000e-06	-8.797292e-07	-2.321182e-09	-6.312095e+00	-1.520174e+02
1.720000e-06	-8.121712e-07	-2.256825e-09	-5.827364e+00	-1.478998e+02
1.730000e-06	-7.446011e-07	-2.186944e-09	-5.342545e+00	-1.435868e+02
1.740000e-06	-6.770408e-07	-2.112644e-09	-4.857797e+00	-1.390614e+02
1.750000e-06	-6.094160e-07	-2.037260e-09	-4.372586e+00	-1.343072e+02
1.760000e-06	-5.417107e-07	-1.962209e-09	-3.886798e+00	-1.293088e+02
1.770000e-06	-4.739425e-07	-1.885497e-09	-3.400558e+00	-1.240524e+02
1.780000e-06	-4.061499e-07	-1.804190e-09	-2.914143e+00	-1.185257e+02
1.790000e-06	-3.383511e-07	-1.716501e-09	-2.427683e+00	-1.127186e+02
1.800000e-06	-2.705729e-07	-1.625896e-09	-1.941372e+00	-1.066235e+02
1.810000e-06	-2.027602e-07	-1.534375e-09	-1.454813e+00	-1.002354e+02
1.820000e-06	-1.348834e-07	-1.437361e-09	-9.677941e-01	-9.355230e+01
1.830000e-06	-6.702882e-08	-1.332668e-09	-4.809347e-01	-8.657550e+01
1.840000e-06	8.404479e-10	-1.224048e-09	6.030250e-03	-7.930947e+01
1.850000e-06	6.869897e-08	-1.113005e-09	4.929181e-01	-7.176216e+01
1.860000e-06	1.365852e-07	-9.975496e-10	9.800048e-01	-6.394490e+01
1.870000e-06	2.044622e-07	-8.763331e-10	1.467025e+00	-5.587244e+01
1.880000e-06	2.722874e-07	-7.493391e-10	1.953674e+00	-4.756280e+01
1.890000e-06	3.401920e-07	-6.193407e-10	2.440892e+00	-3.903712e+01
1.900000e-06	4.080808e-07	-4.871703e-10	2.927997e+00	-3.031944e+01
1.910000e-06	4.759961e-07	-3.521392e-10	3.415292e+00	-2.143640e+01
1.920000e-06	5.439387e-07	-2.124357e-10	3.902784e+00	-1.241695e+01
1.930000e-06	6.117967e-07	-6.747075e-11	4.389668e+00	-3.291927e+00
1.940000e-06	6.796114e-07	7.739209e-11	4.876242e+00	5.906306e+00
1.950000e-06	7.472789e-07	2.219199e-10	5.361759e+00	1.514433e+01
1.960000e-06	8.147705e-07	3.690416e-10	5.846014e+00	2.438814e+01
1.970000e-06	8.821520e-07	5.166629e-10	6.329479e+00	3.360354e+01
1.980000e-06	9.493782e-07	6.615035e-10	6.811830e+00	4.275673e+01
1.990000e-06	1.016486e-06	8.057238e-10	7.293329e+00	5.181466e+01
2.000000e-06	1.083597e-06	9.485724e-10	7.774855e+00	6.074551e+01
2.010000e-06	1.150693e-06	1.086092e-09	8.256271e+00	6.951915e+01
2.020000e-06	1.217659e-06	1.219173e-09	8.736754e+00	7.810745e+01
2.030000e-06	1.284528e-06	1.349314e-09	9.216545e+00	8.648469e+01
2.040000e-06	1.351387e-06	1.474415e-09	9.696264e+00	9.462779e+01
2.050000e-06	1.418186e-06	1.593349e-09	1.017555e+01	1.025166e+02
2.060000e-06	1.484845e-06	1.705992e-09	1.065383e+01	1.101341e+02
2.070000e-06	1.551342e-06	1.813394e-09	1.113095e+01	1.174666e+02
2.080000e-06	1.617795e-06	1.916748e-09	1.160775e+01	1.245034e+02
2.090000e-06	1.684124e-06	2.013969e-09	1.208366e+01	1.312374e+02
2.100000e-06	1.750214e-06	2.103786e-09	1.255786e+01	1.376648e+02
2.110000e-06	1.816168e-06	2.189588e-09	1.303109e+01	1.437848e+02
2.120000e-06	1.881989e-06	2.274072e-09	1.350335e+01	1.495996e+02
2.130000e-06	1.947605e-06	2.353252e-09	1.397415e+01	1.551144e+02
2.140000e-06	2.012972e-06	2.427653e-09	1.444316e+01	1.603367e+02
2.150000e-06	2.078144e-06	2.497127e-09	1.491078e+01	1.652766e+02
2.160000e-06	2.143248e-06	2.562059e-09	1.537789e+01	1.699460e+02
2.170000e-06	2.208283e-06	2.626695e-09	1.584453e+01	1.743584e+02
2.180000e-06	2.273154e-06	2.691624e-09	1.630998e+01	1.785288e+02
2.190000e-06	2.337811e-06	2.752468e-09	1.677389e+01	1.824730e+02
2.200000e-06	2.402255e-06	2.808572e-09	1.723628e+01	1.862077e+02
2.210000e-06	2.466491e-06	2.862764e-09	1.769718e+01	1.897496e+02
2.220000e-06	2.530546e-06	2.913714e-09	1.815678e+01	1.931156e+02
2.230000e-06	2.594405e-06	2.961186e-09	1.861497e+01	1.963224e+02
2.240000e-06	2.657992e-06	3.005909e-09	1.907121e+01	1.993858e+02
2.250000e-06	2.721397e-06	3.046530e-09	1.952614e+01	2.023211e+02
2.260000e-06	2.784675e-06	3.085927e-09	1.998017e+01	2.051425e+02
2.270000e-06	2.847755e-06	3.127093e-09	2.043276e+01	2.078630e+02
2.280000e-06	2.910659e-06	3.166143e-09	2.088410e+01	2.104945e+02
2.290000e-06	2.973422e-06	3.202139e-09	2.133443e+01	2.130474e+02
2.300000e-06	3.036030e-06	3.237790e-09	2.178365e+01	2.155306e+02
2.310000e-06	3.098516e-06	3.275370e-09	2.223199e+01	2.179518e+02
2.320000e-06	3.160876e-06	3.311081e-09	2.267942e+01	2.203172e+02
2.330000e-06	3.222981e-06	3.344989e-09	2.312503e+01	2.226316e+02
2.340000e-06	3.284838e-06	3.377580e-09	2.356886e+01	2.248986e+02
2.350000e-06	3.346462e-06	3.408947e-09	2.401101e+01	2.271207e+02
2.360000e-06	3.407730e-06	3.437711e-09	2.445061e+01	2.292994e+02
2.370000e-06	3.468733e-06	3.464507e-09	2.488831e+01	2.314352e+02
2.380000e-06	3.529549e-06	3.492003e-09	2.532467e+01	2.335281e+02
2.390000e-06	3.590171e-06	3.521607e-09	2.575963e+01	2.355774e+02
2.400000e-06	3.650692e-06	3.550257e-09	2.619387e+01	2.375819e+02
2.410000e-06	3.711029e-06	3.575080e-09	2.662680e+01	2.395403e+02
2.420000e-06	3.771054e-06	3.599052e-09	2.705748e+01	2.414513e+02
2.430000e-06	3.830746e-06	3.624167e-09	2.748577e+01	2.433133e+02
2.440000e-06	3.890213e-06	3.649532e-09	2.791245e+01	2.451252e+02
2.450000e-06	3.949477e-06	3.674083e-09	2.833767e+01	2.468860e+02
2.460000e-06	4.008415e-06	3.696036e-09	2.876055e+01	2.485949e+02
2.470000e-06	4.067060e-06	3.716428e-09	2.918133e+01	2.502519e+02
2.480000e-06	4.125365e-06	3.737638e-09	2.959967e+01	2.518570e+02
2.490000e-06	4.183255e-06	3.758237e-09	3.001504e+01	2.534110e+02
2.500000e-06	4.240821e-06	3.777795e-09	3.042807e+01	2.549150e+02
2.510000e-06	4.298056e-06	3.796383e-09	3.083874e+01	2.563706e+02
2.520000e-06	4.354883e-06	3.814709e-09	3.124648e+01	2.577799e+02
2.530000e-06	4.411200e-06	3.835584e-09	3.165055e+01	2.591454e+02
2.540000e-06	4.467139e-06	3.856869e-09	3.205191e+01	2.604696e+02
2.550000e-06	4.522806e-06	3.875250e-09	3.245133e+01	2.617558e+02
2.560000e-06	4.578173e-06	3.892609e-09	3.284859e+01	2.630070e+02
2.570000e-06	4.633278e-06	3.909641e-09	3.324397e+01	2.642267e+02
2.580000e-06	4.688132e-06	3.927979e-09	3.363755e+01	2.654181e+02
2.590000e-06	4.742774e-06	3.947069e-09	3.402961e+01	2.665845e+02
2.600000e-06	4.797085e-06	3.967053e-09	3.441929e+01	2.677291e+02
2.610000e-06	4.851031e-06	3.986326e-09	3.480636e+01	2.688549e+02
2.620000e-06	4.904657e-06	4.006651e-09	3.519113e+01	2.699645e+02
2.630000e-06	4.957919e-06	4.027778e-09	3.557329e+01	2.710604e+02
2.640000e-06	5.010807e-06	4.047425e-09	3.595276e+01	2.721447e+02
2.650000e-06	5.063356e-06	4.065072e-09	3.632980e+01	2.732190e+02
2.660000e-06	5.115539e-06	4.082521e-09	3.670421e+01	2.742847e+02
2.670000e-06	5.167270e-06	4.098511e-09	3.707539e+01	2.753426e+02
2.680000e-06	5.218491e-06	4.112541e-09	3.744290e+01	2.763932e+02
2.690000e-06	5.269161e-06	4.128289e-09	3.780646e+01	2.774367e+02
2.700000e-06	5.319305e-06	4.145335e-09	3.816625e+01	2.784728e+02
2.710000e-06	5.368999e-06	4.159972e-09	3.852280e+01	2.795011e+02
2.720000e-06	5.418240e-06	4.173187e-09	3.887611e+01	2.805206e+02
2.730000e-06	5.467023e-06	4.186728e-09	3.922613e+01	2.815305e+02
2.740000e-06	5.515338e-06	4.201811e-09	3.957279e+01	2.825294e+02
2.750000e-06	5.563182e-06	4.216091e-09	3.991607e+01	2.835161e+02
2.760000e-06	5.610655e-06	4.227827e-09	4.025670e+01	2.844892e+02
2.770000e-06	5.657766e-06	4.238725e-09	4.059472e+01	2.854473e+02
2.780000e-06	5.704537e-06	4.253075e-09	4.093030e+01	2.863889e+02
2.790000e-06	5.750936e-06	4.270248e-09	4.126321e+01	2.873129e+02
2.800000e-06	5.796774e-06	4.284521e-09	4.159211e+01	2.882181e+02
2.810000e-06	5.842151e-06	4.296230e-09	4.191769e+01	2.891035e+02
2.820000e-06	5.887229e-06	4.308588e-09	4.224112e+01	2.899683e+02
2.830000e-06	5.932016e-06	4.324036e-09	4.256247e+01	2.908120e+02
2.840000e-06	5.976505e-06	4.337994e-09	4.288168e+01	2.916341e+02
2.850000e-06	6.020594e-06	4.348240e-09	4.319803e+01	2.924345e+02
2.860000e-06	6.064345e-06	4.358038e-09	4.351194e+01	2.932134e+02
2.870000e-06	6.107826e-06	4.370748e-09	4.382392e+01	2.939710e+02
2.880000e-06	6.150897e-06	4.382323e-09	4.413295e+01	2.947080e+02
2.890000e-06	6.193385e-06	4.393042e-09	4.443781e+01	2.954251e+02
2.900000e-06	6.235293e-06	4.407377e-09	4.473850e+01	2.961231e+02
