# Temperatura_=_20.0
# Concentracion g/m^3_=_12600.0
# C_Vs_to_Am_M_A/Vsm_=_65563218390.804596
# pendiente_HvsI_1/m_=_3716.3
# ordenada_HvsI_A/m_=_1297.0
# frecuencia_Hz_=_135139.59559466667

Tiempo_(s)	Campo_(V.s)	Magnetizacion_(V.s)	Campo_(kA/m)	Magnetizacion_(A/m)
0.000000e+00	-5.178274e-06	-5.373755e-09	-3.845190e+01	-3.534810e+02
1.000000e-08	-5.178523e-06	-5.371849e-09	-3.845375e+01	-3.535041e+02
2.000000e-08	-5.178609e-06	-5.371839e-09	-3.845439e+01	-3.534601e+02
3.000000e-08	-5.178458e-06	-5.372272e-09	-3.845327e+01	-3.533472e+02
4.000000e-08	-5.177928e-06	-5.370136e-09	-3.844933e+01	-3.531650e+02
5.000000e-08	-5.176957e-06	-5.365423e-09	-3.844212e+01	-3.529151e+02
6.000000e-08	-5.175359e-06	-5.360637e-09	-3.843025e+01	-3.526003e+02
7.000000e-08	-5.173180e-06	-5.362599e-09	-3.841407e+01	-3.522257e+02
8.000000e-08	-5.170463e-06	-5.345348e-09	-3.839390e+01	-3.517977e+02
9.000000e-08	-5.167216e-06	-5.351095e-09	-3.836979e+01	-3.513246e+02
1.000000e-07	-5.163551e-06	-5.391809e-09	-3.834257e+01	-3.508160e+02
1.100000e-07	-5.159560e-06	-5.407092e-09	-3.831294e+01	-3.502828e+02
1.200000e-07	-5.155354e-06	-5.323776e-09	-3.828170e+01	-3.497371e+02
1.300000e-07	-5.151000e-06	-5.290407e-09	-3.824937e+01	-3.491917e+02
1.400000e-07	-5.146272e-06	-5.274666e-09	-3.821426e+01	-3.486601e+02
1.500000e-07	-5.141096e-06	-5.331930e-09	-3.817583e+01	-3.481558e+02
1.600000e-07	-5.135599e-06	-5.255962e-09	-3.813501e+01	-3.476925e+02
1.700000e-07	-5.129733e-06	-5.279080e-09	-3.809145e+01	-3.472831e+02
1.800000e-07	-5.123553e-06	-5.339143e-09	-3.804556e+01	-3.469400e+02
1.900000e-07	-5.117001e-06	-5.351405e-09	-3.799691e+01	-3.466745e+02
2.000000e-07	-5.110219e-06	-5.334133e-09	-3.794655e+01	-3.464964e+02
2.100000e-07	-5.103264e-06	-5.300145e-09	-3.789490e+01	-3.464138e+02
2.200000e-07	-5.095962e-06	-5.405913e-09	-3.784068e+01	-3.464331e+02
2.300000e-07	-5.088283e-06	-5.337494e-09	-3.778366e+01	-3.465582e+02
2.400000e-07	-5.080218e-06	-5.251403e-09	-3.772377e+01	-3.467913e+02
2.500000e-07	-5.071834e-06	-5.187879e-09	-3.766152e+01	-3.471316e+02
2.600000e-07	-5.062975e-06	-5.237447e-09	-3.759573e+01	-3.475765e+02
2.700000e-07	-5.053428e-06	-5.128612e-09	-3.752484e+01	-3.481207e+02
2.800000e-07	-5.043434e-06	-5.107024e-09	-3.745063e+01	-3.487565e+02
2.900000e-07	-5.033021e-06	-5.243352e-09	-3.737330e+01	-3.494742e+02
3.000000e-07	-5.022066e-06	-5.342354e-09	-3.729196e+01	-3.502621e+02
3.100000e-07	-5.010726e-06	-5.306688e-09	-3.720775e+01	-3.511067e+02
3.200000e-07	-4.999015e-06	-5.410563e-09	-3.712079e+01	-3.519930e+02
3.300000e-07	-4.986943e-06	-5.557434e-09	-3.703115e+01	-3.529048e+02
3.400000e-07	-4.974565e-06	-5.587089e-09	-3.693923e+01	-3.538251e+02
3.500000e-07	-4.961726e-06	-5.591422e-09	-3.684390e+01	-3.547365e+02
3.600000e-07	-4.948410e-06	-5.645051e-09	-3.674502e+01	-3.556214e+02
3.700000e-07	-4.934761e-06	-5.574087e-09	-3.664366e+01	-3.564625e+02
3.800000e-07	-4.920806e-06	-5.558264e-09	-3.654004e+01	-3.572433e+02
3.900000e-07	-4.906462e-06	-5.647793e-09	-3.643352e+01	-3.579482e+02
4.000000e-07	-4.891572e-06	-5.572534e-09	-3.632296e+01	-3.585630e+02
4.100000e-07	-4.876042e-06	-5.462145e-09	-3.620764e+01	-3.590750e+02
4.200000e-07	-4.859966e-06	-5.495512e-09	-3.608826e+01	-3.594737e+02
4.300000e-07	-4.843496e-06	-5.582557e-09	-3.596596e+01	-3.597505e+02
4.400000e-07	-4.826722e-06	-5.512947e-09	-3.584141e+01	-3.598991e+02
4.500000e-07	-4.809635e-06	-5.481427e-09	-3.571453e+01	-3.599155e+02
4.600000e-07	-4.792233e-06	-5.461477e-09	-3.558530e+01	-3.597982e+02
4.700000e-07	-4.774639e-06	-5.465446e-09	-3.545466e+01	-3.595481e+02
4.800000e-07	-4.756812e-06	-5.470203e-09	-3.532228e+01	-3.591683e+02
4.900000e-07	-4.738601e-06	-5.495143e-09	-3.518705e+01	-3.586642e+02
5.000000e-07	-4.719918e-06	-5.406665e-09	-3.504832e+01	-3.580432e+02
5.100000e-07	-4.700861e-06	-5.361981e-09	-3.490681e+01	-3.573144e+02
5.200000e-07	-4.681488e-06	-5.407179e-09	-3.476296e+01	-3.564885e+02
5.300000e-07	-4.661881e-06	-5.453382e-09	-3.461736e+01	-3.555774e+02
5.400000e-07	-4.642141e-06	-5.390131e-09	-3.447078e+01	-3.545938e+02
5.500000e-07	-4.622192e-06	-5.331854e-09	-3.432264e+01	-3.535510e+02
5.600000e-07	-4.602034e-06	-5.330783e-09	-3.417296e+01	-3.524627e+02
5.700000e-07	-4.581585e-06	-5.378373e-09	-3.402111e+01	-3.513424e+02
5.800000e-07	-4.560821e-06	-5.375035e-09	-3.386693e+01	-3.502029e+02
5.900000e-07	-4.539691e-06	-5.304777e-09	-3.371002e+01	-3.490567e+02
6.000000e-07	-4.518189e-06	-5.267803e-09	-3.355036e+01	-3.479149e+02
6.100000e-07	-4.496541e-06	-5.306564e-09	-3.338960e+01	-3.467876e+02
6.200000e-07	-4.474669e-06	-5.310237e-09	-3.322719e+01	-3.456832e+02
6.300000e-07	-4.452395e-06	-5.249590e-09	-3.306180e+01	-3.446087e+02
6.400000e-07	-4.429682e-06	-5.227280e-09	-3.289313e+01	-3.435693e+02
6.500000e-07	-4.406615e-06	-5.239817e-09	-3.272185e+01	-3.425682e+02
6.600000e-07	-4.383250e-06	-5.233840e-09	-3.254835e+01	-3.416070e+02
6.700000e-07	-4.359669e-06	-5.202670e-09	-3.237325e+01	-3.406856e+02
6.800000e-07	-4.335970e-06	-5.189212e-09	-3.219727e+01	-3.398020e+02
6.900000e-07	-4.312069e-06	-5.179062e-09	-3.201978e+01	-3.389529e+02
7.000000e-07	-4.287845e-06	-5.170275e-09	-3.183991e+01	-3.381333e+02
7.100000e-07	-4.263191e-06	-5.138280e-09	-3.165684e+01	-3.373374e+02
7.200000e-07	-4.238270e-06	-5.115541e-09	-3.147178e+01	-3.365582e+02
7.300000e-07	-4.213008e-06	-5.114830e-09	-3.128420e+01	-3.357881e+02
7.400000e-07	-4.187120e-06	-5.118205e-09	-3.109196e+01	-3.350188e+02
7.500000e-07	-4.160758e-06	-5.072644e-09	-3.089621e+01	-3.342422e+02
7.600000e-07	-4.133972e-06	-5.036764e-09	-3.069731e+01	-3.334501e+02
7.700000e-07	-4.106750e-06	-5.042398e-09	-3.049517e+01	-3.326346e+02
7.800000e-07	-4.079278e-06	-5.057388e-09	-3.029117e+01	-3.317882e+02
7.900000e-07	-4.051619e-06	-5.017280e-09	-3.008578e+01	-3.309045e+02
8.000000e-07	-4.023761e-06	-4.966091e-09	-2.987892e+01	-3.299777e+02
8.100000e-07	-3.995696e-06	-4.961855e-09	-2.967052e+01	-3.290033e+02
8.200000e-07	-3.967394e-06	-4.990989e-09	-2.946036e+01	-3.279778e+02
8.300000e-07	-3.938801e-06	-4.969164e-09	-2.924804e+01	-3.268991e+02
8.400000e-07	-3.909923e-06	-4.907334e-09	-2.903361e+01	-3.257661e+02
8.500000e-07	-3.880772e-06	-4.874075e-09	-2.881714e+01	-3.245793e+02
8.600000e-07	-3.851337e-06	-4.889591e-09	-2.859857e+01	-3.233402e+02
8.700000e-07	-3.821708e-06	-4.890888e-09	-2.837855e+01	-3.220514e+02
8.800000e-07	-3.791869e-06	-4.846337e-09	-2.815698e+01	-3.207165e+02
8.900000e-07	-3.761760e-06	-4.796194e-09	-2.793340e+01	-3.193400e+02
9.000000e-07	-3.731377e-06	-4.788696e-09	-2.770779e+01	-3.179270e+02
9.100000e-07	-3.700776e-06	-4.800919e-09	-2.748056e+01	-3.164832e+02
9.200000e-07	-3.669950e-06	-4.774591e-09	-2.725166e+01	-3.150145e+02
9.300000e-07	-3.638857e-06	-4.725186e-09	-2.702077e+01	-3.135269e+02
9.400000e-07	-3.607591e-06	-4.699811e-09	-2.678860e+01	-3.120264e+02
9.500000e-07	-3.576147e-06	-4.700672e-09	-2.655511e+01	-3.105186e+02
9.600000e-07	-3.544500e-06	-4.682437e-09	-2.632011e+01	-3.090088e+02
9.700000e-07	-3.512669e-06	-4.644183e-09	-2.608375e+01	-3.075014e+02
9.800000e-07	-3.480698e-06	-4.614851e-09	-2.584634e+01	-3.060003e+02
9.900000e-07	-3.448536e-06	-4.603139e-09	-2.560752e+01	-3.045086e+02
1.000000e-06	-3.416116e-06	-4.583189e-09	-2.536678e+01	-3.030282e+02
1.010000e-06	-3.383404e-06	-4.554821e-09	-2.512387e+01	-3.015602e+02
1.020000e-06	-3.350295e-06	-4.531368e-09	-2.487802e+01	-3.001047e+02
1.030000e-06	-3.316806e-06	-4.514698e-09	-2.462934e+01	-2.986610e+02
1.040000e-06	-3.282940e-06	-4.487208e-09	-2.437787e+01	-2.972271e+02
1.050000e-06	-3.248719e-06	-4.456488e-09	-2.412376e+01	-2.958005e+02
1.060000e-06	-3.214140e-06	-4.435415e-09	-2.386698e+01	-2.943779e+02
1.070000e-06	-3.179234e-06	-4.422534e-09	-2.360778e+01	-2.929553e+02
1.080000e-06	-3.144043e-06	-4.393597e-09	-2.334647e+01	-2.915282e+02
1.090000e-06	-3.108528e-06	-4.354007e-09	-2.308275e+01	-2.900920e+02
1.100000e-06	-3.072888e-06	-4.328770e-09	-2.281810e+01	-2.886417e+02
1.110000e-06	-3.037185e-06	-4.322125e-09	-2.255299e+01	-2.871724e+02
1.120000e-06	-3.001354e-06	-4.302673e-09	-2.228692e+01	-2.856793e+02
1.130000e-06	-2.965391e-06	-4.259193e-09	-2.201987e+01	-2.841580e+02
1.140000e-06	-2.929297e-06	-4.220489e-09	-2.175185e+01	-2.826043e+02
1.150000e-06	-2.893031e-06	-4.208334e-09	-2.148255e+01	-2.810149e+02
1.160000e-06	-2.856476e-06	-4.197059e-09	-2.121111e+01	-2.793867e+02
1.170000e-06	-2.819695e-06	-4.161178e-09	-2.093799e+01	-2.777178e+02
1.180000e-06	-2.782715e-06	-4.114076e-09	-2.066339e+01	-2.760065e+02
1.190000e-06	-2.745515e-06	-4.086979e-09	-2.038715e+01	-2.742523e+02
1.200000e-06	-2.708145e-06	-4.078252e-09	-2.010965e+01	-2.724554e+02
1.210000e-06	-2.670577e-06	-4.055429e-09	-1.983069e+01	-2.706166e+02
1.220000e-06	-2.632780e-06	-4.010519e-09	-1.955002e+01	-2.687375e+02
1.230000e-06	-2.594899e-06	-3.971368e-09	-1.926874e+01	-2.668203e+02
1.240000e-06	-2.556845e-06	-3.953985e-09	-1.898616e+01	-2.648676e+02
1.250000e-06	-2.518529e-06	-3.935411e-09	-1.870164e+01	-2.628827e+02
1.260000e-06	-2.480070e-06	-3.901396e-09	-1.841606e+01	-2.608688e+02
1.270000e-06	-2.441450e-06	-3.863345e-09	-1.812928e+01	-2.588296e+02
1.280000e-06	-2.402669e-06	-3.834687e-09	-1.784131e+01	-2.567686e+02
1.290000e-06	-2.363717e-06	-3.811214e-09	-1.755207e+01	-2.546894e+02
1.300000e-06	-2.324555e-06	-3.783841e-09	-1.726126e+01	-2.525954e+02
1.310000e-06	-2.285278e-06	-3.748818e-09	-1.696961e+01	-2.504894e+02
1.320000e-06	-2.245923e-06	-3.714179e-09	-1.667737e+01	-2.483741e+02
1.330000e-06	-2.206371e-06	-3.683204e-09	-1.638367e+01	-2.462515e+02
1.340000e-06	-2.166713e-06	-3.653396e-09	-1.608918e+01	-2.441232e+02
1.350000e-06	-2.126979e-06	-3.619847e-09	-1.579414e+01	-2.419900e+02
1.360000e-06	-2.087145e-06	-3.584113e-09	-1.549835e+01	-2.398522e+02
1.370000e-06	-2.047218e-06	-3.545194e-09	-1.520187e+01	-2.377096e+02
1.380000e-06	-2.007167e-06	-3.507341e-09	-1.490446e+01	-2.355611e+02
1.390000e-06	-1.966974e-06	-3.472830e-09	-1.460600e+01	-2.334054e+02
1.400000e-06	-1.926697e-06	-3.441953e-09	-1.430692e+01	-2.312404e+02
1.410000e-06	-1.886328e-06	-3.409124e-09	-1.400716e+01	-2.290637e+02
1.420000e-06	-1.845871e-06	-3.369738e-09	-1.370674e+01	-2.268727e+02
1.430000e-06	-1.805279e-06	-3.328281e-09	-1.340532e+01	-2.246644e+02
1.440000e-06	-1.764553e-06	-3.298697e-09	-1.310290e+01	-2.224358e+02
1.450000e-06	-1.723740e-06	-3.272887e-09	-1.279984e+01	-2.201838e+02
1.460000e-06	-1.682618e-06	-3.237711e-09	-1.249448e+01	-2.179055e+02
1.470000e-06	-1.641251e-06	-3.193198e-09	-1.218731e+01	-2.155982e+02
1.480000e-06	-1.599749e-06	-3.153672e-09	-1.187913e+01	-2.132593e+02
1.490000e-06	-1.558114e-06	-3.123768e-09	-1.156996e+01	-2.108868e+02
1.500000e-06	-1.516199e-06	-3.089573e-09	-1.125872e+01	-2.084790e+02
1.510000e-06	-1.474019e-06	-3.045114e-09	-1.094551e+01	-2.060349e+02
1.520000e-06	-1.431752e-06	-3.001019e-09	-1.063165e+01	-2.035536e+02
1.530000e-06	-1.389338e-06	-2.970920e-09	-1.031669e+01	-2.010353e+02
1.540000e-06	-1.346758e-06	-2.944159e-09	-1.000052e+01	-1.984801e+02
1.550000e-06	-1.303971e-06	-2.907697e-09	-9.682797e+00	-1.958892e+02
1.560000e-06	-1.261058e-06	-2.859526e-09	-9.364135e+00	-1.932637e+02
1.570000e-06	-1.218100e-06	-2.811301e-09	-9.045146e+00	-1.906056e+02
1.580000e-06	-1.175017e-06	-2.770740e-09	-8.725233e+00	-1.879169e+02
1.590000e-06	-1.131786e-06	-2.734161e-09	-8.404214e+00	-1.851998e+02
1.600000e-06	-1.088445e-06	-2.694118e-09	-8.082376e+00	-1.824570e+02
1.610000e-06	-1.044973e-06	-2.651236e-09	-7.759572e+00	-1.796908e+02
1.620000e-06	-1.001440e-06	-2.607884e-09	-7.436315e+00	-1.769038e+02
1.630000e-06	-9.579474e-07	-2.567782e-09	-7.113354e+00	-1.740983e+02
1.640000e-06	-9.144277e-07	-2.529584e-09	-6.790193e+00	-1.712764e+02
1.650000e-06	-8.707806e-07	-2.489155e-09	-6.466086e+00	-1.684398e+02
1.660000e-06	-8.270243e-07	-2.439729e-09	-6.141168e+00	-1.655899e+02
1.670000e-06	-7.832781e-07	-2.391261e-09	-5.816326e+00	-1.627276e+02
1.680000e-06	-7.395563e-07	-2.350068e-09	-5.491664e+00	-1.598535e+02
1.690000e-06	-6.957955e-07	-2.311671e-09	-5.166713e+00	-1.569674e+02
1.700000e-06	-6.520233e-07	-2.267539e-09	-4.841678e+00	-1.540688e+02
1.710000e-06	-6.081925e-07	-2.216617e-09	-4.516207e+00	-1.511567e+02
1.720000e-06	-5.642789e-07	-2.170716e-09	-4.190121e+00	-1.482296e+02
1.730000e-06	-5.203751e-07	-2.132616e-09	-3.864108e+00	-1.452856e+02
1.740000e-06	-4.764654e-07	-2.090366e-09	-3.538051e+00	-1.423223e+02
1.750000e-06	-4.325535e-07	-2.037767e-09	-3.211978e+00	-1.393374e+02
1.760000e-06	-3.886448e-07	-1.985293e-09	-2.885929e+00	-1.363280e+02
1.770000e-06	-3.446772e-07	-1.940125e-09	-2.559442e+00	-1.332914e+02
1.780000e-06	-3.007074e-07	-1.899140e-09	-2.232939e+00	-1.302247e+02
1.790000e-06	-2.567328e-07	-1.853043e-09	-1.906401e+00	-1.271254e+02
1.800000e-06	-2.127440e-07	-1.801121e-09	-1.579756e+00	-1.239908e+02
1.810000e-06	-1.687568e-07	-1.751902e-09	-1.253124e+00	-1.208189e+02
1.820000e-06	-1.247511e-07	-1.708134e-09	-9.263543e-01	-1.176077e+02
1.830000e-06	-8.079604e-08	-1.663644e-09	-5.999607e-01	-1.143559e+02
1.840000e-06	-3.689939e-08	-1.612932e-09	-2.740009e-01	-1.110625e+02
1.850000e-06	7.032127e-09	-1.556690e-09	5.221791e-02	-1.077271e+02
1.860000e-06	5.104261e-08	-1.506004e-09	3.790230e-01	-1.043499e+02
1.870000e-06	9.507299e-08	-1.460261e-09	7.059760e-01	-1.009315e+02
1.880000e-06	1.390579e-07	-1.413622e-09	1.032591e+00	-9.747313e+01
1.890000e-06	1.830467e-07	-1.360800e-09	1.359235e+00	-9.397643e+01
1.900000e-06	2.270700e-07	-1.308655e-09	1.686136e+00	-9.044350e+01
1.910000e-06	2.710490e-07	-1.261953e-09	2.012707e+00	-8.687678e+01
1.920000e-06	3.149845e-07	-1.214738e-09	2.338955e+00	-8.327899e+01
1.930000e-06	3.589526e-07	-1.163756e-09	2.665445e+00	-7.965306e+01
1.940000e-06	4.028991e-07	-1.107530e-09	2.991776e+00	-7.600197e+01
1.950000e-06	4.467820e-07	-1.050344e-09	3.317633e+00	-7.232870e+01
1.960000e-06	4.906364e-07	-9.970257e-10	3.643280e+00	-6.863614e+01
1.970000e-06	5.345246e-07	-9.461574e-10	3.969177e+00	-6.492692e+01
1.980000e-06	5.784184e-07	-8.930605e-10	4.295116e+00	-6.120342e+01
1.990000e-06	6.222476e-07	-8.367483e-10	4.620574e+00	-5.746759e+01
2.000000e-06	6.660420e-07	-7.798571e-10	4.945775e+00	-5.372096e+01
2.010000e-06	7.098414e-07	-7.255269e-10	5.271013e+00	-4.996452e+01
2.020000e-06	7.536011e-07	-6.723384e-10	5.595956e+00	-4.619877e+01
2.030000e-06	7.973170e-07	-6.166494e-10	5.920574e+00	-4.242359e+01
2.040000e-06	8.409903e-07	-5.575360e-10	6.244875e+00	-3.863836e+01
2.050000e-06	8.846495e-07	-4.989959e-10	6.569072e+00	-3.484189e+01
2.060000e-06	9.282412e-07	-4.421392e-10	6.892767e+00	-3.103252e+01
2.070000e-06	9.717383e-07	-3.872673e-10	7.215760e+00	-2.720814e+01
2.080000e-06	1.015223e-06	-3.319493e-10	7.538659e+00	-2.336630e+01
2.090000e-06	1.058628e-06	-2.747079e-10	7.860969e+00	-1.950426e+01
2.100000e-06	1.101942e-06	-2.154633e-10	8.182603e+00	-1.561913e+01
2.110000e-06	1.145155e-06	-1.561244e-10	8.503484e+00	-1.170794e+01
2.120000e-06	1.188252e-06	-9.890457e-11	8.823507e+00	-7.767781e+00
2.130000e-06	1.231217e-06	-4.216557e-11	9.142553e+00	-3.795913e+00
2.140000e-06	1.274008e-06	1.692865e-11	9.460302e+00	2.101380e-01
2.150000e-06	1.316600e-06	7.692061e-11	9.776575e+00	4.252465e+00
2.160000e-06	1.359099e-06	1.387223e-10	1.009215e+01	8.332687e+00
2.170000e-06	1.401524e-06	2.007219e-10	1.040718e+01	1.245187e+01
2.180000e-06	1.443785e-06	2.609115e-10	1.072100e+01	1.661046e+01
2.190000e-06	1.485815e-06	3.238875e-10	1.103310e+01	2.080823e+01
2.200000e-06	1.527610e-06	3.902180e-10	1.134345e+01	2.504426e+01
2.210000e-06	1.569301e-06	4.526263e-10	1.165304e+01	2.931691e+01
2.220000e-06	1.610876e-06	5.129347e-10	1.196175e+01	3.362388e+01
2.230000e-06	1.652206e-06	5.760526e-10	1.226866e+01	3.796217e+01
2.240000e-06	1.693386e-06	6.430042e-10	1.257444e+01	4.232818e+01
2.250000e-06	1.734374e-06	7.098883e-10	1.287881e+01	4.671779e+01
2.260000e-06	1.775157e-06	7.724736e-10	1.318164e+01	5.112642e+01
2.270000e-06	1.815778e-06	8.390927e-10	1.348328e+01	5.554911e+01
2.280000e-06	1.856226e-06	9.078205e-10	1.378363e+01	5.998069e+01
2.290000e-06	1.896484e-06	9.734211e-10	1.408257e+01	6.441585e+01
2.300000e-06	1.936612e-06	1.038403e-09	1.438054e+01	6.884926e+01
2.310000e-06	1.976697e-06	1.104044e-09	1.467821e+01	7.327571e+01
2.320000e-06	2.016656e-06	1.167477e-09	1.497492e+01	7.769021e+01
2.330000e-06	2.056529e-06	1.229582e-09	1.527101e+01	8.208809e+01
2.340000e-06	2.096308e-06	1.292851e-09	1.556639e+01	8.646511e+01
2.350000e-06	2.136052e-06	1.356646e-09	1.586151e+01	9.081754e+01
2.360000e-06	2.175718e-06	1.422525e-09	1.615606e+01	9.514220e+01
2.370000e-06	2.215227e-06	1.490007e-09	1.644943e+01	9.943653e+01
2.380000e-06	2.254684e-06	1.554788e-09	1.674243e+01	1.036986e+02
2.390000e-06	2.294063e-06	1.616172e-09	1.703484e+01	1.079271e+02
2.400000e-06	2.333257e-06	1.679759e-09	1.732588e+01	1.121215e+02
2.410000e-06	2.372161e-06	1.742742e-09	1.761476e+01	1.162815e+02
2.420000e-06	2.410870e-06	1.801443e-09	1.790221e+01	1.204078e+02
2.430000e-06	2.449462e-06	1.862217e-09	1.818877e+01	1.245011e+02
2.440000e-06	2.487841e-06	1.924475e-09	1.847376e+01	1.285629e+02
2.450000e-06	2.525997e-06	1.984260e-09	1.875709e+01	1.325946e+02
2.460000e-06	2.564002e-06	2.042326e-09	1.903930e+01	1.365981e+02
2.470000e-06	2.601883e-06	2.101959e-09	1.932060e+01	1.405751e+02
2.480000e-06	2.639626e-06	2.164400e-09	1.960086e+01	1.445275e+02
2.490000e-06	2.677194e-06	2.224782e-09	1.987982e+01	1.484568e+02
2.500000e-06	2.714596e-06	2.281321e-09	2.015756e+01	1.523645e+02
2.510000e-06	2.751757e-06	2.338818e-09	2.043351e+01	1.562515e+02
2.520000e-06	2.788664e-06	2.397782e-09	2.070756e+01	1.601185e+02
2.530000e-06	2.825377e-06	2.456983e-09	2.098018e+01	1.639656e+02
2.540000e-06	2.861845e-06	2.513451e-09	2.125097e+01	1.677924e+02
2.550000e-06	2.898131e-06	2.567968e-09	2.152042e+01	1.715980e+02
2.560000e-06	2.934301e-06	2.621834e-09	2.178900e+01	1.753809e+02
2.570000e-06	2.970324e-06	2.672925e-09	2.205650e+01	1.791391e+02
2.580000e-06	3.006173e-06	2.725606e-09	2.232270e+01	1.828700e+02
2.590000e-06	3.041918e-06	2.780671e-09	2.258813e+01	1.865708e+02
2.600000e-06	3.077611e-06	2.833618e-09	2.285317e+01	1.902380e+02
2.610000e-06	3.113147e-06	2.883459e-09	2.311705e+01	1.938680e+02
2.620000e-06	3.148468e-06	2.932234e-09	2.337933e+01	1.974571e+02
2.630000e-06	3.183532e-06	2.983413e-09	2.363970e+01	2.010013e+02
2.640000e-06	3.218225e-06	3.035835e-09	2.389732e+01	2.044969e+02
2.650000e-06	3.252603e-06	3.086578e-09	2.415260e+01	2.079400e+02
2.660000e-06	3.286660e-06	3.135755e-09	2.440549e+01	2.113272e+02
2.670000e-06	3.320409e-06	3.185561e-09	2.465610e+01	2.146555e+02
2.680000e-06	3.353695e-06	3.234580e-09	2.490327e+01	2.179221e+02
2.690000e-06	3.386451e-06	3.280292e-09	2.514650e+01	2.211249e+02
2.700000e-06	3.418972e-06	3.325181e-09	2.538799e+01	2.242624e+02
2.710000e-06	3.451292e-06	3.368142e-09	2.562798e+01	2.273338e+02
2.720000e-06	3.483395e-06	3.412108e-09	2.586637e+01	2.303388e+02
2.730000e-06	3.515338e-06	3.456686e-09	2.610356e+01	2.332778e+02
2.740000e-06	3.547138e-06	3.499908e-09	2.633970e+01	2.361520e+02
2.750000e-06	3.578782e-06	3.541692e-09	2.657467e+01	2.389632e+02
2.760000e-06	3.610240e-06	3.584149e-09	2.680827e+01	2.417137e+02
2.770000e-06	3.641488e-06	3.627153e-09	2.704031e+01	2.444063e+02
2.780000e-06	3.672504e-06	3.667315e-09	2.727062e+01	2.470442e+02
2.790000e-06	3.703229e-06	3.705258e-09	2.749877e+01	2.496310e+02
2.800000e-06	3.733703e-06	3.743902e-09	2.772506e+01	2.521705e+02
2.810000e-06	3.763944e-06	3.782306e-09	2.794962e+01	2.546665e+02
2.820000e-06	3.793857e-06	3.817951e-09	2.817174e+01	2.571227e+02
2.830000e-06	3.823506e-06	3.853476e-09	2.839191e+01	2.595429e+02
2.840000e-06	3.852932e-06	3.892167e-09	2.861041e+01	2.619304e+02
2.850000e-06	3.882098e-06	3.930428e-09	2.882698e+01	2.642883e+02
2.860000e-06	3.911102e-06	3.964421e-09	2.904236e+01	2.666191e+02
2.870000e-06	3.939826e-06	3.998422e-09	2.925565e+01	2.689248e+02
2.880000e-06	3.968193e-06	4.035356e-09	2.946629e+01	2.712069e+02
2.890000e-06	3.996357e-06	4.074302e-09	2.967543e+01	2.734663e+02
2.900000e-06	4.024374e-06	4.109521e-09	2.988347e+01	2.757030e+02
