# Temperatura_=_20.0
# Concentracion g/m^3_=_12600.0
# C_Vs_to_Am_M_A/Vsm_=_65563218390.804596
# pendiente_HvsI_1/m_=_3716.3
# ordenada_HvsI_A/m_=_1297.0
# frecuencia_Hz_=_135138.60202963263

Tiempo_(s)	Campo_(V.s)	Magnetizacion_(V.s)	Campo_(kA/m)	Magnetizacion_(A/m)
0.000000e+00	-5.180045e-06	-5.550089e-09	-3.846054e+01	-3.588751e+02
1.000000e-08	-5.180271e-06	-5.550356e-09	-3.846222e+01	-3.589465e+02
2.000000e-08	-5.180327e-06	-5.549038e-09	-3.846264e+01	-3.589587e+02
3.000000e-08	-5.180119e-06	-5.547576e-09	-3.846109e+01	-3.589069e+02
4.000000e-08	-5.179421e-06	-5.547362e-09	-3.845591e+01	-3.587877e+02
5.000000e-08	-5.178191e-06	-5.543739e-09	-3.844678e+01	-3.585991e+02
6.000000e-08	-5.176593e-06	-5.529073e-09	-3.843492e+01	-3.583403e+02
7.000000e-08	-5.174406e-06	-5.494925e-09	-3.841868e+01	-3.580124e+02
8.000000e-08	-5.171493e-06	-5.509767e-09	-3.839705e+01	-3.576178e+02
9.000000e-08	-5.167996e-06	-5.641316e-09	-3.837108e+01	-3.571609e+02
1.000000e-07	-5.164079e-06	-5.699338e-09	-3.834200e+01	-3.566474e+02
1.100000e-07	-5.159911e-06	-5.500804e-09	-3.831106e+01	-3.560849e+02
1.200000e-07	-5.155596e-06	-5.361230e-09	-3.827902e+01	-3.554822e+02
1.300000e-07	-5.151113e-06	-5.440393e-09	-3.824573e+01	-3.548494e+02
1.400000e-07	-5.146211e-06	-5.637726e-09	-3.820934e+01	-3.541978e+02
1.500000e-07	-5.140846e-06	-5.596952e-09	-3.816951e+01	-3.535393e+02
1.600000e-07	-5.135196e-06	-5.391447e-09	-3.812755e+01	-3.528866e+02
1.700000e-07	-5.129204e-06	-5.372927e-09	-3.808306e+01	-3.522525e+02
1.800000e-07	-5.122738e-06	-5.479409e-09	-3.803505e+01	-3.516498e+02
1.900000e-07	-5.116041e-06	-5.673601e-09	-3.798533e+01	-3.510911e+02
2.000000e-07	-5.109148e-06	-5.651853e-09	-3.793415e+01	-3.505882e+02
2.100000e-07	-5.101890e-06	-5.515828e-09	-3.788027e+01	-3.501520e+02
2.200000e-07	-5.094307e-06	-5.412731e-09	-3.782396e+01	-3.497920e+02
2.300000e-07	-5.086505e-06	-5.480167e-09	-3.776603e+01	-3.495164e+02
2.400000e-07	-5.078545e-06	-5.479189e-09	-3.770693e+01	-3.493316e+02
2.500000e-07	-5.070011e-06	-5.311509e-09	-3.764357e+01	-3.492419e+02
2.600000e-07	-5.060638e-06	-5.165487e-09	-3.757398e+01	-3.492499e+02
2.700000e-07	-5.050832e-06	-5.225021e-09	-3.750117e+01	-3.493556e+02
2.800000e-07	-5.040797e-06	-5.320932e-09	-3.742667e+01	-3.495572e+02
2.900000e-07	-5.030298e-06	-5.222105e-09	-3.734871e+01	-3.498503e+02
3.000000e-07	-5.019244e-06	-5.142058e-09	-3.726664e+01	-3.502286e+02
3.100000e-07	-5.007774e-06	-5.329872e-09	-3.718148e+01	-3.506837e+02
3.200000e-07	-4.995985e-06	-5.532211e-09	-3.709395e+01	-3.512053e+02
3.300000e-07	-4.983655e-06	-5.442523e-09	-3.700240e+01	-3.517817e+02
3.400000e-07	-4.970871e-06	-5.297605e-09	-3.690748e+01	-3.523993e+02
3.500000e-07	-4.957847e-06	-5.407569e-09	-3.681078e+01	-3.530440e+02
3.600000e-07	-4.944380e-06	-5.549100e-09	-3.671079e+01	-3.537003e+02
3.700000e-07	-4.930544e-06	-5.495964e-09	-3.660806e+01	-3.543526e+02
3.800000e-07	-4.916449e-06	-5.497109e-09	-3.650341e+01	-3.549852e+02
3.900000e-07	-4.901983e-06	-5.434036e-09	-3.639601e+01	-3.555824e+02
4.000000e-07	-4.886793e-06	-5.342617e-09	-3.628322e+01	-3.561293e+02
4.100000e-07	-4.871008e-06	-5.424943e-09	-3.616602e+01	-3.566116e+02
4.200000e-07	-4.854907e-06	-5.551139e-09	-3.604647e+01	-3.570165e+02
4.300000e-07	-4.838384e-06	-5.372089e-09	-3.592380e+01	-3.573326e+02
4.400000e-07	-4.821545e-06	-5.257258e-09	-3.579877e+01	-3.575499e+02
4.500000e-07	-4.804400e-06	-5.417939e-09	-3.567147e+01	-3.576608e+02
4.600000e-07	-4.787004e-06	-5.492311e-09	-3.554232e+01	-3.576593e+02
4.700000e-07	-4.769362e-06	-5.320768e-09	-3.541133e+01	-3.575417e+02
4.800000e-07	-4.751435e-06	-5.266470e-09	-3.527822e+01	-3.573065e+02
4.900000e-07	-4.733113e-06	-5.357319e-09	-3.514219e+01	-3.569541e+02
5.000000e-07	-4.714369e-06	-5.374233e-09	-3.500302e+01	-3.564874e+02
5.100000e-07	-4.695205e-06	-5.311149e-09	-3.486073e+01	-3.559108e+02
5.200000e-07	-4.675729e-06	-5.271272e-09	-3.471613e+01	-3.552308e+02
5.300000e-07	-4.656078e-06	-5.260708e-09	-3.457022e+01	-3.544554e+02
5.400000e-07	-4.636282e-06	-5.282386e-09	-3.442324e+01	-3.535939e+02
5.500000e-07	-4.616304e-06	-5.310345e-09	-3.427491e+01	-3.526567e+02
5.600000e-07	-4.596044e-06	-5.279683e-09	-3.412448e+01	-3.516550e+02
5.700000e-07	-4.575480e-06	-5.220529e-09	-3.397180e+01	-3.506006e+02
5.800000e-07	-4.554526e-06	-5.195539e-09	-3.381622e+01	-3.495052e+02
5.900000e-07	-4.533185e-06	-5.241908e-09	-3.365777e+01	-3.483808e+02
6.000000e-07	-4.511639e-06	-5.278432e-09	-3.349780e+01	-3.472385e+02
6.100000e-07	-4.489859e-06	-5.217600e-09	-3.333609e+01	-3.460890e+02
6.200000e-07	-4.467693e-06	-5.107771e-09	-3.317151e+01	-3.449421e+02
6.300000e-07	-4.445208e-06	-5.128489e-09	-3.300456e+01	-3.438064e+02
6.400000e-07	-4.422362e-06	-5.223948e-09	-3.283494e+01	-3.426891e+02
6.500000e-07	-4.399297e-06	-5.207695e-09	-3.266369e+01	-3.415960e+02
6.600000e-07	-4.375942e-06	-5.074363e-09	-3.249028e+01	-3.405315e+02
6.700000e-07	-4.352249e-06	-5.032738e-09	-3.231437e+01	-3.394981e+02
6.800000e-07	-4.328442e-06	-5.119519e-09	-3.213760e+01	-3.384969e+02
6.900000e-07	-4.304455e-06	-5.173088e-09	-3.195951e+01	-3.375276e+02
7.000000e-07	-4.280175e-06	-5.073011e-09	-3.177923e+01	-3.365882e+02
7.100000e-07	-4.255477e-06	-4.959320e-09	-3.159586e+01	-3.356754e+02
7.200000e-07	-4.230284e-06	-4.987202e-09	-3.140881e+01	-3.347849e+02
7.300000e-07	-4.204766e-06	-5.090383e-09	-3.121934e+01	-3.339111e+02
7.400000e-07	-4.178934e-06	-5.063405e-09	-3.102754e+01	-3.330480e+02
7.500000e-07	-4.152550e-06	-4.927408e-09	-3.083165e+01	-3.321888e+02
7.600000e-07	-4.125575e-06	-4.880904e-09	-3.063137e+01	-3.313264e+02
7.700000e-07	-4.098193e-06	-4.972079e-09	-3.042806e+01	-3.304536e+02
7.800000e-07	-4.070632e-06	-5.015119e-09	-3.022343e+01	-3.295634e+02
7.900000e-07	-4.042850e-06	-4.912692e-09	-3.001715e+01	-3.286492e+02
8.000000e-07	-4.014879e-06	-4.812423e-09	-2.980948e+01	-3.277049e+02
8.100000e-07	-3.986752e-06	-4.849456e-09	-2.960064e+01	-3.267249e+02
8.200000e-07	-3.958422e-06	-4.924716e-09	-2.939030e+01	-3.257050e+02
8.300000e-07	-3.929762e-06	-4.884572e-09	-2.917751e+01	-3.246415e+02
8.400000e-07	-3.900690e-06	-4.780231e-09	-2.896165e+01	-3.235319e+02
8.500000e-07	-3.871394e-06	-4.751315e-09	-2.874414e+01	-3.223749e+02
8.600000e-07	-3.841891e-06	-4.804198e-09	-2.852508e+01	-3.211704e+02
8.700000e-07	-3.812179e-06	-4.815930e-09	-2.830448e+01	-3.199191e+02
8.800000e-07	-3.782284e-06	-4.743358e-09	-2.808252e+01	-3.186230e+02
8.900000e-07	-3.752157e-06	-4.675358e-09	-2.785884e+01	-3.172848e+02
9.000000e-07	-3.721795e-06	-4.688526e-09	-2.763340e+01	-3.159083e+02
9.100000e-07	-3.691165e-06	-4.715046e-09	-2.740598e+01	-3.144976e+02
9.200000e-07	-3.660259e-06	-4.679622e-09	-2.717651e+01	-3.130577e+02
9.300000e-07	-3.629052e-06	-4.616985e-09	-2.694481e+01	-3.115937e+02
9.400000e-07	-3.597633e-06	-4.596423e-09	-2.671153e+01	-3.101108e+02
9.500000e-07	-3.566032e-06	-4.598693e-09	-2.647690e+01	-3.086143e+02
9.600000e-07	-3.534250e-06	-4.581551e-09	-2.624093e+01	-3.071093e+02
9.700000e-07	-3.502350e-06	-4.549029e-09	-2.600407e+01	-3.056004e+02
9.800000e-07	-3.470262e-06	-4.527595e-09	-2.576583e+01	-3.040917e+02
9.900000e-07	-3.437978e-06	-4.506293e-09	-2.552614e+01	-3.025868e+02
1.000000e-06	-3.405399e-06	-4.479669e-09	-2.528424e+01	-3.010884e+02
1.010000e-06	-3.372512e-06	-4.463537e-09	-2.504006e+01	-2.995983e+02
1.020000e-06	-3.339357e-06	-4.455751e-09	-2.479389e+01	-2.981175e+02
1.030000e-06	-3.305774e-06	-4.426079e-09	-2.454455e+01	-2.966461e+02
1.040000e-06	-3.271801e-06	-4.380333e-09	-2.429231e+01	-2.951831e+02
1.050000e-06	-3.237318e-06	-4.354905e-09	-2.403628e+01	-2.937269e+02
1.060000e-06	-3.202389e-06	-4.358728e-09	-2.377694e+01	-2.922750e+02
1.070000e-06	-3.167241e-06	-4.345560e-09	-2.351598e+01	-2.908239e+02
1.080000e-06	-3.131893e-06	-4.294643e-09	-2.325353e+01	-2.893700e+02
1.090000e-06	-3.096389e-06	-4.250364e-09	-2.298992e+01	-2.879088e+02
1.100000e-06	-3.060657e-06	-4.246994e-09	-2.272461e+01	-2.864356e+02
1.110000e-06	-3.024798e-06	-4.251239e-09	-2.245837e+01	-2.849455e+02
1.120000e-06	-2.988895e-06	-4.212594e-09	-2.219181e+01	-2.834338e+02
1.130000e-06	-2.952866e-06	-4.152488e-09	-2.192430e+01	-2.818954e+02
1.140000e-06	-2.916679e-06	-4.125581e-09	-2.165562e+01	-2.803261e+02
1.150000e-06	-2.880306e-06	-4.129898e-09	-2.138556e+01	-2.787216e+02
1.160000e-06	-2.843741e-06	-4.112754e-09	-2.111407e+01	-2.770784e+02
1.170000e-06	-2.807014e-06	-4.061917e-09	-2.084138e+01	-2.753935e+02
1.180000e-06	-2.770083e-06	-4.017783e-09	-2.056718e+01	-2.736646e+02
1.190000e-06	-2.732856e-06	-4.005941e-09	-2.029077e+01	-2.718903e+02
1.200000e-06	-2.695385e-06	-3.996329e-09	-2.001256e+01	-2.700700e+02
1.210000e-06	-2.657710e-06	-3.960655e-09	-1.973284e+01	-2.682036e+02
1.220000e-06	-2.619899e-06	-3.912451e-09	-1.945210e+01	-2.662922e+02
1.230000e-06	-2.582015e-06	-3.882128e-09	-1.917082e+01	-2.643373e+02
1.240000e-06	-2.543862e-06	-3.867141e-09	-1.888754e+01	-2.623413e+02
1.250000e-06	-2.505443e-06	-3.843597e-09	-1.860229e+01	-2.603070e+02
1.260000e-06	-2.466928e-06	-3.809212e-09	-1.831633e+01	-2.582379e+02
1.270000e-06	-2.428307e-06	-3.774927e-09	-1.802957e+01	-2.561376e+02
1.280000e-06	-2.389473e-06	-3.743125e-09	-1.774124e+01	-2.540101e+02
1.290000e-06	-2.350399e-06	-3.714809e-09	-1.745113e+01	-2.518596e+02
1.300000e-06	-2.311265e-06	-3.688644e-09	-1.716057e+01	-2.496899e+02
1.310000e-06	-2.272059e-06	-3.660175e-09	-1.686947e+01	-2.475051e+02
1.320000e-06	-2.232656e-06	-3.621557e-09	-1.657692e+01	-2.453088e+02
1.330000e-06	-2.193090e-06	-3.583536e-09	-1.628315e+01	-2.431040e+02
1.340000e-06	-2.153430e-06	-3.553535e-09	-1.598868e+01	-2.408937e+02
1.350000e-06	-2.113681e-06	-3.527120e-09	-1.569355e+01	-2.386799e+02
1.360000e-06	-2.073782e-06	-3.491292e-09	-1.539732e+01	-2.364642e+02
1.370000e-06	-2.033790e-06	-3.447475e-09	-1.510038e+01	-2.342476e+02
1.380000e-06	-1.993738e-06	-3.407620e-09	-1.480301e+01	-2.320301e+02
1.390000e-06	-1.953558e-06	-3.380555e-09	-1.450469e+01	-2.298114e+02
1.400000e-06	-1.913336e-06	-3.356010e-09	-1.420605e+01	-2.275905e+02
1.410000e-06	-1.873013e-06	-3.315248e-09	-1.390665e+01	-2.253656e+02
1.420000e-06	-1.832421e-06	-3.267086e-09	-1.360527e+01	-2.231346e+02
1.430000e-06	-1.791699e-06	-3.230965e-09	-1.330292e+01	-2.208948e+02
1.440000e-06	-1.750879e-06	-3.207302e-09	-1.299984e+01	-2.186434e+02
1.450000e-06	-1.709878e-06	-3.177317e-09	-1.269542e+01	-2.163772e+02
1.460000e-06	-1.668590e-06	-3.134419e-09	-1.238886e+01	-2.140928e+02
1.470000e-06	-1.627075e-06	-3.090263e-09	-1.208062e+01	-2.117869e+02
1.480000e-06	-1.585420e-06	-3.057804e-09	-1.177135e+01	-2.094563e+02
1.490000e-06	-1.543503e-06	-3.031421e-09	-1.146012e+01	-2.070981e+02
1.500000e-06	-1.501404e-06	-2.995837e-09	-1.114755e+01	-2.047093e+02
1.510000e-06	-1.459190e-06	-2.950281e-09	-1.083412e+01	-2.022878e+02
1.520000e-06	-1.416774e-06	-2.909907e-09	-1.051920e+01	-1.998316e+02
1.530000e-06	-1.374170e-06	-2.880659e-09	-1.020287e+01	-1.973392e+02
1.540000e-06	-1.331390e-06	-2.853676e-09	-9.885241e+00	-1.948099e+02
1.550000e-06	-1.288506e-06	-2.816491e-09	-9.566835e+00	-1.922431e+02
1.560000e-06	-1.245568e-06	-2.769462e-09	-9.248036e+00	-1.896392e+02
1.570000e-06	-1.202592e-06	-2.722928e-09	-8.928948e+00	-1.869987e+02
1.580000e-06	-1.159437e-06	-2.684018e-09	-8.608531e+00	-1.843229e+02
1.590000e-06	-1.116033e-06	-2.648359e-09	-8.286271e+00	-1.816132e+02
1.600000e-06	-1.072545e-06	-2.608809e-09	-7.963379e+00	-1.788716e+02
1.610000e-06	-1.029034e-06	-2.563108e-09	-7.640321e+00	-1.761001e+02
1.620000e-06	-9.855085e-07	-2.519212e-09	-7.317156e+00	-1.733012e+02
1.630000e-06	-9.419016e-07	-2.479964e-09	-6.993385e+00	-1.704770e+02
1.640000e-06	-8.982104e-07	-2.442548e-09	-6.668989e+00	-1.676301e+02
1.650000e-06	-8.545666e-07	-2.398839e-09	-6.344944e+00	-1.647624e+02
1.660000e-06	-8.108933e-07	-2.346291e-09	-6.020681e+00	-1.618761e+02
1.670000e-06	-7.671452e-07	-2.300579e-09	-5.695863e+00	-1.589728e+02
1.680000e-06	-7.233789e-07	-2.263326e-09	-5.370909e+00	-1.560539e+02
1.690000e-06	-6.796043e-07	-2.225256e-09	-5.045893e+00	-1.531203e+02
1.700000e-06	-6.358251e-07	-2.178464e-09	-4.720843e+00	-1.501724e+02
1.710000e-06	-5.919906e-07	-2.127743e-09	-4.395383e+00	-1.472102e+02
1.720000e-06	-5.481218e-07	-2.085917e-09	-4.069668e+00	-1.442333e+02
1.730000e-06	-5.042339e-07	-2.049295e-09	-3.743811e+00	-1.412407e+02
1.740000e-06	-4.602953e-07	-2.004548e-09	-3.417578e+00	-1.382309e+02
1.750000e-06	-4.163805e-07	-1.952026e-09	-3.091521e+00	-1.352023e+02
1.760000e-06	-3.724879e-07	-1.901296e-09	-2.765630e+00	-1.321528e+02
1.770000e-06	-3.285544e-07	-1.856787e-09	-2.439435e+00	-1.290799e+02
1.780000e-06	-2.845986e-07	-1.814445e-09	-2.113074e+00	-1.259812e+02
1.790000e-06	-2.406309e-07	-1.766411e-09	-1.786624e+00	-1.228540e+02
1.800000e-06	-1.966741e-07	-1.715825e-09	-1.460256e+00	-1.196959e+02
1.810000e-06	-1.527258e-07	-1.668374e-09	-1.133951e+00	-1.165042e+02
1.820000e-06	-1.087790e-07	-1.623252e-09	-8.076573e-01	-1.132768e+02
1.830000e-06	-6.479992e-08	-1.576837e-09	-4.811233e-01	-1.100116e+02
1.840000e-06	-2.082069e-08	-1.526224e-09	-1.545885e-01	-1.067069e+02
1.850000e-06	2.310446e-08	-1.473422e-09	1.715449e-01	-1.033616e+02
1.860000e-06	6.704884e-08	-1.422718e-09	4.978210e-01	-9.997487e+01
1.870000e-06	1.110336e-07	-1.375556e-09	8.243967e-01	-9.654642e+01
1.880000e-06	1.549649e-07	-1.329989e-09	1.150576e+00	-9.307652e+01
1.890000e-06	1.988964e-07	-1.281329e-09	1.476756e+00	-8.956590e+01
1.900000e-06	2.428451e-07	-1.228268e-09	1.803065e+00	-8.601583e+01
1.910000e-06	2.867578e-07	-1.175681e-09	2.129106e+00	-8.242799e+01
1.920000e-06	3.306454e-07	-1.125688e-09	2.454960e+00	-7.880451e+01
1.930000e-06	3.744963e-07	-1.075515e-09	2.780542e+00	-7.514781e+01
1.940000e-06	4.183355e-07	-1.017899e-09	3.106037e+00	-7.146062e+01
1.950000e-06	4.622174e-07	-9.569012e-10	3.431849e+00	-6.774579e+01
1.960000e-06	5.060504e-07	-9.025454e-10	3.757299e+00	-6.400630e+01
1.970000e-06	5.498238e-07	-8.556840e-10	4.082305e+00	-6.024508e+01
1.980000e-06	5.936036e-07	-8.068026e-10	4.407359e+00	-5.646496e+01
1.990000e-06	6.373839e-07	-7.498811e-10	4.732417e+00	-5.266855e+01
2.000000e-06	6.812095e-07	-6.924617e-10	5.057811e+00	-4.885820e+01
2.010000e-06	7.250243e-07	-6.384006e-10	5.383125e+00	-4.503586e+01
2.020000e-06	7.687432e-07	-5.844424e-10	5.707727e+00	-4.120306e+01
2.030000e-06	8.124262e-07	-5.259399e-10	6.032062e+00	-3.736088e+01
2.040000e-06	8.561069e-07	-4.663891e-10	6.356381e+00	-3.350984e+01
2.050000e-06	8.997796e-07	-4.092850e-10	6.680640e+00	-2.964997e+01
2.060000e-06	9.434195e-07	-3.543080e-10	7.004655e+00	-2.578077e+01
2.070000e-06	9.869524e-07	-3.007439e-10	7.327876e+00	-2.190124e+01
2.080000e-06	1.030408e-06	-2.454020e-10	7.650525e+00	-1.800991e+01
2.090000e-06	1.073822e-06	-1.871212e-10	7.972864e+00	-1.410494e+01
2.100000e-06	1.117211e-06	-1.267646e-10	8.295016e+00	-1.018412e+01
2.110000e-06	1.160574e-06	-6.709671e-11	8.616973e+00	-6.245041e+00
2.120000e-06	1.203743e-06	-9.417594e-12	8.937492e+00	-2.285108e+00
2.130000e-06	1.246682e-06	5.047812e-11	9.256303e+00	1.698304e+00
2.140000e-06	1.289513e-06	1.109809e-10	9.574316e+00	5.707764e+00
2.150000e-06	1.332247e-06	1.717598e-10	9.891603e+00	9.745676e+00
2.160000e-06	1.374882e-06	2.322642e-10	1.020816e+01	1.381418e+01
2.170000e-06	1.417359e-06	2.913546e-10	1.052354e+01	1.791504e+01
2.180000e-06	1.459662e-06	3.518571e-10	1.083762e+01	2.204959e+01
2.190000e-06	1.501816e-06	4.159293e-10	1.115061e+01	2.621863e+01
2.200000e-06	1.543730e-06	4.797120e-10	1.146181e+01	3.042236e+01
2.210000e-06	1.585279e-06	5.401659e-10	1.177030e+01	3.466039e+01
2.220000e-06	1.626665e-06	5.999508e-10	1.207759e+01	3.893163e+01
2.230000e-06	1.667900e-06	6.642203e-10	1.238374e+01	4.323440e+01
2.240000e-06	1.708899e-06	7.330756e-10	1.268815e+01	4.756631e+01
2.250000e-06	1.749742e-06	7.968786e-10	1.299140e+01	5.192443e+01
2.260000e-06	1.790416e-06	8.562571e-10	1.329340e+01	5.630525e+01
2.270000e-06	1.830971e-06	9.187189e-10	1.359451e+01	6.070476e+01
2.280000e-06	1.871367e-06	9.857823e-10	1.389443e+01	6.511857e+01
2.290000e-06	1.911561e-06	1.051356e-09	1.419287e+01	6.954200e+01
2.300000e-06	1.951606e-06	1.114492e-09	1.449019e+01	7.397014e+01
2.310000e-06	1.991541e-06	1.176947e-09	1.478669e+01	7.839801e+01
2.320000e-06	2.031432e-06	1.240239e-09	1.508288e+01	8.282063e+01
2.330000e-06	2.071343e-06	1.305342e-09	1.537921e+01	8.723317e+01
2.340000e-06	2.111189e-06	1.369698e-09	1.567505e+01	9.163102e+01
2.350000e-06	2.150928e-06	1.432072e-09	1.597011e+01	9.600991e+01
2.360000e-06	2.190527e-06	1.495013e-09	1.626412e+01	1.003660e+02
2.370000e-06	2.230010e-06	1.560994e-09	1.655727e+01	1.046958e+02
2.380000e-06	2.269396e-06	1.626660e-09	1.684970e+01	1.089967e+02
2.390000e-06	2.308606e-06	1.686273e-09	1.714083e+01	1.132662e+02
2.400000e-06	2.347631e-06	1.744754e-09	1.743058e+01	1.175028e+02
2.410000e-06	2.386442e-06	1.807157e-09	1.771874e+01	1.217053e+02
2.420000e-06	2.425028e-06	1.870498e-09	1.800523e+01	1.258733e+02
2.430000e-06	2.463495e-06	1.932958e-09	1.829084e+01	1.300068e+02
2.440000e-06	2.501864e-06	1.993229e-09	1.857572e+01	1.341062e+02
2.450000e-06	2.540015e-06	2.053304e-09	1.885898e+01	1.381726e+02
2.460000e-06	2.577988e-06	2.113973e-09	1.914092e+01	1.422070e+02
2.470000e-06	2.615831e-06	2.175997e-09	1.942189e+01	1.462109e+02
2.480000e-06	2.653503e-06	2.235312e-09	1.970160e+01	1.501859e+02
2.490000e-06	2.691014e-06	2.291004e-09	1.998011e+01	1.541335e+02
2.500000e-06	2.728285e-06	2.348219e-09	2.025684e+01	1.580553e+02
2.510000e-06	2.765299e-06	2.408174e-09	2.053165e+01	1.619524e+02
2.520000e-06	2.802162e-06	2.467365e-09	2.080536e+01	1.658260e+02
2.530000e-06	2.838843e-06	2.522344e-09	2.107771e+01	1.696766e+02
2.540000e-06	2.875282e-06	2.576549e-09	2.134825e+01	1.735046e+02
2.550000e-06	2.911482e-06	2.633109e-09	2.161703e+01	1.773097e+02
2.560000e-06	2.947533e-06	2.688461e-09	2.188470e+01	1.810911e+02
2.570000e-06	2.983473e-06	2.739880e-09	2.215155e+01	1.848475e+02
2.580000e-06	3.019309e-06	2.791056e-09	2.241762e+01	1.885772e+02
2.590000e-06	3.055105e-06	2.844800e-09	2.268339e+01	1.922779e+02
2.600000e-06	3.090825e-06	2.898505e-09	2.294861e+01	1.959468e+02
2.610000e-06	3.126399e-06	2.949725e-09	2.321274e+01	1.995809e+02
2.620000e-06	3.161816e-06	2.999903e-09	2.347570e+01	2.031766e+02
2.630000e-06	3.197022e-06	3.049721e-09	2.373709e+01	2.067305e+02
2.640000e-06	3.231778e-06	3.098493e-09	2.399514e+01	2.102386e+02
2.650000e-06	3.266039e-06	3.147383e-09	2.424953e+01	2.136972e+02
2.660000e-06	3.299932e-06	3.196940e-09	2.450117e+01	2.171026e+02
2.670000e-06	3.333460e-06	3.244229e-09	2.475011e+01	2.204514e+02
2.680000e-06	3.366588e-06	3.291025e-09	2.499608e+01	2.237403e+02
2.690000e-06	3.399318e-06	3.339287e-09	2.523909e+01	2.269666e+02
2.700000e-06	3.431687e-06	3.386254e-09	2.547942e+01	2.301280e+02
2.710000e-06	3.463868e-06	3.431110e-09	2.571836e+01	2.332230e+02
2.720000e-06	3.495908e-06	3.475846e-09	2.595625e+01	2.362503e+02
2.730000e-06	3.527752e-06	3.520908e-09	2.619268e+01	2.392096e+02
2.740000e-06	3.559530e-06	3.563663e-09	2.642863e+01	2.421013e+02
2.750000e-06	3.591195e-06	3.604785e-09	2.666373e+01	2.449262e+02
2.760000e-06	3.622617e-06	3.646333e-09	2.689703e+01	2.476861e+02
2.770000e-06	3.653755e-06	3.687290e-09	2.712822e+01	2.503831e+02
2.780000e-06	3.684615e-06	3.726765e-09	2.735735e+01	2.530202e+02
2.790000e-06	3.715217e-06	3.764980e-09	2.758456e+01	2.556005e+02
2.800000e-06	3.745504e-06	3.802454e-09	2.780944e+01	2.581277e+02
2.810000e-06	3.775523e-06	3.839934e-09	2.803232e+01	2.606058e+02
2.820000e-06	3.805377e-06	3.875613e-09	2.825398e+01	2.630388e+02
2.830000e-06	3.834927e-06	3.911423e-09	2.847338e+01	2.654308e+02
2.840000e-06	3.864206e-06	3.948283e-09	2.869077e+01	2.677860e+02
2.850000e-06	3.893278e-06	3.983916e-09	2.890662e+01	2.701080e+02
2.860000e-06	3.922068e-06	4.018118e-09	2.912038e+01	2.724005e+02
2.870000e-06	3.950578e-06	4.053928e-09	2.933206e+01	2.746665e+02
2.880000e-06	3.978767e-06	4.090847e-09	2.954136e+01	2.769085e+02
2.890000e-06	4.006762e-06	4.126583e-09	2.974921e+01	2.791287e+02
2.900000e-06	4.034679e-06	4.159398e-09	2.995649e+01	2.813283e+02
