# Temperatura_=_20.0
# Concentracion g/m^3_=_12600.0
# C_Vs_to_Am_M_A/Vsm_=_65563218390.804596
# pendiente_HvsI_1/m_=_3716.3
# ordenada_HvsI_A/m_=_1297.0
# frecuencia_Hz_=_135139.17123587258

Tiempo_(s)	Campo_(V.s)	Magnetizacion_(V.s)	Campo_(kA/m)	Magnetizacion_(A/m)
0.000000e+00	-5.207337e-06	-5.709791e-09	-3.846236e+01	-3.677452e+02
1.000000e-08	-5.207582e-06	-5.708609e-09	-3.846418e+01	-3.677404e+02
2.000000e-08	-5.207495e-06	-5.710265e-09	-3.846353e+01	-3.676918e+02
3.000000e-08	-5.207015e-06	-5.712388e-09	-3.845999e+01	-3.675994e+02
4.000000e-08	-5.206218e-06	-5.711941e-09	-3.845410e+01	-3.674638e+02
5.000000e-08	-5.204958e-06	-5.709277e-09	-3.844480e+01	-3.672868e+02
6.000000e-08	-5.203044e-06	-5.719640e-09	-3.843066e+01	-3.670714e+02
7.000000e-08	-5.200540e-06	-5.722523e-09	-3.841216e+01	-3.668214e+02
8.000000e-08	-5.197580e-06	-5.709509e-09	-3.839030e+01	-3.665417e+02
9.000000e-08	-5.194180e-06	-5.683559e-09	-3.836519e+01	-3.662381e+02
1.000000e-07	-5.190350e-06	-5.651857e-09	-3.833690e+01	-3.659175e+02
1.100000e-07	-5.186239e-06	-5.626490e-09	-3.830653e+01	-3.655874e+02
1.200000e-07	-5.181915e-06	-5.738152e-09	-3.827460e+01	-3.652557e+02
1.300000e-07	-5.177282e-06	-5.783613e-09	-3.824038e+01	-3.649310e+02
1.400000e-07	-5.172224e-06	-5.721048e-09	-3.820301e+01	-3.646220e+02
1.500000e-07	-5.166861e-06	-5.576021e-09	-3.816341e+01	-3.643377e+02
1.600000e-07	-5.161178e-06	-5.628153e-09	-3.812143e+01	-3.640865e+02
1.700000e-07	-5.155097e-06	-5.781730e-09	-3.807651e+01	-3.638768e+02
1.800000e-07	-5.148677e-06	-5.871804e-09	-3.802910e+01	-3.637162e+02
1.900000e-07	-5.141966e-06	-5.751604e-09	-3.797953e+01	-3.636115e+02
2.000000e-07	-5.134978e-06	-5.611068e-09	-3.792791e+01	-3.635686e+02
2.100000e-07	-5.127555e-06	-5.584058e-09	-3.787308e+01	-3.635923e+02
2.200000e-07	-5.119826e-06	-5.724099e-09	-3.781599e+01	-3.636858e+02
2.300000e-07	-5.111849e-06	-5.853884e-09	-3.775708e+01	-3.638511e+02
2.400000e-07	-5.103488e-06	-5.718002e-09	-3.769532e+01	-3.640887e+02
2.500000e-07	-5.094559e-06	-5.517013e-09	-3.762937e+01	-3.643972e+02
2.600000e-07	-5.085162e-06	-5.559396e-09	-3.755996e+01	-3.647740e+02
2.700000e-07	-5.075433e-06	-5.746120e-09	-3.748810e+01	-3.652146e+02
2.800000e-07	-5.065222e-06	-5.677439e-09	-3.741268e+01	-3.657131e+02
2.900000e-07	-5.054482e-06	-5.515200e-09	-3.733335e+01	-3.662620e+02
3.000000e-07	-5.043250e-06	-5.543567e-09	-3.725039e+01	-3.668527e+02
3.100000e-07	-5.031609e-06	-5.710953e-09	-3.716441e+01	-3.674753e+02
3.200000e-07	-5.019581e-06	-5.661096e-09	-3.707557e+01	-3.681188e+02
3.300000e-07	-5.007134e-06	-5.540193e-09	-3.698363e+01	-3.687717e+02
3.400000e-07	-4.994346e-06	-5.598983e-09	-3.688918e+01	-3.694218e+02
3.500000e-07	-4.981159e-06	-5.762970e-09	-3.679177e+01	-3.700565e+02
3.600000e-07	-4.967555e-06	-5.670142e-09	-3.669129e+01	-3.706634e+02
3.700000e-07	-4.953670e-06	-5.573709e-09	-3.658873e+01	-3.712302e+02
3.800000e-07	-4.939368e-06	-5.624367e-09	-3.648310e+01	-3.717449e+02
3.900000e-07	-4.924539e-06	-5.662858e-09	-3.637357e+01	-3.721965e+02
4.000000e-07	-4.909076e-06	-5.533140e-09	-3.625935e+01	-3.725747e+02
4.100000e-07	-4.893078e-06	-5.568751e-09	-3.614119e+01	-3.728705e+02
4.200000e-07	-4.876765e-06	-5.630674e-09	-3.602070e+01	-3.730759e+02
4.300000e-07	-4.860038e-06	-5.561352e-09	-3.589715e+01	-3.731847e+02
4.400000e-07	-4.842960e-06	-5.507666e-09	-3.577101e+01	-3.731921e+02
4.500000e-07	-4.825709e-06	-5.569478e-09	-3.564359e+01	-3.730949e+02
4.600000e-07	-4.808135e-06	-5.546234e-09	-3.551379e+01	-3.728915e+02
4.700000e-07	-4.790294e-06	-5.495962e-09	-3.538201e+01	-3.725822e+02
4.800000e-07	-4.772248e-06	-5.550035e-09	-3.524872e+01	-3.721687e+02
4.900000e-07	-4.753760e-06	-5.551215e-09	-3.511216e+01	-3.716543e+02
5.000000e-07	-4.734814e-06	-5.457425e-09	-3.497222e+01	-3.710438e+02
5.100000e-07	-4.715587e-06	-5.448211e-09	-3.483021e+01	-3.703431e+02
5.200000e-07	-4.696102e-06	-5.533694e-09	-3.468629e+01	-3.695595e+02
5.300000e-07	-4.676408e-06	-5.501665e-09	-3.454083e+01	-3.687009e+02
5.400000e-07	-4.656489e-06	-5.421364e-09	-3.439370e+01	-3.677761e+02
5.500000e-07	-4.636313e-06	-5.411635e-09	-3.424468e+01	-3.667944e+02
5.600000e-07	-4.615874e-06	-5.463022e-09	-3.409371e+01	-3.657653e+02
5.700000e-07	-4.595155e-06	-5.447303e-09	-3.394068e+01	-3.646983e+02
5.800000e-07	-4.574047e-06	-5.406034e-09	-3.378477e+01	-3.636028e+02
5.900000e-07	-4.552578e-06	-5.376076e-09	-3.362620e+01	-3.624878e+02
6.000000e-07	-4.530837e-06	-5.391566e-09	-3.346561e+01	-3.613616e+02
6.100000e-07	-4.508813e-06	-5.378638e-09	-3.330294e+01	-3.602319e+02
6.200000e-07	-4.486527e-06	-5.357841e-09	-3.313833e+01	-3.591054e+02
6.300000e-07	-4.463871e-06	-5.339582e-09	-3.297099e+01	-3.579877e+02
6.400000e-07	-4.440908e-06	-5.335498e-09	-3.280138e+01	-3.568834e+02
6.500000e-07	-4.417664e-06	-5.303780e-09	-3.262970e+01	-3.557959e+02
6.600000e-07	-4.394168e-06	-5.288317e-09	-3.245615e+01	-3.547274e+02
6.700000e-07	-4.370477e-06	-5.293103e-09	-3.228116e+01	-3.536789e+02
6.800000e-07	-4.346547e-06	-5.289654e-09	-3.210441e+01	-3.526503e+02
6.900000e-07	-4.322301e-06	-5.245144e-09	-3.192533e+01	-3.516404e+02
7.000000e-07	-4.297738e-06	-5.205655e-09	-3.174390e+01	-3.506470e+02
7.100000e-07	-4.272862e-06	-5.205076e-09	-3.156016e+01	-3.496670e+02
7.200000e-07	-4.247505e-06	-5.221703e-09	-3.137287e+01	-3.486966e+02
7.300000e-07	-4.221521e-06	-5.195812e-09	-3.118095e+01	-3.477315e+02
7.400000e-07	-4.195085e-06	-5.139508e-09	-3.098568e+01	-3.467670e+02
7.500000e-07	-4.168286e-06	-5.116634e-09	-3.078774e+01	-3.457979e+02
7.600000e-07	-4.141062e-06	-5.142349e-09	-3.058666e+01	-3.448193e+02
7.700000e-07	-4.113574e-06	-5.150958e-09	-3.038363e+01	-3.438261e+02
7.800000e-07	-4.085913e-06	-5.097599e-09	-3.017932e+01	-3.428135e+02
7.900000e-07	-4.058086e-06	-5.042189e-09	-2.997379e+01	-3.417771e+02
8.000000e-07	-4.030062e-06	-5.044664e-09	-2.976680e+01	-3.407129e+02
8.100000e-07	-4.001743e-06	-5.075190e-09	-2.955762e+01	-3.396177e+02
8.200000e-07	-3.973157e-06	-5.045076e-09	-2.934648e+01	-3.384887e+02
8.300000e-07	-3.944327e-06	-4.975371e-09	-2.913354e+01	-3.373241e+02
8.400000e-07	-3.915225e-06	-4.944513e-09	-2.891859e+01	-3.361226e+02
8.500000e-07	-3.885807e-06	-4.971290e-09	-2.870130e+01	-3.348838e+02
8.600000e-07	-3.856095e-06	-4.974926e-09	-2.848184e+01	-3.336081e+02
8.700000e-07	-3.826211e-06	-4.927260e-09	-2.826111e+01	-3.322964e+02
8.800000e-07	-3.796181e-06	-4.872070e-09	-2.803931e+01	-3.309505e+02
8.900000e-07	-3.765913e-06	-4.868846e-09	-2.781574e+01	-3.295725e+02
9.000000e-07	-3.735313e-06	-4.883180e-09	-2.758973e+01	-3.281651e+02
9.100000e-07	-3.704387e-06	-4.860137e-09	-2.736130e+01	-3.267314e+02
9.200000e-07	-3.673199e-06	-4.802374e-09	-2.713094e+01	-3.252746e+02
9.300000e-07	-3.641800e-06	-4.775666e-09	-2.689902e+01	-3.237981e+02
9.400000e-07	-3.610217e-06	-4.783172e-09	-2.666574e+01	-3.223053e+02
9.500000e-07	-3.578448e-06	-4.775608e-09	-2.643109e+01	-3.207994e+02
9.600000e-07	-3.546514e-06	-4.732957e-09	-2.619522e+01	-3.192836e+02
9.700000e-07	-3.514405e-06	-4.698316e-09	-2.595805e+01	-3.177605e+02
9.800000e-07	-3.482118e-06	-4.686906e-09	-2.571958e+01	-3.162323e+02
9.900000e-07	-3.449540e-06	-4.674100e-09	-2.547895e+01	-3.147011e+02
1.000000e-06	-3.416637e-06	-4.647009e-09	-2.523592e+01	-3.131679e+02
1.010000e-06	-3.383437e-06	-4.619400e-09	-2.499070e+01	-3.116335e+02
1.020000e-06	-3.349796e-06	-4.594183e-09	-2.474222e+01	-3.100980e+02
1.030000e-06	-3.315819e-06	-4.567940e-09	-2.449126e+01	-3.085610e+02
1.040000e-06	-3.281503e-06	-4.544789e-09	-2.423780e+01	-3.070214e+02
1.050000e-06	-3.246793e-06	-4.526715e-09	-2.398142e+01	-3.054777e+02
1.060000e-06	-3.211822e-06	-4.505469e-09	-2.372312e+01	-3.039279e+02
1.070000e-06	-3.176578e-06	-4.472051e-09	-2.346280e+01	-3.023697e+02
1.080000e-06	-3.141029e-06	-4.439667e-09	-2.320023e+01	-3.008002e+02
1.090000e-06	-3.105301e-06	-4.420813e-09	-2.293633e+01	-2.992166e+02
1.100000e-06	-3.069472e-06	-4.406054e-09	-2.267169e+01	-2.976158e+02
1.110000e-06	-3.033497e-06	-4.375398e-09	-2.240598e+01	-2.959947e+02
1.120000e-06	-2.997399e-06	-4.333007e-09	-2.213935e+01	-2.943504e+02
1.130000e-06	-2.961154e-06	-4.300226e-09	-2.187164e+01	-2.926800e+02
1.140000e-06	-2.924726e-06	-4.286832e-09	-2.160257e+01	-2.909809e+02
1.150000e-06	-2.888093e-06	-4.268046e-09	-2.133200e+01	-2.892507e+02
1.160000e-06	-2.851228e-06	-4.232165e-09	-2.105971e+01	-2.874875e+02
1.170000e-06	-2.814177e-06	-4.193577e-09	-2.078604e+01	-2.856899e+02
1.180000e-06	-2.776933e-06	-4.171076e-09	-2.051095e+01	-2.838568e+02
1.190000e-06	-2.739382e-06	-4.153360e-09	-2.023359e+01	-2.819876e+02
1.200000e-06	-2.701592e-06	-4.122744e-09	-1.995446e+01	-2.800823e+02
1.210000e-06	-2.663697e-06	-4.080548e-09	-1.967456e+01	-2.781412e+02
1.220000e-06	-2.625645e-06	-4.046684e-09	-1.939351e+01	-2.761652e+02
1.230000e-06	-2.587415e-06	-4.025122e-09	-1.911113e+01	-2.741556e+02
1.240000e-06	-2.548973e-06	-4.001467e-09	-1.882719e+01	-2.721138e+02
1.250000e-06	-2.510342e-06	-3.968122e-09	-1.854186e+01	-2.700417e+02
1.260000e-06	-2.471578e-06	-3.935385e-09	-1.825554e+01	-2.679415e+02
1.270000e-06	-2.432722e-06	-3.907089e-09	-1.796854e+01	-2.658153e+02
1.280000e-06	-2.393706e-06	-3.879803e-09	-1.768036e+01	-2.636653e+02
1.290000e-06	-2.354352e-06	-3.850018e-09	-1.738969e+01	-2.614939e+02
1.300000e-06	-2.314870e-06	-3.820374e-09	-1.709806e+01	-2.593032e+02
1.310000e-06	-2.275342e-06	-3.786980e-09	-1.680610e+01	-2.570952e+02
1.320000e-06	-2.235651e-06	-3.749174e-09	-1.651293e+01	-2.548716e+02
1.330000e-06	-2.195891e-06	-3.713134e-09	-1.621926e+01	-2.526339e+02
1.340000e-06	-2.156099e-06	-3.683108e-09	-1.592535e+01	-2.503832e+02
1.350000e-06	-2.116191e-06	-3.650862e-09	-1.563059e+01	-2.481204e+02
1.360000e-06	-2.076176e-06	-3.611719e-09	-1.533503e+01	-2.458459e+02
1.370000e-06	-2.036032e-06	-3.573431e-09	-1.503852e+01	-2.435598e+02
1.380000e-06	-1.995758e-06	-3.540285e-09	-1.474104e+01	-2.412616e+02
1.390000e-06	-1.955363e-06	-3.509492e-09	-1.444268e+01	-2.389508e+02
1.400000e-06	-1.914846e-06	-3.474195e-09	-1.414341e+01	-2.366265e+02
1.410000e-06	-1.874210e-06	-3.432055e-09	-1.384327e+01	-2.342872e+02
1.420000e-06	-1.833367e-06	-3.389435e-09	-1.354159e+01	-2.319316e+02
1.430000e-06	-1.792325e-06	-3.355666e-09	-1.323845e+01	-2.295580e+02
1.440000e-06	-1.751110e-06	-3.324492e-09	-1.293403e+01	-2.271646e+02
1.450000e-06	-1.709763e-06	-3.286507e-09	-1.262863e+01	-2.247498e+02
1.460000e-06	-1.668212e-06	-3.244209e-09	-1.232172e+01	-2.223117e+02
1.470000e-06	-1.626419e-06	-3.209512e-09	-1.201303e+01	-2.198486e+02
1.480000e-06	-1.584354e-06	-3.178960e-09	-1.170234e+01	-2.173589e+02
1.490000e-06	-1.541955e-06	-3.146604e-09	-1.138917e+01	-2.148415e+02
1.500000e-06	-1.499453e-06	-3.106014e-09	-1.107524e+01	-2.122950e+02
1.510000e-06	-1.456812e-06	-3.061668e-09	-1.076028e+01	-2.097187e+02
1.520000e-06	-1.414017e-06	-3.021778e-09	-1.044420e+01	-2.071119e+02
1.530000e-06	-1.371141e-06	-2.985707e-09	-1.012750e+01	-2.044744e+02
1.540000e-06	-1.328044e-06	-2.947453e-09	-9.809179e+00	-2.018062e+02
1.550000e-06	-1.284797e-06	-2.904290e-09	-9.489748e+00	-1.991076e+02
1.560000e-06	-1.241521e-06	-2.859632e-09	-9.170107e+00	-1.963791e+02
1.570000e-06	-1.198148e-06	-2.818125e-09	-8.849747e+00	-1.936215e+02
1.580000e-06	-1.154698e-06	-2.779649e-09	-8.528812e+00	-1.908359e+02
1.590000e-06	-1.111195e-06	-2.740928e-09	-8.207496e+00	-1.880233e+02
1.600000e-06	-1.067552e-06	-2.698291e-09	-7.885139e+00	-1.851849e+02
1.610000e-06	-1.023870e-06	-2.653722e-09	-7.562495e+00	-1.823220e+02
1.620000e-06	-9.801898e-07	-2.610590e-09	-7.239866e+00	-1.794358e+02
1.630000e-06	-9.364752e-07	-2.568335e-09	-6.916982e+00	-1.765276e+02
1.640000e-06	-8.927077e-07	-2.525226e-09	-6.593706e+00	-1.735982e+02
1.650000e-06	-8.488715e-07	-2.476771e-09	-6.269924e+00	-1.706487e+02
1.660000e-06	-8.050190e-07	-2.425795e-09	-5.946021e+00	-1.676796e+02
1.670000e-06	-7.611813e-07	-2.382641e-09	-5.622228e+00	-1.646914e+02
1.680000e-06	-7.173319e-07	-2.344761e-09	-5.298348e+00	-1.616843e+02
1.690000e-06	-6.734658e-07	-2.300191e-09	-4.974345e+00	-1.586580e+02
1.700000e-06	-6.295189e-07	-2.248131e-09	-4.649745e+00	-1.556123e+02
1.710000e-06	-5.855088e-07	-2.200106e-09	-4.324678e+00	-1.525464e+02
1.720000e-06	-5.414790e-07	-2.160368e-09	-3.999466e+00	-1.494594e+02
1.730000e-06	-4.974077e-07	-2.118092e-09	-3.673947e+00	-1.463502e+02
1.740000e-06	-4.533498e-07	-2.066777e-09	-3.348526e+00	-1.432174e+02
1.750000e-06	-4.092907e-07	-2.013656e-09	-3.023098e+00	-1.400596e+02
1.760000e-06	-3.651677e-07	-1.965460e-09	-2.697197e+00	-1.368751e+02
1.770000e-06	-3.210502e-07	-1.921845e-09	-2.371337e+00	-1.336623e+02
1.780000e-06	-2.769907e-07	-1.876815e-09	-2.045905e+00	-1.304197e+02
1.790000e-06	-2.329238e-07	-1.826542e-09	-1.720418e+00	-1.271458e+02
1.800000e-06	-1.888390e-07	-1.776306e-09	-1.394800e+00	-1.238391e+02
1.810000e-06	-1.448035e-07	-1.730331e-09	-1.069546e+00	-1.204985e+02
1.820000e-06	-1.007721e-07	-1.684709e-09	-7.443217e-01	-1.171229e+02
1.830000e-06	-5.668144e-08	-1.633502e-09	-4.186597e-01	-1.137117e+02
1.840000e-06	-1.256208e-08	-1.578732e-09	-9.278588e-02	-1.102643e+02
1.850000e-06	3.156422e-08	-1.525447e-09	2.331392e-01	-1.067808e+02
1.860000e-06	7.566132e-08	-1.475961e-09	5.588487e-01	-1.032613e+02
1.870000e-06	1.197316e-07	-1.429514e-09	8.843597e-01	-9.970636e+01
1.880000e-06	1.638686e-07	-1.382025e-09	1.210364e+00	-9.611676e+01
1.890000e-06	2.080023e-07	-1.329479e-09	1.536344e+00	-9.249364e+01
1.900000e-06	2.521188e-07	-1.275807e-09	1.862197e+00	-8.883838e+01
1.910000e-06	2.961971e-07	-1.225645e-09	2.187768e+00	-8.515255e+01
1.920000e-06	3.402038e-07	-1.175849e-09	2.512809e+00	-8.143787e+01
1.930000e-06	3.842186e-07	-1.120081e-09	2.837911e+00	-7.769618e+01
1.940000e-06	4.282044e-07	-1.060172e-09	3.162798e+00	-7.392937e+01
1.950000e-06	4.722031e-07	-1.002380e-09	3.487781e+00	-7.013928e+01
1.960000e-06	5.162141e-07	-9.492925e-10	3.812854e+00	-6.632772e+01
1.970000e-06	5.601856e-07	-8.974293e-10	4.137636e+00	-6.249631e+01
1.980000e-06	6.041154e-07	-8.429388e-10	4.462110e+00	-5.864653e+01
1.990000e-06	6.480127e-07	-7.881184e-10	4.786343e+00	-5.477958e+01
2.000000e-06	6.918916e-07	-7.350191e-10	5.110441e+00	-5.089642e+01
2.010000e-06	7.357739e-07	-6.805731e-10	5.434564e+00	-4.699767e+01
2.020000e-06	7.796238e-07	-6.235362e-10	5.758448e+00	-4.308365e+01
2.030000e-06	8.234354e-07	-5.624749e-10	6.082049e+00	-3.915431e+01
2.040000e-06	8.672428e-07	-5.023360e-10	6.405618e+00	-3.520931e+01
2.050000e-06	9.110296e-07	-4.450537e-10	6.729035e+00	-3.124797e+01
2.060000e-06	9.547772e-07	-3.882050e-10	7.052163e+00	-2.726931e+01
2.070000e-06	9.984878e-07	-3.306388e-10	7.375018e+00	-2.327214e+01
2.080000e-06	1.042176e-06	-2.720558e-10	7.697707e+00	-1.925502e+01
2.090000e-06	1.085802e-06	-2.142805e-10	8.019940e+00	-1.521641e+01
2.100000e-06	1.129326e-06	-1.538883e-10	8.341417e+00	-1.115465e+01
2.110000e-06	1.172791e-06	-9.325061e-11	8.662455e+00	-7.068088e+00
2.120000e-06	1.216217e-06	-3.243532e-11	8.983205e+00	-2.955127e+00
2.130000e-06	1.259561e-06	3.034439e-11	9.303353e+00	1.185709e+00
2.140000e-06	1.302799e-06	9.442445e-11	9.622720e+00	5.355697e+00
2.150000e-06	1.345853e-06	1.576605e-10	9.940723e+00	9.555853e+00
2.160000e-06	1.388715e-06	2.200148e-10	1.025731e+01	1.378687e+01
2.170000e-06	1.431512e-06	2.834854e-10	1.057341e+01	1.804908e+01
2.180000e-06	1.474183e-06	3.486416e-10	1.088859e+01	2.234239e+01
2.190000e-06	1.516617e-06	4.127492e-10	1.120201e+01	2.666628e+01
2.200000e-06	1.558840e-06	4.758166e-10	1.151389e+01	3.101975e+01
2.210000e-06	1.600829e-06	5.388871e-10	1.182403e+01	3.540136e+01
2.220000e-06	1.642669e-06	6.020303e-10	1.213306e+01	3.980920e+01
2.230000e-06	1.684327e-06	6.688829e-10	1.244075e+01	4.424094e+01
2.240000e-06	1.725686e-06	7.374337e-10	1.274624e+01	4.869382e+01
2.250000e-06	1.766844e-06	8.046525e-10	1.305024e+01	5.316476e+01
2.260000e-06	1.807784e-06	8.703112e-10	1.335263e+01	5.765034e+01
2.270000e-06	1.848546e-06	9.344874e-10	1.365371e+01	6.214693e+01
2.280000e-06	1.889105e-06	1.000245e-09	1.395328e+01	6.665072e+01
2.290000e-06	1.929447e-06	1.065221e-09	1.425126e+01	7.115779e+01
2.300000e-06	1.969682e-06	1.129169e-09	1.454844e+01	7.566421e+01
2.310000e-06	2.009873e-06	1.193373e-09	1.484530e+01	8.016610e+01
2.320000e-06	2.050010e-06	1.258664e-09	1.514176e+01	8.465970e+01
2.330000e-06	2.090014e-06	1.326114e-09	1.543724e+01	8.914146e+01
2.340000e-06	2.129924e-06	1.393589e-09	1.573202e+01	9.360804e+01
2.350000e-06	2.169740e-06	1.461457e-09	1.602610e+01	9.805645e+01
2.360000e-06	2.209498e-06	1.529300e-09	1.631977e+01	1.024840e+02
2.370000e-06	2.249201e-06	1.595779e-09	1.661302e+01	1.068884e+02
2.380000e-06	2.288835e-06	1.660383e-09	1.690576e+01	1.112678e+02
2.390000e-06	2.328322e-06	1.722698e-09	1.719742e+01	1.156207e+02
2.400000e-06	2.367511e-06	1.785169e-09	1.748688e+01	1.199459e+02
2.410000e-06	2.406563e-06	1.848717e-09	1.777533e+01	1.242427e+02
2.420000e-06	2.445514e-06	1.911822e-09	1.806303e+01	1.285107e+02
2.430000e-06	2.484217e-06	1.975587e-09	1.834889e+01	1.327497e+02
2.440000e-06	2.522592e-06	2.036935e-09	1.863234e+01	1.369600e+02
2.450000e-06	2.560778e-06	2.098483e-09	1.891439e+01	1.411417e+02
2.460000e-06	2.598895e-06	2.158716e-09	1.919592e+01	1.452954e+02
2.470000e-06	2.636839e-06	2.218464e-09	1.947619e+01	1.494215e+02
2.480000e-06	2.674674e-06	2.276947e-09	1.975564e+01	1.535205e+02
2.490000e-06	2.712387e-06	2.333733e-09	2.003420e+01	1.575928e+02
2.500000e-06	2.749899e-06	2.392005e-09	2.031127e+01	1.616387e+02
2.510000e-06	2.787152e-06	2.452672e-09	2.058643e+01	1.656582e+02
2.520000e-06	2.824161e-06	2.514173e-09	2.085978e+01	1.696512e+02
2.530000e-06	2.860945e-06	2.574013e-09	2.113147e+01	1.736173e+02
2.540000e-06	2.897519e-06	2.630370e-09	2.140162e+01	1.775556e+02
2.550000e-06	2.933932e-06	2.684787e-09	2.167057e+01	1.814652e+02
2.560000e-06	2.970217e-06	2.737904e-09	2.193858e+01	1.853447e+02
2.570000e-06	3.006359e-06	2.791768e-09	2.220553e+01	1.891924e+02
2.580000e-06	3.042355e-06	2.846339e-09	2.247141e+01	1.930064e+02
2.590000e-06	3.078258e-06	2.898679e-09	2.273659e+01	1.967845e+02
2.600000e-06	3.114060e-06	2.949999e-09	2.300103e+01	2.005243e+02
2.610000e-06	3.149674e-06	3.002120e-09	2.326408e+01	2.042233e+02
2.620000e-06	3.185067e-06	3.055805e-09	2.352550e+01	2.078788e+02
2.630000e-06	3.220228e-06	3.108895e-09	2.378520e+01	2.114883e+02
2.640000e-06	3.255061e-06	3.160523e-09	2.404249e+01	2.150490e+02
2.650000e-06	3.289497e-06	3.209469e-09	2.429684e+01	2.185586e+02
2.660000e-06	3.323607e-06	3.258883e-09	2.454878e+01	2.220147e+02
2.670000e-06	3.357359e-06	3.307820e-09	2.479809e+01	2.254154e+02
2.680000e-06	3.390702e-06	3.357229e-09	2.504436e+01	2.287589e+02
2.690000e-06	3.423710e-06	3.405433e-09	2.528816e+01	2.320439e+02
2.700000e-06	3.456452e-06	3.450922e-09	2.553001e+01	2.352693e+02
2.710000e-06	3.488904e-06	3.494256e-09	2.576970e+01	2.384347e+02
2.720000e-06	3.521091e-06	3.539526e-09	2.600744e+01	2.415399e+02
2.730000e-06	3.553119e-06	3.585776e-09	2.624400e+01	2.445853e+02
2.740000e-06	3.584993e-06	3.628957e-09	2.647943e+01	2.475718e+02
2.750000e-06	3.616717e-06	3.670394e-09	2.671375e+01	2.505003e+02
2.760000e-06	3.648283e-06	3.712510e-09	2.694690e+01	2.533726e+02
2.770000e-06	3.679551e-06	3.755187e-09	2.717785e+01	2.561904e+02
2.780000e-06	3.710471e-06	3.795555e-09	2.740623e+01	2.589560e+02
2.790000e-06	3.741175e-06	3.833774e-09	2.763302e+01	2.616717e+02
2.800000e-06	3.771645e-06	3.872530e-09	2.785808e+01	2.643399e+02
2.810000e-06	3.801848e-06	3.912769e-09	2.808116e+01	2.669632e+02
2.820000e-06	3.831795e-06	3.952957e-09	2.830236e+01	2.695441e+02
2.830000e-06	3.861518e-06	3.991317e-09	2.852189e+01	2.720849e+02
2.840000e-06	3.891010e-06	4.027287e-09	2.873973e+01	2.745880e+02
2.850000e-06	3.920192e-06	4.063961e-09	2.895527e+01	2.770552e+02
2.860000e-06	3.949025e-06	4.102919e-09	2.916824e+01	2.794884e+02
2.870000e-06	3.977608e-06	4.142152e-09	2.937936e+01	2.818888e+02
2.880000e-06	4.006025e-06	4.177471e-09	2.958925e+01	2.842575e+02
2.890000e-06	4.034274e-06	4.212509e-09	2.979790e+01	2.865950e+02
2.900000e-06	4.062309e-06	4.244357e-09	3.000498e+01	2.889016e+02
