# Temperatura_=_20.0
# Concentracion g/m^3_=_12600.0
# C_Vs_to_Am_M_A/Vsm_=_65563218390.804596
# pendiente_HvsI_1/m_=_3716.3
# ordenada_HvsI_A/m_=_1297.0
# frecuencia_Hz_=_135137.24025491823

Tiempo_(s)	Campo_(V.s)	Magnetizacion_(V.s)	Campo_(kA/m)	Magnetizacion_(A/m)
0.000000e+00	-5.196901e-06	-2.465009e-11	-3.846617e+01	-9.335990e+00
1.000000e-08	-5.196911e-06	-2.419867e-11	-3.846625e+01	-9.450751e+00
2.000000e-08	-5.196751e-06	-2.414812e-11	-3.846506e+01	-9.583799e+00
3.000000e-08	-5.196299e-06	-2.407417e-11	-3.846172e+01	-9.729358e+00
4.000000e-08	-5.195458e-06	-2.339169e-11	-3.845550e+01	-9.880641e+00
5.000000e-08	-5.194139e-06	-1.985578e-11	-3.844573e+01	-1.002997e+01
6.000000e-08	-5.192235e-06	-1.844755e-11	-3.843164e+01	-1.016895e+01
7.000000e-08	-5.189765e-06	-3.706484e-11	-3.841336e+01	-1.028862e+01
8.000000e-08	-5.186711e-06	-1.887602e-11	-3.839075e+01	-1.037968e+01
9.000000e-08	-5.183163e-06	4.113760e-11	-3.836449e+01	-1.043271e+01
1.000000e-07	-5.179277e-06	1.020213e-11	-3.833573e+01	-1.043838e+01
1.100000e-07	-5.175127e-06	-1.214446e-10	-3.830501e+01	-1.038767e+01
1.200000e-07	-5.170739e-06	-1.167483e-10	-3.827253e+01	-1.027215e+01
1.300000e-07	-5.166087e-06	3.213436e-11	-3.823810e+01	-1.008414e+01
1.400000e-07	-5.161097e-06	1.595648e-10	-3.820117e+01	-9.816967e+00
1.500000e-07	-5.155661e-06	4.288673e-11	-3.816092e+01	-9.465119e+00
1.600000e-07	-5.149814e-06	-4.810871e-11	-3.811765e+01	-9.024436e+00
1.700000e-07	-5.143635e-06	-3.102328e-11	-3.807192e+01	-8.492231e+00
1.800000e-07	-5.137194e-06	2.138155e-11	-3.802424e+01	-7.867398e+00
1.900000e-07	-5.130425e-06	7.803700e-11	-3.797414e+01	-7.150481e+00
2.000000e-07	-5.123312e-06	-4.623558e-12	-3.792149e+01	-6.343703e+00
2.100000e-07	-5.115924e-06	-1.263720e-10	-3.786681e+01	-5.450959e+00
2.200000e-07	-5.108288e-06	-1.717966e-10	-3.781029e+01	-4.477766e+00
2.300000e-07	-5.100437e-06	3.842515e-12	-3.775218e+01	-3.431182e+00
2.400000e-07	-5.092059e-06	1.843980e-10	-3.769016e+01	-2.319681e+00
2.500000e-07	-5.083181e-06	1.006629e-10	-3.762445e+01	-1.153001e+00
2.600000e-07	-5.073902e-06	-3.039383e-11	-3.755577e+01	5.804209e-02
2.700000e-07	-5.063981e-06	1.077717e-10	-3.748234e+01	1.301763e+00
2.800000e-07	-5.053592e-06	2.363364e-10	-3.740544e+01	2.565836e+00
2.900000e-07	-5.042853e-06	1.137725e-10	-3.732595e+01	3.837542e+00
3.000000e-07	-5.031639e-06	3.029802e-11	-3.724295e+01	5.104017e+00
3.100000e-07	-5.019918e-06	1.870048e-10	-3.715619e+01	6.352510e+00
3.200000e-07	-5.007855e-06	1.225205e-10	-3.706690e+01	7.570637e+00
3.300000e-07	-4.995478e-06	-7.561626e-11	-3.697529e+01	8.746614e+00
3.400000e-07	-4.982622e-06	2.447896e-11	-3.688014e+01	9.869493e+00
3.500000e-07	-4.969334e-06	2.293935e-10	-3.678178e+01	1.092936e+01
3.600000e-07	-4.955831e-06	3.381187e-11	-3.668183e+01	1.191752e+01
3.700000e-07	-4.942024e-06	-8.921724e-11	-3.657964e+01	1.282665e+01
3.800000e-07	-4.927807e-06	1.628674e-10	-3.647441e+01	1.365088e+01
3.900000e-07	-4.913119e-06	2.484693e-10	-3.636569e+01	1.438595e+01
4.000000e-07	-4.897749e-06	3.688097e-11	-3.625193e+01	1.502917e+01
4.100000e-07	-4.881810e-06	-3.069541e-11	-3.613395e+01	1.557950e+01
4.200000e-07	-4.865465e-06	1.321698e-10	-3.601297e+01	1.603745e+01
4.300000e-07	-4.848844e-06	1.725650e-10	-3.588994e+01	1.640508e+01
4.400000e-07	-4.831850e-06	1.097626e-10	-3.576416e+01	1.668586e+01
4.500000e-07	-4.814515e-06	5.839570e-11	-3.563585e+01	1.688458e+01
4.600000e-07	-4.797027e-06	4.484661e-11	-3.550640e+01	1.700714e+01
4.700000e-07	-4.779191e-06	8.414329e-11	-3.537439e+01	1.706044e+01
4.800000e-07	-4.761049e-06	1.853790e-10	-3.524011e+01	1.705214e+01
4.900000e-07	-4.742593e-06	1.549143e-10	-3.510350e+01	1.699048e+01
5.000000e-07	-4.723637e-06	4.354173e-11	-3.496319e+01	1.688407e+01
5.100000e-07	-4.704332e-06	4.383460e-11	-3.482030e+01	1.674166e+01
5.200000e-07	-4.684799e-06	1.629039e-10	-3.467573e+01	1.657196e+01
5.300000e-07	-4.665000e-06	1.902738e-10	-3.452917e+01	1.638345e+01
5.400000e-07	-4.644949e-06	9.179676e-11	-3.438076e+01	1.618415e+01
5.500000e-07	-4.624718e-06	1.693831e-11	-3.423102e+01	1.598154e+01
5.600000e-07	-4.604302e-06	9.344837e-11	-3.407990e+01	1.578234e+01
5.700000e-07	-4.583557e-06	1.784856e-10	-3.392636e+01	1.559243e+01
5.800000e-07	-4.562526e-06	1.257570e-10	-3.377069e+01	1.541678e+01
5.900000e-07	-4.541140e-06	5.039419e-11	-3.361240e+01	1.525938e+01
6.000000e-07	-4.519332e-06	8.069255e-11	-3.345098e+01	1.512318e+01
6.100000e-07	-4.497297e-06	1.177271e-10	-3.328788e+01	1.501014e+01
6.200000e-07	-4.475036e-06	1.177370e-10	-3.312311e+01	1.492121e+01
6.300000e-07	-4.452433e-06	1.341164e-10	-3.295581e+01	1.485641e+01
6.400000e-07	-4.429406e-06	1.218824e-10	-3.278537e+01	1.481491e+01
6.500000e-07	-4.406057e-06	7.315822e-11	-3.261255e+01	1.479509e+01
6.600000e-07	-4.382491e-06	9.127267e-11	-3.243811e+01	1.479470e+01
6.700000e-07	-4.358698e-06	1.633765e-10	-3.226200e+01	1.481093e+01
6.800000e-07	-4.334672e-06	1.544383e-10	-3.208417e+01	1.484059e+01
6.900000e-07	-4.310463e-06	8.169715e-11	-3.190498e+01	1.488021e+01
7.000000e-07	-4.285992e-06	6.589032e-11	-3.172385e+01	1.492620e+01
7.100000e-07	-4.261164e-06	1.317318e-10	-3.154008e+01	1.497496e+01
7.200000e-07	-4.235894e-06	1.708635e-10	-3.135304e+01	1.502304e+01
7.300000e-07	-4.210081e-06	1.229154e-10	-3.116198e+01	1.506720e+01
7.400000e-07	-4.183899e-06	6.044431e-11	-3.096819e+01	1.510456e+01
7.500000e-07	-4.157305e-06	8.832652e-11	-3.077135e+01	1.513263e+01
7.600000e-07	-4.130211e-06	1.551024e-10	-3.057080e+01	1.514944e+01
7.700000e-07	-4.102755e-06	1.546192e-10	-3.036758e+01	1.515350e+01
7.800000e-07	-4.075086e-06	9.085062e-11	-3.016278e+01	1.514390e+01
7.900000e-07	-4.047238e-06	7.275643e-11	-2.995666e+01	1.512027e+01
8.000000e-07	-4.019175e-06	1.199397e-10	-2.974894e+01	1.508277e+01
8.100000e-07	-3.990802e-06	1.537002e-10	-2.953893e+01	1.503209e+01
8.200000e-07	-3.962217e-06	1.228896e-10	-2.932735e+01	1.496933e+01
8.300000e-07	-3.933441e-06	8.663445e-11	-2.911436e+01	1.489602e+01
8.400000e-07	-3.904312e-06	1.000701e-10	-2.889876e+01	1.481399e+01
8.500000e-07	-3.874904e-06	1.346513e-10	-2.868108e+01	1.472530e+01
8.600000e-07	-3.845284e-06	1.372284e-10	-2.846184e+01	1.463217e+01
8.700000e-07	-3.815417e-06	1.136908e-10	-2.824077e+01	1.453687e+01
8.800000e-07	-3.785279e-06	1.028176e-10	-2.801770e+01	1.444166e+01
8.900000e-07	-3.754945e-06	1.202239e-10	-2.779317e+01	1.434867e+01
9.000000e-07	-3.724330e-06	1.358471e-10	-2.756657e+01	1.425986e+01
9.100000e-07	-3.693394e-06	1.300821e-10	-2.733759e+01	1.417693e+01
9.200000e-07	-3.662210e-06	1.180878e-10	-2.710678e+01	1.410128e+01
9.300000e-07	-3.630813e-06	1.172905e-10	-2.687438e+01	1.403395e+01
9.400000e-07	-3.599245e-06	1.227468e-10	-2.664072e+01	1.397563e+01
9.500000e-07	-3.567543e-06	1.262101e-10	-2.640607e+01	1.392660e+01
9.600000e-07	-3.535677e-06	1.324787e-10	-2.617021e+01	1.388677e+01
9.700000e-07	-3.503588e-06	1.340020e-10	-2.593269e+01	1.385565e+01
9.800000e-07	-3.471293e-06	1.236853e-10	-2.569366e+01	1.383246e+01
9.900000e-07	-3.438730e-06	1.175868e-10	-2.545263e+01	1.381607e+01
1.000000e-06	-3.405826e-06	1.302308e-10	-2.520908e+01	1.380515e+01
1.010000e-06	-3.372673e-06	1.404408e-10	-2.496369e+01	1.379814e+01
1.020000e-06	-3.339191e-06	1.302879e-10	-2.471587e+01	1.379340e+01
1.030000e-06	-3.305301e-06	1.142353e-10	-2.446502e+01	1.378920e+01
1.040000e-06	-3.271040e-06	1.214092e-10	-2.421143e+01	1.378386e+01
1.050000e-06	-3.236376e-06	1.427454e-10	-2.395486e+01	1.377578e+01
1.060000e-06	-3.201324e-06	1.466560e-10	-2.369541e+01	1.376350e+01
1.070000e-06	-3.165978e-06	1.262963e-10	-2.343379e+01	1.374577e+01
1.080000e-06	-3.130400e-06	1.160508e-10	-2.317044e+01	1.372160e+01
1.090000e-06	-3.094675e-06	1.320280e-10	-2.290602e+01	1.369030e+01
1.100000e-06	-3.058869e-06	1.453866e-10	-2.264099e+01	1.365150e+01
1.110000e-06	-3.022910e-06	1.343146e-10	-2.237483e+01	1.360517e+01
1.120000e-06	-2.986788e-06	1.207879e-10	-2.210746e+01	1.355162e+01
1.130000e-06	-2.950542e-06	1.257555e-10	-2.183918e+01	1.349151e+01
1.140000e-06	-2.914144e-06	1.397154e-10	-2.156977e+01	1.342579e+01
1.150000e-06	-2.877534e-06	1.419912e-10	-2.129879e+01	1.335568e+01
1.160000e-06	-2.840759e-06	1.320793e-10	-2.102660e+01	1.328267e+01
1.170000e-06	-2.803784e-06	1.272225e-10	-2.075292e+01	1.320839e+01
1.180000e-06	-2.766534e-06	1.331344e-10	-2.047720e+01	1.313463e+01
1.190000e-06	-2.729025e-06	1.397740e-10	-2.019957e+01	1.306321e+01
1.200000e-06	-2.691359e-06	1.389384e-10	-1.992078e+01	1.299597e+01
1.210000e-06	-2.653584e-06	1.348036e-10	-1.964118e+01	1.293466e+01
1.220000e-06	-2.615572e-06	1.331526e-10	-1.935982e+01	1.288090e+01
1.230000e-06	-2.577329e-06	1.352453e-10	-1.907675e+01	1.283613e+01
1.240000e-06	-2.538963e-06	1.396092e-10	-1.879278e+01	1.280152e+01
1.250000e-06	-2.500455e-06	1.413300e-10	-1.850775e+01	1.277798e+01
1.260000e-06	-2.461805e-06	1.407423e-10	-1.822168e+01	1.276608e+01
1.270000e-06	-2.422908e-06	1.380867e-10	-1.793376e+01	1.276604e+01
1.280000e-06	-2.383769e-06	1.376426e-10	-1.764407e+01	1.277773e+01
1.290000e-06	-2.344503e-06	1.435091e-10	-1.735343e+01	1.280065e+01
1.300000e-06	-2.305202e-06	1.489378e-10	-1.706253e+01	1.283398e+01
1.310000e-06	-2.265692e-06	1.448477e-10	-1.677009e+01	1.287654e+01
1.320000e-06	-2.226014e-06	1.376199e-10	-1.647641e+01	1.292689e+01
1.330000e-06	-2.186306e-06	1.404769e-10	-1.618250e+01	1.298334e+01
1.340000e-06	-2.146484e-06	1.492394e-10	-1.588774e+01	1.304400e+01
1.350000e-06	-2.106589e-06	1.498372e-10	-1.559245e+01	1.310687e+01
1.360000e-06	-2.066607e-06	1.433341e-10	-1.529651e+01	1.316986e+01
1.370000e-06	-2.026560e-06	1.432561e-10	-1.500010e+01	1.323089e+01
1.380000e-06	-1.986420e-06	1.505992e-10	-1.470299e+01	1.328793e+01
1.390000e-06	-1.946168e-06	1.561587e-10	-1.440505e+01	1.333908e+01
1.400000e-06	-1.905825e-06	1.538290e-10	-1.410644e+01	1.338264e+01
1.410000e-06	-1.865434e-06	1.494405e-10	-1.380748e+01	1.341714e+01
1.420000e-06	-1.824822e-06	1.502247e-10	-1.350688e+01	1.344137e+01
1.430000e-06	-1.784017e-06	1.569852e-10	-1.320485e+01	1.345447e+01
1.440000e-06	-1.743098e-06	1.607551e-10	-1.290198e+01	1.345591e+01
1.450000e-06	-1.701890e-06	1.546573e-10	-1.259697e+01	1.344553e+01
1.460000e-06	-1.660478e-06	1.489309e-10	-1.229045e+01	1.342351e+01
1.470000e-06	-1.618836e-06	1.525851e-10	-1.198223e+01	1.339041e+01
1.480000e-06	-1.577091e-06	1.569903e-10	-1.167324e+01	1.334709e+01
1.490000e-06	-1.535275e-06	1.548248e-10	-1.136373e+01	1.329475e+01
1.500000e-06	-1.493071e-06	1.504165e-10	-1.105134e+01	1.323480e+01
1.510000e-06	-1.450604e-06	1.509389e-10	-1.073701e+01	1.316891e+01
1.520000e-06	-1.407970e-06	1.526734e-10	-1.042145e+01	1.309886e+01
1.530000e-06	-1.365205e-06	1.498461e-10	-1.010491e+01	1.302657e+01
1.540000e-06	-1.322293e-06	1.447426e-10	-9.787284e+00	1.295395e+01
1.550000e-06	-1.279098e-06	1.448627e-10	-9.467568e+00	1.288291e+01
1.560000e-06	-1.235852e-06	1.498928e-10	-9.147468e+00	1.281524e+01
1.570000e-06	-1.192664e-06	1.570429e-10	-8.827802e+00	1.275262e+01
1.580000e-06	-1.149347e-06	1.626342e-10	-8.507183e+00	1.269648e+01
1.590000e-06	-1.105843e-06	1.633402e-10	-8.185175e+00	1.264803e+01
1.600000e-06	-1.062253e-06	1.609061e-10	-7.862532e+00	1.260819e+01
1.610000e-06	-1.018584e-06	1.625011e-10	-7.539310e+00	1.257757e+01
1.620000e-06	-9.748567e-07	1.669720e-10	-7.215648e+00	1.255643e+01
1.630000e-06	-9.311030e-07	1.693248e-10	-6.891794e+00	1.254471e+01
1.640000e-06	-8.873272e-07	1.680572e-10	-6.567777e+00	1.254203e+01
1.650000e-06	-8.435384e-07	1.694381e-10	-6.243662e+00	1.254769e+01
1.660000e-06	-7.996591e-07	1.748227e-10	-5.918879e+00	1.256070e+01
1.670000e-06	-7.557905e-07	1.765511e-10	-5.594174e+00	1.257982e+01
1.680000e-06	-7.119530e-07	1.759639e-10	-5.269700e+00	1.260361e+01
1.690000e-06	-6.680508e-07	1.733990e-10	-4.944747e+00	1.263048e+01
1.700000e-06	-6.241361e-07	1.711202e-10	-4.619701e+00	1.265873e+01
1.710000e-06	-5.801971e-07	1.688691e-10	-4.294475e+00	1.268663e+01
1.720000e-06	-5.362098e-07	1.671547e-10	-3.968893e+00	1.271246e+01
1.730000e-06	-4.922112e-07	1.655453e-10	-3.643226e+00	1.273459e+01
1.740000e-06	-4.482030e-07	1.660028e-10	-3.317487e+00	1.275152e+01
1.750000e-06	-4.041926e-07	1.689217e-10	-2.991734e+00	1.276193e+01
1.760000e-06	-3.601629e-07	1.725606e-10	-2.665837e+00	1.276471e+01
1.770000e-06	-3.160673e-07	1.740518e-10	-2.339452e+00	1.275906e+01
1.780000e-06	-2.719341e-07	1.744401e-10	-2.012789e+00	1.274441e+01
1.790000e-06	-2.278337e-07	1.731617e-10	-1.686369e+00	1.272056e+01
1.800000e-06	-1.837445e-07	1.719460e-10	-1.360031e+00	1.268757e+01
1.810000e-06	-1.395890e-07	1.707167e-10	-1.033203e+00	1.264583e+01
1.820000e-06	-9.543256e-08	1.685323e-10	-7.063682e-01	1.259605e+01
1.830000e-06	-5.136022e-08	1.674080e-10	-3.801556e-01	1.253917e+01
1.840000e-06	-7.279723e-09	1.694589e-10	-5.388271e-02	1.247638e+01
1.850000e-06	3.680801e-08	1.721368e-10	2.724438e-01	1.240909e+01
1.860000e-06	8.086084e-08	1.735191e-10	5.985119e-01	1.233882e+01
1.870000e-06	1.249478e-07	1.745392e-10	9.248324e-01	1.226722e+01
1.880000e-06	1.690441e-07	1.747691e-10	1.251223e+00	1.219595e+01
1.890000e-06	2.131245e-07	1.750164e-10	1.577495e+00	1.212670e+01
1.900000e-06	2.571801e-07	1.733553e-10	1.903583e+00	1.206103e+01
1.910000e-06	3.012359e-07	1.703897e-10	2.229674e+00	1.200043e+01
1.920000e-06	3.453313e-07	1.682380e-10	2.556057e+00	1.194619e+01
1.930000e-06	3.893856e-07	1.691531e-10	2.882136e+00	1.189939e+01
1.940000e-06	4.333417e-07	1.713643e-10	3.207488e+00	1.186086e+01
1.950000e-06	4.772939e-07	1.720484e-10	3.532811e+00	1.183117e+01
1.960000e-06	5.212585e-07	1.709881e-10	3.858227e+00	1.181057e+01
1.970000e-06	5.651746e-07	1.703237e-10	4.183282e+00	1.179905e+01
1.980000e-06	6.090963e-07	1.703276e-10	4.508381e+00	1.179627e+01
1.990000e-06	6.529782e-07	1.700008e-10	4.833183e+00	1.180163e+01
2.000000e-06	6.968259e-07	1.687756e-10	5.157733e+00	1.181426e+01
2.010000e-06	7.407367e-07	1.668875e-10	5.482750e+00	1.183305e+01
2.020000e-06	7.846489e-07	1.658870e-10	5.807777e+00	1.185673e+01
2.030000e-06	8.284767e-07	1.659617e-10	6.132179e+00	1.188386e+01
2.040000e-06	8.722758e-07	1.647162e-10	6.456370e+00	1.191291e+01
2.050000e-06	9.161049e-07	1.651581e-10	6.780782e+00	1.194231e+01
2.060000e-06	9.598767e-07	1.665137e-10	7.104770e+00	1.197050e+01
2.070000e-06	1.003502e-06	1.668570e-10	7.427672e+00	1.199596e+01
2.080000e-06	1.047039e-06	1.661680e-10	7.749921e+00	1.201730e+01
2.090000e-06	1.090574e-06	1.670269e-10	8.072159e+00	1.203329e+01
2.100000e-06	1.134052e-06	1.689660e-10	8.393976e+00	1.204287e+01
2.110000e-06	1.177349e-06	1.695370e-10	8.714444e+00	1.204523e+01
2.120000e-06	1.220498e-06	1.695410e-10	9.033825e+00	1.203979e+01
2.130000e-06	1.263581e-06	1.696038e-10	9.352715e+00	1.202625e+01
2.140000e-06	1.306578e-06	1.692839e-10	9.670965e+00	1.200457e+01
2.150000e-06	1.349378e-06	1.698957e-10	9.987762e+00	1.197497e+01
2.160000e-06	1.391918e-06	1.724229e-10	1.030263e+01	1.193795e+01
2.170000e-06	1.434351e-06	1.722170e-10	1.061671e+01	1.189419e+01
2.180000e-06	1.476688e-06	1.725934e-10	1.093008e+01	1.184462e+01
2.190000e-06	1.518813e-06	1.765128e-10	1.124188e+01	1.179031e+01
2.200000e-06	1.560709e-06	1.774525e-10	1.155198e+01	1.173243e+01
2.210000e-06	1.602458e-06	1.757222e-10	1.186100e+01	1.167224e+01
2.220000e-06	1.644031e-06	1.753245e-10	1.216871e+01	1.161103e+01
2.230000e-06	1.685348e-06	1.753287e-10	1.247453e+01	1.155005e+01
2.240000e-06	1.726392e-06	1.756041e-10	1.277833e+01	1.149048e+01
2.250000e-06	1.767283e-06	1.754235e-10	1.308099e+01	1.143338e+01
2.260000e-06	1.808072e-06	1.768898e-10	1.338290e+01	1.137963e+01
2.270000e-06	1.848598e-06	1.794220e-10	1.368286e+01	1.132996e+01
2.280000e-06	1.889022e-06	1.798631e-10	1.398207e+01	1.128485e+01
2.290000e-06	1.929348e-06	1.796119e-10	1.428055e+01	1.124455e+01
2.300000e-06	1.969480e-06	1.798824e-10	1.457760e+01	1.120905e+01
2.310000e-06	2.009546e-06	1.793948e-10	1.487416e+01	1.117812e+01
2.320000e-06	2.049611e-06	1.788897e-10	1.517071e+01	1.115129e+01
2.330000e-06	2.089622e-06	1.785933e-10	1.546687e+01	1.112787e+01
2.340000e-06	2.129471e-06	1.785369e-10	1.576182e+01	1.110699e+01
2.350000e-06	2.169197e-06	1.793255e-10	1.605586e+01	1.108763e+01
2.360000e-06	2.208835e-06	1.822784e-10	1.634925e+01	1.106867e+01
2.370000e-06	2.248374e-06	1.841316e-10	1.664191e+01	1.104892e+01
2.380000e-06	2.287757e-06	1.829707e-10	1.693341e+01	1.102720e+01
2.390000e-06	2.326946e-06	1.811737e-10	1.722348e+01	1.100237e+01
2.400000e-06	2.366044e-06	1.796513e-10	1.751287e+01	1.097338e+01
2.410000e-06	2.404977e-06	1.787606e-10	1.780105e+01	1.093933e+01
2.420000e-06	2.443626e-06	1.776315e-10	1.808712e+01	1.089952e+01
2.430000e-06	2.482059e-06	1.764682e-10	1.837159e+01	1.085346e+01
2.440000e-06	2.520416e-06	1.742246e-10	1.865550e+01	1.080093e+01
2.450000e-06	2.558675e-06	1.737540e-10	1.893868e+01	1.074200e+01
2.460000e-06	2.596647e-06	1.733875e-10	1.921974e+01	1.067701e+01
2.470000e-06	2.634443e-06	1.719497e-10	1.949949e+01	1.060661e+01
2.480000e-06	2.672202e-06	1.726318e-10	1.977898e+01	1.053174e+01
2.490000e-06	2.709806e-06	1.744226e-10	2.005732e+01	1.045358e+01
2.500000e-06	2.747211e-06	1.766878e-10	2.033418e+01	1.037357e+01
2.510000e-06	2.784390e-06	1.780590e-10	2.060937e+01	1.029333e+01
2.520000e-06	2.821361e-06	1.785494e-10	2.088302e+01	1.021461e+01
2.530000e-06	2.858062e-06	1.782403e-10	2.115467e+01	1.013927e+01
2.540000e-06	2.894528e-06	1.753336e-10	2.142458e+01	1.006918e+01
2.550000e-06	2.930886e-06	1.735250e-10	2.169370e+01	1.000619e+01
2.560000e-06	2.967056e-06	1.697642e-10	2.196142e+01	9.952014e+00
2.570000e-06	3.003065e-06	1.662696e-10	2.222794e+01	9.908238e+00
2.580000e-06	3.038989e-06	1.693341e-10	2.249385e+01	9.876199e+00
2.590000e-06	3.074862e-06	1.738363e-10	2.275937e+01	9.856958e+00
2.600000e-06	3.110582e-06	1.753145e-10	2.302376e+01	9.851243e+00
2.610000e-06	3.146110e-06	1.751552e-10	2.328673e+01	9.859419e+00
2.620000e-06	3.181327e-06	1.795122e-10	2.354739e+01	9.881453e+00
2.630000e-06	3.216211e-06	1.838475e-10	2.380560e+01	9.916904e+00
2.640000e-06	3.250751e-06	1.840576e-10	2.406125e+01	9.964920e+00
2.650000e-06	3.284962e-06	1.833785e-10	2.431448e+01	1.002425e+01
2.660000e-06	3.318813e-06	1.846945e-10	2.456503e+01	1.009325e+01
2.670000e-06	3.352104e-06	1.877113e-10	2.481145e+01	1.016996e+01
2.680000e-06	3.385060e-06	1.896907e-10	2.505538e+01	1.025213e+01
2.690000e-06	3.417830e-06	1.929788e-10	2.529793e+01	1.033725e+01
2.700000e-06	3.450315e-06	1.962024e-10	2.553838e+01	1.042267e+01
2.710000e-06	3.482568e-06	1.948368e-10	2.577711e+01	1.050565e+01
2.720000e-06	3.514649e-06	1.957419e-10	2.601457e+01	1.058345e+01
2.730000e-06	3.546568e-06	1.974753e-10	2.625082e+01	1.065338e+01
2.740000e-06	3.578345e-06	1.958334e-10	2.648602e+01	1.071294e+01
2.750000e-06	3.609945e-06	1.937550e-10	2.671992e+01	1.075984e+01
2.760000e-06	3.641340e-06	1.944345e-10	2.695230e+01	1.079210e+01
2.770000e-06	3.672451e-06	1.960170e-10	2.718257e+01	1.080814e+01
2.780000e-06	3.703280e-06	1.971933e-10	2.741076e+01	1.080679e+01
2.790000e-06	3.733785e-06	2.002073e-10	2.763655e+01	1.078735e+01
2.800000e-06	3.763999e-06	2.017860e-10	2.786019e+01	1.074964e+01
2.810000e-06	3.794079e-06	2.027290e-10	2.808283e+01	1.069397e+01
2.820000e-06	3.823912e-06	2.021004e-10	2.830365e+01	1.062120e+01
2.830000e-06	3.853455e-06	2.000112e-10	2.852232e+01	1.053266e+01
2.840000e-06	3.882744e-06	1.985101e-10	2.873911e+01	1.043016e+01
2.850000e-06	3.911791e-06	1.992751e-10	2.895411e+01	1.031594e+01
2.860000e-06	3.940722e-06	2.003300e-10	2.916825e+01	1.019257e+01
2.870000e-06	3.969379e-06	2.021955e-10	2.938036e+01	1.006295e+01
2.880000e-06	3.997671e-06	2.046591e-10	2.958977e+01	9.930140e+00
2.890000e-06	4.025750e-06	2.065455e-10	2.979761e+01	9.797345e+00
2.900000e-06	4.053655e-06	2.060851e-10	3.000415e+01	9.667779e+00
2.910000e-06	4.081419e-06	2.038467e-10	3.020965e+01	9.544583e+00
2.920000e-06	4.109034e-06	2.023140e-10	3.041405e+01	9.430729e+00
2.930000e-06	4.136316e-06	2.034975e-10	3.061599e+01	9.328927e+00
2.940000e-06	4.163159e-06	2.056430e-10	3.081468e+01	9.241544e+00
2.950000e-06	4.189649e-06	2.061288e-10	3.101075e+01	9.170529e+00
2.960000e-06	4.215682e-06	2.061392e-10	3.120343e+01	9.117352e+00
