# Temperatura_=_20.0
# Concentracion g/m^3_=_12600.0
# C_Vs_to_Am_M_A/Vsm_=_65563218390.804596
# pendiente_HvsI_1/m_=_3716.3
# ordenada_HvsI_A/m_=_1297.0
# frecuencia_Hz_=_135137.68881865175

Tiempo_(s)	Campo_(V.s)	Magnetizacion_(V.s)	Campo_(kA/m)	Magnetizacion_(A/m)
0.000000e+00	-5.216766e-06	2.030980e-11	-3.846405e+01	-2.522869e+00
1.000000e-08	-5.216803e-06	1.937693e-11	-3.846432e+01	-2.085225e+00
2.000000e-08	-5.216601e-06	1.609508e-11	-3.846283e+01	-1.593428e+00
3.000000e-08	-5.216054e-06	1.322663e-11	-3.845880e+01	-1.062099e+00
4.000000e-08	-5.215015e-06	1.658563e-11	-3.845114e+01	-5.083170e-01
5.000000e-08	-5.213476e-06	2.426154e-11	-3.843979e+01	4.869352e-02
6.000000e-08	-5.211456e-06	2.885604e-11	-3.842490e+01	5.879516e-01
7.000000e-08	-5.208763e-06	2.265292e-11	-3.840504e+01	1.087166e+00
8.000000e-08	-5.205406e-06	-2.475214e-12	-3.838029e+01	1.523232e+00
9.000000e-08	-5.201650e-06	1.746997e-11	-3.835260e+01	1.872775e+00
1.000000e-07	-5.197682e-06	1.189476e-10	-3.832333e+01	2.112710e+00
1.100000e-07	-5.193568e-06	9.969111e-11	-3.829301e+01	2.220817e+00
1.200000e-07	-5.189178e-06	-2.686261e-11	-3.826063e+01	2.176317e+00
1.300000e-07	-5.184420e-06	-9.258211e-11	-3.822556e+01	1.960426e+00
1.400000e-07	-5.179286e-06	7.519235e-11	-3.818770e+01	1.556873e+00
1.500000e-07	-5.173924e-06	1.876168e-10	-3.814817e+01	9.523732e-01
1.600000e-07	-5.168137e-06	7.964735e-11	-3.810550e+01	1.370439e-01
1.700000e-07	-5.161783e-06	-4.037376e-11	-3.805865e+01	-8.952596e-01
1.800000e-07	-5.155187e-06	-3.782030e-11	-3.801002e+01	-2.146686e+00
1.900000e-07	-5.148405e-06	6.840358e-11	-3.796001e+01	-3.615223e+00
2.000000e-07	-5.141285e-06	1.109086e-10	-3.790751e+01	-5.294627e+00
2.100000e-07	-5.133810e-06	8.425877e-11	-3.785240e+01	-7.174455e+00
2.200000e-07	-5.126058e-06	1.809352e-12	-3.779524e+01	-9.240196e+00
2.300000e-07	-5.118113e-06	-2.010383e-11	-3.773666e+01	-1.147350e+01
2.400000e-07	-5.109682e-06	4.050545e-11	-3.767450e+01	-1.385250e+01
2.500000e-07	-5.100481e-06	6.172771e-11	-3.760666e+01	-1.635223e+01
2.600000e-07	-5.090866e-06	-1.651197e-10	-3.753577e+01	-1.894511e+01
2.700000e-07	-5.081020e-06	-3.198787e-10	-3.746317e+01	-2.160149e+01
2.800000e-07	-5.070508e-06	-2.542375e-10	-3.738566e+01	-2.429026e+01
2.900000e-07	-5.059321e-06	-1.820638e-10	-3.730318e+01	-2.697951e+01
3.000000e-07	-5.047921e-06	-4.508166e-10	-3.721912e+01	-2.963719e+01
3.100000e-07	-5.036244e-06	-7.075371e-10	-3.713303e+01	-3.223176e+01
3.200000e-07	-5.024149e-06	-7.089203e-10	-3.704385e+01	-3.473288e+01
3.300000e-07	-5.011657e-06	-5.872235e-10	-3.695175e+01	-3.711203e+01
3.400000e-07	-4.998759e-06	-6.232239e-10	-3.685665e+01	-3.934310e+01
3.500000e-07	-4.985362e-06	-7.117915e-10	-3.675787e+01	-4.140293e+01
3.600000e-07	-4.971629e-06	-7.857572e-10	-3.665661e+01	-4.327178e+01
3.700000e-07	-4.957644e-06	-8.916388e-10	-3.655350e+01	-4.493366e+01
3.800000e-07	-4.943126e-06	-7.289898e-10	-3.644646e+01	-4.637670e+01
3.900000e-07	-4.927961e-06	-4.727135e-10	-3.633464e+01	-4.759328e+01
4.000000e-07	-4.912401e-06	-6.310856e-10	-3.621991e+01	-4.858014e+01
4.100000e-07	-4.896453e-06	-1.003591e-09	-3.610233e+01	-4.933837e+01
4.200000e-07	-4.880045e-06	-8.386689e-10	-3.598135e+01	-4.987329e+01
4.300000e-07	-4.863258e-06	-4.646660e-10	-3.585758e+01	-5.019423e+01
4.400000e-07	-4.846124e-06	-5.569545e-10	-3.573125e+01	-5.031425e+01
4.500000e-07	-4.828736e-06	-9.005703e-10	-3.560304e+01	-5.024973e+01
4.600000e-07	-4.811150e-06	-8.656590e-10	-3.547338e+01	-5.001990e+01
4.700000e-07	-4.793253e-06	-6.291632e-10	-3.534142e+01	-4.964635e+01
4.800000e-07	-4.774949e-06	-5.425470e-10	-3.520646e+01	-4.915247e+01
4.900000e-07	-4.756205e-06	-6.707721e-10	-3.506826e+01	-4.856280e+01
5.000000e-07	-4.737108e-06	-8.060875e-10	-3.492745e+01	-4.790248e+01
5.100000e-07	-4.717760e-06	-8.009791e-10	-3.478480e+01	-4.719662e+01
5.200000e-07	-4.698058e-06	-6.160960e-10	-3.463953e+01	-4.646971e+01
5.300000e-07	-4.678141e-06	-5.501073e-10	-3.449268e+01	-4.574504e+01
5.400000e-07	-4.658089e-06	-7.144234e-10	-3.434483e+01	-4.504422e+01
5.500000e-07	-4.637698e-06	-8.456346e-10	-3.419449e+01	-4.438670e+01
5.600000e-07	-4.616934e-06	-7.161475e-10	-3.404139e+01	-4.378940e+01
5.700000e-07	-4.595914e-06	-5.610498e-10	-3.388641e+01	-4.326638e+01
5.800000e-07	-4.574612e-06	-6.188788e-10	-3.372935e+01	-4.282863e+01
5.900000e-07	-4.553094e-06	-7.781360e-10	-3.357068e+01	-4.248392e+01
6.000000e-07	-4.531357e-06	-7.708607e-10	-3.341041e+01	-4.223674e+01
6.100000e-07	-4.509279e-06	-6.314061e-10	-3.324763e+01	-4.208839e+01
6.200000e-07	-4.486745e-06	-5.977253e-10	-3.308149e+01	-4.203702e+01
6.300000e-07	-4.463856e-06	-7.010847e-10	-3.291272e+01	-4.207790e+01
6.400000e-07	-4.440757e-06	-7.554715e-10	-3.274241e+01	-4.220369e+01
6.500000e-07	-4.417335e-06	-6.971712e-10	-3.256971e+01	-4.240471e+01
6.600000e-07	-4.393678e-06	-6.466164e-10	-3.239529e+01	-4.266942e+01
6.700000e-07	-4.369872e-06	-6.599871e-10	-3.221976e+01	-4.298478e+01
6.800000e-07	-4.345846e-06	-7.032544e-10	-3.204262e+01	-4.333671e+01
6.900000e-07	-4.321520e-06	-7.065737e-10	-3.186326e+01	-4.371060e+01
7.000000e-07	-4.296802e-06	-6.808571e-10	-3.168100e+01	-4.409170e+01
7.100000e-07	-4.271787e-06	-6.577627e-10	-3.149657e+01	-4.446565e+01
7.200000e-07	-4.246282e-06	-6.732812e-10	-3.130851e+01	-4.481883e+01
7.300000e-07	-4.220222e-06	-6.866533e-10	-3.111637e+01	-4.513880e+01
7.400000e-07	-4.193736e-06	-6.832949e-10	-3.092109e+01	-4.541458e+01
7.500000e-07	-4.166732e-06	-6.675081e-10	-3.072198e+01	-4.563701e+01
7.600000e-07	-4.139329e-06	-6.706829e-10	-3.051993e+01	-4.579888e+01
7.700000e-07	-4.111715e-06	-6.717177e-10	-3.031633e+01	-4.589515e+01
7.800000e-07	-4.083966e-06	-6.694486e-10	-3.011173e+01	-4.592299e+01
7.900000e-07	-4.056062e-06	-6.654268e-10	-2.990599e+01	-4.588180e+01
8.000000e-07	-4.027875e-06	-6.806882e-10	-2.969816e+01	-4.577317e+01
8.100000e-07	-3.999441e-06	-6.827157e-10	-2.948852e+01	-4.560072e+01
8.200000e-07	-3.970838e-06	-6.650748e-10	-2.927762e+01	-4.536997e+01
8.300000e-07	-3.941862e-06	-6.523477e-10	-2.906398e+01	-4.508806e+01
8.400000e-07	-3.912491e-06	-6.690058e-10	-2.884742e+01	-4.476349e+01
8.500000e-07	-3.882899e-06	-6.863143e-10	-2.862923e+01	-4.440583e+01
8.600000e-07	-3.853127e-06	-6.748883e-10	-2.840972e+01	-4.402534e+01
8.700000e-07	-3.823136e-06	-6.478666e-10	-2.818859e+01	-4.363268e+01
8.800000e-07	-3.792914e-06	-6.440035e-10	-2.796576e+01	-4.323850e+01
8.900000e-07	-3.762417e-06	-6.694742e-10	-2.774090e+01	-4.285318e+01
9.000000e-07	-3.731651e-06	-6.840330e-10	-2.751406e+01	-4.248642e+01
9.100000e-07	-3.700667e-06	-6.585835e-10	-2.728561e+01	-4.214704e+01
9.200000e-07	-3.669464e-06	-6.312529e-10	-2.705554e+01	-4.184265e+01
9.300000e-07	-3.637964e-06	-6.444100e-10	-2.682329e+01	-4.157949e+01
9.400000e-07	-3.606178e-06	-6.710863e-10	-2.658892e+01	-4.136226e+01
9.500000e-07	-3.574334e-06	-6.659010e-10	-2.635413e+01	-4.119401e+01
9.600000e-07	-3.542438e-06	-6.337779e-10	-2.611896e+01	-4.107608e+01
9.700000e-07	-3.510317e-06	-6.252227e-10	-2.588213e+01	-4.100812e+01
9.800000e-07	-3.477821e-06	-6.465557e-10	-2.564253e+01	-4.098816e+01
9.900000e-07	-3.444972e-06	-6.629988e-10	-2.540033e+01	-4.101267e+01
1.000000e-06	-3.411876e-06	-6.474559e-10	-2.515631e+01	-4.107677e+01
1.010000e-06	-3.378499e-06	-6.270873e-10	-2.491021e+01	-4.117439e+01
1.020000e-06	-3.344740e-06	-6.279935e-10	-2.466130e+01	-4.129851e+01
1.030000e-06	-3.310577e-06	-6.466647e-10	-2.440942e+01	-4.144143e+01
1.040000e-06	-3.276010e-06	-6.528384e-10	-2.415455e+01	-4.159500e+01
1.050000e-06	-3.241054e-06	-6.383085e-10	-2.389681e+01	-4.175093e+01
1.060000e-06	-3.205734e-06	-6.237227e-10	-2.363639e+01	-4.190104e+01
1.070000e-06	-3.170146e-06	-6.299650e-10	-2.337399e+01	-4.203755e+01
1.080000e-06	-3.134448e-06	-6.451226e-10	-2.311078e+01	-4.215330e+01
1.090000e-06	-3.098644e-06	-6.483295e-10	-2.284680e+01	-4.224199e+01
1.100000e-06	-3.062731e-06	-6.364775e-10	-2.258200e+01	-4.229833e+01
1.110000e-06	-3.026757e-06	-6.270845e-10	-2.231676e+01	-4.231825e+01
1.120000e-06	-2.990612e-06	-6.279373e-10	-2.205026e+01	-4.229893e+01
1.130000e-06	-2.954223e-06	-6.354634e-10	-2.178196e+01	-4.223893e+01
1.140000e-06	-2.917680e-06	-6.376453e-10	-2.151252e+01	-4.213816e+01
1.150000e-06	-2.880894e-06	-6.295591e-10	-2.124129e+01	-4.199786e+01
1.160000e-06	-2.843872e-06	-6.197401e-10	-2.096832e+01	-4.182056e+01
1.170000e-06	-2.806640e-06	-6.204295e-10	-2.069380e+01	-4.160991e+01
1.180000e-06	-2.769175e-06	-6.276672e-10	-2.041757e+01	-4.137058e+01
1.190000e-06	-2.731452e-06	-6.278088e-10	-2.013943e+01	-4.110805e+01
1.200000e-06	-2.693583e-06	-6.162912e-10	-1.986021e+01	-4.082845e+01
1.210000e-06	-2.655619e-06	-6.097249e-10	-1.958031e+01	-4.053828e+01
1.220000e-06	-2.617504e-06	-6.163067e-10	-1.929928e+01	-4.024424e+01
1.230000e-06	-2.579173e-06	-6.239731e-10	-1.901666e+01	-3.995298e+01
1.240000e-06	-2.540547e-06	-6.168035e-10	-1.873186e+01	-3.967085e+01
1.250000e-06	-2.501773e-06	-6.053529e-10	-1.844597e+01	-3.940376e+01
1.260000e-06	-2.463029e-06	-6.057846e-10	-1.816031e+01	-3.915691e+01
1.270000e-06	-2.424094e-06	-6.110491e-10	-1.787323e+01	-3.893469e+01
1.280000e-06	-2.384902e-06	-6.107645e-10	-1.758426e+01	-3.874050e+01
1.290000e-06	-2.345539e-06	-6.044482e-10	-1.729403e+01	-3.857671e+01
1.300000e-06	-2.306008e-06	-5.998472e-10	-1.700257e+01	-3.844454e+01
1.310000e-06	-2.266420e-06	-6.010695e-10	-1.671067e+01	-3.834408e+01
1.320000e-06	-2.226688e-06	-6.085595e-10	-1.641773e+01	-3.827428e+01
1.330000e-06	-2.186879e-06	-6.103244e-10	-1.612421e+01	-3.823303e+01
1.340000e-06	-2.147018e-06	-6.024966e-10	-1.583030e+01	-3.821724e+01
1.350000e-06	-2.107049e-06	-5.937071e-10	-1.553561e+01	-3.822294e+01
1.360000e-06	-2.066974e-06	-5.954662e-10	-1.524013e+01	-3.824546e+01
1.370000e-06	-2.026744e-06	-5.982192e-10	-1.494351e+01	-3.827961e+01
1.380000e-06	-1.986386e-06	-5.939363e-10	-1.464594e+01	-3.831979e+01
1.390000e-06	-1.945922e-06	-5.874961e-10	-1.434760e+01	-3.836029e+01
1.400000e-06	-1.905373e-06	-5.856678e-10	-1.404862e+01	-3.839541e+01
1.410000e-06	-1.864621e-06	-5.852934e-10	-1.374815e+01	-3.841969e+01
1.420000e-06	-1.823660e-06	-5.864352e-10	-1.344614e+01	-3.842805e+01
1.430000e-06	-1.782549e-06	-5.865192e-10	-1.314302e+01	-3.841603e+01
1.440000e-06	-1.741265e-06	-5.864152e-10	-1.283862e+01	-3.837985e+01
1.450000e-06	-1.699749e-06	-5.842656e-10	-1.253252e+01	-3.831660e+01
1.460000e-06	-1.657854e-06	-5.844035e-10	-1.222362e+01	-3.822426e+01
1.470000e-06	-1.615605e-06	-5.849526e-10	-1.191212e+01	-3.810182e+01
1.480000e-06	-1.573203e-06	-5.833731e-10	-1.159948e+01	-3.794925e+01
1.490000e-06	-1.530757e-06	-5.804549e-10	-1.128652e+01	-3.776751e+01
1.500000e-06	-1.488063e-06	-5.763863e-10	-1.097173e+01	-3.755850e+01
1.510000e-06	-1.445095e-06	-5.733378e-10	-1.065492e+01	-3.732499e+01
1.520000e-06	-1.402070e-06	-5.742160e-10	-1.033768e+01	-3.707049e+01
1.530000e-06	-1.359035e-06	-5.775058e-10	-1.002038e+01	-3.679915e+01
1.540000e-06	-1.315954e-06	-5.757896e-10	-9.702737e+00	-3.651557e+01
1.550000e-06	-1.272708e-06	-5.698310e-10	-9.383880e+00	-3.622468e+01
1.560000e-06	-1.229350e-06	-5.637319e-10	-9.064190e+00	-3.593153e+01
1.570000e-06	-1.185932e-06	-5.616068e-10	-8.744066e+00	-3.564114e+01
1.580000e-06	-1.142356e-06	-5.573812e-10	-8.422775e+00	-3.535831e+01
1.590000e-06	-1.098698e-06	-5.536040e-10	-8.100873e+00	-3.508746e+01
1.600000e-06	-1.054946e-06	-5.511097e-10	-7.778284e+00	-3.483249e+01
1.610000e-06	-1.011172e-06	-5.519845e-10	-7.455530e+00	-3.459664e+01
1.620000e-06	-9.674429e-07	-5.521698e-10	-7.133111e+00	-3.438239e+01
1.630000e-06	-9.236731e-07	-5.513877e-10	-6.810389e+00	-3.419138e+01
1.640000e-06	-8.798811e-07	-5.501465e-10	-6.487504e+00	-3.402435e+01
1.650000e-06	-8.360392e-07	-5.465893e-10	-6.164251e+00	-3.388115e+01
1.660000e-06	-7.921484e-07	-5.438785e-10	-5.840637e+00	-3.376073e+01
1.670000e-06	-7.482548e-07	-5.403826e-10	-5.517002e+00	-3.366118e+01
1.680000e-06	-7.043283e-07	-5.378413e-10	-5.193125e+00	-3.357982e+01
1.690000e-06	-6.603276e-07	-5.349219e-10	-4.868701e+00	-3.351329e+01
1.700000e-06	-6.162819e-07	-5.301709e-10	-4.543945e+00	-3.345766e+01
1.710000e-06	-5.723049e-07	-5.281290e-10	-4.219695e+00	-3.340859e+01
1.720000e-06	-5.283404e-07	-5.287601e-10	-3.895538e+00	-3.336147e+01
1.730000e-06	-4.843135e-07	-5.272895e-10	-3.570921e+00	-3.331158e+01
1.740000e-06	-4.402586e-07	-5.224452e-10	-3.246097e+00	-3.325425e+01
1.750000e-06	-3.962247e-07	-5.144160e-10	-2.921428e+00	-3.318503e+01
1.760000e-06	-3.521491e-07	-5.081842e-10	-2.596452e+00	-3.309982e+01
1.770000e-06	-3.079872e-07	-5.058774e-10	-2.270839e+00	-3.299504e+01
1.780000e-06	-2.638345e-07	-5.024384e-10	-1.945294e+00	-3.286771e+01
1.790000e-06	-2.196644e-07	-4.956160e-10	-1.619621e+00	-3.271558e+01
1.800000e-06	-1.754314e-07	-4.915969e-10	-1.293484e+00	-3.253720e+01
1.810000e-06	-1.312443e-07	-4.909122e-10	-9.676849e-01	-3.233191e+01
1.820000e-06	-8.711446e-08	-4.888430e-10	-6.423088e-01	-3.209995e+01
1.830000e-06	-4.299132e-08	-4.847692e-10	-3.169818e-01	-3.184235e+01
1.840000e-06	1.131805e-09	-4.785930e-10	8.344979e-03	-3.156096e+01
1.850000e-06	4.531239e-08	-4.757707e-10	3.340955e-01	-3.125832e+01
1.860000e-06	8.953387e-08	-4.758075e-10	6.601475e-01	-3.093762e+01
1.870000e-06	1.337625e-07	-4.748863e-10	9.862526e-01	-3.060256e+01
1.880000e-06	1.779684e-07	-4.692201e-10	1.312189e+00	-3.025720e+01
1.890000e-06	2.220985e-07	-4.624340e-10	1.637568e+00	-2.990586e+01
1.900000e-06	2.662395e-07	-4.577077e-10	1.963026e+00	-2.955291e+01
1.910000e-06	3.104180e-07	-4.550067e-10	2.288761e+00	-2.920268e+01
1.920000e-06	3.545858e-07	-4.500189e-10	2.614417e+00	-2.885926e+01
1.930000e-06	3.987435e-07	-4.421026e-10	2.939999e+00	-2.852638e+01
1.940000e-06	4.428148e-07	-4.344351e-10	3.264944e+00	-2.820728e+01
1.950000e-06	4.868084e-07	-4.320426e-10	3.589316e+00	-2.790459e+01
1.960000e-06	5.307905e-07	-4.329334e-10	3.913603e+00	-2.762025e+01
1.970000e-06	5.747636e-07	-4.317772e-10	4.237823e+00	-2.735546e+01
1.980000e-06	6.187333e-07	-4.263060e-10	4.562019e+00	-2.711060e+01
1.990000e-06	6.627503e-07	-4.221055e-10	4.886564e+00	-2.688525e+01
2.000000e-06	7.068116e-07	-4.210991e-10	5.211435e+00	-2.667822e+01
2.010000e-06	7.507787e-07	-4.188896e-10	5.535611e+00	-2.648756e+01
2.020000e-06	7.946580e-07	-4.151231e-10	5.859140e+00	-2.631066e+01
2.030000e-06	8.384592e-07	-4.084736e-10	6.182093e+00	-2.614432e+01
2.040000e-06	8.822406e-07	-4.048225e-10	6.504901e+00	-2.598491e+01
2.050000e-06	9.260521e-07	-4.031473e-10	6.827929e+00	-2.582846e+01
2.060000e-06	9.698012e-07	-4.011217e-10	7.150499e+00	-2.567079e+01
2.070000e-06	1.013502e-06	-3.982296e-10	7.472710e+00	-2.550773e+01
2.080000e-06	1.057111e-06	-3.939776e-10	7.794246e+00	-2.533521e+01
2.090000e-06	1.100610e-06	-3.889854e-10	8.114972e+00	-2.514941e+01
2.100000e-06	1.144095e-06	-3.820385e-10	8.435592e+00	-2.494694e+01
2.110000e-06	1.187625e-06	-3.763783e-10	8.756550e+00	-2.472492e+01
2.120000e-06	1.231073e-06	-3.742338e-10	9.076899e+00	-2.448112e+01
2.130000e-06	1.274391e-06	-3.735613e-10	9.396289e+00	-2.421403e+01
2.140000e-06	1.317566e-06	-3.729909e-10	9.714625e+00	-2.392293e+01
2.150000e-06	1.360670e-06	-3.708615e-10	1.003244e+01	-2.360791e+01
2.160000e-06	1.403754e-06	-3.673779e-10	1.035010e+01	-2.326988e+01
2.170000e-06	1.446650e-06	-3.627044e-10	1.066638e+01	-2.291056e+01
2.180000e-06	1.489343e-06	-3.601148e-10	1.098116e+01	-2.253242e+01
2.190000e-06	1.531881e-06	-3.575079e-10	1.129481e+01	-2.213860e+01
2.200000e-06	1.574229e-06	-3.530815e-10	1.160704e+01	-2.173284e+01
2.210000e-06	1.616262e-06	-3.485710e-10	1.191696e+01	-2.131930e+01
2.220000e-06	1.657934e-06	-3.466668e-10	1.222421e+01	-2.090247e+01
2.230000e-06	1.699407e-06	-3.437869e-10	1.253000e+01	-2.048703e+01
2.240000e-06	1.740806e-06	-3.393336e-10	1.283524e+01	-2.007764e+01
2.250000e-06	1.781914e-06	-3.344786e-10	1.313833e+01	-1.967885e+01
2.260000e-06	1.822724e-06	-3.279715e-10	1.343923e+01	-1.929490e+01
2.270000e-06	1.863509e-06	-3.245094e-10	1.373995e+01	-1.892959e+01
2.280000e-06	1.904247e-06	-3.208186e-10	1.404032e+01	-1.858616e+01
2.290000e-06	1.944804e-06	-3.129985e-10	1.433935e+01	-1.826716e+01
2.300000e-06	1.985175e-06	-3.074173e-10	1.463701e+01	-1.797438e+01
2.310000e-06	2.025365e-06	-3.050337e-10	1.493334e+01	-1.770877e+01
2.320000e-06	2.065396e-06	-3.060599e-10	1.522849e+01	-1.747042e+01
2.330000e-06	2.105402e-06	-3.050421e-10	1.552346e+01	-1.725851e+01
2.340000e-06	2.145327e-06	-3.004592e-10	1.581784e+01	-1.707141e+01
2.350000e-06	2.185189e-06	-2.936896e-10	1.611174e+01	-1.690665e+01
2.360000e-06	2.225036e-06	-2.872638e-10	1.640555e+01	-1.676103e+01
2.370000e-06	2.264777e-06	-2.826618e-10	1.669856e+01	-1.663074e+01
2.380000e-06	2.304279e-06	-2.784439e-10	1.698981e+01	-1.651146e+01
2.390000e-06	2.343547e-06	-2.724138e-10	1.727935e+01	-1.639850e+01
2.400000e-06	2.382764e-06	-2.683053e-10	1.756850e+01	-1.628696e+01
2.410000e-06	2.421804e-06	-2.658462e-10	1.785635e+01	-1.617190e+01
2.420000e-06	2.460643e-06	-2.601256e-10	1.814272e+01	-1.604850e+01
2.430000e-06	2.499288e-06	-2.550336e-10	1.842765e+01	-1.591219e+01
2.440000e-06	2.537781e-06	-2.518027e-10	1.871146e+01	-1.575884e+01
2.450000e-06	2.576064e-06	-2.504348e-10	1.899373e+01	-1.558489e+01
2.460000e-06	2.614074e-06	-2.459300e-10	1.927398e+01	-1.538747e+01
2.470000e-06	2.651976e-06	-2.382787e-10	1.955344e+01	-1.516447e+01
2.480000e-06	2.689723e-06	-2.327001e-10	1.983176e+01	-1.491464e+01
2.490000e-06	2.727313e-06	-2.320479e-10	2.010891e+01	-1.463766e+01
2.500000e-06	2.764771e-06	-2.275843e-10	2.038510e+01	-1.433408e+01
2.510000e-06	2.802056e-06	-2.202996e-10	2.066001e+01	-1.400538e+01
2.520000e-06	2.839074e-06	-2.161723e-10	2.093295e+01	-1.365387e+01
2.530000e-06	2.875845e-06	-2.145354e-10	2.120406e+01	-1.328265e+01
2.540000e-06	2.912435e-06	-2.116280e-10	2.147385e+01	-1.289551e+01
2.550000e-06	2.948828e-06	-2.076885e-10	2.174218e+01	-1.249677e+01
2.560000e-06	2.985039e-06	-2.051614e-10	2.200916e+01	-1.209119e+01
2.570000e-06	3.021163e-06	-2.011247e-10	2.227552e+01	-1.168379e+01
2.580000e-06	3.057160e-06	-1.945944e-10	2.254093e+01	-1.127968e+01
2.590000e-06	3.093004e-06	-1.878740e-10	2.280521e+01	-1.088390e+01
2.600000e-06	3.128794e-06	-1.825974e-10	2.306910e+01	-1.050127e+01
2.610000e-06	3.164414e-06	-1.792908e-10	2.333173e+01	-1.013621e+01
2.620000e-06	3.199829e-06	-1.762500e-10	2.359285e+01	-9.792599e+00
2.630000e-06	3.235013e-06	-1.748879e-10	2.385227e+01	-9.473679e+00
2.640000e-06	3.269801e-06	-1.725579e-10	2.410877e+01	-9.181908e+00
2.650000e-06	3.304200e-06	-1.673714e-10	2.436239e+01	-8.918907e+00
2.660000e-06	3.338108e-06	-1.622401e-10	2.461240e+01	-8.685405e+00
2.670000e-06	3.371577e-06	-1.583865e-10	2.485918e+01	-8.481215e+00
2.680000e-06	3.404803e-06	-1.542330e-10	2.510416e+01	-8.305249e+00
2.690000e-06	3.437708e-06	-1.501086e-10	2.534677e+01	-8.155557e+00
2.700000e-06	3.470252e-06	-1.471637e-10	2.558672e+01	-8.029397e+00
2.710000e-06	3.502518e-06	-1.450812e-10	2.582463e+01	-7.923330e+00
2.720000e-06	3.534619e-06	-1.424511e-10	2.606131e+01	-7.833347e+00
2.730000e-06	3.566628e-06	-1.381224e-10	2.629731e+01	-7.755001e+00
2.740000e-06	3.598500e-06	-1.337068e-10	2.653231e+01	-7.683567e+00
2.750000e-06	3.630247e-06	-1.306009e-10	2.676639e+01	-7.614206e+00
2.760000e-06	3.661721e-06	-1.292986e-10	2.699845e+01	-7.542130e+00
2.770000e-06	3.692791e-06	-1.280393e-10	2.722754e+01	-7.462774e+00
2.780000e-06	3.723611e-06	-1.257545e-10	2.745478e+01	-7.371952e+00
2.790000e-06	3.754271e-06	-1.218072e-10	2.768084e+01	-7.266003e+00
2.800000e-06	3.784756e-06	-1.212643e-10	2.790561e+01	-7.141922e+00
2.810000e-06	3.814969e-06	-1.221262e-10	2.812838e+01	-6.997464e+00
2.820000e-06	3.844866e-06	-1.201198e-10	2.834881e+01	-6.831225e+00
2.830000e-06	3.874523e-06	-1.167949e-10	2.856748e+01	-6.642694e+00
2.840000e-06	3.903869e-06	-1.140234e-10	2.878385e+01	-6.432267e+00
2.850000e-06	3.932900e-06	-1.134540e-10	2.899790e+01	-6.201245e+00
2.860000e-06	3.961704e-06	-1.130184e-10	2.921028e+01	-5.951782e+00
2.870000e-06	3.990260e-06	-1.103937e-10	2.942082e+01	-5.686814e+00
2.880000e-06	4.018591e-06	-1.051338e-10	2.962971e+01	-5.409962e+00
