# Temperatura_=_20.0
# Concentracion g/m^3_=_12600.0
# C_Vs_to_Am_M_A/Vsm_=_65563218390.804596
# pendiente_HvsI_1/m_=_3716.3
# ordenada_HvsI_A/m_=_1297.0
# frecuencia_Hz_=_135138.2766060032

Tiempo_(s)	Campo_(V.s)	Magnetizacion_(V.s)	Campo_(kA/m)	Magnetizacion_(A/m)
0.000000e+00	-5.183951e-06	-5.381006e-09	-3.846127e+01	-3.584944e+02
1.000000e-08	-5.183888e-06	-5.381376e-09	-3.846080e+01	-3.581533e+02
2.000000e-08	-5.183607e-06	-5.383799e-09	-3.845872e+01	-3.577666e+02
3.000000e-08	-5.183086e-06	-5.384200e-09	-3.845485e+01	-3.573459e+02
4.000000e-08	-5.182223e-06	-5.382312e-09	-3.844845e+01	-3.569043e+02
5.000000e-08	-5.180919e-06	-5.377149e-09	-3.843877e+01	-3.564558e+02
6.000000e-08	-5.179041e-06	-5.375339e-09	-3.842484e+01	-3.560153e+02
7.000000e-08	-5.176501e-06	-5.377912e-09	-3.840599e+01	-3.555980e+02
8.000000e-08	-5.173258e-06	-5.372027e-09	-3.838193e+01	-3.552192e+02
9.000000e-08	-5.169521e-06	-5.358455e-09	-3.835421e+01	-3.548936e+02
1.000000e-07	-5.165535e-06	-5.395210e-09	-3.832463e+01	-3.546352e+02
1.100000e-07	-5.161298e-06	-5.408772e-09	-3.829320e+01	-3.544568e+02
1.200000e-07	-5.156809e-06	-5.311988e-09	-3.825989e+01	-3.543695e+02
1.300000e-07	-5.152102e-06	-5.234098e-09	-3.822497e+01	-3.543825e+02
1.400000e-07	-5.147061e-06	-5.289334e-09	-3.818757e+01	-3.545029e+02
1.500000e-07	-5.141517e-06	-5.404911e-09	-3.814644e+01	-3.547349e+02
1.600000e-07	-5.135584e-06	-5.434234e-09	-3.810241e+01	-3.550804e+02
1.700000e-07	-5.129356e-06	-5.358998e-09	-3.805621e+01	-3.555383e+02
1.800000e-07	-5.122797e-06	-5.273882e-09	-3.800755e+01	-3.561046e+02
1.900000e-07	-5.115989e-06	-5.251964e-09	-3.795703e+01	-3.567723e+02
2.000000e-07	-5.108835e-06	-5.339992e-09	-3.790396e+01	-3.575320e+02
2.100000e-07	-5.101421e-06	-5.428578e-09	-3.784895e+01	-3.583713e+02
2.200000e-07	-5.093736e-06	-5.272534e-09	-3.779194e+01	-3.592754e+02
2.300000e-07	-5.085667e-06	-5.023809e-09	-3.773207e+01	-3.602275e+02
2.400000e-07	-5.077183e-06	-5.068639e-09	-3.766913e+01	-3.612091e+02
2.500000e-07	-5.068200e-06	-5.373333e-09	-3.760248e+01	-3.622001e+02
2.600000e-07	-5.058757e-06	-5.372551e-09	-3.753241e+01	-3.631798e+02
2.700000e-07	-5.048732e-06	-5.162009e-09	-3.745804e+01	-3.641266e+02
2.800000e-07	-5.038288e-06	-5.284299e-09	-3.738055e+01	-3.650193e+02
2.900000e-07	-5.027535e-06	-5.604132e-09	-3.730077e+01	-3.658370e+02
3.000000e-07	-5.016269e-06	-5.622233e-09	-3.721718e+01	-3.665598e+02
3.100000e-07	-5.004503e-06	-5.480776e-09	-3.712989e+01	-3.671695e+02
3.200000e-07	-4.992351e-06	-5.574122e-09	-3.703973e+01	-3.676493e+02
3.300000e-07	-4.979874e-06	-5.744387e-09	-3.694716e+01	-3.679850e+02
3.400000e-07	-4.967030e-06	-5.729618e-09	-3.685187e+01	-3.681649e+02
3.500000e-07	-4.953759e-06	-5.624197e-09	-3.675341e+01	-3.681802e+02
3.600000e-07	-4.940098e-06	-5.611138e-09	-3.665205e+01	-3.680250e+02
3.700000e-07	-4.926124e-06	-5.592297e-09	-3.654837e+01	-3.676967e+02
3.800000e-07	-4.911745e-06	-5.552195e-09	-3.644169e+01	-3.671959e+02
3.900000e-07	-4.896790e-06	-5.588478e-09	-3.633074e+01	-3.665264e+02
4.000000e-07	-4.881235e-06	-5.580445e-09	-3.621533e+01	-3.656950e+02
4.100000e-07	-4.865204e-06	-5.427882e-09	-3.609639e+01	-3.647115e+02
4.200000e-07	-4.848897e-06	-5.393057e-09	-3.597541e+01	-3.635882e+02
4.300000e-07	-4.832210e-06	-5.540649e-09	-3.585159e+01	-3.623399e+02
4.400000e-07	-4.815170e-06	-5.562210e-09	-3.572517e+01	-3.609833e+02
4.500000e-07	-4.797868e-06	-5.375324e-09	-3.559681e+01	-3.595365e+02
4.600000e-07	-4.780255e-06	-5.321915e-09	-3.546613e+01	-3.580190e+02
4.700000e-07	-4.762387e-06	-5.447442e-09	-3.533356e+01	-3.564506e+02
4.800000e-07	-4.744314e-06	-5.480568e-09	-3.519947e+01	-3.548515e+02
4.900000e-07	-4.725756e-06	-5.358614e-09	-3.506178e+01	-3.532415e+02
5.000000e-07	-4.706729e-06	-5.282057e-09	-3.492062e+01	-3.516396e+02
5.100000e-07	-4.687466e-06	-5.335959e-09	-3.477770e+01	-3.500636e+02
5.200000e-07	-4.667949e-06	-5.407912e-09	-3.463290e+01	-3.485297e+02
5.300000e-07	-4.648124e-06	-5.377422e-09	-3.448581e+01	-3.470522e+02
5.400000e-07	-4.628021e-06	-5.284466e-09	-3.433666e+01	-3.456431e+02
5.500000e-07	-4.607787e-06	-5.260986e-09	-3.418654e+01	-3.443120e+02
5.600000e-07	-4.587322e-06	-5.317642e-09	-3.403470e+01	-3.430659e+02
5.700000e-07	-4.566482e-06	-5.337014e-09	-3.388008e+01	-3.419090e+02
5.800000e-07	-4.545395e-06	-5.270207e-09	-3.372363e+01	-3.408429e+02
5.900000e-07	-4.524073e-06	-5.200896e-09	-3.356544e+01	-3.398664e+02
6.000000e-07	-4.502383e-06	-5.211763e-09	-3.340452e+01	-3.389759e+02
6.100000e-07	-4.480440e-06	-5.263201e-09	-3.324171e+01	-3.381653e+02
6.200000e-07	-4.458209e-06	-5.233988e-09	-3.307677e+01	-3.374265e+02
6.300000e-07	-4.435607e-06	-5.146671e-09	-3.290908e+01	-3.367496e+02
6.400000e-07	-4.412664e-06	-5.143425e-09	-3.273886e+01	-3.361230e+02
6.500000e-07	-4.389378e-06	-5.206987e-09	-3.256609e+01	-3.355343e+02
6.600000e-07	-4.365791e-06	-5.185123e-09	-3.239109e+01	-3.349700e+02
6.700000e-07	-4.341918e-06	-5.103232e-09	-3.221397e+01	-3.344165e+02
6.800000e-07	-4.317833e-06	-5.095722e-09	-3.203528e+01	-3.338602e+02
6.900000e-07	-4.293558e-06	-5.140787e-09	-3.185518e+01	-3.332877e+02
7.000000e-07	-4.268931e-06	-5.120604e-09	-3.167246e+01	-3.326867e+02
7.100000e-07	-4.243961e-06	-5.050458e-09	-3.148721e+01	-3.320457e+02
7.200000e-07	-4.218752e-06	-5.027833e-09	-3.130017e+01	-3.313547e+02
7.300000e-07	-4.193168e-06	-5.061054e-09	-3.111036e+01	-3.306052e+02
7.400000e-07	-4.167048e-06	-5.059706e-09	-3.091656e+01	-3.297904e+02
7.500000e-07	-4.140409e-06	-4.998410e-09	-3.071892e+01	-3.289057e+02
7.600000e-07	-4.113317e-06	-4.958658e-09	-3.051792e+01	-3.279481e+02
7.700000e-07	-4.085948e-06	-4.982295e-09	-3.031486e+01	-3.269167e+02
7.800000e-07	-4.058342e-06	-4.998832e-09	-3.011004e+01	-3.258125e+02
7.900000e-07	-4.030507e-06	-4.950801e-09	-2.990353e+01	-3.246383e+02
8.000000e-07	-4.002437e-06	-4.890977e-09	-2.969527e+01	-3.233986e+02
8.100000e-07	-3.974074e-06	-4.887261e-09	-2.948483e+01	-3.220991e+02
8.200000e-07	-3.945462e-06	-4.908988e-09	-2.927255e+01	-3.207470e+02
8.300000e-07	-3.916722e-06	-4.887134e-09	-2.905932e+01	-3.193502e+02
8.400000e-07	-3.887739e-06	-4.828489e-09	-2.884428e+01	-3.179175e+02
8.500000e-07	-3.858387e-06	-4.802688e-09	-2.862652e+01	-3.164578e+02
8.600000e-07	-3.828833e-06	-4.819297e-09	-2.840724e+01	-3.149802e+02
8.700000e-07	-3.799034e-06	-4.817475e-09	-2.818616e+01	-3.134937e+02
8.800000e-07	-3.768998e-06	-4.773694e-09	-2.796331e+01	-3.120064e+02
8.900000e-07	-3.738710e-06	-4.729959e-09	-2.773860e+01	-3.105261e+02
9.000000e-07	-3.708132e-06	-4.716996e-09	-2.751173e+01	-3.090594e+02
9.100000e-07	-3.677317e-06	-4.716502e-09	-2.728311e+01	-3.076117e+02
9.200000e-07	-3.646203e-06	-4.696545e-09	-2.705226e+01	-3.061873e+02
9.300000e-07	-3.614903e-06	-4.658472e-09	-2.682004e+01	-3.047890e+02
9.400000e-07	-3.583433e-06	-4.626237e-09	-2.658655e+01	-3.034181e+02
9.500000e-07	-3.551716e-06	-4.612057e-09	-2.635123e+01	-3.020745e+02
9.600000e-07	-3.519861e-06	-4.603753e-09	-2.611489e+01	-3.007569e+02
9.700000e-07	-3.487882e-06	-4.585458e-09	-2.587763e+01	-2.994623e+02
9.800000e-07	-3.455676e-06	-4.554564e-09	-2.563869e+01	-2.981869e+02
9.900000e-07	-3.423197e-06	-4.521481e-09	-2.539772e+01	-2.969255e+02
1.000000e-06	-3.390393e-06	-4.501348e-09	-2.515433e+01	-2.956724e+02
1.010000e-06	-3.357271e-06	-4.491967e-09	-2.490859e+01	-2.944210e+02
1.020000e-06	-3.323914e-06	-4.470901e-09	-2.466111e+01	-2.931645e+02
1.030000e-06	-3.290314e-06	-4.431486e-09	-2.441181e+01	-2.918957e+02
1.040000e-06	-3.256372e-06	-4.396156e-09	-2.415999e+01	-2.906076e+02
1.050000e-06	-3.221929e-06	-4.383516e-09	-2.390445e+01	-2.892934e+02
1.060000e-06	-3.187057e-06	-4.375947e-09	-2.364572e+01	-2.879469e+02
1.070000e-06	-3.151886e-06	-4.348428e-09	-2.338477e+01	-2.865623e+02
1.080000e-06	-3.116483e-06	-4.306563e-09	-2.312211e+01	-2.851348e+02
1.090000e-06	-3.080877e-06	-4.277314e-09	-2.285794e+01	-2.836606e+02
1.100000e-06	-3.045112e-06	-4.268624e-09	-2.259259e+01	-2.821370e+02
1.110000e-06	-3.009222e-06	-4.250984e-09	-2.232631e+01	-2.805620e+02
1.120000e-06	-2.973164e-06	-4.207631e-09	-2.205878e+01	-2.789353e+02
1.130000e-06	-2.937014e-06	-4.164518e-09	-2.179058e+01	-2.772572e+02
1.140000e-06	-2.900652e-06	-4.146624e-09	-2.152079e+01	-2.755294e+02
1.150000e-06	-2.864082e-06	-4.138257e-09	-2.124947e+01	-2.737545e+02
1.160000e-06	-2.827290e-06	-4.111353e-09	-2.097650e+01	-2.719357e+02
1.170000e-06	-2.790341e-06	-4.069456e-09	-2.070237e+01	-2.700773e+02
1.180000e-06	-2.753215e-06	-4.036934e-09	-2.042691e+01	-2.681839e+02
1.190000e-06	-2.715824e-06	-4.017585e-09	-2.014951e+01	-2.662604e+02
1.200000e-06	-2.678286e-06	-3.995512e-09	-1.987100e+01	-2.643122e+02
1.210000e-06	-2.640496e-06	-3.960523e-09	-1.959062e+01	-2.623443e+02
1.220000e-06	-2.602564e-06	-3.921206e-09	-1.930919e+01	-2.603617e+02
1.230000e-06	-2.564440e-06	-3.888590e-09	-1.902634e+01	-2.583692e+02
1.240000e-06	-2.526109e-06	-3.863699e-09	-1.874195e+01	-2.563708e+02
1.250000e-06	-2.487700e-06	-3.840183e-09	-1.845698e+01	-2.543699e+02
1.260000e-06	-2.449066e-06	-3.811169e-09	-1.817034e+01	-2.523693e+02
1.270000e-06	-2.410305e-06	-3.775979e-09	-1.788277e+01	-2.503707e+02
1.280000e-06	-2.371422e-06	-3.742717e-09	-1.759428e+01	-2.483751e+02
1.290000e-06	-2.332345e-06	-3.714913e-09	-1.730436e+01	-2.463825e+02
1.300000e-06	-2.293112e-06	-3.690638e-09	-1.701328e+01	-2.443919e+02
1.310000e-06	-2.253721e-06	-3.660505e-09	-1.672102e+01	-2.424017e+02
1.320000e-06	-2.214283e-06	-3.620797e-09	-1.642842e+01	-2.404090e+02
1.330000e-06	-2.174679e-06	-3.582496e-09	-1.613459e+01	-2.384108e+02
1.340000e-06	-2.134832e-06	-3.553656e-09	-1.583895e+01	-2.364031e+02
1.350000e-06	-2.094941e-06	-3.526156e-09	-1.554299e+01	-2.343817e+02
1.360000e-06	-2.055017e-06	-3.487879e-09	-1.524678e+01	-2.323418e+02
1.370000e-06	-2.014948e-06	-3.444089e-09	-1.494949e+01	-2.302789e+02
1.380000e-06	-1.974802e-06	-3.409859e-09	-1.465164e+01	-2.281883e+02
1.390000e-06	-1.934574e-06	-3.384181e-09	-1.435318e+01	-2.260654e+02
1.400000e-06	-1.894133e-06	-3.351603e-09	-1.405313e+01	-2.239062e+02
1.410000e-06	-1.853606e-06	-3.309735e-09	-1.375245e+01	-2.217071e+02
1.420000e-06	-1.812950e-06	-3.268693e-09	-1.345081e+01	-2.194650e+02
1.430000e-06	-1.772105e-06	-3.234611e-09	-1.314777e+01	-2.171777e+02
1.440000e-06	-1.731150e-06	-3.204000e-09	-1.284392e+01	-2.148436e+02
1.450000e-06	-1.689977e-06	-3.171471e-09	-1.253844e+01	-2.124620e+02
1.460000e-06	-1.648662e-06	-3.131062e-09	-1.223191e+01	-2.100331e+02
1.470000e-06	-1.607113e-06	-3.091794e-09	-1.192365e+01	-2.075579e+02
1.480000e-06	-1.565405e-06	-3.059531e-09	-1.161421e+01	-2.050382e+02
1.490000e-06	-1.523580e-06	-3.027844e-09	-1.130389e+01	-2.024764e+02
1.500000e-06	-1.481462e-06	-2.988318e-09	-1.099141e+01	-1.998757e+02
1.510000e-06	-1.439061e-06	-2.945156e-09	-1.067682e+01	-1.972398e+02
1.520000e-06	-1.396446e-06	-2.908211e-09	-1.036065e+01	-1.945727e+02
1.530000e-06	-1.353775e-06	-2.873384e-09	-1.004406e+01	-1.918787e+02
1.540000e-06	-1.311084e-06	-2.831210e-09	-9.727317e+00	-1.891623e+02
1.550000e-06	-1.268272e-06	-2.781958e-09	-9.409682e+00	-1.864276e+02
1.560000e-06	-1.225348e-06	-2.733585e-09	-9.091217e+00	-1.836790e+02
1.570000e-06	-1.182281e-06	-2.691346e-09	-8.771695e+00	-1.809201e+02
1.580000e-06	-1.139015e-06	-2.657426e-09	-8.450692e+00	-1.781544e+02
1.590000e-06	-1.095720e-06	-2.623278e-09	-8.129472e+00	-1.753846e+02
1.600000e-06	-1.052406e-06	-2.579442e-09	-7.808115e+00	-1.726127e+02
1.610000e-06	-1.008994e-06	-2.530146e-09	-7.486027e+00	-1.698401e+02
1.620000e-06	-9.654384e-07	-2.486472e-09	-7.162873e+00	-1.670673e+02
1.630000e-06	-9.217781e-07	-2.447503e-09	-6.838944e+00	-1.642940e+02
1.640000e-06	-8.780562e-07	-2.406718e-09	-6.514559e+00	-1.615191e+02
1.650000e-06	-8.342563e-07	-2.359737e-09	-6.189594e+00	-1.587409e+02
1.660000e-06	-7.904467e-07	-2.311660e-09	-5.864558e+00	-1.559569e+02
1.670000e-06	-7.466197e-07	-2.270295e-09	-5.539393e+00	-1.531637e+02
1.680000e-06	-7.027966e-07	-2.233590e-09	-5.214256e+00	-1.503580e+02
1.690000e-06	-6.589488e-07	-2.190977e-09	-4.888937e+00	-1.475356e+02
1.700000e-06	-6.150525e-07	-2.138071e-09	-4.563256e+00	-1.446922e+02
1.710000e-06	-5.711440e-07	-2.088309e-09	-4.237487e+00	-1.418236e+02
1.720000e-06	-5.272102e-07	-2.049556e-09	-3.911529e+00	-1.389253e+02
1.730000e-06	-4.832587e-07	-2.007186e-09	-3.585440e+00	-1.359932e+02
1.740000e-06	-4.393581e-07	-1.955272e-09	-3.259728e+00	-1.330236e+02
1.750000e-06	-3.953965e-07	-1.903055e-09	-2.933564e+00	-1.300130e+02
1.760000e-06	-3.513533e-07	-1.855621e-09	-2.606794e+00	-1.269586e+02
1.770000e-06	-3.073434e-07	-1.811026e-09	-2.280272e+00	-1.238582e+02
1.780000e-06	-2.632935e-07	-1.764061e-09	-1.953453e+00	-1.207104e+02
1.790000e-06	-2.191922e-07	-1.712229e-09	-1.626252e+00	-1.175144e+02
1.800000e-06	-1.751201e-07	-1.660302e-09	-1.299268e+00	-1.142702e+02
1.810000e-06	-1.311175e-07	-1.613344e-09	-9.727993e-01	-1.109789e+02
1.820000e-06	-8.711939e-08	-1.568428e-09	-6.463645e-01	-1.076418e+02
1.830000e-06	-4.312200e-08	-1.520860e-09	-3.199349e-01	-1.042612e+02
1.840000e-06	8.198470e-10	-1.468027e-09	6.082688e-03	-1.008400e+02
1.850000e-06	4.471986e-08	-1.414036e-09	3.317899e-01	-9.738155e+01
1.860000e-06	8.865568e-08	-1.364999e-09	6.577627e-01	-9.388952e+01
1.870000e-06	1.327056e-07	-1.319057e-09	9.845822e-01	-9.036791e+01
1.880000e-06	1.767725e-07	-1.266664e-09	1.311527e+00	-8.682080e+01
1.890000e-06	2.207755e-07	-1.210868e-09	1.637999e+00	-8.325227e+01
1.900000e-06	2.648076e-07	-1.158383e-09	1.964686e+00	-7.966623e+01
1.910000e-06	3.088006e-07	-1.109220e-09	2.291083e+00	-7.606630e+01
1.920000e-06	3.527550e-07	-1.060601e-09	2.617194e+00	-7.245570e+01
1.930000e-06	3.966985e-07	-1.008115e-09	2.943224e+00	-6.883710e+01
1.940000e-06	4.406115e-07	-9.511564e-10	3.269027e+00	-6.521259e+01
1.950000e-06	4.845158e-07	-8.963786e-10	3.594767e+00	-6.158357e+01
1.960000e-06	5.284023e-07	-8.459377e-10	3.920373e+00	-5.795072e+01
1.970000e-06	5.722955e-07	-7.948226e-10	4.246030e+00	-5.431397e+01
1.980000e-06	6.161742e-07	-7.391568e-10	4.571579e+00	-5.067252e+01
1.990000e-06	6.600825e-07	-6.840826e-10	4.897348e+00	-4.702488e+01
2.000000e-06	7.039660e-07	-6.305893e-10	5.222932e+00	-4.336888e+01
2.010000e-06	7.477755e-07	-5.761016e-10	5.547968e+00	-3.970181e+01
2.020000e-06	7.915857e-07	-5.189338e-10	5.873009e+00	-3.602045e+01
2.030000e-06	8.353253e-07	-4.602830e-10	6.197526e+00	-3.232125e+01
2.040000e-06	8.789887e-07	-4.056494e-10	6.521478e+00	-2.860040e+01
2.050000e-06	9.226635e-07	-3.519248e-10	6.845514e+00	-2.485399e+01
2.060000e-06	9.662323e-07	-2.963215e-10	7.168763e+00	-2.107818e+01
2.070000e-06	1.009696e-06	-2.405980e-10	7.491230e+00	-1.726927e+01
2.080000e-06	1.053112e-06	-1.844928e-10	7.813351e+00	-1.342388e+01
2.090000e-06	1.096437e-06	-1.276251e-10	8.134792e+00	-9.539077e+00
2.100000e-06	1.139540e-06	-6.783259e-11	8.454584e+00	-5.612469e+00
2.110000e-06	1.182493e-06	-7.232786e-12	8.773265e+00	-1.642302e+00
2.120000e-06	1.225427e-06	5.369676e-11	9.091807e+00	2.372464e+00
2.130000e-06	1.268310e-06	1.148880e-10	9.409965e+00	6.432102e+00
2.140000e-06	1.311069e-06	1.741221e-10	9.727207e+00	1.053609e+01
2.150000e-06	1.353717e-06	2.332655e-10	1.004363e+01	1.468312e+01
2.160000e-06	1.396319e-06	2.894302e-10	1.035970e+01	1.887110e+01
2.170000e-06	1.438737e-06	3.473797e-10	1.067442e+01	2.309720e+01
2.180000e-06	1.480951e-06	4.120633e-10	1.098761e+01	2.735796e+01
2.190000e-06	1.522941e-06	4.772391e-10	1.129915e+01	3.164932e+01
2.200000e-06	1.564643e-06	5.386602e-10	1.160855e+01	3.596677e+01
2.210000e-06	1.606131e-06	6.016149e-10	1.191636e+01	4.030545e+01
2.220000e-06	1.647408e-06	6.673058e-10	1.222261e+01	4.466026e+01
2.230000e-06	1.688600e-06	7.342171e-10	1.252822e+01	4.902603e+01
2.240000e-06	1.729615e-06	7.972705e-10	1.283253e+01	5.339764e+01
2.250000e-06	1.770257e-06	8.584331e-10	1.313406e+01	5.777012e+01
2.260000e-06	1.810846e-06	9.231454e-10	1.343520e+01	6.213880e+01
2.270000e-06	1.851369e-06	9.887444e-10	1.373586e+01	6.649943e+01
2.280000e-06	1.891616e-06	1.053741e-09	1.403446e+01	7.084824e+01
2.290000e-06	1.931778e-06	1.119253e-09	1.433243e+01	7.518203e+01
2.300000e-06	1.971908e-06	1.184705e-09	1.463017e+01	7.949821e+01
2.310000e-06	2.011933e-06	1.249773e-09	1.492713e+01	8.379488e+01
2.320000e-06	2.051911e-06	1.314218e-09	1.522373e+01	8.807075e+01
2.330000e-06	2.091782e-06	1.379646e-09	1.551955e+01	9.232522e+01
2.340000e-06	2.131586e-06	1.445348e-09	1.581487e+01	9.655824e+01
2.350000e-06	2.171327e-06	1.511234e-09	1.610972e+01	1.007704e+02
2.360000e-06	2.210977e-06	1.575645e-09	1.640389e+01	1.049625e+02
2.370000e-06	2.250493e-06	1.638234e-09	1.669707e+01	1.091361e+02
2.380000e-06	2.289791e-06	1.699807e-09	1.698864e+01	1.132926e+02
2.390000e-06	2.328877e-06	1.762977e-09	1.727863e+01	1.174339e+02
2.400000e-06	2.367789e-06	1.825784e-09	1.756733e+01	1.215616e+02
2.410000e-06	2.406550e-06	1.887475e-09	1.785491e+01	1.256774e+02
2.420000e-06	2.445168e-06	1.952805e-09	1.814143e+01	1.297827e+02
2.430000e-06	2.483608e-06	2.016813e-09	1.842662e+01	1.338786e+02
2.440000e-06	2.521808e-06	2.076467e-09	1.871004e+01	1.379656e+02
2.450000e-06	2.559862e-06	2.134359e-09	1.899237e+01	1.420439e+02
2.460000e-06	2.597815e-06	2.194162e-09	1.927396e+01	1.461131e+02
2.470000e-06	2.635527e-06	2.254108e-09	1.955376e+01	1.501720e+02
2.480000e-06	2.673064e-06	2.312987e-09	1.983225e+01	1.542188e+02
2.490000e-06	2.710480e-06	2.370367e-09	2.010986e+01	1.582513e+02
2.500000e-06	2.747705e-06	2.430124e-09	2.038604e+01	1.622665e+02
2.510000e-06	2.784732e-06	2.492459e-09	2.066075e+01	1.662608e+02
2.520000e-06	2.821522e-06	2.552031e-09	2.093371e+01	1.702302e+02
2.530000e-06	2.858054e-06	2.607971e-09	2.120475e+01	1.741704e+02
2.540000e-06	2.894393e-06	2.663714e-09	2.147436e+01	1.780766e+02
2.550000e-06	2.930570e-06	2.718648e-09	2.174277e+01	1.819440e+02
2.560000e-06	2.966615e-06	2.770483e-09	2.201019e+01	1.857678e+02
2.570000e-06	3.002640e-06	2.821465e-09	2.227747e+01	1.895432e+02
2.580000e-06	3.038582e-06	2.874127e-09	2.254414e+01	1.932657e+02
2.590000e-06	3.074390e-06	2.927217e-09	2.280981e+01	1.969311e+02
2.600000e-06	3.110124e-06	2.979396e-09	2.307493e+01	2.005358e+02
2.610000e-06	3.145562e-06	3.029983e-09	2.333785e+01	2.040766e+02
2.620000e-06	3.180655e-06	3.082000e-09	2.359822e+01	2.075513e+02
2.630000e-06	3.215484e-06	3.132498e-09	2.385663e+01	2.109580e+02
2.640000e-06	3.250085e-06	3.178983e-09	2.411335e+01	2.142961e+02
2.650000e-06	3.284278e-06	3.225181e-09	2.436703e+01	2.175653e+02
2.660000e-06	3.317841e-06	3.270589e-09	2.461604e+01	2.207664e+02
2.670000e-06	3.351046e-06	3.315900e-09	2.486241e+01	2.239010e+02
2.680000e-06	3.383993e-06	3.360669e-09	2.510685e+01	2.269713e+02
2.690000e-06	3.416556e-06	3.406812e-09	2.534844e+01	2.299801e+02
2.700000e-06	3.448778e-06	3.450652e-09	2.558751e+01	2.329309e+02
2.710000e-06	3.480936e-06	3.494089e-09	2.582610e+01	2.358275e+02
2.720000e-06	3.512962e-06	3.539728e-09	2.606370e+01	2.386741e+02
2.730000e-06	3.544838e-06	3.582364e-09	2.630021e+01	2.414749e+02
2.740000e-06	3.576656e-06	3.623404e-09	2.653627e+01	2.442342e+02
2.750000e-06	3.608325e-06	3.664750e-09	2.677123e+01	2.469563e+02
2.760000e-06	3.639752e-06	3.705270e-09	2.700440e+01	2.496451e+02
2.770000e-06	3.670930e-06	3.744683e-09	2.723571e+01	2.523040e+02
2.780000e-06	3.701729e-06	3.783361e-09	2.746422e+01	2.549360e+02
2.790000e-06	3.732112e-06	3.823388e-09	2.768964e+01	2.575434e+02
2.800000e-06	3.762340e-06	3.863792e-09	2.791392e+01	2.601281e+02
2.810000e-06	3.792321e-06	3.901431e-09	2.813635e+01	2.626908e+02
2.820000e-06	3.821987e-06	3.937141e-09	2.835645e+01	2.652318e+02
2.830000e-06	3.851559e-06	3.973906e-09	2.857586e+01	2.677505e+02
2.840000e-06	3.880912e-06	4.011725e-09	2.879363e+01	2.702453e+02
2.850000e-06	3.909912e-06	4.046965e-09	2.900879e+01	2.727144e+02
2.860000e-06	3.938634e-06	4.081458e-09	2.922190e+01	2.751550e+02
2.870000e-06	3.967061e-06	4.116845e-09	2.943280e+01	2.775639e+02
2.880000e-06	3.995304e-06	4.152983e-09	2.964235e+01	2.799374e+02
2.890000e-06	4.023405e-06	4.188169e-09	2.985083e+01	2.822718e+02
2.900000e-06	4.051338e-06	4.219794e-09	3.005808e+01	2.845631e+02
