# Temperatura_=_20.0
# Concentracion g/m^3_=_12600.0
# C_Vs_to_Am_M_A/Vsm_=_65563218390.804596
# pendiente_HvsI_1/m_=_3716.3
# ordenada_HvsI_A/m_=_1297.0
# frecuencia_Hz_=_135137.52749736005

Tiempo_(s)	Campo_(V.s)	Magnetizacion_(V.s)	Campo_(kA/m)	Magnetizacion_(A/m)
0.000000e+00	-5.179168e-06	-5.309396e-09	-3.846231e+01	-3.436881e+02
1.000000e-08	-5.179259e-06	-5.306006e-09	-3.846298e+01	-3.434728e+02
2.000000e-08	-5.179140e-06	-5.308403e-09	-3.846210e+01	-3.431851e+02
3.000000e-08	-5.178722e-06	-5.310750e-09	-3.845900e+01	-3.428309e+02
4.000000e-08	-5.177915e-06	-5.310737e-09	-3.845300e+01	-3.424181e+02
5.000000e-08	-5.176606e-06	-5.302046e-09	-3.844328e+01	-3.419569e+02
6.000000e-08	-5.174718e-06	-5.286911e-09	-3.842926e+01	-3.414589e+02
7.000000e-08	-5.172217e-06	-5.292511e-09	-3.841069e+01	-3.409378e+02
8.000000e-08	-5.169090e-06	-5.322649e-09	-3.838747e+01	-3.404085e+02
9.000000e-08	-5.165442e-06	-5.357086e-09	-3.836037e+01	-3.398868e+02
1.000000e-07	-5.161495e-06	-5.307953e-09	-3.833106e+01	-3.393897e+02
1.100000e-07	-5.157405e-06	-5.202337e-09	-3.830069e+01	-3.389342e+02
1.200000e-07	-5.153051e-06	-5.217448e-09	-3.826836e+01	-3.385374e+02
1.300000e-07	-5.148404e-06	-5.274416e-09	-3.823385e+01	-3.382162e+02
1.400000e-07	-5.143409e-06	-5.294641e-09	-3.819675e+01	-3.379864e+02
1.500000e-07	-5.138003e-06	-5.256066e-09	-3.815661e+01	-3.378627e+02
1.600000e-07	-5.132241e-06	-5.233863e-09	-3.811381e+01	-3.378583e+02
1.700000e-07	-5.126123e-06	-5.280839e-09	-3.806838e+01	-3.379841e+02
1.800000e-07	-5.119687e-06	-5.210032e-09	-3.802058e+01	-3.382491e+02
1.900000e-07	-5.112983e-06	-5.250622e-09	-3.797080e+01	-3.386595e+02
2.000000e-07	-5.105968e-06	-5.261630e-09	-3.791870e+01	-3.392190e+02
2.100000e-07	-5.098585e-06	-5.322627e-09	-3.786387e+01	-3.399281e+02
2.200000e-07	-5.090919e-06	-5.224902e-09	-3.780694e+01	-3.407844e+02
2.300000e-07	-5.083040e-06	-5.176922e-09	-3.774843e+01	-3.417827e+02
2.400000e-07	-5.074753e-06	-5.109359e-09	-3.768689e+01	-3.429144e+02
2.500000e-07	-5.065860e-06	-5.082742e-09	-3.762085e+01	-3.441684e+02
2.600000e-07	-5.056409e-06	-5.107574e-09	-3.755066e+01	-3.455309e+02
2.700000e-07	-5.046641e-06	-5.272438e-09	-3.747812e+01	-3.469855e+02
2.800000e-07	-5.036484e-06	-5.348038e-09	-3.740269e+01	-3.485139e+02
2.900000e-07	-5.025737e-06	-5.268491e-09	-3.732288e+01	-3.500959e+02
3.000000e-07	-5.014531e-06	-5.307622e-09	-3.723966e+01	-3.517101e+02
3.100000e-07	-5.002933e-06	-5.549829e-09	-3.715352e+01	-3.533342e+02
3.200000e-07	-4.990919e-06	-5.689721e-09	-3.706430e+01	-3.549453e+02
3.300000e-07	-4.978551e-06	-5.598040e-09	-3.697245e+01	-3.565207e+02
3.400000e-07	-4.965807e-06	-5.528656e-09	-3.687781e+01	-3.580381e+02
3.500000e-07	-4.952670e-06	-5.555308e-09	-3.678026e+01	-3.594762e+02
3.600000e-07	-4.939173e-06	-5.656691e-09	-3.668002e+01	-3.608149e+02
3.700000e-07	-4.925327e-06	-5.611273e-09	-3.657720e+01	-3.620360e+02
3.800000e-07	-4.911062e-06	-5.551417e-09	-3.647126e+01	-3.631235e+02
3.900000e-07	-4.896265e-06	-5.412457e-09	-3.636138e+01	-3.640638e+02
4.000000e-07	-4.880990e-06	-5.539044e-09	-3.624794e+01	-3.648457e+02
4.100000e-07	-4.865318e-06	-5.631575e-09	-3.613155e+01	-3.654612e+02
4.200000e-07	-4.849030e-06	-5.539205e-09	-3.601059e+01	-3.659051e+02
4.300000e-07	-4.832257e-06	-5.344823e-09	-3.588603e+01	-3.661751e+02
4.400000e-07	-4.815330e-06	-5.473051e-09	-3.576032e+01	-3.662721e+02
4.500000e-07	-4.798077e-06	-5.601391e-09	-3.563219e+01	-3.661997e+02
4.600000e-07	-4.780519e-06	-5.527451e-09	-3.550181e+01	-3.659642e+02
4.700000e-07	-4.762665e-06	-5.368113e-09	-3.536922e+01	-3.655744e+02
4.800000e-07	-4.744537e-06	-5.398391e-09	-3.523459e+01	-3.650414e+02
4.900000e-07	-4.726117e-06	-5.462939e-09	-3.509780e+01	-3.643782e+02
5.000000e-07	-4.707253e-06	-5.471215e-09	-3.495770e+01	-3.635992e+02
5.100000e-07	-4.687990e-06	-5.419344e-09	-3.481465e+01	-3.627199e+02
5.200000e-07	-4.668471e-06	-5.361178e-09	-3.466969e+01	-3.617568e+02
5.300000e-07	-4.648736e-06	-5.352700e-09	-3.452313e+01	-3.607265e+02
5.400000e-07	-4.628793e-06	-5.405303e-09	-3.437503e+01	-3.596456e+02
5.500000e-07	-4.608637e-06	-5.423512e-09	-3.422534e+01	-3.585302e+02
5.600000e-07	-4.588172e-06	-5.343866e-09	-3.407336e+01	-3.573957e+02
5.700000e-07	-4.567440e-06	-5.290130e-09	-3.391941e+01	-3.562563e+02
5.800000e-07	-4.546397e-06	-5.303226e-09	-3.376313e+01	-3.551245e+02
5.900000e-07	-4.525016e-06	-5.352364e-09	-3.360435e+01	-3.540116e+02
6.000000e-07	-4.503358e-06	-5.329148e-09	-3.344351e+01	-3.529266e+02
6.100000e-07	-4.481396e-06	-5.270007e-09	-3.328041e+01	-3.518766e+02
6.200000e-07	-4.459179e-06	-5.222240e-09	-3.311542e+01	-3.508668e+02
6.300000e-07	-4.436651e-06	-5.261782e-09	-3.294812e+01	-3.499001e+02
6.400000e-07	-4.413734e-06	-5.292376e-09	-3.277793e+01	-3.489773e+02
6.500000e-07	-4.390492e-06	-5.270647e-09	-3.260533e+01	-3.480974e+02
6.600000e-07	-4.366973e-06	-5.183072e-09	-3.243066e+01	-3.472575e+02
6.700000e-07	-4.343245e-06	-5.161717e-09	-3.225445e+01	-3.464530e+02
6.800000e-07	-4.319325e-06	-5.203533e-09	-3.207682e+01	-3.456780e+02
6.900000e-07	-4.295189e-06	-5.239767e-09	-3.189757e+01	-3.449254e+02
7.000000e-07	-4.270741e-06	-5.162437e-09	-3.171602e+01	-3.441871e+02
7.100000e-07	-4.245842e-06	-5.084702e-09	-3.153110e+01	-3.434548e+02
7.200000e-07	-4.220637e-06	-5.099143e-09	-3.134392e+01	-3.427194e+02
7.300000e-07	-4.195111e-06	-5.172611e-09	-3.115436e+01	-3.419721e+02
7.400000e-07	-4.168961e-06	-5.143256e-09	-3.096016e+01	-3.412044e+02
7.500000e-07	-4.142244e-06	-5.045657e-09	-3.076175e+01	-3.404083e+02
7.600000e-07	-4.115200e-06	-5.008243e-09	-3.056091e+01	-3.395765e+02
7.700000e-07	-4.087855e-06	-5.070845e-09	-3.035784e+01	-3.387028e+02
7.800000e-07	-4.060208e-06	-5.089634e-09	-3.015252e+01	-3.377820e+02
7.900000e-07	-4.032341e-06	-5.009519e-09	-2.994557e+01	-3.368103e+02
8.000000e-07	-4.004325e-06	-4.937979e-09	-2.973752e+01	-3.357851e+02
8.100000e-07	-3.976149e-06	-4.965249e-09	-2.952827e+01	-3.347052e+02
8.200000e-07	-3.947730e-06	-5.008879e-09	-2.931722e+01	-3.335708e+02
8.300000e-07	-3.919042e-06	-4.968728e-09	-2.910418e+01	-3.323834e+02
8.400000e-07	-3.890090e-06	-4.891270e-09	-2.888917e+01	-3.311456e+02
8.500000e-07	-3.860767e-06	-4.870910e-09	-2.867140e+01	-3.298612e+02
8.600000e-07	-3.831125e-06	-4.906137e-09	-2.845127e+01	-3.285348e+02
8.700000e-07	-3.801332e-06	-4.899991e-09	-2.823002e+01	-3.271719e+02
8.800000e-07	-3.771386e-06	-4.841275e-09	-2.800763e+01	-3.257783e+02
8.900000e-07	-3.741155e-06	-4.798045e-09	-2.778313e+01	-3.243602e+02
9.000000e-07	-3.710669e-06	-4.809510e-09	-2.755673e+01	-3.229240e+02
9.100000e-07	-3.679908e-06	-4.808518e-09	-2.732828e+01	-3.214760e+02
9.200000e-07	-3.648818e-06	-4.770560e-09	-2.709740e+01	-3.200221e+02
9.300000e-07	-3.617524e-06	-4.729201e-09	-2.686500e+01	-3.185675e+02
9.400000e-07	-3.586037e-06	-4.724009e-09	-2.663116e+01	-3.171172e+02
9.500000e-07	-3.554330e-06	-4.714631e-09	-2.639570e+01	-3.156751e+02
9.600000e-07	-3.522457e-06	-4.687979e-09	-2.615900e+01	-3.142441e+02
9.700000e-07	-3.490457e-06	-4.659704e-09	-2.592135e+01	-3.128264e+02
9.800000e-07	-3.458265e-06	-4.651337e-09	-2.568228e+01	-3.114228e+02
9.900000e-07	-3.425860e-06	-4.630972e-09	-2.544163e+01	-3.100334e+02
1.000000e-06	-3.393218e-06	-4.597495e-09	-2.519922e+01	-3.086571e+02
1.010000e-06	-3.360191e-06	-4.572054e-09	-2.495395e+01	-3.072919e+02
1.020000e-06	-3.326898e-06	-4.565518e-09	-2.470670e+01	-3.059348e+02
1.030000e-06	-3.293271e-06	-4.541907e-09	-2.445698e+01	-3.045821e+02
1.040000e-06	-3.259166e-06	-4.500154e-09	-2.420370e+01	-3.032296e+02
1.050000e-06	-3.224670e-06	-4.469317e-09	-2.394753e+01	-3.018724e+02
1.060000e-06	-3.189762e-06	-4.466845e-09	-2.368829e+01	-3.005055e+02
1.070000e-06	-3.154554e-06	-4.454982e-09	-2.342682e+01	-2.991236e+02
1.080000e-06	-3.119100e-06	-4.411695e-09	-2.316352e+01	-2.977215e+02
1.090000e-06	-3.083445e-06	-4.367389e-09	-2.289874e+01	-2.962942e+02
1.100000e-06	-3.047648e-06	-4.355090e-09	-2.263290e+01	-2.948369e+02
1.110000e-06	-3.011701e-06	-4.351188e-09	-2.236595e+01	-2.933455e+02
1.120000e-06	-2.975645e-06	-4.315982e-09	-2.209818e+01	-2.918164e+02
1.130000e-06	-2.939493e-06	-4.266975e-09	-2.182970e+01	-2.902466e+02
1.140000e-06	-2.903208e-06	-4.240907e-09	-2.156024e+01	-2.886341e+02
1.150000e-06	-2.866729e-06	-4.238327e-09	-2.128933e+01	-2.869775e+02
1.160000e-06	-2.830112e-06	-4.218937e-09	-2.101740e+01	-2.852763e+02
1.170000e-06	-2.793339e-06	-4.176385e-09	-2.074431e+01	-2.835309e+02
1.180000e-06	-2.756371e-06	-4.140265e-09	-2.046977e+01	-2.817425e+02
1.190000e-06	-2.719119e-06	-4.125203e-09	-2.019313e+01	-2.799127e+02
1.200000e-06	-2.681588e-06	-4.107711e-09	-1.991441e+01	-2.780442e+02
1.210000e-06	-2.643818e-06	-4.072213e-09	-1.963392e+01	-2.761400e+02
1.220000e-06	-2.605873e-06	-4.034813e-09	-1.935213e+01	-2.742033e+02
1.230000e-06	-2.567841e-06	-4.011961e-09	-1.906969e+01	-2.722380e+02
1.240000e-06	-2.529603e-06	-3.991246e-09	-1.878572e+01	-2.702478e+02
1.250000e-06	-2.491154e-06	-3.960821e-09	-1.850018e+01	-2.682366e+02
1.260000e-06	-2.452616e-06	-3.927507e-09	-1.821398e+01	-2.662081e+02
1.270000e-06	-2.413880e-06	-3.900389e-09	-1.792632e+01	-2.641657e+02
1.280000e-06	-2.374902e-06	-3.870780e-09	-1.763685e+01	-2.621125e+02
1.290000e-06	-2.335905e-06	-3.839097e-09	-1.734725e+01	-2.600510e+02
1.300000e-06	-2.296792e-06	-3.809304e-09	-1.705678e+01	-2.579834e+02
1.310000e-06	-2.257486e-06	-3.784867e-09	-1.676488e+01	-2.559110e+02
1.320000e-06	-2.218035e-06	-3.750973e-09	-1.647190e+01	-2.538345e+02
1.330000e-06	-2.178407e-06	-3.709895e-09	-1.617761e+01	-2.517542e+02
1.340000e-06	-2.138658e-06	-3.671548e-09	-1.588242e+01	-2.496694e+02
1.350000e-06	-2.098824e-06	-3.646735e-09	-1.558660e+01	-2.475790e+02
1.360000e-06	-2.058920e-06	-3.621023e-09	-1.529026e+01	-2.454812e+02
1.370000e-06	-2.018967e-06	-3.582574e-09	-1.499355e+01	-2.433737e+02
1.380000e-06	-1.978912e-06	-3.539622e-09	-1.469609e+01	-2.412541e+02
1.390000e-06	-1.938754e-06	-3.508046e-09	-1.439787e+01	-2.391192e+02
1.400000e-06	-1.898552e-06	-3.481579e-09	-1.409931e+01	-2.369659e+02
1.410000e-06	-1.858211e-06	-3.444984e-09	-1.379972e+01	-2.347912e+02
1.420000e-06	-1.817644e-06	-3.399918e-09	-1.349846e+01	-2.325916e+02
1.430000e-06	-1.776819e-06	-3.363419e-09	-1.319528e+01	-2.303643e+02
1.440000e-06	-1.735883e-06	-3.339104e-09	-1.289127e+01	-2.281065e+02
1.450000e-06	-1.694920e-06	-3.310388e-09	-1.258706e+01	-2.258158e+02
1.460000e-06	-1.653831e-06	-3.271943e-09	-1.228193e+01	-2.234901e+02
1.470000e-06	-1.612469e-06	-3.231384e-09	-1.197476e+01	-2.211280e+02
1.480000e-06	-1.570875e-06	-3.197779e-09	-1.166587e+01	-2.187286e+02
1.490000e-06	-1.529012e-06	-3.166012e-09	-1.135497e+01	-2.162914e+02
1.500000e-06	-1.486926e-06	-3.130260e-09	-1.104243e+01	-2.138168e+02
1.510000e-06	-1.444681e-06	-3.089605e-09	-1.072871e+01	-2.113055e+02
1.520000e-06	-1.402149e-06	-3.051731e-09	-1.041285e+01	-2.087588e+02
1.530000e-06	-1.359373e-06	-3.014388e-09	-1.009517e+01	-2.061784e+02
1.540000e-06	-1.316550e-06	-2.975459e-09	-9.777163e+00	-2.035665e+02
1.550000e-06	-1.273690e-06	-2.934326e-09	-9.458867e+00	-2.009255e+02
1.560000e-06	-1.230648e-06	-2.893773e-09	-9.139220e+00	-1.982581e+02
1.570000e-06	-1.187589e-06	-2.852274e-09	-8.819447e+00	-1.955672e+02
1.580000e-06	-1.144433e-06	-2.812994e-09	-8.498961e+00	-1.928554e+02
1.590000e-06	-1.101102e-06	-2.774636e-09	-8.177166e+00	-1.901255e+02
1.600000e-06	-1.057732e-06	-2.735195e-09	-7.855084e+00	-1.873799e+02
1.610000e-06	-1.014246e-06	-2.689029e-09	-7.532147e+00	-1.846207e+02
1.620000e-06	-9.706115e-07	-2.643126e-09	-7.208100e+00	-1.818498e+02
1.630000e-06	-9.269410e-07	-2.604302e-09	-6.883787e+00	-1.790685e+02
1.640000e-06	-8.832178e-07	-2.569685e-09	-6.559084e+00	-1.762775e+02
1.650000e-06	-8.394747e-07	-2.527986e-09	-6.234232e+00	-1.734771e+02
1.660000e-06	-7.956988e-07	-2.477101e-09	-5.909137e+00	-1.706669e+02
1.670000e-06	-7.519309e-07	-2.430516e-09	-5.584101e+00	-1.678462e+02
1.680000e-06	-7.081856e-07	-2.394449e-09	-5.259233e+00	-1.650135e+02
1.690000e-06	-6.643820e-07	-2.358664e-09	-4.933933e+00	-1.621669e+02
1.700000e-06	-6.205521e-07	-2.310854e-09	-4.608436e+00	-1.593041e+02
1.710000e-06	-5.766635e-07	-2.261117e-09	-4.282504e+00	-1.564224e+02
1.720000e-06	-5.327392e-07	-2.221037e-09	-3.956307e+00	-1.535188e+02
1.730000e-06	-4.888308e-07	-2.184464e-09	-3.630228e+00	-1.505903e+02
1.740000e-06	-4.449402e-07	-2.138821e-09	-3.304282e+00	-1.476338e+02
1.750000e-06	-4.010547e-07	-2.085718e-09	-2.978372e+00	-1.446460e+02
1.760000e-06	-3.570939e-07	-2.035194e-09	-2.651904e+00	-1.416241e+02
1.770000e-06	-3.130908e-07	-1.993600e-09	-2.325121e+00	-1.385654e+02
1.780000e-06	-2.691315e-07	-1.951498e-09	-1.998664e+00	-1.354675e+02
1.790000e-06	-2.251730e-07	-1.901928e-09	-1.672214e+00	-1.323287e+02
1.800000e-06	-1.811847e-07	-1.849204e-09	-1.345541e+00	-1.291474e+02
1.810000e-06	-1.372378e-07	-1.801911e-09	-1.019176e+00	-1.259230e+02
1.820000e-06	-9.332484e-08	-1.756901e-09	-6.930628e-01	-1.226552e+02
1.830000e-06	-4.934171e-08	-1.709687e-09	-3.664287e-01	-1.193445e+02
1.840000e-06	-5.315971e-09	-1.657943e-09	-3.947825e-02	-1.159917e+02
1.850000e-06	3.863839e-08	-1.606610e-09	2.869422e-01	-1.125985e+02
1.860000e-06	8.258882e-08	-1.560283e-09	6.133334e-01	-1.091670e+02
1.870000e-06	1.265600e-07	-1.516739e-09	9.398787e-01	-1.056996e+02
1.880000e-06	1.705089e-07	-1.470102e-09	1.266259e+00	-1.021994e+02
1.890000e-06	2.144622e-07	-1.419001e-09	1.592671e+00	-9.866941e+01
1.900000e-06	2.584496e-07	-1.368931e-09	1.919337e+00	-9.511309e+01
1.910000e-06	3.024127e-07	-1.319397e-09	2.245822e+00	-9.153384e+01
1.920000e-06	3.463173e-07	-1.270177e-09	2.571873e+00	-8.793502e+01
1.930000e-06	3.902343e-07	-1.218945e-09	2.898016e+00	-8.431984e+01
1.940000e-06	4.341805e-07	-1.164636e-09	3.224376e+00	-8.069120e+01
1.950000e-06	4.781282e-07	-1.111973e-09	3.550747e+00	-7.705166e+01
1.960000e-06	5.220677e-07	-1.063410e-09	3.877057e+00	-7.340329e+01
1.970000e-06	5.659343e-07	-1.014835e-09	4.202826e+00	-6.974765e+01
1.980000e-06	6.097349e-07	-9.634934e-10	4.528104e+00	-6.608567e+01
1.990000e-06	6.535419e-07	-9.086266e-10	4.853431e+00	-6.241769e+01
2.000000e-06	6.973636e-07	-8.517580e-10	5.178865e+00	-5.874339e+01
2.010000e-06	7.411991e-07	-7.989740e-10	5.504403e+00	-5.506181e+01
2.020000e-06	7.849944e-07	-7.475530e-10	5.829642e+00	-5.137140e+01
2.030000e-06	8.287443e-07	-6.916419e-10	6.154545e+00	-4.767005e+01
2.040000e-06	8.724254e-07	-6.340929e-10	6.478935e+00	-4.395515e+01
2.050000e-06	9.160324e-07	-5.768233e-10	6.802776e+00	-4.022371e+01
2.060000e-06	9.596087e-07	-5.227841e-10	7.126389e+00	-3.647243e+01
2.070000e-06	1.003108e-06	-4.694908e-10	7.449427e+00	-3.269781e+01
2.080000e-06	1.046570e-06	-4.136261e-10	7.772195e+00	-2.889631e+01
2.090000e-06	1.090016e-06	-3.549927e-10	8.094842e+00	-2.506444e+01
2.100000e-06	1.133219e-06	-2.956128e-10	8.415680e+00	-2.119888e+01
2.110000e-06	1.176271e-06	-2.386324e-10	8.735397e+00	-1.729664e+01
2.120000e-06	1.219337e-06	-1.822224e-10	9.055219e+00	-1.335513e+01
2.130000e-06	1.262281e-06	-1.231553e-10	9.374141e+00	-9.372272e+00
2.140000e-06	1.305127e-06	-6.243163e-11	9.692329e+00	-5.346621e+00
2.150000e-06	1.347883e-06	-4.001098e-12	1.000985e+01	-1.277394e+00
2.160000e-06	1.390521e-06	5.378064e-11	1.032650e+01	2.835459e+00
2.170000e-06	1.432968e-06	1.106034e-10	1.064172e+01	6.991232e+00
2.180000e-06	1.475246e-06	1.705320e-10	1.095569e+01	1.118845e+01
2.190000e-06	1.517163e-06	2.334441e-10	1.126698e+01	1.542490e+01
2.200000e-06	1.558809e-06	2.983618e-10	1.157626e+01	1.969765e+01
2.210000e-06	1.600442e-06	3.603295e-10	1.188544e+01	2.400310e+01
2.220000e-06	1.641811e-06	4.213084e-10	1.219266e+01	2.833711e+01
2.230000e-06	1.682905e-06	4.843218e-10	1.249784e+01	3.269503e+01
2.240000e-06	1.723747e-06	5.494423e-10	1.280115e+01	3.707184e+01
2.250000e-06	1.764448e-06	6.132922e-10	1.310341e+01	4.146226e+01
2.260000e-06	1.805079e-06	6.759283e-10	1.340515e+01	4.586090e+01
2.270000e-06	1.845535e-06	7.377594e-10	1.370559e+01	5.026234e+01
2.280000e-06	1.885844e-06	7.995862e-10	1.400494e+01	5.466128e+01
2.290000e-06	1.926057e-06	8.656590e-10	1.430357e+01	5.905266e+01
2.300000e-06	1.966160e-06	9.325487e-10	1.460139e+01	6.343177e+01
2.310000e-06	2.006091e-06	9.955342e-10	1.489793e+01	6.779434e+01
2.320000e-06	2.045951e-06	1.056992e-09	1.519394e+01	7.213662e+01
2.330000e-06	2.085796e-06	1.122023e-09	1.548985e+01	7.645546e+01
2.340000e-06	2.125597e-06	1.187207e-09	1.578543e+01	8.074832e+01
2.350000e-06	2.165353e-06	1.251855e-09	1.608067e+01	8.501334e+01
2.360000e-06	2.204973e-06	1.315040e-09	1.637490e+01	8.924928e+01
2.370000e-06	2.244478e-06	1.377791e-09	1.666828e+01	9.345556e+01
2.380000e-06	2.283849e-06	1.439003e-09	1.696066e+01	9.763218e+01
2.390000e-06	2.322996e-06	1.500189e-09	1.725138e+01	1.017797e+02
2.400000e-06	2.361982e-06	1.560884e-09	1.754090e+01	1.058990e+02
2.410000e-06	2.400752e-06	1.623376e-09	1.782883e+01	1.099914e+02
2.420000e-06	2.439343e-06	1.685718e-09	1.811541e+01	1.140586e+02
2.430000e-06	2.477742e-06	1.746902e-09	1.840058e+01	1.181023e+02
2.440000e-06	2.515888e-06	1.807187e-09	1.868387e+01	1.221243e+02
2.450000e-06	2.553898e-06	1.865868e-09	1.896614e+01	1.261262e+02
2.460000e-06	2.591827e-06	1.923262e-09	1.924781e+01	1.301094e+02
2.470000e-06	2.629596e-06	1.981426e-09	1.952830e+01	1.340754e+02
2.480000e-06	2.667229e-06	2.038896e-09	1.980778e+01	1.380247e+02
2.490000e-06	2.704757e-06	2.095200e-09	2.008647e+01	1.419579e+02
2.500000e-06	2.742052e-06	2.150995e-09	2.036343e+01	1.458748e+02
2.510000e-06	2.779073e-06	2.208240e-09	2.063836e+01	1.497747e+02
2.520000e-06	2.815776e-06	2.265939e-09	2.091094e+01	1.536563e+02
2.530000e-06	2.852233e-06	2.321952e-09	2.118168e+01	1.575179e+02
2.540000e-06	2.888563e-06	2.377986e-09	2.145147e+01	1.613571e+02
2.550000e-06	2.924699e-06	2.433325e-09	2.171983e+01	1.651712e+02
2.560000e-06	2.960710e-06	2.483694e-09	2.198726e+01	1.689568e+02
2.570000e-06	2.996660e-06	2.532492e-09	2.225425e+01	1.727103e+02
2.580000e-06	3.032500e-06	2.584956e-09	2.252041e+01	1.764280e+02
2.590000e-06	3.068235e-06	2.638512e-09	2.278578e+01	1.801058e+02
2.600000e-06	3.103845e-06	2.690430e-09	2.305024e+01	1.837397e+02
2.610000e-06	3.139359e-06	2.739237e-09	2.331397e+01	1.873258e+02
2.620000e-06	3.174622e-06	2.790014e-09	2.357585e+01	1.908603e+02
2.630000e-06	3.209459e-06	2.842826e-09	2.383457e+01	1.943397e+02
2.640000e-06	3.243877e-06	2.895235e-09	2.409016e+01	1.977611e+02
2.650000e-06	3.277938e-06	2.943977e-09	2.434311e+01	2.011219e+02
2.660000e-06	3.311553e-06	2.990364e-09	2.459275e+01	2.044202e+02
2.670000e-06	3.344725e-06	3.035996e-09	2.483909e+01	2.076544e+02
2.680000e-06	3.377605e-06	3.082050e-09	2.508327e+01	2.108241e+02
2.690000e-06	3.410120e-06	3.128313e-09	2.532474e+01	2.139292e+02
2.700000e-06	3.442398e-06	3.172489e-09	2.556445e+01	2.169704e+02
2.710000e-06	3.474562e-06	3.214915e-09	2.580331e+01	2.199489e+02
2.720000e-06	3.506555e-06	3.257199e-09	2.604090e+01	2.228668e+02
2.730000e-06	3.538430e-06	3.300263e-09	2.627762e+01	2.257264e+02
2.740000e-06	3.570159e-06	3.343793e-09	2.651325e+01	2.285306e+02
2.750000e-06	3.601701e-06	3.387419e-09	2.674749e+01	2.312827e+02
2.760000e-06	3.633045e-06	3.427691e-09	2.698026e+01	2.339862e+02
2.770000e-06	3.664128e-06	3.464277e-09	2.721110e+01	2.366447e+02
2.780000e-06	3.694873e-06	3.502708e-09	2.743942e+01	2.392617e+02
2.790000e-06	3.725272e-06	3.544387e-09	2.766517e+01	2.418408e+02
2.800000e-06	3.755414e-06	3.584686e-09	2.788902e+01	2.443852e+02
2.810000e-06	3.785365e-06	3.621321e-09	2.811144e+01	2.468977e+02
2.820000e-06	3.815173e-06	3.658601e-09	2.833281e+01	2.493809e+02
2.830000e-06	3.844762e-06	3.698223e-09	2.855255e+01	2.518366e+02
2.840000e-06	3.874085e-06	3.737109e-09	2.877031e+01	2.542663e+02
2.850000e-06	3.903101e-06	3.771388e-09	2.898579e+01	2.566705e+02
2.860000e-06	3.931730e-06	3.803977e-09	2.919840e+01	2.590495e+02
2.870000e-06	3.960085e-06	3.840109e-09	2.940897e+01	2.614026e+02
2.880000e-06	3.988316e-06	3.878368e-09	2.961862e+01	2.637288e+02
2.890000e-06	4.016397e-06	3.914219e-09	2.982717e+01	2.660261e+02
2.900000e-06	4.044243e-06	3.943902e-09	3.003396e+01	2.682924e+02
