# Temperatura_=_20.0
# Concentracion g/m^3_=_12600.0
# C_Vs_to_Am_M_A/Vsm_=_65563218390.804596
# pendiente_HvsI_1/m_=_3716.3
# ordenada_HvsI_A/m_=_1297.0
# frecuencia_Hz_=_135136.77605808465

Tiempo_(s)	Campo_(V.s)	Magnetizacion_(V.s)	Campo_(kA/m)	Magnetizacion_(A/m)
0.000000e+00	-5.191744e-06	-5.587266e-09	-3.846671e+01	-3.588780e+02
1.000000e-08	-5.191997e-06	-5.585702e-09	-3.846859e+01	-3.587799e+02
2.000000e-08	-5.192023e-06	-5.587221e-09	-3.846878e+01	-3.586590e+02
3.000000e-08	-5.191721e-06	-5.588040e-09	-3.846655e+01	-3.585189e+02
4.000000e-08	-5.191104e-06	-5.585931e-09	-3.846197e+01	-3.583639e+02
5.000000e-08	-5.190070e-06	-5.580853e-09	-3.845431e+01	-3.581988e+02
6.000000e-08	-5.188426e-06	-5.575421e-09	-3.844213e+01	-3.580287e+02
7.000000e-08	-5.186185e-06	-5.569933e-09	-3.842553e+01	-3.578590e+02
8.000000e-08	-5.183453e-06	-5.548890e-09	-3.840528e+01	-3.576956e+02
9.000000e-08	-5.180211e-06	-5.593818e-09	-3.838126e+01	-3.575442e+02
1.000000e-07	-5.176507e-06	-5.650280e-09	-3.835382e+01	-3.574106e+02
1.100000e-07	-5.172430e-06	-5.565760e-09	-3.832361e+01	-3.573007e+02
1.200000e-07	-5.168070e-06	-5.430980e-09	-3.829131e+01	-3.572196e+02
1.300000e-07	-5.163551e-06	-5.537679e-09	-3.825783e+01	-3.571725e+02
1.400000e-07	-5.158714e-06	-5.669058e-09	-3.822199e+01	-3.571638e+02
1.500000e-07	-5.153503e-06	-5.740961e-09	-3.818338e+01	-3.571971e+02
1.600000e-07	-5.147977e-06	-5.504656e-09	-3.814243e+01	-3.572755e+02
1.700000e-07	-5.142119e-06	-5.482381e-09	-3.809903e+01	-3.574011e+02
1.800000e-07	-5.135741e-06	-5.547017e-09	-3.805177e+01	-3.575749e+02
1.900000e-07	-5.128877e-06	-5.710510e-09	-3.800092e+01	-3.577970e+02
2.000000e-07	-5.121880e-06	-5.709373e-09	-3.794908e+01	-3.580665e+02
2.100000e-07	-5.114625e-06	-5.539351e-09	-3.789533e+01	-3.583813e+02
2.200000e-07	-5.107048e-06	-5.444680e-09	-3.783918e+01	-3.587382e+02
2.300000e-07	-5.099340e-06	-5.558097e-09	-3.778207e+01	-3.591330e+02
2.400000e-07	-5.091434e-06	-5.796233e-09	-3.772350e+01	-3.595605e+02
2.500000e-07	-5.083056e-06	-5.709426e-09	-3.766142e+01	-3.600146e+02
2.600000e-07	-5.073819e-06	-5.589486e-09	-3.759298e+01	-3.604884e+02
2.700000e-07	-5.063987e-06	-5.607848e-09	-3.752014e+01	-3.609741e+02
2.800000e-07	-5.053906e-06	-5.788489e-09	-3.744544e+01	-3.614637e+02
2.900000e-07	-5.043374e-06	-5.702117e-09	-3.736741e+01	-3.619485e+02
3.000000e-07	-5.032218e-06	-5.586415e-09	-3.728475e+01	-3.624196e+02
3.100000e-07	-5.020636e-06	-5.593930e-09	-3.719894e+01	-3.628681e+02
3.200000e-07	-5.008811e-06	-5.743762e-09	-3.711133e+01	-3.632851e+02
3.300000e-07	-4.996628e-06	-5.586062e-09	-3.702106e+01	-3.636621e+02
3.400000e-07	-4.984017e-06	-5.439140e-09	-3.692762e+01	-3.639909e+02
3.500000e-07	-4.971084e-06	-5.507064e-09	-3.683180e+01	-3.642639e+02
3.600000e-07	-4.957819e-06	-5.629469e-09	-3.673351e+01	-3.644742e+02
3.700000e-07	-4.944130e-06	-5.411541e-09	-3.663209e+01	-3.646159e+02
3.800000e-07	-4.930111e-06	-5.408343e-09	-3.652822e+01	-3.646839e+02
3.900000e-07	-4.915740e-06	-5.577744e-09	-3.642174e+01	-3.646741e+02
4.000000e-07	-4.900739e-06	-5.485483e-09	-3.631059e+01	-3.645839e+02
4.100000e-07	-4.884956e-06	-5.285758e-09	-3.619366e+01	-3.644113e+02
4.200000e-07	-4.868814e-06	-5.394951e-09	-3.607406e+01	-3.641559e+02
4.300000e-07	-4.852367e-06	-5.498191e-09	-3.595220e+01	-3.638182e+02
4.400000e-07	-4.835494e-06	-5.383815e-09	-3.582718e+01	-3.634000e+02
4.500000e-07	-4.818315e-06	-5.365147e-09	-3.569990e+01	-3.629040e+02
4.600000e-07	-4.800940e-06	-5.381515e-09	-3.557116e+01	-3.623339e+02
4.700000e-07	-4.783315e-06	-5.327778e-09	-3.544058e+01	-3.616943e+02
4.800000e-07	-4.765375e-06	-5.319818e-09	-3.530766e+01	-3.609905e+02
4.900000e-07	-4.747155e-06	-5.439534e-09	-3.517266e+01	-3.602286e+02
5.000000e-07	-4.728561e-06	-5.361424e-09	-3.503490e+01	-3.594147e+02
5.100000e-07	-4.709531e-06	-5.241614e-09	-3.489389e+01	-3.585558e+02
5.200000e-07	-4.690132e-06	-5.257771e-09	-3.475017e+01	-3.576585e+02
5.300000e-07	-4.670563e-06	-5.383760e-09	-3.460518e+01	-3.567298e+02
5.400000e-07	-4.650798e-06	-5.341870e-09	-3.445873e+01	-3.557764e+02
5.500000e-07	-4.630759e-06	-5.243098e-09	-3.431026e+01	-3.548047e+02
5.600000e-07	-4.610422e-06	-5.189152e-09	-3.415958e+01	-3.538206e+02
5.700000e-07	-4.589877e-06	-5.275537e-09	-3.400736e+01	-3.528297e+02
5.800000e-07	-4.569064e-06	-5.302651e-09	-3.385315e+01	-3.518367e+02
5.900000e-07	-4.547753e-06	-5.240628e-09	-3.369525e+01	-3.508458e+02
6.000000e-07	-4.526104e-06	-5.176470e-09	-3.353485e+01	-3.498603e+02
6.100000e-07	-4.504216e-06	-5.209462e-09	-3.337268e+01	-3.488827e+02
6.200000e-07	-4.482062e-06	-5.206070e-09	-3.320853e+01	-3.479148e+02
6.300000e-07	-4.459608e-06	-5.193502e-09	-3.304217e+01	-3.469576e+02
6.400000e-07	-4.436805e-06	-5.192248e-09	-3.287321e+01	-3.460110e+02
6.500000e-07	-4.413665e-06	-5.155919e-09	-3.270177e+01	-3.450746e+02
6.600000e-07	-4.390244e-06	-5.090910e-09	-3.252824e+01	-3.441471e+02
6.700000e-07	-4.366589e-06	-5.108773e-09	-3.235297e+01	-3.432265e+02
6.800000e-07	-4.342736e-06	-5.157574e-09	-3.217624e+01	-3.423106e+02
6.900000e-07	-4.318698e-06	-5.119396e-09	-3.199814e+01	-3.413965e+02
7.000000e-07	-4.294389e-06	-5.039833e-09	-3.181803e+01	-3.404813e+02
7.100000e-07	-4.269682e-06	-5.014732e-09	-3.163497e+01	-3.395616e+02
7.200000e-07	-4.244549e-06	-5.057128e-09	-3.144875e+01	-3.386342e+02
7.300000e-07	-4.218991e-06	-5.071869e-09	-3.125938e+01	-3.376958e+02
7.400000e-07	-4.192965e-06	-5.021934e-09	-3.106655e+01	-3.367433e+02
7.500000e-07	-4.166425e-06	-4.944209e-09	-3.086991e+01	-3.357737e+02
7.600000e-07	-4.139437e-06	-4.949578e-09	-3.066995e+01	-3.347844e+02
7.700000e-07	-4.112187e-06	-4.995331e-09	-3.046805e+01	-3.337732e+02
7.800000e-07	-4.084676e-06	-4.993700e-09	-3.026422e+01	-3.327383e+02
7.900000e-07	-4.056985e-06	-4.911152e-09	-3.005905e+01	-3.316784e+02
8.000000e-07	-4.029104e-06	-4.865889e-09	-2.985247e+01	-3.305924e+02
8.100000e-07	-4.000975e-06	-4.893633e-09	-2.964406e+01	-3.294802e+02
8.200000e-07	-3.972635e-06	-4.931631e-09	-2.943408e+01	-3.283417e+02
8.300000e-07	-3.943866e-06	-4.880721e-09	-2.922093e+01	-3.271775e+02
8.400000e-07	-3.914841e-06	-4.806823e-09	-2.900587e+01	-3.259885e+02
8.500000e-07	-3.885669e-06	-4.785843e-09	-2.878973e+01	-3.247760e+02
8.600000e-07	-3.856214e-06	-4.819106e-09	-2.857150e+01	-3.235416e+02
8.700000e-07	-3.826517e-06	-4.815726e-09	-2.835147e+01	-3.222871e+02
8.800000e-07	-3.796553e-06	-4.761146e-09	-2.812945e+01	-3.210144e+02
8.900000e-07	-3.766406e-06	-4.706303e-09	-2.790609e+01	-3.197256e+02
9.000000e-07	-3.735994e-06	-4.709246e-09	-2.768076e+01	-3.184226e+02
9.100000e-07	-3.705221e-06	-4.727854e-09	-2.745275e+01	-3.171073e+02
9.200000e-07	-3.674231e-06	-4.702936e-09	-2.722315e+01	-3.157816e+02
9.300000e-07	-3.643083e-06	-4.647434e-09	-2.699236e+01	-3.144470e+02
9.400000e-07	-3.611700e-06	-4.621113e-09	-2.675984e+01	-3.131046e+02
9.500000e-07	-3.580109e-06	-4.620872e-09	-2.652577e+01	-3.117555e+02
9.600000e-07	-3.548350e-06	-4.609291e-09	-2.629046e+01	-3.104002e+02
9.700000e-07	-3.516451e-06	-4.580750e-09	-2.605412e+01	-3.090389e+02
9.800000e-07	-3.484443e-06	-4.550324e-09	-2.581696e+01	-3.076715e+02
9.900000e-07	-3.452056e-06	-4.527995e-09	-2.557700e+01	-3.062973e+02
1.000000e-06	-3.419237e-06	-4.512899e-09	-2.533384e+01	-3.049155e+02
1.010000e-06	-3.386144e-06	-4.505666e-09	-2.508865e+01	-3.035248e+02
1.020000e-06	-3.352820e-06	-4.486819e-09	-2.484174e+01	-3.021235e+02
1.030000e-06	-3.319134e-06	-4.450748e-09	-2.459215e+01	-3.007099e+02
1.040000e-06	-3.285034e-06	-4.413618e-09	-2.433950e+01	-2.992820e+02
1.050000e-06	-3.250564e-06	-4.399817e-09	-2.408411e+01	-2.978376e+02
1.060000e-06	-3.215704e-06	-4.393875e-09	-2.382582e+01	-2.963744e+02
1.070000e-06	-3.180575e-06	-4.371457e-09	-2.356554e+01	-2.948902e+02
1.080000e-06	-3.145202e-06	-4.327263e-09	-2.330346e+01	-2.933828e+02
1.090000e-06	-3.109645e-06	-4.297207e-09	-2.304001e+01	-2.918501e+02
1.100000e-06	-3.073927e-06	-4.289420e-09	-2.277537e+01	-2.902902e+02
1.110000e-06	-3.038101e-06	-4.281674e-09	-2.250993e+01	-2.887015e+02
1.120000e-06	-3.002149e-06	-4.243361e-09	-2.224355e+01	-2.870825e+02
1.130000e-06	-2.966001e-06	-4.197542e-09	-2.197572e+01	-2.854320e+02
1.140000e-06	-2.929719e-06	-4.170757e-09	-2.170690e+01	-2.837493e+02
1.150000e-06	-2.893342e-06	-4.161733e-09	-2.143737e+01	-2.820339e+02
1.160000e-06	-2.856686e-06	-4.139034e-09	-2.116579e+01	-2.802856e+02
1.170000e-06	-2.819797e-06	-4.098966e-09	-2.089246e+01	-2.785047e+02
1.180000e-06	-2.782802e-06	-4.061072e-09	-2.061836e+01	-2.766917e+02
1.190000e-06	-2.745513e-06	-4.041325e-09	-2.034208e+01	-2.748473e+02
1.200000e-06	-2.707946e-06	-4.026388e-09	-2.006373e+01	-2.729727e+02
1.210000e-06	-2.670192e-06	-3.998755e-09	-1.978401e+01	-2.710691e+02
1.220000e-06	-2.632329e-06	-3.957428e-09	-1.950348e+01	-2.691379e+02
1.230000e-06	-2.594331e-06	-3.921275e-09	-1.922194e+01	-2.671808e+02
1.240000e-06	-2.556047e-06	-3.899378e-09	-1.893829e+01	-2.651992e+02
1.250000e-06	-2.517508e-06	-3.875851e-09	-1.865274e+01	-2.631949e+02
1.260000e-06	-2.478903e-06	-3.842029e-09	-1.836671e+01	-2.611694e+02
1.270000e-06	-2.440209e-06	-3.807271e-09	-1.808001e+01	-2.591243e+02
1.280000e-06	-2.401266e-06	-3.774742e-09	-1.779148e+01	-2.570609e+02
1.290000e-06	-2.362095e-06	-3.748184e-09	-1.750125e+01	-2.549805e+02
1.300000e-06	-2.322786e-06	-3.726148e-09	-1.721000e+01	-2.528840e+02
1.310000e-06	-2.283390e-06	-3.698008e-09	-1.691811e+01	-2.507721e+02
1.320000e-06	-2.243964e-06	-3.655638e-09	-1.662600e+01	-2.486456e+02
1.330000e-06	-2.204440e-06	-3.612737e-09	-1.633315e+01	-2.465046e+02
1.340000e-06	-2.164772e-06	-3.586747e-09	-1.603924e+01	-2.443492e+02
1.350000e-06	-2.124999e-06	-3.563045e-09	-1.574456e+01	-2.421792e+02
1.360000e-06	-2.085077e-06	-3.523757e-09	-1.544877e+01	-2.399941e+02
1.370000e-06	-2.045058e-06	-3.476043e-09	-1.515226e+01	-2.377935e+02
1.380000e-06	-2.004913e-06	-3.441982e-09	-1.485482e+01	-2.355765e+02
1.390000e-06	-1.964636e-06	-3.418442e-09	-1.455640e+01	-2.333422e+02
1.400000e-06	-1.924240e-06	-3.392026e-09	-1.425709e+01	-2.310896e+02
1.410000e-06	-1.883746e-06	-3.350990e-09	-1.395707e+01	-2.288176e+02
1.420000e-06	-1.843170e-06	-3.307482e-09	-1.365643e+01	-2.265252e+02
1.430000e-06	-1.802378e-06	-3.272055e-09	-1.335420e+01	-2.242113e+02
1.440000e-06	-1.761375e-06	-3.245176e-09	-1.305040e+01	-2.218749e+02
1.450000e-06	-1.720157e-06	-3.209981e-09	-1.274500e+01	-2.195150e+02
1.460000e-06	-1.678734e-06	-3.166025e-09	-1.243809e+01	-2.171309e+02
1.470000e-06	-1.637169e-06	-3.121593e-09	-1.213013e+01	-2.147220e+02
1.480000e-06	-1.595356e-06	-3.086788e-09	-1.182032e+01	-2.122877e+02
1.490000e-06	-1.553280e-06	-3.057862e-09	-1.150858e+01	-2.098276e+02
1.500000e-06	-1.511142e-06	-3.025188e-09	-1.119637e+01	-2.073417e+02
1.510000e-06	-1.468947e-06	-2.985351e-09	-1.088373e+01	-2.048299e+02
1.520000e-06	-1.426472e-06	-2.941917e-09	-1.056903e+01	-2.022923e+02
1.530000e-06	-1.383690e-06	-2.905057e-09	-1.025205e+01	-1.997292e+02
1.540000e-06	-1.340770e-06	-2.869852e-09	-9.934042e+00	-1.971411e+02
1.550000e-06	-1.297807e-06	-2.829723e-09	-9.615726e+00	-1.945284e+02
1.560000e-06	-1.254729e-06	-2.781644e-09	-9.296546e+00	-1.918917e+02
1.570000e-06	-1.211550e-06	-2.735953e-09	-8.976624e+00	-1.892315e+02
1.580000e-06	-1.168285e-06	-2.696962e-09	-8.656065e+00	-1.865484e+02
1.590000e-06	-1.124899e-06	-2.662315e-09	-8.334615e+00	-1.838429e+02
1.600000e-06	-1.081443e-06	-2.622202e-09	-8.012639e+00	-1.811156e+02
1.610000e-06	-1.037936e-06	-2.579791e-09	-7.690284e+00	-1.783667e+02
1.620000e-06	-9.944021e-07	-2.538967e-09	-7.367732e+00	-1.755966e+02
1.630000e-06	-9.508551e-07	-2.502791e-09	-7.045084e+00	-1.728053e+02
1.640000e-06	-9.072790e-07	-2.465870e-09	-6.722219e+00	-1.699928e+02
1.650000e-06	-8.636073e-07	-2.421383e-09	-6.398647e+00	-1.671589e+02
1.660000e-06	-8.198751e-07	-2.369105e-09	-6.074626e+00	-1.643033e+02
1.670000e-06	-7.761296e-07	-2.320180e-09	-5.750506e+00	-1.614254e+02
1.680000e-06	-7.323757e-07	-2.282166e-09	-5.426325e+00	-1.585245e+02
1.690000e-06	-6.886296e-07	-2.242497e-09	-5.102200e+00	-1.555999e+02
1.700000e-06	-6.448340e-07	-2.195888e-09	-4.777710e+00	-1.526507e+02
1.710000e-06	-6.010016e-07	-2.145764e-09	-4.452947e+00	-1.496758e+02
1.720000e-06	-5.571498e-07	-2.105616e-09	-4.128039e+00	-1.466744e+02
1.730000e-06	-5.133054e-07	-2.069355e-09	-3.803187e+00	-1.436451e+02
1.740000e-06	-4.694192e-07	-2.024956e-09	-3.478025e+00	-1.405872e+02
1.750000e-06	-4.254664e-07	-1.971584e-09	-3.152369e+00	-1.374995e+02
1.760000e-06	-3.815140e-07	-1.922015e-09	-2.826717e+00	-1.343813e+02
1.770000e-06	-3.375519e-07	-1.876987e-09	-2.500993e+00	-1.312315e+02
1.780000e-06	-2.936036e-07	-1.834298e-09	-2.175371e+00	-1.280498e+02
1.790000e-06	-2.496318e-07	-1.787295e-09	-1.849574e+00	-1.248355e+02
1.800000e-06	-2.056759e-07	-1.735684e-09	-1.523896e+00	-1.215884e+02
1.810000e-06	-1.617451e-07	-1.686729e-09	-1.198403e+00	-1.183083e+02
1.820000e-06	-1.177499e-07	-1.642999e-09	-8.724339e-01	-1.149954e+02
1.830000e-06	-7.374268e-08	-1.597626e-09	-5.463749e-01	-1.116499e+02
1.840000e-06	-2.973655e-08	-1.545659e-09	-2.203243e-01	-1.082724e+02
1.850000e-06	1.426639e-08	-1.491480e-09	1.057026e-01	-1.048634e+02
1.860000e-06	5.822264e-08	-1.443115e-09	4.313837e-01	-1.014239e+02
1.870000e-06	1.021718e-07	-1.398843e-09	7.570118e-01	-9.795476e+01
1.880000e-06	1.461743e-07	-1.352992e-09	1.083036e+00	-9.445701e+01
1.890000e-06	1.901862e-07	-1.303181e-09	1.409129e+00	-9.093178e+01
1.900000e-06	2.341913e-07	-1.249835e-09	1.735172e+00	-8.738021e+01
1.910000e-06	2.781216e-07	-1.198881e-09	2.060661e+00	-8.380345e+01
1.920000e-06	3.219760e-07	-1.150032e-09	2.385588e+00	-8.020256e+01
1.930000e-06	3.659085e-07	-1.099525e-09	2.711092e+00	-7.657857e+01
1.940000e-06	4.098740e-07	-1.042212e-09	3.036842e+00	-7.293238e+01
1.950000e-06	4.537690e-07	-9.852336e-10	3.362069e+00	-6.926472e+01
1.960000e-06	4.976357e-07	-9.324188e-10	3.687087e+00	-6.557619e+01
1.970000e-06	5.415228e-07	-8.822998e-10	4.012255e+00	-6.186720e+01
1.980000e-06	5.853627e-07	-8.299736e-10	4.337075e+00	-5.813793e+01
1.990000e-06	6.291611e-07	-7.735957e-10	4.661586e+00	-5.438840e+01
2.000000e-06	6.729199e-07	-7.170393e-10	4.985804e+00	-5.061840e+01
2.010000e-06	7.166601e-07	-6.643738e-10	5.309884e+00	-4.682756e+01
2.020000e-06	7.604528e-07	-6.116794e-10	5.634353e+00	-4.301530e+01
2.030000e-06	8.042209e-07	-5.531473e-10	5.958640e+00	-3.918094e+01
2.040000e-06	8.479220e-07	-4.914135e-10	6.282431e+00	-3.532363e+01
2.050000e-06	8.915891e-07	-4.357468e-10	6.605970e+00	-3.144249e+01
2.060000e-06	9.352466e-07	-3.835581e-10	6.929437e+00	-2.753656e+01
2.070000e-06	9.789305e-07	-3.291625e-10	7.253100e+00	-2.360488e+01
2.080000e-06	1.022595e-06	-2.692422e-10	7.576617e+00	-1.964656e+01
2.090000e-06	1.066119e-06	-2.097974e-10	7.899097e+00	-1.566077e+01
2.100000e-06	1.109590e-06	-1.518473e-10	8.221182e+00	-1.164683e+01
2.110000e-06	1.153057e-06	-9.422984e-11	8.543240e+00	-7.604207e+00
2.120000e-06	1.196393e-06	-3.461842e-11	8.864323e+00	-3.532597e+00
2.130000e-06	1.239610e-06	2.760188e-11	9.184525e+00	5.680771e-01
2.140000e-06	1.282729e-06	8.905841e-11	9.504006e+00	4.697627e+00
2.150000e-06	1.325678e-06	1.495804e-10	9.822223e+00	8.855581e+00
2.160000e-06	1.368511e-06	2.109624e-10	1.013959e+01	1.304118e+01
2.170000e-06	1.411246e-06	2.715829e-10	1.045622e+01	1.725335e+01
2.180000e-06	1.453687e-06	3.325261e-10	1.077067e+01	2.149075e+01
2.190000e-06	1.495877e-06	3.974985e-10	1.108326e+01	2.575175e+01
2.200000e-06	1.537926e-06	4.605084e-10	1.139482e+01	3.003446e+01
2.210000e-06	1.579816e-06	5.203516e-10	1.170519e+01	3.433675e+01
2.220000e-06	1.621460e-06	5.822681e-10	1.201374e+01	3.865630e+01
2.230000e-06	1.662808e-06	6.486901e-10	1.232009e+01	4.299064e+01
2.240000e-06	1.703980e-06	7.164402e-10	1.262514e+01	4.733717e+01
2.250000e-06	1.745067e-06	7.808171e-10	1.292956e+01	5.169321e+01
2.260000e-06	1.785982e-06	8.428757e-10	1.323271e+01	5.605606e+01
2.270000e-06	1.826621e-06	9.078816e-10	1.353382e+01	6.042304e+01
2.280000e-06	1.867056e-06	9.726668e-10	1.383341e+01	6.479153e+01
2.290000e-06	1.907323e-06	1.037319e-09	1.413176e+01	6.915902e+01
2.300000e-06	1.947474e-06	1.100127e-09	1.442924e+01	7.352311e+01
2.310000e-06	1.987536e-06	1.162047e-09	1.472607e+01	7.788159e+01
2.320000e-06	2.027439e-06	1.225273e-09	1.502172e+01	8.223244e+01
2.330000e-06	2.067265e-06	1.291469e-09	1.531680e+01	8.657385e+01
2.340000e-06	2.107063e-06	1.356908e-09	1.561167e+01	9.090423e+01
2.350000e-06	2.146774e-06	1.420125e-09	1.590589e+01	9.522219e+01
2.360000e-06	2.186426e-06	1.484966e-09	1.619968e+01	9.952657e+01
2.370000e-06	2.226039e-06	1.550614e-09	1.649319e+01	1.038164e+02
2.380000e-06	2.265508e-06	1.615314e-09	1.678562e+01	1.080909e+02
2.390000e-06	2.304794e-06	1.678351e-09	1.707670e+01	1.123495e+02
2.400000e-06	2.344002e-06	1.739261e-09	1.736720e+01	1.165915e+02
2.410000e-06	2.382994e-06	1.799451e-09	1.765610e+01	1.208166e+02
2.420000e-06	2.421783e-06	1.860054e-09	1.794350e+01	1.250244e+02
2.430000e-06	2.460416e-06	1.922772e-09	1.822973e+01	1.292144e+02
2.440000e-06	2.498945e-06	1.985866e-09	1.851521e+01	1.333863e+02
2.450000e-06	2.537271e-06	2.045731e-09	1.879917e+01	1.375393e+02
2.460000e-06	2.575282e-06	2.103846e-09	1.908080e+01	1.416730e+02
2.470000e-06	2.613167e-06	2.162120e-09	1.936150e+01	1.457865e+02
2.480000e-06	2.650960e-06	2.220630e-09	1.964152e+01	1.498787e+02
2.490000e-06	2.688637e-06	2.278057e-09	1.992067e+01	1.539485e+02
2.500000e-06	2.726121e-06	2.335410e-09	2.019840e+01	1.579946e+02
2.510000e-06	2.763392e-06	2.394839e-09	2.047455e+01	1.620152e+02
2.520000e-06	2.800440e-06	2.456697e-09	2.074905e+01	1.660085e+02
2.530000e-06	2.837214e-06	2.515311e-09	2.102151e+01	1.699724e+02
2.540000e-06	2.873724e-06	2.571135e-09	2.129202e+01	1.739048e+02
2.550000e-06	2.910055e-06	2.626547e-09	2.156120e+01	1.778033e+02
2.560000e-06	2.946187e-06	2.680716e-09	2.182892e+01	1.816653e+02
2.570000e-06	2.982156e-06	2.734325e-09	2.209541e+01	1.854881e+02
2.580000e-06	3.018034e-06	2.787372e-09	2.236125e+01	1.892693e+02
2.590000e-06	3.053852e-06	2.841535e-09	2.262663e+01	1.930062e+02
2.600000e-06	3.089591e-06	2.894934e-09	2.289142e+01	1.966962e+02
2.610000e-06	3.125232e-06	2.947168e-09	2.315549e+01	2.003368e+02
2.620000e-06	3.160773e-06	2.998562e-09	2.341883e+01	2.039259e+02
2.630000e-06	3.196025e-06	3.049403e-09	2.368002e+01	2.074612e+02
2.640000e-06	3.230956e-06	3.100353e-09	2.393883e+01	2.109411e+02
2.650000e-06	3.265578e-06	3.148655e-09	2.419535e+01	2.143639e+02
2.660000e-06	3.299849e-06	3.197301e-09	2.444927e+01	2.177285e+02
2.670000e-06	3.333737e-06	3.247344e-09	2.470035e+01	2.210341e+02
2.680000e-06	3.367033e-06	3.294700e-09	2.494705e+01	2.242800e+02
2.690000e-06	3.399877e-06	3.339173e-09	2.519040e+01	2.274663e+02
2.700000e-06	3.432425e-06	3.384142e-09	2.543156e+01	2.305931e+02
2.710000e-06	3.464679e-06	3.428315e-09	2.567053e+01	2.336611e+02
2.720000e-06	3.496758e-06	3.472658e-09	2.590821e+01	2.366711e+02
2.730000e-06	3.528669e-06	3.517500e-09	2.614465e+01	2.396243e+02
2.740000e-06	3.560451e-06	3.559293e-09	2.638012e+01	2.425223e+02
2.750000e-06	3.592167e-06	3.600294e-09	2.661511e+01	2.453667e+02
2.760000e-06	3.623722e-06	3.641154e-09	2.684892e+01	2.481593e+02
2.770000e-06	3.655050e-06	3.682384e-09	2.708103e+01	2.509022e+02
2.780000e-06	3.686073e-06	3.720611e-09	2.731089e+01	2.535975e+02
2.790000e-06	3.716785e-06	3.758804e-09	2.753843e+01	2.562470e+02
2.800000e-06	3.747165e-06	3.797519e-09	2.776352e+01	2.588529e+02
2.810000e-06	3.777174e-06	3.835135e-09	2.798587e+01	2.614171e+02
2.820000e-06	3.806971e-06	3.872410e-09	2.820664e+01	2.639413e+02
2.830000e-06	3.836619e-06	3.910084e-09	2.842631e+01	2.664270e+02
2.840000e-06	3.866152e-06	3.947419e-09	2.864513e+01	2.688757e+02
2.850000e-06	3.895494e-06	3.984335e-09	2.886253e+01	2.712885e+02
2.860000e-06	3.924493e-06	4.020119e-09	2.907739e+01	2.736662e+02
2.870000e-06	3.953113e-06	4.055349e-09	2.928944e+01	2.760093e+02
2.880000e-06	3.981473e-06	4.090304e-09	2.949956e+01	2.783183e+02
2.890000e-06	4.009597e-06	4.124731e-09	2.970794e+01	2.805932e+02
2.900000e-06	4.037501e-06	4.157038e-09	2.991469e+01	2.828338e+02
