# Temperatura_=_20.0
# Concentracion g/m^3_=_12600.0
# C_Vs_to_Am_M_A/Vsm_=_65563218390.804596
# pendiente_HvsI_1/m_=_3716.3
# ordenada_HvsI_A/m_=_1297.0
# frecuencia_Hz_=_135138.8397135102

Tiempo_(s)	Campo_(V.s)	Magnetizacion_(V.s)	Campo_(kA/m)	Magnetizacion_(A/m)
0.000000e+00	-5.190833e-06	-1.190385e-10	-3.845564e+01	-6.442251e+00
1.000000e-08	-5.191050e-06	-1.179272e-10	-3.845724e+01	-6.710773e+00
2.000000e-08	-5.191049e-06	-1.181341e-10	-3.845723e+01	-6.971345e+00
3.000000e-08	-5.190673e-06	-1.193304e-10	-3.845445e+01	-7.213125e+00
4.000000e-08	-5.189958e-06	-1.203024e-10	-3.844915e+01	-7.424992e+00
5.000000e-08	-5.188790e-06	-1.191306e-10	-3.844050e+01	-7.595832e+00
6.000000e-08	-5.187170e-06	-1.267067e-10	-3.842850e+01	-7.714836e+00
7.000000e-08	-5.185041e-06	-1.309968e-10	-3.841273e+01	-7.771795e+00
8.000000e-08	-5.182233e-06	-1.016793e-10	-3.839192e+01	-7.757391e+00
9.000000e-08	-5.178930e-06	-4.755301e-11	-3.836746e+01	-7.663467e+00
1.000000e-07	-5.175230e-06	-1.213594e-10	-3.834004e+01	-7.483280e+00
1.100000e-07	-5.171188e-06	-2.354996e-10	-3.831010e+01	-7.211720e+00
1.200000e-07	-5.166862e-06	-2.156931e-10	-3.827805e+01	-6.845489e+00
1.300000e-07	-5.162356e-06	-6.354428e-11	-3.824466e+01	-6.383244e+00
1.400000e-07	-5.157536e-06	-3.701767e-11	-3.820896e+01	-5.825687e+00
1.500000e-07	-5.152236e-06	-1.146852e-10	-3.816969e+01	-5.175607e+00
1.600000e-07	-5.146586e-06	-1.900637e-10	-3.812783e+01	-4.437873e+00
1.700000e-07	-5.140581e-06	-1.239788e-10	-3.808335e+01	-3.619364e+00
1.800000e-07	-5.134262e-06	-1.367271e-10	-3.803654e+01	-2.728864e+00
1.900000e-07	-5.127620e-06	-1.331208e-10	-3.798733e+01	-1.776889e+00
2.000000e-07	-5.120699e-06	-1.499788e-10	-3.793606e+01	-7.754851e-01
2.100000e-07	-5.113581e-06	-1.600502e-10	-3.788333e+01	2.620248e-01
2.200000e-07	-5.106175e-06	-1.310135e-10	-3.782845e+01	1.321325e+00
2.300000e-07	-5.098361e-06	-2.551321e-11	-3.777057e+01	2.387416e+00
2.400000e-07	-5.090121e-06	-2.291418e-11	-3.770952e+01	3.444949e+00
2.500000e-07	-5.081537e-06	-1.193120e-10	-3.764593e+01	4.478563e+00
2.600000e-07	-5.072482e-06	-2.496166e-11	-3.757885e+01	5.473234e+00
2.700000e-07	-5.062673e-06	2.556473e-10	-3.750618e+01	6.414606e+00
2.800000e-07	-5.052370e-06	3.299153e-10	-3.742985e+01	7.289321e+00
2.900000e-07	-5.041932e-06	4.643090e-11	-3.735252e+01	8.085310e+00
3.000000e-07	-5.031103e-06	-1.248246e-11	-3.727229e+01	8.792065e+00
3.100000e-07	-5.019614e-06	2.237206e-10	-3.718718e+01	9.400866e+00
3.200000e-07	-5.007666e-06	2.996341e-10	-3.709866e+01	9.904971e+00
3.300000e-07	-4.995430e-06	8.941144e-11	-3.700802e+01	1.029975e+01
3.400000e-07	-4.982745e-06	6.402398e-11	-3.691404e+01	1.058276e+01
3.500000e-07	-4.969605e-06	8.632636e-11	-3.681670e+01	1.075380e+01
3.600000e-07	-4.956196e-06	7.273454e-11	-3.671736e+01	1.081486e+01
3.700000e-07	-4.942496e-06	9.957484e-11	-3.661586e+01	1.077009e+01
3.800000e-07	-4.928394e-06	2.304544e-10	-3.651139e+01	1.062561e+01
3.900000e-07	-4.913903e-06	9.444329e-11	-3.640403e+01	1.038938e+01
4.000000e-07	-4.898892e-06	-2.746935e-12	-3.629283e+01	1.007098e+01
4.100000e-07	-4.883178e-06	1.626120e-10	-3.617641e+01	9.681352e+00
4.200000e-07	-4.866987e-06	2.773816e-10	-3.605646e+01	9.232499e+00
4.300000e-07	-4.850487e-06	8.924176e-11	-3.593423e+01	8.737215e+00
4.400000e-07	-4.833649e-06	-4.194789e-13	-3.580948e+01	8.208746e+00
4.500000e-07	-4.816488e-06	1.371079e-10	-3.568234e+01	7.660475e+00
4.600000e-07	-4.798999e-06	2.170204e-10	-3.555278e+01	7.105601e+00
4.700000e-07	-4.781251e-06	1.344390e-10	-3.542130e+01	6.556833e+00
4.800000e-07	-4.763283e-06	5.961689e-11	-3.528818e+01	6.026104e+00
4.900000e-07	-4.745022e-06	8.467980e-11	-3.515290e+01	5.524307e+00
5.000000e-07	-4.726298e-06	1.495000e-10	-3.501419e+01	5.061070e+00
5.100000e-07	-4.707173e-06	1.822123e-10	-3.487250e+01	4.644566e+00
5.200000e-07	-4.687746e-06	1.157093e-10	-3.472858e+01	4.281365e+00
5.300000e-07	-4.668102e-06	7.561973e-11	-3.458304e+01	3.976336e+00
5.400000e-07	-4.648234e-06	1.118243e-10	-3.443586e+01	3.732592e+00
5.500000e-07	-4.628147e-06	1.615798e-10	-3.428704e+01	3.551484e+00
5.600000e-07	-4.607846e-06	1.362332e-10	-3.413665e+01	3.432644e+00
5.700000e-07	-4.587236e-06	1.035006e-10	-3.398396e+01	3.374068e+00
5.800000e-07	-4.566284e-06	7.904397e-11	-3.382874e+01	3.372245e+00
5.900000e-07	-4.545002e-06	1.192812e-10	-3.367108e+01	3.422316e+00
6.000000e-07	-4.523352e-06	1.529841e-10	-3.351069e+01	3.518275e+00
6.100000e-07	-4.501431e-06	1.210095e-10	-3.334829e+01	3.653182e+00
6.200000e-07	-4.479313e-06	7.325563e-11	-3.318443e+01	3.819401e+00
6.300000e-07	-4.456831e-06	1.275746e-10	-3.301787e+01	4.008850e+00
6.400000e-07	-4.433990e-06	1.538127e-10	-3.284866e+01	4.213252e+00
6.500000e-07	-4.410884e-06	1.028065e-10	-3.267748e+01	4.424379e+00
6.600000e-07	-4.387488e-06	8.929336e-11	-3.250415e+01	4.634296e+00
6.700000e-07	-4.363743e-06	1.444628e-10	-3.232824e+01	4.835571e+00
6.800000e-07	-4.339815e-06	1.309101e-10	-3.215097e+01	5.021484e+00
6.900000e-07	-4.315728e-06	8.657906e-11	-3.197253e+01	5.186183e+00
7.000000e-07	-4.291330e-06	1.066010e-10	-3.179178e+01	5.324831e+00
7.100000e-07	-4.266596e-06	1.515576e-10	-3.160854e+01	5.433701e+00
7.200000e-07	-4.241488e-06	1.325909e-10	-3.142253e+01	5.510243e+00
7.300000e-07	-4.215942e-06	9.115307e-11	-3.123328e+01	5.553110e+00
7.400000e-07	-4.189947e-06	9.503933e-11	-3.104070e+01	5.562145e+00
7.500000e-07	-4.163478e-06	1.345130e-10	-3.084461e+01	5.538336e+00
7.600000e-07	-4.136599e-06	1.399463e-10	-3.064547e+01	5.483733e+00
7.700000e-07	-4.109422e-06	9.776652e-11	-3.044414e+01	5.401337e+00
7.800000e-07	-4.081893e-06	7.948661e-11	-3.024019e+01	5.294963e+00
7.900000e-07	-4.054108e-06	1.157828e-10	-3.003435e+01	5.169084e+00
8.000000e-07	-4.026130e-06	1.454438e-10	-2.982708e+01	5.028654e+00
8.100000e-07	-3.997924e-06	1.170374e-10	-2.961812e+01	4.878928e+00
8.200000e-07	-3.969510e-06	8.289244e-11	-2.940762e+01	4.725274e+00
8.300000e-07	-3.940821e-06	9.651628e-11	-2.919508e+01	4.572991e+00
8.400000e-07	-3.911832e-06	1.340904e-10	-2.898032e+01	4.427130e+00
8.500000e-07	-3.882586e-06	1.281278e-10	-2.876365e+01	4.292335e+00
8.600000e-07	-3.853116e-06	9.700353e-11	-2.854533e+01	4.172696e+00
8.700000e-07	-3.823359e-06	9.066538e-11	-2.832487e+01	4.071630e+00
8.800000e-07	-3.793333e-06	1.184762e-10	-2.810243e+01	3.991780e+00
8.900000e-07	-3.763105e-06	1.293553e-10	-2.787849e+01	3.934955e+00
9.000000e-07	-3.732678e-06	1.151066e-10	-2.765308e+01	3.902085e+00
9.100000e-07	-3.701992e-06	1.005275e-10	-2.742574e+01	3.893214e+00
9.200000e-07	-3.671045e-06	1.116523e-10	-2.719648e+01	3.907525e+00
9.300000e-07	-3.639824e-06	1.209277e-10	-2.696518e+01	3.943385e+00
9.400000e-07	-3.608363e-06	1.156348e-10	-2.673210e+01	3.998424e+00
9.500000e-07	-3.576778e-06	1.064567e-10	-2.649811e+01	4.069635e+00
9.600000e-07	-3.545039e-06	1.137557e-10	-2.626298e+01	4.153486e+00
9.700000e-07	-3.513097e-06	1.165175e-10	-2.602634e+01	4.246059e+00
9.800000e-07	-3.480939e-06	1.079288e-10	-2.578810e+01	4.343191e+00
9.900000e-07	-3.448519e-06	1.064075e-10	-2.554792e+01	4.440623e+00
1.000000e-06	-3.415739e-06	1.174838e-10	-2.530508e+01	4.534146e+00
1.010000e-06	-3.382709e-06	1.173213e-10	-2.506037e+01	4.619750e+00
1.020000e-06	-3.349353e-06	1.010164e-10	-2.481326e+01	4.693755e+00
1.030000e-06	-3.315615e-06	9.646931e-11	-2.456332e+01	4.752935e+00
1.040000e-06	-3.281571e-06	1.093041e-10	-2.431111e+01	4.794623e+00
1.050000e-06	-3.247192e-06	1.114198e-10	-2.405641e+01	4.816789e+00
1.060000e-06	-3.212420e-06	9.622378e-11	-2.379881e+01	4.818110e+00
1.070000e-06	-3.177256e-06	8.543701e-11	-2.353831e+01	4.797996e+00
1.080000e-06	-3.141800e-06	9.641950e-11	-2.327563e+01	4.756611e+00
1.090000e-06	-3.106147e-06	1.098373e-10	-2.301150e+01	4.694850e+00
1.100000e-06	-3.070385e-06	1.018134e-10	-2.274656e+01	4.614306e+00
1.110000e-06	-3.034497e-06	8.692035e-11	-2.248069e+01	4.517204e+00
1.120000e-06	-2.998522e-06	8.873976e-11	-2.221417e+01	4.406324e+00
1.130000e-06	-2.962429e-06	1.042637e-10	-2.194679e+01	4.284896e+00
1.140000e-06	-2.926096e-06	1.021523e-10	-2.167761e+01	4.156490e+00
1.150000e-06	-2.889512e-06	8.677534e-11	-2.140659e+01	4.024892e+00
1.160000e-06	-2.852791e-06	8.186078e-11	-2.113454e+01	3.893974e+00
1.170000e-06	-2.815868e-06	9.057360e-11	-2.086100e+01	3.767565e+00
1.180000e-06	-2.778793e-06	9.660709e-11	-2.058634e+01	3.649322e+00
1.190000e-06	-2.741549e-06	9.369210e-11	-2.031042e+01	3.542612e+00
1.200000e-06	-2.704018e-06	9.062167e-11	-2.003238e+01	3.450400e+00
1.210000e-06	-2.666292e-06	9.312179e-11	-1.975289e+01	3.375157e+00
1.220000e-06	-2.628401e-06	9.252753e-11	-1.947218e+01	3.318783e+00
1.230000e-06	-2.590270e-06	8.899298e-11	-1.918969e+01	3.282547e+00
1.240000e-06	-2.551902e-06	8.655957e-11	-1.890545e+01	3.267054e+00
1.250000e-06	-2.513500e-06	8.598702e-11	-1.862095e+01	3.272232e+00
1.260000e-06	-2.474919e-06	7.943247e-11	-1.833513e+01	3.297341e+00
1.270000e-06	-2.436120e-06	7.376301e-11	-1.804769e+01	3.341002e+00
1.280000e-06	-2.397192e-06	7.613227e-11	-1.775930e+01	3.401256e+00
1.290000e-06	-2.358111e-06	8.481076e-11	-1.746977e+01	3.475630e+00
1.300000e-06	-2.318942e-06	8.380318e-11	-1.717959e+01	3.561224e+00
1.310000e-06	-2.279596e-06	7.460149e-11	-1.688810e+01	3.654817e+00
1.320000e-06	-2.240037e-06	7.372833e-11	-1.659504e+01	3.752975e+00
1.330000e-06	-2.200369e-06	8.597425e-11	-1.630116e+01	3.852164e+00
1.340000e-06	-2.160650e-06	9.059092e-11	-1.600690e+01	3.948876e+00
1.350000e-06	-2.120832e-06	7.764055e-11	-1.571192e+01	4.039738e+00
1.360000e-06	-2.080945e-06	6.794038e-11	-1.541642e+01	4.121630e+00
1.370000e-06	-2.040960e-06	7.856294e-11	-1.512020e+01	4.191780e+00
1.380000e-06	-2.000896e-06	9.113201e-11	-1.482339e+01	4.247859e+00
1.390000e-06	-1.960739e-06	8.554598e-11	-1.452589e+01	4.288048e+00
1.400000e-06	-1.920438e-06	7.333786e-11	-1.422733e+01	4.311099e+00
1.410000e-06	-1.880057e-06	7.439078e-11	-1.392816e+01	4.316370e+00
1.420000e-06	-1.839461e-06	8.876793e-11	-1.362742e+01	4.303835e+00
1.430000e-06	-1.798706e-06	9.293034e-11	-1.332549e+01	4.274087e+00
1.440000e-06	-1.757880e-06	8.180056e-11	-1.302304e+01	4.228307e+00
1.450000e-06	-1.716724e-06	7.333516e-11	-1.271813e+01	4.168219e+00
1.460000e-06	-1.675313e-06	7.968338e-11	-1.241134e+01	4.096028e+00
1.470000e-06	-1.633756e-06	8.920056e-11	-1.210348e+01	4.014342e+00
1.480000e-06	-1.592008e-06	8.811887e-11	-1.179419e+01	3.926080e+00
1.490000e-06	-1.549976e-06	7.916178e-11	-1.148280e+01	3.834370e+00
1.500000e-06	-1.507756e-06	7.783691e-11	-1.117002e+01	3.742443e+00
1.510000e-06	-1.465381e-06	8.588385e-11	-1.085609e+01	3.653522e+00
1.520000e-06	-1.422834e-06	8.910605e-11	-1.054089e+01	3.570716e+00
1.530000e-06	-1.380198e-06	7.963942e-11	-1.022502e+01	3.496912e+00
1.540000e-06	-1.337311e-06	6.870098e-11	-9.907302e+00	3.434683e+00
1.550000e-06	-1.294272e-06	6.652557e-11	-9.588451e+00	3.386201e+00
1.560000e-06	-1.251203e-06	7.233989e-11	-9.269377e+00	3.353166e+00
1.570000e-06	-1.208056e-06	7.954824e-11	-8.949733e+00	3.336754e+00
1.580000e-06	-1.164862e-06	8.245141e-11	-8.629734e+00	3.337580e+00
1.590000e-06	-1.121527e-06	7.836869e-11	-8.308689e+00	3.355678e+00
1.600000e-06	-1.078019e-06	7.486737e-11	-7.986366e+00	3.390509e+00
1.610000e-06	-1.034474e-06	7.937985e-11	-7.663769e+00	3.440974e+00
1.620000e-06	-9.909313e-07	8.504216e-11	-7.341190e+00	3.505463e+00
1.630000e-06	-9.473632e-07	8.269963e-11	-7.018421e+00	3.581905e+00
1.640000e-06	-9.036915e-07	7.744395e-11	-6.694885e+00	3.667845e+00
1.650000e-06	-8.599395e-07	7.663639e-11	-6.370754e+00	3.760523e+00
1.660000e-06	-8.161686e-07	8.345856e-11	-6.046483e+00	3.856975e+00
1.670000e-06	-7.723284e-07	8.706772e-11	-5.721698e+00	3.954125e+00
1.680000e-06	-7.284585e-07	8.281228e-11	-5.396694e+00	4.048897e+00
1.690000e-06	-6.845723e-07	7.724615e-11	-5.071568e+00	4.138313e+00
1.700000e-06	-6.406396e-07	7.963231e-11	-4.746098e+00	4.219591e+00
1.710000e-06	-5.967112e-07	8.738858e-11	-4.420660e+00	4.290243e+00
1.720000e-06	-5.527890e-07	8.713148e-11	-4.095268e+00	4.348151e+00
1.730000e-06	-5.088329e-07	7.805370e-11	-3.769624e+00	4.391637e+00
1.740000e-06	-4.648558e-07	7.373404e-11	-3.443826e+00	4.419520e+00
1.750000e-06	-4.208522e-07	7.801827e-11	-3.117831e+00	4.431149e+00
1.760000e-06	-3.767600e-07	8.257676e-11	-2.791179e+00	4.426426e+00
1.770000e-06	-3.326674e-07	8.262356e-11	-2.464525e+00	4.405804e+00
1.780000e-06	-2.886677e-07	8.026868e-11	-2.138559e+00	4.370270e+00
1.790000e-06	-2.446621e-07	7.944142e-11	-1.812548e+00	4.321309e+00
1.800000e-06	-2.005767e-07	8.076695e-11	-1.485947e+00	4.260854e+00
1.810000e-06	-1.564584e-07	8.209909e-11	-1.159103e+00	4.191217e+00
1.820000e-06	-1.123661e-07	7.905168e-11	-8.324498e-01	4.115013e+00
1.830000e-06	-6.830803e-08	7.641646e-11	-5.060514e-01	4.035069e+00
1.840000e-06	-2.420067e-08	7.676988e-11	-1.792876e-01	3.954331e+00
1.850000e-06	1.986562e-08	7.873489e-11	1.471719e-01	3.875763e+00
1.860000e-06	6.387941e-08	7.797763e-11	4.732426e-01	3.802252e+00
1.870000e-06	1.079382e-07	7.626171e-11	7.996463e-01	3.736511e+00
1.880000e-06	1.520142e-07	7.308507e-11	1.126178e+00	3.680989e+00
1.890000e-06	1.960798e-07	7.168742e-11	1.452633e+00	3.637794e+00
1.900000e-06	2.401623e-07	7.361718e-11	1.779212e+00	3.608621e+00
1.910000e-06	2.842772e-07	7.390428e-11	2.106032e+00	3.594704e+00
1.920000e-06	3.283614e-07	7.173728e-11	2.432624e+00	3.596773e+00
1.930000e-06	3.723997e-07	6.936179e-11	2.758877e+00	3.615037e+00
1.940000e-06	4.164256e-07	6.987315e-11	3.085037e+00	3.649179e+00
1.950000e-06	4.604208e-07	7.406813e-11	3.410970e+00	3.698372e+00
1.960000e-06	5.043823e-07	7.650301e-11	3.736653e+00	3.761307e+00
1.970000e-06	5.483271e-07	7.347001e-11	4.062213e+00	3.836246e+00
1.980000e-06	5.922280e-07	6.959974e-11	4.387447e+00	3.921077e+00
1.990000e-06	6.361365e-07	6.845921e-11	4.712737e+00	4.013396e+00
2.000000e-06	6.800667e-07	7.122124e-11	5.038189e+00	4.110580e+00
2.010000e-06	7.239774e-07	7.363789e-11	5.363495e+00	4.209887e+00
2.020000e-06	7.678355e-07	7.268628e-11	5.688413e+00	4.308541e+00
2.030000e-06	8.116549e-07	7.133385e-11	6.013044e+00	4.403832e+00
2.040000e-06	8.554541e-07	7.329526e-11	6.337524e+00	4.493202e+00
2.050000e-06	8.991909e-07	7.474689e-11	6.661543e+00	4.574334e+00
2.060000e-06	9.429053e-07	7.269924e-11	6.985396e+00	4.645226e+00
2.070000e-06	9.866102e-07	6.919130e-11	7.309178e+00	4.704257e+00
2.080000e-06	1.030232e-06	6.751361e-11	7.632344e+00	4.750239e+00
2.090000e-06	1.073767e-06	7.058512e-11	7.954869e+00	4.782452e+00
2.100000e-06	1.117117e-06	7.349490e-11	8.276022e+00	4.800666e+00
2.110000e-06	1.160367e-06	7.337133e-11	8.596433e+00	4.805141e+00
2.120000e-06	1.203592e-06	7.238284e-11	8.916657e+00	4.796619e+00
2.130000e-06	1.246701e-06	7.248683e-11	9.236025e+00	4.776286e+00
2.140000e-06	1.289692e-06	7.210835e-11	9.554522e+00	4.745734e+00
2.150000e-06	1.332539e-06	7.060447e-11	9.871945e+00	4.706895e+00
2.160000e-06	1.375277e-06	7.033700e-11	1.018856e+01	4.661976e+00
2.170000e-06	1.417828e-06	7.043166e-11	1.050380e+01	4.613374e+00
2.180000e-06	1.460130e-06	6.786852e-11	1.081719e+01	4.563592e+00
2.190000e-06	1.502234e-06	6.747188e-11	1.112911e+01	4.515150e+00
2.200000e-06	1.544278e-06	6.998204e-11	1.144059e+01	4.470490e+00
2.210000e-06	1.586145e-06	7.184257e-11	1.175075e+01	4.431898e+00
2.220000e-06	1.627628e-06	7.086191e-11	1.205808e+01	4.401411e+00
2.230000e-06	1.668906e-06	6.989042e-11	1.236388e+01	4.380757e+00
2.240000e-06	1.710030e-06	7.128350e-11	1.266854e+01	4.371284e+00
2.250000e-06	1.750849e-06	7.159545e-11	1.297095e+01	4.373917e+00
2.260000e-06	1.791434e-06	7.143637e-11	1.327162e+01	4.389125e+00
2.270000e-06	1.831997e-06	7.164191e-11	1.357212e+01	4.416904e+00
2.280000e-06	1.872491e-06	7.207217e-11	1.387212e+01	4.456778e+00
2.290000e-06	1.912854e-06	7.162882e-11	1.417114e+01	4.507816e+00
2.300000e-06	1.953110e-06	7.125868e-11	1.446937e+01	4.568667e+00
2.310000e-06	1.993252e-06	7.122613e-11	1.476676e+01	4.637607e+00
2.320000e-06	2.033261e-06	6.938041e-11	1.506316e+01	4.712601e+00
2.330000e-06	2.073181e-06	6.828449e-11	1.535890e+01	4.791381e+00
2.340000e-06	2.113094e-06	6.727770e-11	1.565459e+01	4.871523e+00
2.350000e-06	2.152917e-06	6.569881e-11	1.594961e+01	4.950541e+00
2.360000e-06	2.192667e-06	6.583615e-11	1.624410e+01	5.025974e+00
2.370000e-06	2.232276e-06	6.648579e-11	1.653753e+01	5.095479e+00
2.380000e-06	2.271701e-06	6.697404e-11	1.682961e+01	5.156920e+00
2.390000e-06	2.311010e-06	6.660413e-11	1.712082e+01	5.208447e+00
2.400000e-06	2.350134e-06	6.577326e-11	1.741068e+01	5.248570e+00
2.410000e-06	2.389088e-06	6.369224e-11	1.769926e+01	5.276216e+00
2.420000e-06	2.427874e-06	6.230285e-11	1.798660e+01	5.290777e+00
2.430000e-06	2.466453e-06	6.122478e-11	1.827241e+01	5.292137e+00
2.440000e-06	2.504741e-06	5.985978e-11	1.855606e+01	5.280686e+00
2.450000e-06	2.542858e-06	5.843475e-11	1.883845e+01	5.257315e+00
2.460000e-06	2.580945e-06	5.695020e-11	1.912060e+01	5.223390e+00
2.470000e-06	2.618918e-06	5.645245e-11	1.940192e+01	5.180714e+00
2.480000e-06	2.656734e-06	5.617619e-11	1.968208e+01	5.131472e+00
2.490000e-06	2.694382e-06	5.393161e-11	1.996099e+01	5.078158e+00
2.500000e-06	2.731835e-06	5.251760e-11	2.023845e+01	5.023492e+00
2.510000e-06	2.769085e-06	5.302463e-11	2.051442e+01	4.970334e+00
2.520000e-06	2.806063e-06	5.545938e-11	2.078836e+01	4.921579e+00
2.530000e-06	2.842737e-06	5.769364e-11	2.106006e+01	4.880063e+00
2.540000e-06	2.879228e-06	5.671256e-11	2.133040e+01	4.848457e+00
2.550000e-06	2.915617e-06	5.613162e-11	2.159998e+01	4.829177e+00
2.560000e-06	2.951848e-06	5.608385e-11	2.186840e+01	4.824290e+00
2.570000e-06	2.987868e-06	5.602046e-11	2.213524e+01	4.835436e+00
2.580000e-06	3.023752e-06	5.598556e-11	2.240109e+01	4.863767e+00
2.590000e-06	3.059601e-06	5.877727e-11	2.266667e+01	4.909891e+00
2.600000e-06	3.095348e-06	6.061034e-11	2.293150e+01	4.973843e+00
2.610000e-06	3.130894e-06	6.154012e-11	2.319484e+01	5.055070e+00
2.620000e-06	3.166165e-06	6.209408e-11	2.345614e+01	5.152438e+00
2.630000e-06	3.201118e-06	6.247153e-11	2.371508e+01	5.264254e+00
2.640000e-06	3.235905e-06	6.353961e-11	2.397280e+01	5.388314e+00
2.650000e-06	3.270338e-06	6.603906e-11	2.422789e+01	5.521962e+00
2.660000e-06	3.304294e-06	6.721149e-11	2.447945e+01	5.662168e+00
2.670000e-06	3.337852e-06	6.677803e-11	2.472806e+01	5.805620e+00
2.680000e-06	3.370960e-06	6.694341e-11	2.497333e+01	5.948825e+00
2.690000e-06	3.403756e-06	7.089569e-11	2.521630e+01	6.088218e+00
2.700000e-06	3.436306e-06	7.410523e-11	2.545744e+01	6.220278e+00
2.710000e-06	3.468594e-06	7.206137e-11	2.569665e+01	6.341637e+00
2.720000e-06	3.500682e-06	7.183950e-11	2.593436e+01	6.449190e+00
2.730000e-06	3.532622e-06	7.380400e-11	2.617099e+01	6.540204e+00
2.740000e-06	3.564389e-06	7.523498e-11	2.640633e+01	6.612403e+00
2.750000e-06	3.595992e-06	7.308988e-11	2.664045e+01	6.664047e+00
2.760000e-06	3.627402e-06	7.061924e-11	2.687315e+01	6.693998e+00
2.770000e-06	3.658587e-06	7.069076e-11	2.710418e+01	6.701758e+00
2.780000e-06	3.689527e-06	7.187465e-11	2.733340e+01	6.687497e+00
2.790000e-06	3.720234e-06	7.202893e-11	2.756088e+01	6.652048e+00
2.800000e-06	3.750618e-06	7.341327e-11	2.778598e+01	6.596892e+00
2.810000e-06	3.780645e-06	7.407870e-11	2.800844e+01	6.524113e+00
2.820000e-06	3.810478e-06	7.261392e-11	2.822945e+01	6.436338e+00
2.830000e-06	3.840092e-06	7.103739e-11	2.844884e+01	6.336658e+00
2.840000e-06	3.869497e-06	7.305481e-11	2.866668e+01	6.228532e+00
2.850000e-06	3.898737e-06	7.396386e-11	2.888331e+01	6.115675e+00
2.860000e-06	3.927714e-06	6.937092e-11	2.909798e+01	6.001948e+00
2.870000e-06	3.956323e-06	6.609472e-11	2.930992e+01	5.891227e+00
2.880000e-06	3.984703e-06	6.667105e-11	2.952018e+01	5.787279e+00
2.890000e-06	4.012902e-06	7.137633e-11	2.972908e+01	5.693645e+00
2.900000e-06	4.040814e-06	7.454486e-11	2.993586e+01	5.613516e+00
2.910000e-06	4.068563e-06	7.173436e-11	3.014144e+01	5.549631e+00
2.920000e-06	4.096184e-06	6.909474e-11	3.034607e+01	5.504185e+00
2.930000e-06	4.123541e-06	6.984132e-11	3.054873e+01	5.478752e+00
2.940000e-06	4.150531e-06	7.100249e-11	3.074869e+01	5.474230e+00
2.950000e-06	4.177036e-06	6.957034e-11	3.094505e+01	5.490808e+00
2.960000e-06	4.203153e-06	6.683285e-11	3.113853e+01	5.527956e+00
