# Temperatura_=_20.0
# Concentracion g/m^3_=_12600.0
# C_Vs_to_Am_M_A/Vsm_=_65563218390.804596
# pendiente_HvsI_1/m_=_3716.3
# ordenada_HvsI_A/m_=_1297.0
# frecuencia_Hz_=_135136.8610176629

Tiempo_(s)	Campo_(V.s)	Magnetizacion_(V.s)	Campo_(kA/m)	Magnetizacion_(A/m)
0.000000e+00	-5.182079e-06	-5.685126e-09	-3.845431e+01	-3.689386e+02
1.000000e-08	-5.182329e-06	-5.683574e-09	-3.845617e+01	-3.689157e+02
2.000000e-08	-5.182247e-06	-5.683034e-09	-3.845555e+01	-3.688503e+02
3.000000e-08	-5.181879e-06	-5.681511e-09	-3.845283e+01	-3.687425e+02
4.000000e-08	-5.181196e-06	-5.680752e-09	-3.844776e+01	-3.685936e+02
5.000000e-08	-5.179929e-06	-5.687913e-09	-3.843836e+01	-3.684058e+02
6.000000e-08	-5.178099e-06	-5.699452e-09	-3.842477e+01	-3.681819e+02
7.000000e-08	-5.175809e-06	-5.703645e-09	-3.840778e+01	-3.679259e+02
8.000000e-08	-5.173062e-06	-5.638248e-09	-3.838740e+01	-3.676425e+02
9.000000e-08	-5.169831e-06	-5.561225e-09	-3.836342e+01	-3.673371e+02
1.000000e-07	-5.166137e-06	-5.587826e-09	-3.833601e+01	-3.670160e+02
1.100000e-07	-5.162126e-06	-5.787474e-09	-3.830624e+01	-3.666856e+02
1.200000e-07	-5.157722e-06	-5.824785e-09	-3.827356e+01	-3.663530e+02
1.300000e-07	-5.153139e-06	-5.663323e-09	-3.823956e+01	-3.660256e+02
1.400000e-07	-5.148372e-06	-5.427961e-09	-3.820418e+01	-3.657105e+02
1.500000e-07	-5.143170e-06	-5.547091e-09	-3.816558e+01	-3.654149e+02
1.600000e-07	-5.137437e-06	-5.757477e-09	-3.812304e+01	-3.651459e+02
1.700000e-07	-5.131395e-06	-5.832414e-09	-3.807820e+01	-3.649097e+02
1.800000e-07	-5.125168e-06	-5.655578e-09	-3.803199e+01	-3.647121e+02
1.900000e-07	-5.118444e-06	-5.484390e-09	-3.798210e+01	-3.645580e+02
2.000000e-07	-5.111345e-06	-5.566006e-09	-3.792942e+01	-3.644515e+02
2.100000e-07	-5.104052e-06	-5.700641e-09	-3.787530e+01	-3.643954e+02
2.200000e-07	-5.096527e-06	-5.708923e-09	-3.781946e+01	-3.643914e+02
2.300000e-07	-5.088694e-06	-5.502402e-09	-3.776134e+01	-3.644399e+02
2.400000e-07	-5.080387e-06	-5.527509e-09	-3.769969e+01	-3.645400e+02
2.500000e-07	-5.071757e-06	-5.691557e-09	-3.763565e+01	-3.646896e+02
2.600000e-07	-5.062738e-06	-5.731383e-09	-3.756873e+01	-3.648850e+02
2.700000e-07	-5.053078e-06	-5.495177e-09	-3.749704e+01	-3.651216e+02
2.800000e-07	-5.042786e-06	-5.466605e-09	-3.742067e+01	-3.653933e+02
2.900000e-07	-5.032151e-06	-5.675346e-09	-3.734175e+01	-3.656931e+02
3.000000e-07	-5.021224e-06	-5.819084e-09	-3.726067e+01	-3.660131e+02
3.100000e-07	-5.009671e-06	-5.626731e-09	-3.717494e+01	-3.663443e+02
3.200000e-07	-4.997719e-06	-5.553459e-09	-3.708624e+01	-3.666776e+02
3.300000e-07	-4.985499e-06	-5.695181e-09	-3.699556e+01	-3.670031e+02
3.400000e-07	-4.972925e-06	-5.782295e-09	-3.690225e+01	-3.673108e+02
3.500000e-07	-4.959947e-06	-5.657835e-09	-3.680595e+01	-3.675908e+02
3.600000e-07	-4.946526e-06	-5.658508e-09	-3.670636e+01	-3.678335e+02
3.700000e-07	-4.932732e-06	-5.668011e-09	-3.660400e+01	-3.680294e+02
3.800000e-07	-4.918624e-06	-5.535301e-09	-3.649931e+01	-3.681701e+02
3.900000e-07	-4.904053e-06	-5.480241e-09	-3.639118e+01	-3.682476e+02
4.000000e-07	-4.888886e-06	-5.631839e-09	-3.627863e+01	-3.682551e+02
4.100000e-07	-4.873237e-06	-5.664829e-09	-3.616251e+01	-3.681870e+02
4.200000e-07	-4.857135e-06	-5.470358e-09	-3.604302e+01	-3.680386e+02
4.300000e-07	-4.840523e-06	-5.438462e-09	-3.591975e+01	-3.678070e+02
4.400000e-07	-4.823604e-06	-5.563874e-09	-3.579420e+01	-3.674902e+02
4.500000e-07	-4.806459e-06	-5.595262e-09	-3.566697e+01	-3.670879e+02
4.600000e-07	-4.788999e-06	-5.477382e-09	-3.553741e+01	-3.666011e+02
4.700000e-07	-4.771340e-06	-5.455052e-09	-3.540637e+01	-3.660319e+02
4.800000e-07	-4.753475e-06	-5.461678e-09	-3.527379e+01	-3.653841e+02
4.900000e-07	-4.735190e-06	-5.474457e-09	-3.513811e+01	-3.646622e+02
5.000000e-07	-4.716418e-06	-5.460959e-09	-3.499881e+01	-3.638720e+02
5.100000e-07	-4.697327e-06	-5.472997e-09	-3.485714e+01	-3.630199e+02
5.200000e-07	-4.677983e-06	-5.415684e-09	-3.471360e+01	-3.621133e+02
5.300000e-07	-4.658346e-06	-5.384963e-09	-3.456788e+01	-3.611598e+02
5.400000e-07	-4.638454e-06	-5.394258e-09	-3.442027e+01	-3.601674e+02
5.500000e-07	-4.618391e-06	-5.440696e-09	-3.427139e+01	-3.591443e+02
5.600000e-07	-4.598125e-06	-5.398486e-09	-3.412100e+01	-3.580984e+02
5.700000e-07	-4.577497e-06	-5.338641e-09	-3.396793e+01	-3.570375e+02
5.800000e-07	-4.556483e-06	-5.326250e-09	-3.381199e+01	-3.559690e+02
5.900000e-07	-4.535168e-06	-5.364021e-09	-3.365382e+01	-3.548994e+02
6.000000e-07	-4.513611e-06	-5.348619e-09	-3.349386e+01	-3.538346e+02
6.100000e-07	-4.491768e-06	-5.315799e-09	-3.333177e+01	-3.527798e+02
6.200000e-07	-4.469591e-06	-5.288076e-09	-3.316720e+01	-3.517390e+02
6.300000e-07	-4.447059e-06	-5.262753e-09	-3.300000e+01	-3.507152e+02
6.400000e-07	-4.424253e-06	-5.256925e-09	-3.283076e+01	-3.497105e+02
6.500000e-07	-4.401225e-06	-5.287034e-09	-3.265988e+01	-3.487256e+02
6.600000e-07	-4.377861e-06	-5.269792e-09	-3.248650e+01	-3.477606e+02
6.700000e-07	-4.354219e-06	-5.184434e-09	-3.231106e+01	-3.468143e+02
6.800000e-07	-4.330366e-06	-5.161940e-09	-3.213406e+01	-3.458845e+02
6.900000e-07	-4.306176e-06	-5.220012e-09	-3.195455e+01	-3.449686e+02
7.000000e-07	-4.281708e-06	-5.231592e-09	-3.177298e+01	-3.440629e+02
7.100000e-07	-4.256991e-06	-5.142916e-09	-3.158957e+01	-3.431632e+02
7.200000e-07	-4.231839e-06	-5.090163e-09	-3.140293e+01	-3.422651e+02
7.300000e-07	-4.206264e-06	-5.123677e-09	-3.121314e+01	-3.413635e+02
7.400000e-07	-4.180186e-06	-5.164180e-09	-3.101963e+01	-3.404536e+02
7.500000e-07	-4.153646e-06	-5.111784e-09	-3.082269e+01	-3.395304e+02
7.600000e-07	-4.126734e-06	-5.044249e-09	-3.062298e+01	-3.385891e+02
7.700000e-07	-4.099470e-06	-5.032585e-09	-3.042066e+01	-3.376251e+02
7.800000e-07	-4.071943e-06	-5.069674e-09	-3.021640e+01	-3.366344e+02
7.900000e-07	-4.044166e-06	-5.057755e-09	-3.001028e+01	-3.356135e+02
8.000000e-07	-4.016276e-06	-5.004906e-09	-2.980332e+01	-3.345594e+02
8.100000e-07	-3.988225e-06	-4.962375e-09	-2.959515e+01	-3.334698e+02
8.200000e-07	-3.959936e-06	-4.969943e-09	-2.938524e+01	-3.323432e+02
8.300000e-07	-3.931369e-06	-4.969832e-09	-2.917325e+01	-3.311788e+02
8.400000e-07	-3.902449e-06	-4.942308e-09	-2.895865e+01	-3.299764e+02
8.500000e-07	-3.873237e-06	-4.901478e-09	-2.874188e+01	-3.287367e+02
8.600000e-07	-3.843761e-06	-4.881997e-09	-2.852314e+01	-3.274608e+02
8.700000e-07	-3.814051e-06	-4.869984e-09	-2.830268e+01	-3.261508e+02
8.800000e-07	-3.784101e-06	-4.858751e-09	-2.808043e+01	-3.248088e+02
8.900000e-07	-3.753931e-06	-4.837608e-09	-2.785655e+01	-3.234378e+02
9.000000e-07	-3.723601e-06	-4.809426e-09	-2.763148e+01	-3.220406e+02
9.100000e-07	-3.693015e-06	-4.777870e-09	-2.740451e+01	-3.206207e+02
9.200000e-07	-3.662018e-06	-4.758852e-09	-2.717450e+01	-3.191813e+02
9.300000e-07	-3.630784e-06	-4.753677e-09	-2.694272e+01	-3.177257e+02
9.400000e-07	-3.599406e-06	-4.738678e-09	-2.670987e+01	-3.162570e+02
9.500000e-07	-3.567796e-06	-4.700644e-09	-2.647531e+01	-3.147783e+02
9.600000e-07	-3.536025e-06	-4.661334e-09	-2.623955e+01	-3.132920e+02
9.700000e-07	-3.504057e-06	-4.651443e-09	-2.600232e+01	-3.118002e+02
9.800000e-07	-3.471781e-06	-4.651768e-09	-2.576282e+01	-3.103048e+02
9.900000e-07	-3.439305e-06	-4.628348e-09	-2.552182e+01	-3.088068e+02
1.000000e-06	-3.406686e-06	-4.578451e-09	-2.527977e+01	-3.073067e+02
1.010000e-06	-3.373789e-06	-4.552485e-09	-2.503565e+01	-3.058047e+02
1.020000e-06	-3.340631e-06	-4.554908e-09	-2.478960e+01	-3.043003e+02
1.030000e-06	-3.307074e-06	-4.545901e-09	-2.454058e+01	-3.027922e+02
1.040000e-06	-3.273076e-06	-4.498170e-09	-2.428830e+01	-3.012791e+02
1.050000e-06	-3.238684e-06	-4.453788e-09	-2.403309e+01	-2.997590e+02
1.060000e-06	-3.203855e-06	-4.441322e-09	-2.377463e+01	-2.982295e+02
1.070000e-06	-3.168736e-06	-4.441914e-09	-2.351403e+01	-2.966879e+02
1.080000e-06	-3.133407e-06	-4.410840e-09	-2.325187e+01	-2.951316e+02
1.090000e-06	-3.097886e-06	-4.363240e-09	-2.298828e+01	-2.935576e+02
1.100000e-06	-3.062194e-06	-4.336839e-09	-2.272342e+01	-2.919629e+02
1.110000e-06	-3.026343e-06	-4.332197e-09	-2.245739e+01	-2.903448e+02
1.120000e-06	-2.990329e-06	-4.307724e-09	-2.219013e+01	-2.887004e+02
1.130000e-06	-2.954279e-06	-4.263065e-09	-2.192262e+01	-2.870275e+02
1.140000e-06	-2.918123e-06	-4.229041e-09	-2.165432e+01	-2.853239e+02
1.150000e-06	-2.881660e-06	-4.213941e-09	-2.138374e+01	-2.835877e+02
1.160000e-06	-2.844935e-06	-4.192146e-09	-2.111122e+01	-2.818178e+02
1.170000e-06	-2.808001e-06	-4.155402e-09	-2.083714e+01	-2.800131e+02
1.180000e-06	-2.770906e-06	-4.121643e-09	-2.056188e+01	-2.781733e+02
1.190000e-06	-2.733694e-06	-4.099688e-09	-2.028574e+01	-2.762984e+02
1.200000e-06	-2.696239e-06	-4.073607e-09	-2.000780e+01	-2.743889e+02
1.210000e-06	-2.658548e-06	-4.037599e-09	-1.972811e+01	-2.724456e+02
1.220000e-06	-2.620721e-06	-4.005413e-09	-1.944741e+01	-2.704699e+02
1.230000e-06	-2.582735e-06	-3.982780e-09	-1.916553e+01	-2.684634e+02
1.240000e-06	-2.544573e-06	-3.955769e-09	-1.888234e+01	-2.664280e+02
1.250000e-06	-2.506201e-06	-3.918391e-09	-1.859760e+01	-2.643658e+02
1.260000e-06	-2.467714e-06	-3.886083e-09	-1.831200e+01	-2.622788e+02
1.270000e-06	-2.429057e-06	-3.863455e-09	-1.802515e+01	-2.601695e+02
1.280000e-06	-2.390153e-06	-3.838788e-09	-1.773645e+01	-2.580399e+02
1.290000e-06	-2.351079e-06	-3.800147e-09	-1.744650e+01	-2.558923e+02
1.300000e-06	-2.311924e-06	-3.761283e-09	-1.715594e+01	-2.537286e+02
1.310000e-06	-2.272635e-06	-3.735439e-09	-1.686439e+01	-2.515504e+02
1.320000e-06	-2.233178e-06	-3.711952e-09	-1.657160e+01	-2.493593e+02
1.330000e-06	-2.193609e-06	-3.672234e-09	-1.627797e+01	-2.471564e+02
1.340000e-06	-2.153929e-06	-3.627954e-09	-1.598352e+01	-2.449423e+02
1.350000e-06	-2.114168e-06	-3.595335e-09	-1.568847e+01	-2.427175e+02
1.360000e-06	-2.074312e-06	-3.569634e-09	-1.539271e+01	-2.404820e+02
1.370000e-06	-2.034405e-06	-3.532274e-09	-1.509658e+01	-2.382355e+02
1.380000e-06	-1.994378e-06	-3.488949e-09	-1.479955e+01	-2.359772e+02
1.390000e-06	-1.954221e-06	-3.453076e-09	-1.450156e+01	-2.337061e+02
1.400000e-06	-1.913981e-06	-3.425513e-09	-1.420295e+01	-2.314209e+02
1.410000e-06	-1.873619e-06	-3.391314e-09	-1.390344e+01	-2.291200e+02
1.420000e-06	-1.833123e-06	-3.348600e-09	-1.360294e+01	-2.268019e+02
1.430000e-06	-1.792500e-06	-3.307721e-09	-1.330149e+01	-2.244646e+02
1.440000e-06	-1.751702e-06	-3.272616e-09	-1.299874e+01	-2.221062e+02
1.450000e-06	-1.710600e-06	-3.238229e-09	-1.269374e+01	-2.197250e+02
1.460000e-06	-1.669281e-06	-3.200672e-09	-1.238712e+01	-2.173191e+02
1.470000e-06	-1.627806e-06	-3.160215e-09	-1.207935e+01	-2.148869e+02
1.480000e-06	-1.586118e-06	-3.122808e-09	-1.177000e+01	-2.124268e+02
1.490000e-06	-1.544229e-06	-3.088328e-09	-1.145916e+01	-2.099376e+02
1.500000e-06	-1.502105e-06	-3.051195e-09	-1.114657e+01	-2.074183e+02
1.510000e-06	-1.459893e-06	-3.012169e-09	-1.083333e+01	-2.048682e+02
1.520000e-06	-1.417478e-06	-2.974494e-09	-1.051858e+01	-2.022868e+02
1.530000e-06	-1.374788e-06	-2.936739e-09	-1.020180e+01	-1.996740e+02
1.540000e-06	-1.332030e-06	-2.894256e-09	-9.884506e+00	-1.970299e+02
1.550000e-06	-1.289099e-06	-2.851673e-09	-9.565933e+00	-1.943550e+02
1.560000e-06	-1.245985e-06	-2.810313e-09	-9.246002e+00	-1.916499e+02
1.570000e-06	-1.202798e-06	-2.768064e-09	-8.925526e+00	-1.889156e+02
1.580000e-06	-1.159590e-06	-2.724233e-09	-8.604895e+00	-1.861530e+02
1.590000e-06	-1.116304e-06	-2.684211e-09	-8.283682e+00	-1.833633e+02
1.600000e-06	-1.072863e-06	-2.647013e-09	-7.961324e+00	-1.805479e+02
1.610000e-06	-1.029328e-06	-2.603595e-09	-7.638270e+00	-1.777078e+02
1.620000e-06	-9.857349e-07	-2.554428e-09	-7.314777e+00	-1.748444e+02
1.630000e-06	-9.420886e-07	-2.508873e-09	-6.990895e+00	-1.719588e+02
1.640000e-06	-8.984381e-07	-2.468978e-09	-6.666980e+00	-1.690520e+02
1.650000e-06	-8.547523e-07	-2.426923e-09	-6.342804e+00	-1.661248e+02
1.660000e-06	-8.110325e-07	-2.375986e-09	-6.018375e+00	-1.631778e+02
1.670000e-06	-7.673290e-07	-2.325399e-09	-5.694068e+00	-1.602115e+02
1.680000e-06	-7.236014e-07	-2.281590e-09	-5.369581e+00	-1.572258e+02
1.690000e-06	-6.798226e-07	-2.243264e-09	-5.044715e+00	-1.542208e+02
1.700000e-06	-6.360060e-07	-2.199762e-09	-4.719567e+00	-1.511959e+02
1.710000e-06	-5.921455e-07	-2.148257e-09	-4.394095e+00	-1.481506e+02
1.720000e-06	-5.482671e-07	-2.100605e-09	-4.068489e+00	-1.450840e+02
1.730000e-06	-5.043778e-07	-2.061669e-09	-3.742803e+00	-1.419951e+02
1.740000e-06	-4.604722e-07	-2.018127e-09	-3.416996e+00	-1.388825e+02
1.750000e-06	-4.165578e-07	-1.962567e-09	-3.091123e+00	-1.357451e+02
1.760000e-06	-3.725915e-07	-1.908456e-09	-2.764865e+00	-1.325813e+02
1.770000e-06	-3.286330e-07	-1.862312e-09	-2.438665e+00	-1.293898e+02
1.780000e-06	-2.847909e-07	-1.816452e-09	-2.113329e+00	-1.261691e+02
1.790000e-06	-2.409024e-07	-1.765883e-09	-1.787648e+00	-1.229180e+02
1.800000e-06	-1.969468e-07	-1.714744e-09	-1.461470e+00	-1.196353e+02
1.810000e-06	-1.530333e-07	-1.667219e-09	-1.135604e+00	-1.163200e+02
1.820000e-06	-1.091201e-07	-1.622517e-09	-8.097407e-01	-1.129713e+02
1.830000e-06	-6.521234e-08	-1.574230e-09	-4.839169e-01	-1.095887e+02
1.840000e-06	-2.127218e-08	-1.520671e-09	-1.578530e-01	-1.061718e+02
1.850000e-06	2.268645e-08	-1.466880e-09	1.683478e-01	-1.027208e+02
1.860000e-06	6.659587e-08	-1.418303e-09	4.941836e-01	-9.923593e+01
1.870000e-06	1.104853e-07	-1.370598e-09	8.198713e-01	-9.571768e+01
1.880000e-06	1.544261e-07	-1.320679e-09	1.145940e+00	-9.216691e+01
1.890000e-06	1.983939e-07	-1.268657e-09	1.472208e+00	-8.858467e+01
1.900000e-06	2.423037e-07	-1.216251e-09	1.798047e+00	-8.497224e+01
1.910000e-06	2.861943e-07	-1.165384e-09	2.123743e+00	-8.133102e+01
1.920000e-06	3.300733e-07	-1.113648e-09	2.449353e+00	-7.766255e+01
1.930000e-06	3.739435e-07	-1.059689e-09	2.774898e+00	-7.396843e+01
1.940000e-06	4.178528e-07	-1.002497e-09	3.100733e+00	-7.025026e+01
1.950000e-06	4.617799e-07	-9.442072e-10	3.426700e+00	-6.650962e+01
1.960000e-06	5.056593e-07	-8.894065e-10	3.752313e+00	-6.274798e+01
1.970000e-06	5.495116e-07	-8.365168e-10	4.077724e+00	-5.896666e+01
1.980000e-06	5.933691e-07	-7.852489e-10	4.403175e+00	-5.516682e+01
1.990000e-06	6.372084e-07	-7.319117e-10	4.728490e+00	-5.134937e+01
2.000000e-06	6.810307e-07	-6.753844e-10	5.053679e+00	-4.751497e+01
2.010000e-06	7.248039e-07	-6.192364e-10	5.378504e+00	-4.366401e+01
2.020000e-06	7.685011e-07	-5.640295e-10	5.702766e+00	-3.979659e+01
2.030000e-06	8.121872e-07	-5.075819e-10	6.026944e+00	-3.591253e+01
2.040000e-06	8.558642e-07	-4.475858e-10	6.351055e+00	-3.201134e+01
2.050000e-06	8.994747e-07	-3.869028e-10	6.674673e+00	-2.809232e+01
2.060000e-06	9.430256e-07	-3.281107e-10	6.997848e+00	-2.415449e+01
2.070000e-06	9.865475e-07	-2.714652e-10	7.320807e+00	-2.019672e+01
2.080000e-06	1.030067e-06	-2.148802e-10	7.643753e+00	-1.621771e+01
2.090000e-06	1.073480e-06	-1.577981e-10	7.965904e+00	-1.221606e+01
2.100000e-06	1.116821e-06	-9.846896e-11	8.287519e+00	-8.190369e+00
2.110000e-06	1.160197e-06	-3.698975e-11	8.609398e+00	-4.139227e+00
2.120000e-06	1.203450e-06	2.299862e-11	8.930365e+00	-6.132393e-02
2.130000e-06	1.246532e-06	8.184303e-11	9.250059e+00	4.044505e+00
2.140000e-06	1.289484e-06	1.425177e-10	9.568791e+00	8.179223e+00
2.150000e-06	1.332252e-06	2.052091e-10	9.886157e+00	1.234353e+01
2.160000e-06	1.374884e-06	2.675288e-10	1.020251e+01	1.653784e+01
2.170000e-06	1.417391e-06	3.276118e-10	1.051794e+01	2.076219e+01
2.180000e-06	1.459775e-06	3.881073e-10	1.083245e+01	2.501629e+01
2.190000e-06	1.502052e-06	4.527116e-10	1.114618e+01	2.929943e+01
2.200000e-06	1.543991e-06	5.184670e-10	1.145739e+01	3.361050e+01
2.210000e-06	1.585597e-06	5.820018e-10	1.176613e+01	3.794800e+01
2.220000e-06	1.627090e-06	6.445310e-10	1.207404e+01	4.231004e+01
2.230000e-06	1.668343e-06	7.100973e-10	1.238016e+01	4.669437e+01
2.240000e-06	1.709331e-06	7.794926e-10	1.268432e+01	5.109843e+01
2.250000e-06	1.750230e-06	8.472925e-10	1.298781e+01	5.551934e+01
2.260000e-06	1.790953e-06	9.121923e-10	1.329001e+01	5.995402e+01
2.270000e-06	1.831487e-06	9.749842e-10	1.359079e+01	6.439918e+01
2.280000e-06	1.871875e-06	1.038873e-09	1.389050e+01	6.885144e+01
2.290000e-06	1.912151e-06	1.105616e-09	1.418937e+01	7.330733e+01
2.300000e-06	1.952354e-06	1.170731e-09	1.448771e+01	7.776343e+01
2.310000e-06	1.992425e-06	1.233414e-09	1.478506e+01	8.221634e+01
2.320000e-06	2.032384e-06	1.295202e-09	1.508158e+01	8.666282e+01
2.330000e-06	2.072261e-06	1.358833e-09	1.537749e+01	9.109977e+01
2.340000e-06	2.112049e-06	1.425372e-09	1.567274e+01	9.552435e+01
2.350000e-06	2.151790e-06	1.494765e-09	1.596765e+01	9.993395e+01
2.360000e-06	2.191399e-06	1.564113e-09	1.626157e+01	1.043263e+02
2.370000e-06	2.230862e-06	1.630202e-09	1.655441e+01	1.086992e+02
2.380000e-06	2.270294e-06	1.695506e-09	1.684702e+01	1.130512e+02
2.390000e-06	2.309549e-06	1.758700e-09	1.713831e+01	1.173808e+02
2.400000e-06	2.348613e-06	1.821451e-09	1.742819e+01	1.216869e+02
2.410000e-06	2.387511e-06	1.882938e-09	1.771685e+01	1.259686e+02
2.420000e-06	2.426239e-06	1.943670e-09	1.800423e+01	1.302254e+02
2.430000e-06	2.464812e-06	2.006801e-09	1.829046e+01	1.344568e+02
2.440000e-06	2.503185e-06	2.071111e-09	1.857522e+01	1.386626e+02
2.450000e-06	2.541431e-06	2.135247e-09	1.885903e+01	1.428427e+02
2.460000e-06	2.579518e-06	2.195843e-09	1.914166e+01	1.469970e+02
2.470000e-06	2.617447e-06	2.255078e-09	1.942312e+01	1.511253e+02
2.480000e-06	2.655243e-06	2.315324e-09	1.970359e+01	1.552275e+02
2.490000e-06	2.692803e-06	2.375186e-09	1.998230e+01	1.593033e+02
2.500000e-06	2.730103e-06	2.434357e-09	2.025910e+01	1.633524e+02
2.510000e-06	2.767118e-06	2.491953e-09	2.053377e+01	1.673741e+02
2.520000e-06	2.803991e-06	2.550733e-09	2.080739e+01	1.713677e+02
2.530000e-06	2.840712e-06	2.608293e-09	2.107988e+01	1.753320e+02
2.540000e-06	2.877152e-06	2.666418e-09	2.135029e+01	1.792659e+02
2.550000e-06	2.913422e-06	2.725514e-09	2.161943e+01	1.831678e+02
2.560000e-06	2.949567e-06	2.780884e-09	2.188765e+01	1.870360e+02
2.570000e-06	2.985630e-06	2.833865e-09	2.215526e+01	1.908684e+02
2.580000e-06	3.021530e-06	2.887863e-09	2.242167e+01	1.946631e+02
2.590000e-06	3.057242e-06	2.943285e-09	2.268667e+01	1.984177e+02
2.600000e-06	3.092807e-06	2.995828e-09	2.295059e+01	2.021299e+02
2.610000e-06	3.128270e-06	3.044717e-09	2.321375e+01	2.057972e+02
2.620000e-06	3.163558e-06	3.094167e-09	2.347560e+01	2.094174e+02
2.630000e-06	3.198496e-06	3.148013e-09	2.373487e+01	2.129881e+02
2.640000e-06	3.233110e-06	3.202124e-09	2.399172e+01	2.165071e+02
2.650000e-06	3.267507e-06	3.252558e-09	2.424698e+01	2.199725e+02
2.660000e-06	3.301520e-06	3.302221e-09	2.449937e+01	2.233826e+02
2.670000e-06	3.335019e-06	3.351934e-09	2.474796e+01	2.267359e+02
2.680000e-06	3.368209e-06	3.399508e-09	2.499425e+01	2.300314e+02
2.690000e-06	3.401108e-06	3.446247e-09	2.523837e+01	2.332684e+02
2.700000e-06	3.433652e-06	3.491831e-09	2.547988e+01	2.364464e+02
2.710000e-06	3.465980e-06	3.534871e-09	2.571977e+01	2.395656e+02
2.720000e-06	3.498103e-06	3.578885e-09	2.595814e+01	2.426265e+02
2.730000e-06	3.529993e-06	3.625477e-09	2.619479e+01	2.456299e+02
2.740000e-06	3.561758e-06	3.670433e-09	2.643050e+01	2.485770e+02
2.750000e-06	3.593318e-06	3.711401e-09	2.666470e+01	2.514693e+02
2.760000e-06	3.624661e-06	3.749582e-09	2.689728e+01	2.543088e+02
2.770000e-06	3.655790e-06	3.791469e-09	2.712828e+01	2.570974e+02
2.780000e-06	3.686693e-06	3.833407e-09	2.735760e+01	2.598373e+02
2.790000e-06	3.717345e-06	3.872250e-09	2.758506e+01	2.625311e+02
2.800000e-06	3.747713e-06	3.910500e-09	2.781040e+01	2.651809e+02
2.810000e-06	3.777783e-06	3.950827e-09	2.803354e+01	2.677892e+02
2.820000e-06	3.807589e-06	3.990124e-09	2.825472e+01	2.703582e+02
2.830000e-06	3.837208e-06	4.026373e-09	2.847452e+01	2.728900e+02
2.840000e-06	3.866521e-06	4.062688e-09	2.869203e+01	2.753866e+02
2.850000e-06	3.895573e-06	4.100748e-09	2.890762e+01	2.778495e+02
2.860000e-06	3.924447e-06	4.137716e-09	2.912189e+01	2.802800e+02
2.870000e-06	3.953039e-06	4.175084e-09	2.933406e+01	2.826792e+02
2.880000e-06	3.981355e-06	4.212743e-09	2.954418e+01	2.850475e+02
2.890000e-06	4.009462e-06	4.250361e-09	2.975275e+01	2.873852e+02
2.900000e-06	4.037399e-06	4.285758e-09	2.996006e+01	2.896923e+02
