# Temperatura_=_20.0
# Concentracion g/m^3_=_12600.0
# C_Vs_to_Am_M_A/Vsm_=_65563218390.804596
# pendiente_HvsI_1/m_=_3716.3
# ordenada_HvsI_A/m_=_1297.0
# frecuencia_Hz_=_135140.88395868678

Tiempo_(s)	Campo_(V.s)	Magnetizacion_(V.s)	Campo_(kA/m)	Magnetizacion_(A/m)
0.000000e+00	-5.182976e-06	-5.918481e-09	-3.846477e+01	-3.894487e+02
1.000000e-08	-5.183090e-06	-5.915151e-09	-3.846562e+01	-3.894048e+02
2.000000e-08	-5.182986e-06	-5.913146e-09	-3.846485e+01	-3.893250e+02
3.000000e-08	-5.182547e-06	-5.914644e-09	-3.846159e+01	-3.892109e+02
4.000000e-08	-5.181582e-06	-5.914753e-09	-3.845443e+01	-3.890646e+02
5.000000e-08	-5.180220e-06	-5.909600e-09	-3.844432e+01	-3.888889e+02
6.000000e-08	-5.178327e-06	-5.898280e-09	-3.843027e+01	-3.886873e+02
7.000000e-08	-5.175785e-06	-5.906359e-09	-3.841141e+01	-3.884636e+02
8.000000e-08	-5.172816e-06	-5.964052e-09	-3.838938e+01	-3.882224e+02
9.000000e-08	-5.169386e-06	-5.986753e-09	-3.836392e+01	-3.879684e+02
1.000000e-07	-5.165597e-06	-5.844621e-09	-3.833580e+01	-3.877066e+02
1.100000e-07	-5.161583e-06	-5.694166e-09	-3.830601e+01	-3.874422e+02
1.200000e-07	-5.157343e-06	-5.887184e-09	-3.827454e+01	-3.871804e+02
1.300000e-07	-5.152680e-06	-6.064618e-09	-3.823994e+01	-3.869262e+02
1.400000e-07	-5.147669e-06	-5.972552e-09	-3.820275e+01	-3.866844e+02
1.500000e-07	-5.142435e-06	-5.714922e-09	-3.816391e+01	-3.864595e+02
1.600000e-07	-5.136824e-06	-5.757076e-09	-3.812226e+01	-3.862553e+02
1.700000e-07	-5.130715e-06	-6.001215e-09	-3.807693e+01	-3.860750e+02
1.800000e-07	-5.124153e-06	-6.044471e-09	-3.802823e+01	-3.859213e+02
1.900000e-07	-5.117410e-06	-5.958426e-09	-3.797818e+01	-3.857958e+02
2.000000e-07	-5.110388e-06	-5.765833e-09	-3.792608e+01	-3.856993e+02
2.100000e-07	-5.102920e-06	-5.715278e-09	-3.787065e+01	-3.856316e+02
2.200000e-07	-5.095190e-06	-5.741933e-09	-3.781329e+01	-3.855918e+02
2.300000e-07	-5.087359e-06	-5.923588e-09	-3.775517e+01	-3.855777e+02
2.400000e-07	-5.079166e-06	-5.863310e-09	-3.769436e+01	-3.855864e+02
2.500000e-07	-5.070162e-06	-5.673948e-09	-3.762754e+01	-3.856139e+02
2.600000e-07	-5.060727e-06	-5.696941e-09	-3.755752e+01	-3.856555e+02
2.700000e-07	-5.051246e-06	-5.965948e-09	-3.748716e+01	-3.857058e+02
2.800000e-07	-5.041124e-06	-5.923142e-09	-3.741204e+01	-3.857586e+02
2.900000e-07	-5.030168e-06	-5.689477e-09	-3.733073e+01	-3.858074e+02
3.000000e-07	-5.018813e-06	-5.836225e-09	-3.724647e+01	-3.858452e+02
3.100000e-07	-5.007272e-06	-6.138698e-09	-3.716081e+01	-3.858648e+02
3.200000e-07	-4.995347e-06	-5.937693e-09	-3.707231e+01	-3.858592e+02
3.300000e-07	-4.982963e-06	-5.711314e-09	-3.698041e+01	-3.858211e+02
3.400000e-07	-4.970229e-06	-6.022627e-09	-3.688590e+01	-3.857437e+02
3.500000e-07	-4.957134e-06	-6.201295e-09	-3.678872e+01	-3.856207e+02
3.600000e-07	-4.943592e-06	-5.889506e-09	-3.668822e+01	-3.854463e+02
3.700000e-07	-4.929752e-06	-5.762560e-09	-3.658550e+01	-3.852152e+02
3.800000e-07	-4.915648e-06	-6.050718e-09	-3.648084e+01	-3.849233e+02
3.900000e-07	-4.900819e-06	-6.015767e-09	-3.637078e+01	-3.845671e+02
4.000000e-07	-4.885178e-06	-5.817002e-09	-3.625471e+01	-3.841441e+02
4.100000e-07	-4.869215e-06	-5.821654e-09	-3.613624e+01	-3.836531e+02
4.200000e-07	-4.853025e-06	-5.883065e-09	-3.601609e+01	-3.830936e+02
4.300000e-07	-4.836406e-06	-5.806803e-09	-3.589275e+01	-3.824665e+02
4.400000e-07	-4.819437e-06	-5.872671e-09	-3.576682e+01	-3.817735e+02
4.500000e-07	-4.802242e-06	-5.847057e-09	-3.563921e+01	-3.810172e+02
4.600000e-07	-4.784770e-06	-5.667079e-09	-3.550955e+01	-3.802015e+02
4.700000e-07	-4.766941e-06	-5.690863e-09	-3.537723e+01	-3.793307e+02
4.800000e-07	-4.748850e-06	-5.936909e-09	-3.524297e+01	-3.784100e+02
4.900000e-07	-4.730435e-06	-5.848851e-09	-3.510630e+01	-3.774451e+02
5.000000e-07	-4.711548e-06	-5.577327e-09	-3.496613e+01	-3.764422e+02
5.100000e-07	-4.692297e-06	-5.604540e-09	-3.482327e+01	-3.754077e+02
5.200000e-07	-4.672817e-06	-5.833954e-09	-3.467870e+01	-3.743481e+02
5.300000e-07	-4.653093e-06	-5.826639e-09	-3.453232e+01	-3.732700e+02
5.400000e-07	-4.633157e-06	-5.627136e-09	-3.438436e+01	-3.721797e+02
5.500000e-07	-4.612997e-06	-5.547318e-09	-3.423475e+01	-3.710831e+02
5.600000e-07	-4.592595e-06	-5.669113e-09	-3.408334e+01	-3.699860e+02
5.700000e-07	-4.571904e-06	-5.758064e-09	-3.392978e+01	-3.688931e+02
5.800000e-07	-4.550866e-06	-5.662964e-09	-3.377365e+01	-3.678089e+02
5.900000e-07	-4.529504e-06	-5.553593e-09	-3.361512e+01	-3.667367e+02
6.000000e-07	-4.507828e-06	-5.560107e-09	-3.345425e+01	-3.656794e+02
6.100000e-07	-4.485766e-06	-5.598899e-09	-3.329052e+01	-3.646388e+02
6.200000e-07	-4.463358e-06	-5.600949e-09	-3.312422e+01	-3.636158e+02
6.300000e-07	-4.440745e-06	-5.591848e-09	-3.295641e+01	-3.626106e+02
6.400000e-07	-4.417788e-06	-5.518950e-09	-3.278603e+01	-3.616223e+02
6.500000e-07	-4.394439e-06	-5.453500e-09	-3.261275e+01	-3.606495e+02
6.600000e-07	-4.370887e-06	-5.493390e-09	-3.243796e+01	-3.596899e+02
6.700000e-07	-4.347129e-06	-5.567866e-09	-3.226164e+01	-3.587406e+02
6.800000e-07	-4.323177e-06	-5.513248e-09	-3.208389e+01	-3.577982e+02
6.900000e-07	-4.299007e-06	-5.404866e-09	-3.190451e+01	-3.568588e+02
7.000000e-07	-4.274504e-06	-5.370902e-09	-3.172267e+01	-3.559183e+02
7.100000e-07	-4.249701e-06	-5.436174e-09	-3.153860e+01	-3.549725e+02
7.200000e-07	-4.224508e-06	-5.469789e-09	-3.135163e+01	-3.540168e+02
7.300000e-07	-4.198734e-06	-5.402811e-09	-3.116035e+01	-3.530469e+02
7.400000e-07	-4.172491e-06	-5.293933e-09	-3.096559e+01	-3.520588e+02
7.500000e-07	-4.145925e-06	-5.293673e-09	-3.076844e+01	-3.510486e+02
7.600000e-07	-4.119029e-06	-5.372100e-09	-3.056883e+01	-3.500127e+02
7.700000e-07	-4.091712e-06	-5.385103e-09	-3.036611e+01	-3.489482e+02
7.800000e-07	-4.064033e-06	-5.278370e-09	-3.016069e+01	-3.478525e+02
7.900000e-07	-4.036146e-06	-5.195786e-09	-2.995373e+01	-3.467237e+02
8.000000e-07	-4.008107e-06	-5.234011e-09	-2.974564e+01	-3.455605e+02
8.100000e-07	-3.979862e-06	-5.301777e-09	-2.953602e+01	-3.443621e+02
8.200000e-07	-3.951417e-06	-5.256511e-09	-2.932493e+01	-3.431284e+02
8.300000e-07	-3.922747e-06	-5.145541e-09	-2.911215e+01	-3.418598e+02
8.400000e-07	-3.893738e-06	-5.110162e-09	-2.889687e+01	-3.405573e+02
8.500000e-07	-3.864406e-06	-5.166043e-09	-2.867918e+01	-3.392224e+02
8.600000e-07	-3.834778e-06	-5.192453e-09	-2.845930e+01	-3.378569e+02
8.700000e-07	-3.804976e-06	-5.121826e-09	-2.823813e+01	-3.364631e+02
8.800000e-07	-3.774968e-06	-5.036223e-09	-2.801543e+01	-3.350432e+02
8.900000e-07	-3.744745e-06	-5.035203e-09	-2.779114e+01	-3.336001e+02
9.000000e-07	-3.714276e-06	-5.080649e-09	-2.756501e+01	-3.321363e+02
9.100000e-07	-3.683429e-06	-5.058787e-09	-2.733608e+01	-3.306544e+02
9.200000e-07	-3.652338e-06	-4.980769e-09	-2.710535e+01	-3.291571e+02
9.300000e-07	-3.621080e-06	-4.936409e-09	-2.687337e+01	-3.276467e+02
9.400000e-07	-3.589586e-06	-4.948386e-09	-2.663964e+01	-3.261252e+02
9.500000e-07	-3.557884e-06	-4.949780e-09	-2.640437e+01	-3.245945e+02
9.600000e-07	-3.526006e-06	-4.915369e-09	-2.616779e+01	-3.230561e+02
9.700000e-07	-3.493980e-06	-4.867793e-09	-2.593012e+01	-3.215108e+02
9.800000e-07	-3.461846e-06	-4.837494e-09	-2.569163e+01	-3.199594e+02
9.900000e-07	-3.429459e-06	-4.823364e-09	-2.545128e+01	-3.184019e+02
1.000000e-06	-3.396739e-06	-4.816469e-09	-2.520846e+01	-3.168383e+02
1.010000e-06	-3.363757e-06	-4.792030e-09	-2.496368e+01	-3.152677e+02
1.020000e-06	-3.330576e-06	-4.747962e-09	-2.471743e+01	-3.136892e+02
1.030000e-06	-3.297024e-06	-4.705363e-09	-2.446843e+01	-3.121015e+02
1.040000e-06	-3.262833e-06	-4.692940e-09	-2.421469e+01	-3.105029e+02
1.050000e-06	-3.228225e-06	-4.690937e-09	-2.395784e+01	-3.088916e+02
1.060000e-06	-3.193268e-06	-4.665008e-09	-2.369842e+01	-3.072656e+02
1.070000e-06	-3.158007e-06	-4.611534e-09	-2.343673e+01	-3.056229e+02
1.080000e-06	-3.122536e-06	-4.573482e-09	-2.317349e+01	-3.039614e+02
1.090000e-06	-3.086845e-06	-4.567430e-09	-2.290861e+01	-3.022790e+02
1.100000e-06	-3.051045e-06	-4.561209e-09	-2.264293e+01	-3.005739e+02
1.110000e-06	-3.015174e-06	-4.521017e-09	-2.237672e+01	-2.988442e+02
1.120000e-06	-2.979192e-06	-4.464994e-09	-2.210968e+01	-2.970884e+02
1.130000e-06	-2.943002e-06	-4.432102e-09	-2.184110e+01	-2.953053e+02
1.140000e-06	-2.906644e-06	-4.424733e-09	-2.157128e+01	-2.934938e+02
1.150000e-06	-2.870148e-06	-4.409412e-09	-2.130042e+01	-2.916532e+02
1.160000e-06	-2.833481e-06	-4.367439e-09	-2.102831e+01	-2.897831e+02
1.170000e-06	-2.796568e-06	-4.321369e-09	-2.075436e+01	-2.878835e+02
1.180000e-06	-2.759461e-06	-4.295262e-09	-2.047898e+01	-2.859546e+02
1.190000e-06	-2.722162e-06	-4.282885e-09	-2.020217e+01	-2.839968e+02
1.200000e-06	-2.684609e-06	-4.255582e-09	-1.992347e+01	-2.820109e+02
1.210000e-06	-2.646928e-06	-4.210520e-09	-1.964383e+01	-2.799977e+02
1.220000e-06	-2.609100e-06	-4.167667e-09	-1.936309e+01	-2.779585e+02
1.230000e-06	-2.571046e-06	-4.141925e-09	-1.908068e+01	-2.758943e+02
1.240000e-06	-2.532774e-06	-4.122385e-09	-1.879665e+01	-2.738063e+02
1.250000e-06	-2.494353e-06	-4.093642e-09	-1.851151e+01	-2.716960e+02
1.260000e-06	-2.455813e-06	-4.055943e-09	-1.822549e+01	-2.695643e+02
1.270000e-06	-2.417125e-06	-4.016853e-09	-1.793837e+01	-2.674124e+02
1.280000e-06	-2.378248e-06	-3.984674e-09	-1.764985e+01	-2.652413e+02
1.290000e-06	-2.339169e-06	-3.963710e-09	-1.735984e+01	-2.630517e+02
1.300000e-06	-2.299907e-06	-3.934969e-09	-1.706846e+01	-2.608442e+02
1.310000e-06	-2.260506e-06	-3.888145e-09	-1.677605e+01	-2.586192e+02
1.320000e-06	-2.220950e-06	-3.837700e-09	-1.648249e+01	-2.563766e+02
1.330000e-06	-2.181197e-06	-3.808884e-09	-1.618747e+01	-2.541164e+02
1.340000e-06	-2.141379e-06	-3.788335e-09	-1.589196e+01	-2.518382e+02
1.350000e-06	-2.101526e-06	-3.751480e-09	-1.559620e+01	-2.495414e+02
1.360000e-06	-2.061580e-06	-3.700158e-09	-1.529974e+01	-2.472251e+02
1.370000e-06	-2.021564e-06	-3.657450e-09	-1.500278e+01	-2.448884e+02
1.380000e-06	-1.981453e-06	-3.630457e-09	-1.470510e+01	-2.425301e+02
1.390000e-06	-1.941157e-06	-3.605406e-09	-1.440604e+01	-2.401491e+02
1.400000e-06	-1.900726e-06	-3.563826e-09	-1.410599e+01	-2.377441e+02
1.410000e-06	-1.860344e-06	-3.511340e-09	-1.380630e+01	-2.353138e+02
1.420000e-06	-1.819894e-06	-3.467862e-09	-1.350610e+01	-2.328570e+02
1.430000e-06	-1.779196e-06	-3.439699e-09	-1.320407e+01	-2.303725e+02
1.440000e-06	-1.738351e-06	-3.408589e-09	-1.290094e+01	-2.278595e+02
1.450000e-06	-1.697306e-06	-3.362565e-09	-1.259633e+01	-2.253170e+02
1.460000e-06	-1.656041e-06	-3.315661e-09	-1.229009e+01	-2.227444e+02
1.470000e-06	-1.614605e-06	-3.279057e-09	-1.198258e+01	-2.201412e+02
1.480000e-06	-1.572884e-06	-3.247938e-09	-1.167295e+01	-2.175073e+02
1.490000e-06	-1.530847e-06	-3.210666e-09	-1.136098e+01	-2.148428e+02
1.500000e-06	-1.488642e-06	-3.165042e-09	-1.104776e+01	-2.121478e+02
1.510000e-06	-1.446415e-06	-3.119244e-09	-1.073438e+01	-2.094229e+02
1.520000e-06	-1.403961e-06	-3.081649e-09	-1.041931e+01	-2.066688e+02
1.530000e-06	-1.361292e-06	-3.047013e-09	-1.010265e+01	-2.038864e+02
1.540000e-06	-1.318453e-06	-3.008024e-09	-9.784729e+00	-2.010766e+02
1.550000e-06	-1.275495e-06	-2.954891e-09	-9.465917e+00	-1.982406e+02
1.560000e-06	-1.232471e-06	-2.899970e-09	-9.146620e+00	-1.953796e+02
1.570000e-06	-1.189306e-06	-2.855809e-09	-8.826275e+00	-1.924949e+02
1.580000e-06	-1.146088e-06	-2.820298e-09	-8.505539e+00	-1.895875e+02
1.590000e-06	-1.102746e-06	-2.780411e-09	-8.183888e+00	-1.866585e+02
1.600000e-06	-1.059272e-06	-2.732053e-09	-7.861245e+00	-1.837090e+02
1.610000e-06	-1.015725e-06	-2.683450e-09	-7.538072e+00	-1.807397e+02
1.620000e-06	-9.721297e-07	-2.641380e-09	-7.214533e+00	-1.777514e+02
1.630000e-06	-9.284384e-07	-2.601558e-09	-6.890284e+00	-1.747443e+02
1.640000e-06	-8.847042e-07	-2.555777e-09	-6.565716e+00	-1.717187e+02
1.650000e-06	-8.409558e-07	-2.499202e-09	-6.241043e+00	-1.686744e+02
1.660000e-06	-7.971640e-07	-2.443414e-09	-5.916048e+00	-1.656112e+02
1.670000e-06	-7.533573e-07	-2.399805e-09	-5.590942e+00	-1.625284e+02
1.680000e-06	-7.095517e-07	-2.359875e-09	-5.265844e+00	-1.594251e+02
1.690000e-06	-6.657112e-07	-2.312571e-09	-4.940488e+00	-1.563004e+02
1.700000e-06	-6.218176e-07	-2.257542e-09	-4.614737e+00	-1.531529e+02
1.710000e-06	-5.778945e-07	-2.209336e-09	-4.288768e+00	-1.499814e+02
1.720000e-06	-5.339377e-07	-2.169176e-09	-3.962548e+00	-1.467842e+02
1.730000e-06	-4.899914e-07	-2.122799e-09	-3.636407e+00	-1.435599e+02
1.740000e-06	-4.460556e-07	-2.065474e-09	-3.310343e+00	-1.403070e+02
1.750000e-06	-4.021294e-07	-2.008500e-09	-2.984350e+00	-1.370238e+02
1.760000e-06	-3.581870e-07	-1.959245e-09	-2.658238e+00	-1.337090e+02
1.770000e-06	-3.141674e-07	-1.913848e-09	-2.331552e+00	-1.303613e+02
1.780000e-06	-2.701071e-07	-1.863843e-09	-2.004564e+00	-1.269795e+02
1.790000e-06	-2.260416e-07	-1.809294e-09	-1.677538e+00	-1.235629e+02
1.800000e-06	-1.820087e-07	-1.755718e-09	-1.350754e+00	-1.201108e+02
1.810000e-06	-1.379582e-07	-1.706332e-09	-1.023838e+00	-1.166227e+02
1.820000e-06	-9.389502e-08	-1.660580e-09	-6.968296e-01	-1.130988e+02
1.830000e-06	-4.987493e-08	-1.609611e-09	-3.701402e-01	-1.095391e+02
1.840000e-06	-5.885630e-09	-1.549907e-09	-4.367943e-02	-1.059442e+02
1.850000e-06	3.807090e-08	-1.489455e-09	2.825381e-01	-1.023150e+02
1.860000e-06	8.205247e-08	-1.437879e-09	6.089416e-01	-9.865238e+01
1.870000e-06	1.260416e-07	-1.389569e-09	9.354014e-01	-9.495772e+01
1.880000e-06	1.700158e-07	-1.336962e-09	1.261750e+00	-9.123246e+01
1.890000e-06	2.139873e-07	-1.277918e-09	1.588079e+00	-8.747821e+01
1.900000e-06	2.579820e-07	-1.220735e-09	1.914580e+00	-8.369665e+01
1.910000e-06	3.019691e-07	-1.170053e-09	2.241024e+00	-7.988954e+01
1.920000e-06	3.458957e-07	-1.121073e-09	2.567020e+00	-7.605859e+01
1.930000e-06	3.898329e-07	-1.063000e-09	2.893094e+00	-7.220544e+01
1.940000e-06	4.337925e-07	-9.977268e-10	3.219334e+00	-6.833164e+01
1.950000e-06	4.777394e-07	-9.364722e-10	3.545480e+00	-6.443855e+01
1.960000e-06	5.216208e-07	-8.838157e-10	3.871140e+00	-6.052731e+01
1.970000e-06	5.654865e-07	-8.320492e-10	4.196684e+00	-5.659882e+01
1.980000e-06	6.093911e-07	-7.715257e-10	4.522516e+00	-5.265373e+01
1.990000e-06	6.532675e-07	-7.089454e-10	4.848139e+00	-4.869234e+01
2.000000e-06	6.971171e-07	-6.500814e-10	5.173563e+00	-4.471470e+01
2.010000e-06	7.409484e-07	-5.951694e-10	5.498852e+00	-4.072052e+01
2.020000e-06	7.847571e-07	-5.378534e-10	5.823972e+00	-3.670923e+01
2.030000e-06	8.285374e-07	-4.754034e-10	6.148882e+00	-3.267999e+01
2.040000e-06	8.722608e-07	-4.129185e-10	6.473369e+00	-2.863171e+01
2.050000e-06	9.159089e-07	-3.545048e-10	6.797297e+00	-2.456311e+01
2.060000e-06	9.595134e-07	-2.972697e-10	7.120903e+00	-2.047274e+01
2.070000e-06	1.003068e-06	-2.374365e-10	7.444137e+00	-1.635905e+01
2.080000e-06	1.046553e-06	-1.734299e-10	7.766855e+00	-1.222046e+01
2.090000e-06	1.089963e-06	-1.093380e-10	8.089017e+00	-8.055368e+00
2.100000e-06	1.133298e-06	-4.453325e-11	8.410622e+00	-3.862285e+00
2.110000e-06	1.176528e-06	1.766604e-11	8.731451e+00	3.601647e-01
2.120000e-06	1.219613e-06	8.011857e-11	9.051196e+00	4.613158e+00
2.130000e-06	1.262466e-06	1.443161e-10	9.369227e+00	8.897625e+00
2.140000e-06	1.305268e-06	2.080319e-10	9.686872e+00	1.321420e+01
2.150000e-06	1.348043e-06	2.714739e-10	1.000433e+01	1.756319e+01
2.160000e-06	1.390564e-06	3.341316e-10	1.031989e+01	2.194454e+01
2.170000e-06	1.432832e-06	3.986019e-10	1.063358e+01	2.635778e+01
2.180000e-06	1.474858e-06	4.688757e-10	1.094546e+01	3.080207e+01
2.190000e-06	1.516717e-06	5.411417e-10	1.125612e+01	3.527617e+01
2.200000e-06	1.558437e-06	6.087006e-10	1.156574e+01	3.977842e+01
2.210000e-06	1.599944e-06	6.747074e-10	1.187378e+01	4.430681e+01
2.220000e-06	1.641140e-06	7.430485e-10	1.217951e+01	4.885900e+01
2.230000e-06	1.682193e-06	8.145632e-10	1.248417e+01	5.343231e+01
2.240000e-06	1.723094e-06	8.818601e-10	1.278772e+01	5.802382e+01
2.250000e-06	1.763788e-06	9.461479e-10	1.308972e+01	6.263040e+01
2.260000e-06	1.804381e-06	1.012634e-09	1.339097e+01	6.724877e+01
2.270000e-06	1.844875e-06	1.084099e-09	1.369150e+01	7.187555e+01
2.280000e-06	1.885258e-06	1.155015e-09	1.399120e+01	7.650732e+01
2.290000e-06	1.925431e-06	1.223792e-09	1.428933e+01	8.114069e+01
2.300000e-06	1.965513e-06	1.293742e-09	1.458679e+01	8.577235e+01
2.310000e-06	2.005590e-06	1.364655e-09	1.488422e+01	9.039913e+01
2.320000e-06	2.045538e-06	1.435968e-09	1.518069e+01	9.501802e+01
2.330000e-06	2.085407e-06	1.507499e-09	1.547657e+01	9.962623e+01
2.340000e-06	2.125215e-06	1.576980e-09	1.577201e+01	1.042212e+02
2.350000e-06	2.164938e-06	1.646016e-09	1.606680e+01	1.088008e+02
2.360000e-06	2.204619e-06	1.717019e-09	1.636129e+01	1.133628e+02
2.370000e-06	2.244206e-06	1.787419e-09	1.665508e+01	1.179058e+02
2.380000e-06	2.283589e-06	1.854275e-09	1.694736e+01	1.224281e+02
2.390000e-06	2.322738e-06	1.919951e-09	1.723790e+01	1.269288e+02
2.400000e-06	2.361739e-06	1.988290e-09	1.752734e+01	1.314068e+02
2.410000e-06	2.400506e-06	2.055754e-09	1.781504e+01	1.358615e+02
2.420000e-06	2.439053e-06	2.123473e-09	1.810111e+01	1.402924e+02
2.430000e-06	2.477546e-06	2.189213e-09	1.838678e+01	1.446990e+02
2.440000e-06	2.515847e-06	2.253643e-09	1.867103e+01	1.490810e+02
2.450000e-06	2.553934e-06	2.317576e-09	1.895369e+01	1.534382e+02
2.460000e-06	2.591976e-06	2.380439e-09	1.923601e+01	1.577703e+02
2.470000e-06	2.629921e-06	2.442786e-09	1.951761e+01	1.620770e+02
2.480000e-06	2.667644e-06	2.506438e-09	1.979757e+01	1.663577e+02
2.490000e-06	2.705087e-06	2.570327e-09	2.007544e+01	1.706120e+02
2.500000e-06	2.742341e-06	2.634274e-09	2.035193e+01	1.748391e+02
2.510000e-06	2.779458e-06	2.698286e-09	2.062738e+01	1.790382e+02
2.520000e-06	2.816286e-06	2.762420e-09	2.090069e+01	1.832080e+02
2.530000e-06	2.852820e-06	2.823649e-09	2.117183e+01	1.873472e+02
2.540000e-06	2.889156e-06	2.883117e-09	2.144149e+01	1.914544e+02
2.550000e-06	2.925305e-06	2.941203e-09	2.170977e+01	1.955277e+02
2.560000e-06	2.961352e-06	2.996425e-09	2.197728e+01	1.995654e+02
2.570000e-06	2.997340e-06	3.053322e-09	2.224436e+01	2.035652e+02
2.580000e-06	3.033230e-06	3.113348e-09	2.251072e+01	2.075251e+02
2.590000e-06	3.069004e-06	3.173111e-09	2.277621e+01	2.114428e+02
2.600000e-06	3.104627e-06	3.229317e-09	2.304058e+01	2.153161e+02
2.610000e-06	3.140083e-06	3.284165e-09	2.330371e+01	2.191426e+02
2.620000e-06	3.175242e-06	3.338184e-09	2.356464e+01	2.229202e+02
2.630000e-06	3.210095e-06	3.391716e-09	2.382330e+01	2.266468e+02
2.640000e-06	3.244677e-06	3.445680e-09	2.407995e+01	2.303206e+02
2.650000e-06	3.278718e-06	3.499397e-09	2.433258e+01	2.339397e+02
2.660000e-06	3.312344e-06	3.550472e-09	2.458212e+01	2.375028e+02
2.670000e-06	3.345662e-06	3.600416e-09	2.482939e+01	2.410087e+02
2.680000e-06	3.378490e-06	3.651044e-09	2.507302e+01	2.444566e+02
2.690000e-06	3.411019e-06	3.701982e-09	2.531443e+01	2.478458e+02
2.700000e-06	3.443382e-06	3.750850e-09	2.555461e+01	2.511762e+02
2.710000e-06	3.475589e-06	3.797486e-09	2.579363e+01	2.544478e+02
2.720000e-06	3.507683e-06	3.845426e-09	2.603181e+01	2.576612e+02
2.730000e-06	3.539655e-06	3.893709e-09	2.626908e+01	2.608171e+02
2.740000e-06	3.571457e-06	3.938406e-09	2.650510e+01	2.639164e+02
2.750000e-06	3.603069e-06	3.982378e-09	2.673971e+01	2.669605e+02
2.760000e-06	3.634494e-06	4.026226e-09	2.697292e+01	2.699507e+02
2.770000e-06	3.665642e-06	4.071071e-09	2.720408e+01	2.728888e+02
2.780000e-06	3.696483e-06	4.114628e-09	2.743296e+01	2.757764e+02
2.790000e-06	3.727007e-06	4.156071e-09	2.765949e+01	2.786153e+02
2.800000e-06	3.757259e-06	4.198023e-09	2.788400e+01	2.814073e+02
2.810000e-06	3.787278e-06	4.240057e-09	2.810679e+01	2.841540e+02
2.820000e-06	3.817029e-06	4.281345e-09	2.832758e+01	2.868572e+02
2.830000e-06	3.846561e-06	4.320782e-09	2.854675e+01	2.895183e+02
2.840000e-06	3.875894e-06	4.360206e-09	2.876444e+01	2.921387e+02
2.850000e-06	3.904908e-06	4.399635e-09	2.897976e+01	2.947194e+02
2.860000e-06	3.933574e-06	4.438438e-09	2.919251e+01	2.972614e+02
2.870000e-06	3.961973e-06	4.477633e-09	2.940327e+01	2.997652e+02
2.880000e-06	3.990180e-06	4.516999e-09	2.961260e+01	3.022314e+02
2.890000e-06	4.018221e-06	4.555963e-09	2.982070e+01	3.046599e+02
2.900000e-06	4.046124e-06	4.591369e-09	3.002778e+01	3.070509e+02
