# Temperatura_=_20.0
# Concentracion g/m^3_=_12600.0
# C_Vs_to_Am_M_A/Vsm_=_65563218390.804596
# pendiente_HvsI_1/m_=_3716.3
# ordenada_HvsI_A/m_=_1297.0
# frecuencia_Hz_=_135142.6423408317

Tiempo_(s)	Campo_(V.s)	Magnetizacion_(V.s)	Campo_(kA/m)	Magnetizacion_(A/m)
0.000000e+00	-5.189435e-06	-2.122455e-09	-3.845840e+01	-1.314105e+02
1.000000e-08	-5.189683e-06	-2.122453e-09	-3.846024e+01	-1.308041e+02
2.000000e-08	-5.189728e-06	-2.123926e-09	-3.846057e+01	-1.300963e+02
3.000000e-08	-5.189547e-06	-2.127463e-09	-3.845923e+01	-1.293074e+02
4.000000e-08	-5.189010e-06	-2.128964e-09	-3.845525e+01	-1.284619e+02
5.000000e-08	-5.188041e-06	-2.124281e-09	-3.844807e+01	-1.275878e+02
6.000000e-08	-5.186609e-06	-2.119083e-09	-3.843746e+01	-1.267161e+02
7.000000e-08	-5.184595e-06	-2.120370e-09	-3.842253e+01	-1.258801e+02
8.000000e-08	-5.181992e-06	-2.116694e-09	-3.840324e+01	-1.251146e+02
9.000000e-08	-5.178851e-06	-2.118193e-09	-3.837996e+01	-1.244554e+02
1.000000e-07	-5.175244e-06	-2.129559e-09	-3.835323e+01	-1.239380e+02
1.100000e-07	-5.171310e-06	-2.090706e-09	-3.832407e+01	-1.235968e+02
1.200000e-07	-5.167126e-06	-2.032958e-09	-3.829307e+01	-1.234646e+02
1.300000e-07	-5.162726e-06	-2.104772e-09	-3.826046e+01	-1.235709e+02
1.400000e-07	-5.158002e-06	-2.140011e-09	-3.822545e+01	-1.239421e+02
1.500000e-07	-5.152817e-06	-2.181498e-09	-3.818703e+01	-1.245997e+02
1.600000e-07	-5.147252e-06	-2.074161e-09	-3.814578e+01	-1.255605e+02
1.700000e-07	-5.141350e-06	-2.116212e-09	-3.810204e+01	-1.268354e+02
1.800000e-07	-5.135043e-06	-2.142924e-09	-3.805531e+01	-1.284293e+02
1.900000e-07	-5.128429e-06	-2.130661e-09	-3.800629e+01	-1.303407e+02
2.000000e-07	-5.121589e-06	-2.065174e-09	-3.795560e+01	-1.325616e+02
2.100000e-07	-5.114533e-06	-1.969434e-09	-3.790331e+01	-1.350773e+02
2.200000e-07	-5.107086e-06	-1.974881e-09	-3.784812e+01	-1.378670e+02
2.300000e-07	-5.099300e-06	-1.961920e-09	-3.779041e+01	-1.409035e+02
2.400000e-07	-5.091263e-06	-2.046150e-09	-3.773086e+01	-1.441544e+02
2.500000e-07	-5.082821e-06	-2.007303e-09	-3.766829e+01	-1.475821e+02
2.600000e-07	-5.073818e-06	-2.028038e-09	-3.760157e+01	-1.511449e+02
2.700000e-07	-5.064266e-06	-2.116796e-09	-3.753078e+01	-1.547976e+02
2.800000e-07	-5.054346e-06	-2.348482e-09	-3.745727e+01	-1.584927e+02
2.900000e-07	-5.043988e-06	-2.402009e-09	-3.738050e+01	-1.621813e+02
3.000000e-07	-5.033016e-06	-2.395769e-09	-3.729919e+01	-1.658141e+02
3.100000e-07	-5.021584e-06	-2.484657e-09	-3.721447e+01	-1.693423e+02
3.200000e-07	-5.009836e-06	-2.698347e-09	-3.712741e+01	-1.727190e+02
3.300000e-07	-4.997681e-06	-2.678536e-09	-3.703733e+01	-1.759000e+02
3.400000e-07	-4.985097e-06	-2.609586e-09	-3.694407e+01	-1.788449e+02
3.500000e-07	-4.972162e-06	-2.707420e-09	-3.684821e+01	-1.815175e+02
3.600000e-07	-4.958911e-06	-2.824365e-09	-3.675001e+01	-1.838872e+02
3.700000e-07	-4.945241e-06	-2.643871e-09	-3.664870e+01	-1.859291e+02
3.800000e-07	-4.931170e-06	-2.556453e-09	-3.654442e+01	-1.876248e+02
3.900000e-07	-4.916800e-06	-2.730558e-09	-3.643793e+01	-1.889625e+02
4.000000e-07	-4.901897e-06	-2.746975e-09	-3.632748e+01	-1.899374e+02
4.100000e-07	-4.886220e-06	-2.564019e-09	-3.621130e+01	-1.905514e+02
4.200000e-07	-4.870089e-06	-2.514190e-09	-3.609176e+01	-1.908132e+02
4.300000e-07	-4.853693e-06	-2.655253e-09	-3.597025e+01	-1.907380e+02
4.400000e-07	-4.836880e-06	-2.682520e-09	-3.584565e+01	-1.903466e+02
4.500000e-07	-4.819783e-06	-2.628537e-09	-3.571894e+01	-1.896654e+02
4.600000e-07	-4.802500e-06	-2.520382e-09	-3.559086e+01	-1.887254e+02
4.700000e-07	-4.784885e-06	-2.512890e-09	-3.546032e+01	-1.875611e+02
4.800000e-07	-4.767024e-06	-2.595357e-09	-3.532795e+01	-1.862102e+02
4.900000e-07	-4.748869e-06	-2.681024e-09	-3.519341e+01	-1.847121e+02
5.000000e-07	-4.730269e-06	-2.547586e-09	-3.505556e+01	-1.831074e+02
5.100000e-07	-4.711284e-06	-2.441758e-09	-3.491487e+01	-1.814365e+02
5.200000e-07	-4.691980e-06	-2.524788e-09	-3.477181e+01	-1.797389e+02
5.300000e-07	-4.672401e-06	-2.677581e-09	-3.462671e+01	-1.780523e+02
5.400000e-07	-4.652568e-06	-2.605040e-09	-3.447973e+01	-1.764118e+02
5.500000e-07	-4.632504e-06	-2.467947e-09	-3.433104e+01	-1.748488e+02
5.600000e-07	-4.612222e-06	-2.460921e-09	-3.418073e+01	-1.733908e+02
5.700000e-07	-4.591703e-06	-2.592303e-09	-3.402867e+01	-1.720608e+02
5.800000e-07	-4.570873e-06	-2.611008e-09	-3.387429e+01	-1.708766e+02
5.900000e-07	-4.549706e-06	-2.507327e-09	-3.371743e+01	-1.698512e+02
6.000000e-07	-4.528264e-06	-2.443826e-09	-3.355852e+01	-1.689920e+02
6.100000e-07	-4.506542e-06	-2.512812e-09	-3.339754e+01	-1.683012e+02
6.200000e-07	-4.484514e-06	-2.561422e-09	-3.323430e+01	-1.677761e+02
6.300000e-07	-4.462180e-06	-2.525284e-09	-3.306879e+01	-1.674090e+02
6.400000e-07	-4.439484e-06	-2.482543e-09	-3.290058e+01	-1.671882e+02
6.500000e-07	-4.416411e-06	-2.483987e-09	-3.272960e+01	-1.670979e+02
6.600000e-07	-4.392990e-06	-2.491031e-09	-3.255602e+01	-1.671194e+02
6.700000e-07	-4.369282e-06	-2.485704e-09	-3.238032e+01	-1.672313e+02
6.800000e-07	-4.345422e-06	-2.490386e-09	-3.220350e+01	-1.674105e+02
6.900000e-07	-4.321421e-06	-2.480334e-09	-3.202563e+01	-1.676331e+02
7.000000e-07	-4.297106e-06	-2.452861e-09	-3.184543e+01	-1.678745e+02
7.100000e-07	-4.272401e-06	-2.428211e-09	-3.166235e+01	-1.681110e+02
7.200000e-07	-4.247336e-06	-2.455304e-09	-3.147660e+01	-1.683197e+02
7.300000e-07	-4.221868e-06	-2.478114e-09	-3.128786e+01	-1.684797e+02
7.400000e-07	-4.195976e-06	-2.453058e-09	-3.109597e+01	-1.685724e+02
7.500000e-07	-4.169551e-06	-2.389809e-09	-3.090013e+01	-1.685818e+02
7.600000e-07	-4.142626e-06	-2.393600e-09	-3.070060e+01	-1.684953e+02
7.700000e-07	-4.115332e-06	-2.440698e-09	-3.049833e+01	-1.683036e+02
7.800000e-07	-4.087796e-06	-2.452625e-09	-3.029426e+01	-1.680010e+02
7.900000e-07	-4.060067e-06	-2.383685e-09	-3.008876e+01	-1.675854e+02
8.000000e-07	-4.032112e-06	-2.345498e-09	-2.988159e+01	-1.670582e+02
8.100000e-07	-4.004027e-06	-2.385005e-09	-2.967346e+01	-1.664242e+02
8.200000e-07	-3.975755e-06	-2.435735e-09	-2.946393e+01	-1.656911e+02
8.300000e-07	-3.947185e-06	-2.394907e-09	-2.925220e+01	-1.648694e+02
8.400000e-07	-3.918269e-06	-2.330196e-09	-2.903791e+01	-1.639720e+02
8.500000e-07	-3.889031e-06	-2.328027e-09	-2.882123e+01	-1.630133e+02
8.600000e-07	-3.859570e-06	-2.377720e-09	-2.860290e+01	-1.620091e+02
8.700000e-07	-3.829850e-06	-2.378962e-09	-2.838265e+01	-1.609759e+02
8.800000e-07	-3.799914e-06	-2.323883e-09	-2.816079e+01	-1.599303e+02
8.900000e-07	-3.769852e-06	-2.286476e-09	-2.793801e+01	-1.588885e+02
9.000000e-07	-3.739475e-06	-2.312380e-09	-2.771288e+01	-1.578657e+02
9.100000e-07	-3.708727e-06	-2.340521e-09	-2.748502e+01	-1.568758e+02
9.200000e-07	-3.677713e-06	-2.314423e-09	-2.725517e+01	-1.559309e+02
9.300000e-07	-3.646495e-06	-2.272149e-09	-2.702382e+01	-1.550409e+02
9.400000e-07	-3.615107e-06	-2.269038e-09	-2.679121e+01	-1.542134e+02
9.500000e-07	-3.583526e-06	-2.288237e-09	-2.655716e+01	-1.534532e+02
9.600000e-07	-3.551740e-06	-2.276478e-09	-2.632160e+01	-1.527627e+02
9.700000e-07	-3.519832e-06	-2.246630e-09	-2.608513e+01	-1.521415e+02
9.800000e-07	-3.487784e-06	-2.233143e-09	-2.584763e+01	-1.515866e+02
9.900000e-07	-3.455428e-06	-2.233419e-09	-2.560784e+01	-1.510926e+02
1.000000e-06	-3.422794e-06	-2.223435e-09	-2.536600e+01	-1.506520e+02
1.010000e-06	-3.389941e-06	-2.215976e-09	-2.512252e+01	-1.502554e+02
1.020000e-06	-3.356759e-06	-2.215098e-09	-2.487661e+01	-1.498918e+02
1.030000e-06	-3.323273e-06	-2.208869e-09	-2.462846e+01	-1.495492e+02
1.040000e-06	-3.289402e-06	-2.185838e-09	-2.437744e+01	-1.492150e+02
1.050000e-06	-3.255016e-06	-2.171099e-09	-2.412261e+01	-1.488762e+02
1.060000e-06	-3.220340e-06	-2.172485e-09	-2.386563e+01	-1.485201e+02
1.070000e-06	-3.185414e-06	-2.171304e-09	-2.360680e+01	-1.481347e+02
1.080000e-06	-3.150105e-06	-2.142754e-09	-2.334512e+01	-1.477088e+02
1.090000e-06	-3.114548e-06	-2.116359e-09	-2.308161e+01	-1.472328e+02
1.100000e-06	-3.078885e-06	-2.118466e-09	-2.281731e+01	-1.466986e+02
1.110000e-06	-3.043048e-06	-2.135960e-09	-2.255173e+01	-1.461000e+02
1.120000e-06	-3.007024e-06	-2.121973e-09	-2.228476e+01	-1.454329e+02
1.130000e-06	-2.970941e-06	-2.084583e-09	-2.201736e+01	-1.446955e+02
1.140000e-06	-2.934752e-06	-2.067600e-09	-2.174916e+01	-1.438878e+02
1.150000e-06	-2.898306e-06	-2.082014e-09	-2.147906e+01	-1.430124e+02
1.160000e-06	-2.861695e-06	-2.082978e-09	-2.120774e+01	-1.420734e+02
1.170000e-06	-2.824850e-06	-2.052853e-09	-2.093469e+01	-1.410772e+02
1.180000e-06	-2.787815e-06	-2.023146e-09	-2.066023e+01	-1.400313e+02
1.190000e-06	-2.750635e-06	-2.018964e-09	-2.038469e+01	-1.389449e+02
1.200000e-06	-2.713154e-06	-2.023997e-09	-2.010692e+01	-1.378278e+02
1.210000e-06	-2.675483e-06	-2.009445e-09	-1.982774e+01	-1.366906e+02
1.220000e-06	-2.637706e-06	-1.982434e-09	-1.954778e+01	-1.355440e+02
1.230000e-06	-2.599814e-06	-1.966787e-09	-1.926697e+01	-1.343986e+02
1.240000e-06	-2.561654e-06	-1.967815e-09	-1.898417e+01	-1.332646e+02
1.250000e-06	-2.523223e-06	-1.964544e-09	-1.869936e+01	-1.321512e+02
1.260000e-06	-2.484678e-06	-1.947064e-09	-1.841371e+01	-1.310664e+02
1.270000e-06	-2.446059e-06	-1.927905e-09	-1.812751e+01	-1.300169e+02
1.280000e-06	-2.407339e-06	-1.915165e-09	-1.784056e+01	-1.290077e+02
1.290000e-06	-2.368359e-06	-1.905551e-09	-1.755168e+01	-1.280422e+02
1.300000e-06	-2.329114e-06	-1.896696e-09	-1.726084e+01	-1.271218e+02
1.310000e-06	-2.289768e-06	-1.883883e-09	-1.696925e+01	-1.262459e+02
1.320000e-06	-2.250298e-06	-1.869247e-09	-1.667674e+01	-1.254122e+02
1.330000e-06	-2.210635e-06	-1.853692e-09	-1.638280e+01	-1.246166e+02
1.340000e-06	-2.170892e-06	-1.844759e-09	-1.608827e+01	-1.238535e+02
1.350000e-06	-2.131086e-06	-1.835752e-09	-1.579327e+01	-1.231158e+02
1.360000e-06	-2.091125e-06	-1.820373e-09	-1.549712e+01	-1.223953e+02
1.370000e-06	-2.051091e-06	-1.798040e-09	-1.520043e+01	-1.216831e+02
1.380000e-06	-2.010983e-06	-1.779147e-09	-1.490320e+01	-1.209695e+02
1.390000e-06	-1.970718e-06	-1.770053e-09	-1.460480e+01	-1.202448e+02
1.400000e-06	-1.930395e-06	-1.764884e-09	-1.430597e+01	-1.194995e+02
1.410000e-06	-1.889967e-06	-1.747666e-09	-1.400636e+01	-1.187244e+02
1.420000e-06	-1.849403e-06	-1.723751e-09	-1.370575e+01	-1.179112e+02
1.430000e-06	-1.808760e-06	-1.707289e-09	-1.340454e+01	-1.170524e+02
1.440000e-06	-1.767943e-06	-1.701784e-09	-1.310205e+01	-1.161422e+02
1.450000e-06	-1.726901e-06	-1.691173e-09	-1.279790e+01	-1.151759e+02
1.460000e-06	-1.685689e-06	-1.667936e-09	-1.249248e+01	-1.141506e+02
1.470000e-06	-1.644317e-06	-1.641965e-09	-1.218587e+01	-1.130650e+02
1.480000e-06	-1.602799e-06	-1.628188e-09	-1.187819e+01	-1.119198e+02
1.490000e-06	-1.561035e-06	-1.622312e-09	-1.156868e+01	-1.107169e+02
1.500000e-06	-1.518982e-06	-1.608328e-09	-1.125703e+01	-1.094604e+02
1.510000e-06	-1.476736e-06	-1.587569e-09	-1.094395e+01	-1.081555e+02
1.520000e-06	-1.434247e-06	-1.568534e-09	-1.062907e+01	-1.068087e+02
1.530000e-06	-1.391649e-06	-1.556784e-09	-1.031338e+01	-1.054277e+02
1.540000e-06	-1.349038e-06	-1.539287e-09	-9.997591e+00	-1.040210e+02
1.550000e-06	-1.306267e-06	-1.513480e-09	-9.680621e+00	-1.025975e+02
1.560000e-06	-1.263373e-06	-1.486056e-09	-9.362734e+00	-1.011663e+02
1.570000e-06	-1.220333e-06	-1.465642e-09	-9.043771e+00	-9.973647e+01
1.580000e-06	-1.177110e-06	-1.450309e-09	-8.723449e+00	-9.831668e+01
1.590000e-06	-1.133837e-06	-1.437570e-09	-8.402755e+00	-9.691485e+01
1.600000e-06	-1.090518e-06	-1.420845e-09	-8.081726e+00	-9.553798e+01
1.610000e-06	-1.047129e-06	-1.402347e-09	-7.760170e+00	-9.419189e+01
1.620000e-06	-1.003618e-06	-1.384565e-09	-7.437715e+00	-9.288103e+01
1.630000e-06	-9.600131e-07	-1.371420e-09	-7.114564e+00	-9.160836e+01
1.640000e-06	-9.163469e-07	-1.357843e-09	-6.790958e+00	-9.037524e+01
1.650000e-06	-8.725928e-07	-1.340035e-09	-6.466700e+00	-8.918141e+01
1.660000e-06	-8.288015e-07	-1.314033e-09	-6.142167e+00	-8.802502e+01
1.670000e-06	-7.849603e-07	-1.290984e-09	-5.817265e+00	-8.690267e+01
1.680000e-06	-7.411076e-07	-1.276420e-09	-5.492276e+00	-8.580958e+01
1.690000e-06	-6.972693e-07	-1.262861e-09	-5.167395e+00	-8.473973e+01
1.700000e-06	-6.534198e-07	-1.243372e-09	-4.842431e+00	-8.368607e+01
1.710000e-06	-6.095857e-07	-1.218627e-09	-4.517580e+00	-8.264078e+01
1.720000e-06	-5.657348e-07	-1.202644e-09	-4.192606e+00	-8.159552e+01
1.730000e-06	-5.217908e-07	-1.194676e-09	-3.866941e+00	-8.054175e+01
1.740000e-06	-4.778047e-07	-1.179725e-09	-3.540964e+00	-7.947095e+01
1.750000e-06	-4.338629e-07	-1.152841e-09	-3.215315e+00	-7.837498e+01
1.760000e-06	-3.899208e-07	-1.128033e-09	-2.889665e+00	-7.724629e+01
1.770000e-06	-3.458558e-07	-1.109289e-09	-2.563103e+00	-7.607822e+01
1.780000e-06	-3.017676e-07	-1.093144e-09	-2.236370e+00	-7.486517e+01
1.790000e-06	-2.577266e-07	-1.071416e-09	-1.909987e+00	-7.360281e+01
1.800000e-06	-2.136291e-07	-1.047235e-09	-1.583185e+00	-7.228821e+01
1.810000e-06	-1.695075e-07	-1.027046e-09	-1.256204e+00	-7.091994e+01
1.820000e-06	-1.254127e-07	-1.014508e-09	-9.294215e-01	-6.949807e+01
1.830000e-06	-8.130825e-08	-9.982000e-10	-6.025675e-01	-6.802422e+01
1.840000e-06	-3.718611e-08	-9.741407e-10	-2.755826e-01	-6.650142e+01
1.850000e-06	6.922606e-09	-9.466434e-10	5.130276e-02	-6.493406e+01
1.860000e-06	5.097280e-08	-9.242054e-10	3.777545e-01	-6.332773e+01
1.870000e-06	9.499178e-08	-9.046701e-10	7.039749e-01	-6.168897e+01
1.880000e-06	1.390292e-07	-8.840837e-10	1.030332e+00	-6.002511e+01
1.890000e-06	1.830460e-07	-8.626723e-10	1.356536e+00	-5.834398e+01
1.900000e-06	2.270916e-07	-8.399178e-10	1.682954e+00	-5.665365e+01
1.910000e-06	2.711644e-07	-8.204599e-10	2.009573e+00	-5.496217e+01
1.920000e-06	3.151729e-07	-8.031074e-10	2.335716e+00	-5.327729e+01
1.930000e-06	3.591453e-07	-7.831823e-10	2.661591e+00	-5.160621e+01
1.940000e-06	4.031313e-07	-7.571747e-10	2.987567e+00	-4.995532e+01
1.950000e-06	4.470816e-07	-7.303700e-10	3.313278e+00	-4.833002e+01
1.960000e-06	4.910141e-07	-7.061954e-10	3.638858e+00	-4.673451e+01
1.970000e-06	5.349336e-07	-6.857990e-10	3.964341e+00	-4.517171e+01
1.980000e-06	5.788283e-07	-6.637874e-10	4.289641e+00	-4.364313e+01
1.990000e-06	6.226903e-07	-6.395473e-10	4.614697e+00	-4.214881e+01
2.000000e-06	6.665199e-07	-6.142778e-10	4.939514e+00	-4.068741e+01
2.010000e-06	7.103635e-07	-5.931858e-10	5.264435e+00	-3.925617e+01
2.020000e-06	7.541780e-07	-5.762144e-10	5.589140e+00	-3.785109e+01
2.030000e-06	7.979395e-07	-5.541190e-10	5.913452e+00	-3.646703e+01
2.040000e-06	8.416782e-07	-5.279808e-10	6.237596e+00	-3.509793e+01
2.050000e-06	8.853705e-07	-5.061863e-10	6.561395e+00	-3.373701e+01
2.060000e-06	9.290485e-07	-4.865595e-10	6.885088e+00	-3.237697e+01
2.070000e-06	9.727003e-07	-4.654423e-10	7.208588e+00	-3.101033e+01
2.080000e-06	1.016164e-06	-4.410863e-10	7.530693e+00	-2.962963e+01
2.090000e-06	1.059504e-06	-4.161338e-10	7.851881e+00	-2.822769e+01
2.100000e-06	1.102860e-06	-3.922210e-10	8.173188e+00	-2.679789e+01
2.110000e-06	1.146200e-06	-3.685748e-10	8.494376e+00	-2.533439e+01
2.120000e-06	1.189320e-06	-3.460000e-10	8.813937e+00	-2.383232e+01
2.130000e-06	1.232221e-06	-3.225776e-10	9.131871e+00	-2.228797e+01
2.140000e-06	1.275027e-06	-3.004522e-10	9.449104e+00	-2.069889e+01
2.150000e-06	1.317706e-06	-2.788171e-10	9.765394e+00	-1.906401e+01
2.160000e-06	1.360266e-06	-2.561216e-10	1.008080e+01	-1.738367e+01
2.170000e-06	1.402708e-06	-2.315181e-10	1.039533e+01	-1.565960e+01
2.180000e-06	1.445040e-06	-2.072952e-10	1.070905e+01	-1.389488e+01
2.190000e-06	1.487209e-06	-1.821514e-10	1.102156e+01	-1.209381e+01
2.200000e-06	1.529222e-06	-1.555999e-10	1.133292e+01	-1.026181e+01
2.210000e-06	1.571007e-06	-1.333525e-10	1.164258e+01	-8.405230e+00
2.220000e-06	1.612506e-06	-1.123677e-10	1.195012e+01	-6.531102e+00
2.230000e-06	1.653775e-06	-8.854658e-11	1.225597e+01	-4.646948e+00
2.240000e-06	1.694824e-06	-6.153924e-11	1.256017e+01	-2.760511e+00
2.250000e-06	1.735695e-06	-3.687299e-11	1.286307e+01	-8.795055e-01
2.260000e-06	1.776366e-06	-1.415959e-11	1.316448e+01	9.886445e-01
2.270000e-06	1.816935e-06	1.107331e-11	1.346513e+01	2.837046e+00
2.280000e-06	1.857452e-06	3.891731e-11	1.376539e+01	4.659562e+00
2.290000e-06	1.897797e-06	6.637561e-11	1.406439e+01	6.451017e+00
2.300000e-06	1.937986e-06	9.163526e-11	1.436223e+01	8.207358e+00
2.310000e-06	1.978073e-06	1.139394e-10	1.465931e+01	9.925782e+00
2.320000e-06	2.018106e-06	1.350903e-10	1.495599e+01	1.160482e+01
2.330000e-06	2.058101e-06	1.575846e-10	1.525239e+01	1.324439e+01
2.340000e-06	2.098025e-06	1.813071e-10	1.554826e+01	1.484577e+01
2.350000e-06	2.137839e-06	2.068062e-10	1.584332e+01	1.641152e+01
2.360000e-06	2.177529e-06	2.322908e-10	1.613746e+01	1.794545e+01
2.370000e-06	2.217171e-06	2.582283e-10	1.643124e+01	1.945239e+01
2.380000e-06	2.256700e-06	2.842618e-10	1.672418e+01	2.093809e+01
2.390000e-06	2.296005e-06	3.096111e-10	1.701547e+01	2.240894e+01
2.400000e-06	2.335148e-06	3.355879e-10	1.730555e+01	2.387178e+01
2.410000e-06	2.374176e-06	3.612714e-10	1.759479e+01	2.533363e+01
2.420000e-06	2.413017e-06	3.834098e-10	1.788263e+01	2.680142e+01
2.430000e-06	2.451615e-06	4.065710e-10	1.816868e+01	2.828177e+01
2.440000e-06	2.489974e-06	4.305907e-10	1.845296e+01	2.978071e+01
2.450000e-06	2.528197e-06	4.546211e-10	1.873622e+01	3.130346e+01
2.460000e-06	2.566339e-06	4.777440e-10	1.901889e+01	3.285423e+01
2.470000e-06	2.604366e-06	5.004060e-10	1.930071e+01	3.443608e+01
2.480000e-06	2.642264e-06	5.245225e-10	1.958156e+01	3.605074e+01
2.490000e-06	2.679931e-06	5.505642e-10	1.986071e+01	3.769856e+01
2.500000e-06	2.717360e-06	5.752249e-10	2.013809e+01	3.937849e+01
2.510000e-06	2.754592e-06	5.982909e-10	2.041402e+01	4.108804e+01
2.520000e-06	2.791553e-06	6.227862e-10	2.068793e+01	4.282339e+01
2.530000e-06	2.828307e-06	6.474644e-10	2.096031e+01	4.457946e+01
2.540000e-06	2.864967e-06	6.699483e-10	2.123199e+01	4.635009e+01
2.550000e-06	2.901413e-06	6.909095e-10	2.150209e+01	4.812822e+01
2.560000e-06	2.937700e-06	7.107643e-10	2.177101e+01	4.990607e+01
2.570000e-06	2.973854e-06	7.301431e-10	2.203895e+01	5.167546e+01
2.580000e-06	3.009833e-06	7.530178e-10	2.230558e+01	5.342800e+01
2.590000e-06	3.045723e-06	7.792132e-10	2.257156e+01	5.515538e+01
2.600000e-06	3.081502e-06	8.032831e-10	2.283671e+01	5.684968e+01
2.610000e-06	3.117127e-06	8.241084e-10	2.310073e+01	5.850356e+01
2.620000e-06	3.152591e-06	8.446842e-10	2.336355e+01	6.011054e+01
2.630000e-06	3.187769e-06	8.662984e-10	2.362424e+01	6.166520e+01
2.640000e-06	3.222533e-06	8.871462e-10	2.388188e+01	6.316334e+01
2.650000e-06	3.256916e-06	9.057186e-10	2.413669e+01	6.460215e+01
2.660000e-06	3.290862e-06	9.247051e-10	2.438826e+01	6.598028e+01
2.670000e-06	3.324392e-06	9.449930e-10	2.463675e+01	6.729787e+01
2.680000e-06	3.357637e-06	9.684771e-10	2.488312e+01	6.855657e+01
2.690000e-06	3.390525e-06	9.917088e-10	2.512685e+01	6.975945e+01
2.700000e-06	3.423090e-06	1.012301e-09	2.536819e+01	7.091092e+01
2.710000e-06	3.455467e-06	1.029587e-09	2.560813e+01	7.201656e+01
2.720000e-06	3.487622e-06	1.047123e-09	2.584643e+01	7.308295e+01
2.730000e-06	3.519631e-06	1.066206e-09	2.608364e+01	7.411742e+01
2.740000e-06	3.551500e-06	1.082773e-09	2.631982e+01	7.512780e+01
2.750000e-06	3.583167e-06	1.097031e-09	2.655450e+01	7.612217e+01
2.760000e-06	3.614684e-06	1.113187e-09	2.678807e+01	7.710858e+01
2.770000e-06	3.645974e-06	1.131751e-09	2.701996e+01	7.809474e+01
2.780000e-06	3.676997e-06	1.149729e-09	2.724986e+01	7.908780e+01
2.790000e-06	3.707711e-06	1.165224e-09	2.747749e+01	8.009406e+01
2.800000e-06	3.738143e-06	1.180643e-09	2.770301e+01	8.111878e+01
2.810000e-06	3.768333e-06	1.197320e-09	2.792675e+01	8.216600e+01
2.820000e-06	3.798347e-06	1.212445e-09	2.814918e+01	8.323835e+01
2.830000e-06	3.828155e-06	1.225475e-09	2.837008e+01	8.433702e+01
2.840000e-06	3.857664e-06	1.237795e-09	2.858877e+01	8.546166e+01
2.850000e-06	3.886894e-06	1.252224e-09	2.880539e+01	8.661044e+01
2.860000e-06	3.915814e-06	1.266053e-09	2.901971e+01	8.778007e+01
2.870000e-06	3.944483e-06	1.280658e-09	2.923218e+01	8.896592e+01
2.880000e-06	3.972949e-06	1.294680e-09	2.944314e+01	9.016220e+01
2.890000e-06	4.001217e-06	1.310064e-09	2.965263e+01	9.136214e+01
