# Temperatura_=_20.0
# Concentracion g/m^3_=_12600.0
# C_Vs_to_Am_M_A/Vsm_=_65563218390.804596
# pendiente_HvsI_1/m_=_3716.3
# ordenada_HvsI_A/m_=_1297.0
# frecuencia_Hz_=_135134.23632693957

Tiempo_(s)	Campo_(V.s)	Magnetizacion_(V.s)	Campo_(kA/m)	Magnetizacion_(A/m)
0.000000e+00	-5.209621e-06	-5.540738e-09	-3.836789e+01	-3.624320e+02
1.000000e-08	-5.209774e-06	-5.539676e-09	-3.836901e+01	-3.625152e+02
2.000000e-08	-5.209701e-06	-5.540575e-09	-3.836847e+01	-3.626021e+02
3.000000e-08	-5.209354e-06	-5.542350e-09	-3.836593e+01	-3.626910e+02
4.000000e-08	-5.208597e-06	-5.542402e-09	-3.836034e+01	-3.627794e+02
5.000000e-08	-5.207314e-06	-5.537761e-09	-3.835090e+01	-3.628640e+02
6.000000e-08	-5.205521e-06	-5.530037e-09	-3.833769e+01	-3.629413e+02
7.000000e-08	-5.203169e-06	-5.504761e-09	-3.832037e+01	-3.630069e+02
8.000000e-08	-5.200254e-06	-5.478297e-09	-3.829890e+01	-3.630563e+02
9.000000e-08	-5.196857e-06	-5.520854e-09	-3.827388e+01	-3.630846e+02
1.000000e-07	-5.193039e-06	-5.639486e-09	-3.824576e+01	-3.630866e+02
1.100000e-07	-5.188954e-06	-5.596927e-09	-3.821568e+01	-3.630573e+02
1.200000e-07	-5.184613e-06	-5.459937e-09	-3.818371e+01	-3.629915e+02
1.300000e-07	-5.180025e-06	-5.378574e-09	-3.814992e+01	-3.628844e+02
1.400000e-07	-5.175198e-06	-5.534073e-09	-3.811437e+01	-3.627315e+02
1.500000e-07	-5.169924e-06	-5.643670e-09	-3.807553e+01	-3.625287e+02
1.600000e-07	-5.164163e-06	-5.573548e-09	-3.803310e+01	-3.622726e+02
1.700000e-07	-5.158139e-06	-5.444522e-09	-3.798874e+01	-3.619603e+02
1.800000e-07	-5.151823e-06	-5.424718e-09	-3.794221e+01	-3.615898e+02
1.900000e-07	-5.145005e-06	-5.567825e-09	-3.789200e+01	-3.611600e+02
2.000000e-07	-5.137969e-06	-5.658344e-09	-3.784018e+01	-3.606704e+02
2.100000e-07	-5.130749e-06	-5.629531e-09	-3.778701e+01	-3.601216e+02
2.200000e-07	-5.123133e-06	-5.471505e-09	-3.773092e+01	-3.595152e+02
2.300000e-07	-5.115145e-06	-5.456727e-09	-3.767209e+01	-3.588534e+02
2.400000e-07	-5.106925e-06	-5.631549e-09	-3.761155e+01	-3.581396e+02
2.500000e-07	-5.098458e-06	-5.678487e-09	-3.754920e+01	-3.573778e+02
2.600000e-07	-5.089317e-06	-5.448668e-09	-3.748187e+01	-3.565726e+02
2.700000e-07	-5.079407e-06	-5.260325e-09	-3.740888e+01	-3.557294e+02
2.800000e-07	-5.069067e-06	-5.371443e-09	-3.733274e+01	-3.548541e+02
2.900000e-07	-5.058350e-06	-5.504374e-09	-3.725381e+01	-3.539529e+02
3.000000e-07	-5.047068e-06	-5.351099e-09	-3.717072e+01	-3.530322e+02
3.100000e-07	-5.035306e-06	-5.200704e-09	-3.708409e+01	-3.520987e+02
3.200000e-07	-5.023258e-06	-5.274925e-09	-3.699536e+01	-3.511588e+02
3.300000e-07	-5.010884e-06	-5.363039e-09	-3.690423e+01	-3.502189e+02
3.400000e-07	-4.998097e-06	-5.226077e-09	-3.681006e+01	-3.492850e+02
3.500000e-07	-4.984996e-06	-5.238457e-09	-3.671357e+01	-3.483627e+02
3.600000e-07	-4.971521e-06	-5.346811e-09	-3.661432e+01	-3.474569e+02
3.700000e-07	-4.957632e-06	-5.294114e-09	-3.651204e+01	-3.465720e+02
3.800000e-07	-4.943273e-06	-5.193773e-09	-3.640628e+01	-3.457116e+02
3.900000e-07	-4.928535e-06	-5.275494e-09	-3.629774e+01	-3.448784e+02
4.000000e-07	-4.913319e-06	-5.320474e-09	-3.618568e+01	-3.440744e+02
4.100000e-07	-4.897480e-06	-5.212825e-09	-3.606903e+01	-3.433005e+02
4.200000e-07	-4.881060e-06	-5.156135e-09	-3.594810e+01	-3.425568e+02
4.300000e-07	-4.864337e-06	-5.189173e-09	-3.582494e+01	-3.418427e+02
4.400000e-07	-4.847399e-06	-5.201101e-09	-3.570019e+01	-3.411564e+02
4.500000e-07	-4.830104e-06	-5.190276e-09	-3.557282e+01	-3.404958e+02
4.600000e-07	-4.812604e-06	-5.163726e-09	-3.544393e+01	-3.398578e+02
4.700000e-07	-4.794879e-06	-5.097143e-09	-3.531339e+01	-3.392387e+02
4.800000e-07	-4.776847e-06	-5.097174e-09	-3.518059e+01	-3.386344e+02
4.900000e-07	-4.758458e-06	-5.162455e-09	-3.504515e+01	-3.380405e+02
5.000000e-07	-4.739650e-06	-5.178621e-09	-3.490664e+01	-3.374522e+02
5.100000e-07	-4.720418e-06	-5.077619e-09	-3.476500e+01	-3.368646e+02
5.200000e-07	-4.700881e-06	-5.025926e-09	-3.462111e+01	-3.362729e+02
5.300000e-07	-4.681100e-06	-5.073171e-09	-3.447543e+01	-3.356723e+02
5.400000e-07	-4.661126e-06	-5.137694e-09	-3.432833e+01	-3.350584e+02
5.500000e-07	-4.640929e-06	-5.085813e-09	-3.417958e+01	-3.344269e+02
5.600000e-07	-4.620494e-06	-5.002995e-09	-3.402908e+01	-3.337742e+02
5.700000e-07	-4.599801e-06	-4.996273e-09	-3.387668e+01	-3.330969e+02
5.800000e-07	-4.578791e-06	-5.055108e-09	-3.372194e+01	-3.323925e+02
5.900000e-07	-4.557346e-06	-5.050025e-09	-3.356401e+01	-3.316590e+02
6.000000e-07	-4.535559e-06	-5.009446e-09	-3.340355e+01	-3.308949e+02
6.100000e-07	-4.513595e-06	-4.981296e-09	-3.324179e+01	-3.300994e+02
6.200000e-07	-4.491315e-06	-4.961408e-09	-3.307770e+01	-3.292726e+02
6.300000e-07	-4.468810e-06	-4.950876e-09	-3.291195e+01	-3.284148e+02
6.400000e-07	-4.445919e-06	-4.981550e-09	-3.274336e+01	-3.275273e+02
6.500000e-07	-4.422537e-06	-4.978545e-09	-3.257116e+01	-3.266114e+02
6.600000e-07	-4.398997e-06	-4.898532e-09	-3.239779e+01	-3.256694e+02
6.700000e-07	-4.375279e-06	-4.850513e-09	-3.222312e+01	-3.247034e+02
6.800000e-07	-4.351291e-06	-4.903385e-09	-3.204645e+01	-3.237162e+02
6.900000e-07	-4.327102e-06	-4.946793e-09	-3.186830e+01	-3.227105e+02
7.000000e-07	-4.302627e-06	-4.874261e-09	-3.168805e+01	-3.216892e+02
7.100000e-07	-4.277655e-06	-4.778363e-09	-3.150413e+01	-3.206550e+02
7.200000e-07	-4.252304e-06	-4.785433e-09	-3.131742e+01	-3.196108e+02
7.300000e-07	-4.226403e-06	-4.858379e-09	-3.112667e+01	-3.185590e+02
7.400000e-07	-4.199975e-06	-4.848469e-09	-3.093204e+01	-3.175018e+02
7.500000e-07	-4.173112e-06	-4.749974e-09	-3.073420e+01	-3.164412e+02
7.600000e-07	-4.145805e-06	-4.695513e-09	-3.053308e+01	-3.153785e+02
7.700000e-07	-4.118339e-06	-4.748799e-09	-3.033080e+01	-3.143149e+02
7.800000e-07	-4.090657e-06	-4.788547e-09	-3.012693e+01	-3.132509e+02
7.900000e-07	-4.062748e-06	-4.726889e-09	-2.992138e+01	-3.121867e+02
8.000000e-07	-4.034702e-06	-4.638305e-09	-2.971483e+01	-3.111218e+02
8.100000e-07	-4.006463e-06	-4.640526e-09	-2.950686e+01	-3.100555e+02
8.200000e-07	-3.977940e-06	-4.689538e-09	-2.929678e+01	-3.089865e+02
8.300000e-07	-3.949061e-06	-4.676784e-09	-2.908410e+01	-3.079133e+02
8.400000e-07	-3.919900e-06	-4.599869e-09	-2.886933e+01	-3.068339e+02
8.500000e-07	-3.890481e-06	-4.560970e-09	-2.865267e+01	-3.057461e+02
8.600000e-07	-3.860745e-06	-4.583764e-09	-2.843367e+01	-3.046476e+02
8.700000e-07	-3.830881e-06	-4.597047e-09	-2.821372e+01	-3.035360e+02
8.800000e-07	-3.800831e-06	-4.550606e-09	-2.799242e+01	-3.024086e+02
8.900000e-07	-3.770466e-06	-4.498212e-09	-2.776878e+01	-3.012632e+02
9.000000e-07	-3.739835e-06	-4.489241e-09	-2.754319e+01	-3.000972e+02
9.100000e-07	-3.708893e-06	-4.497111e-09	-2.731531e+01	-2.989086e+02
9.200000e-07	-3.677688e-06	-4.471313e-09	-2.708549e+01	-2.976954e+02
9.300000e-07	-3.646310e-06	-4.428751e-09	-2.685440e+01	-2.964560e+02
9.400000e-07	-3.614721e-06	-4.405465e-09	-2.662175e+01	-2.951890e+02
9.500000e-07	-3.582916e-06	-4.393579e-09	-2.638751e+01	-2.938935e+02
9.600000e-07	-3.550952e-06	-4.368180e-09	-2.615210e+01	-2.925689e+02
9.700000e-07	-3.518809e-06	-4.342642e-09	-2.591537e+01	-2.912150e+02
9.800000e-07	-3.486405e-06	-4.329427e-09	-2.567673e+01	-2.898320e+02
9.900000e-07	-3.453721e-06	-4.307544e-09	-2.543601e+01	-2.884204e+02
1.000000e-06	-3.420811e-06	-4.268745e-09	-2.519363e+01	-2.869812e+02
1.010000e-06	-3.387584e-06	-4.242027e-09	-2.494892e+01	-2.855153e+02
1.020000e-06	-3.353964e-06	-4.241963e-09	-2.470132e+01	-2.840244e+02
1.030000e-06	-3.319832e-06	-4.228006e-09	-2.444995e+01	-2.825098e+02
1.040000e-06	-3.285380e-06	-4.180647e-09	-2.419621e+01	-2.809735e+02
1.050000e-06	-3.250663e-06	-4.136639e-09	-2.394053e+01	-2.794171e+02
1.060000e-06	-3.215455e-06	-4.131884e-09	-2.368123e+01	-2.778424e+02
1.070000e-06	-3.179920e-06	-4.134175e-09	-2.341952e+01	-2.762513e+02
1.080000e-06	-3.144258e-06	-4.097695e-09	-2.315687e+01	-2.746453e+02
1.090000e-06	-3.108526e-06	-4.041820e-09	-2.289372e+01	-2.730260e+02
1.100000e-06	-3.072676e-06	-4.021718e-09	-2.262969e+01	-2.713946e+02
1.110000e-06	-3.036720e-06	-4.028274e-09	-2.236488e+01	-2.697521e+02
1.120000e-06	-3.000648e-06	-4.007952e-09	-2.209921e+01	-2.680993e+02
1.130000e-06	-2.964339e-06	-3.950186e-09	-2.183180e+01	-2.664367e+02
1.140000e-06	-2.927801e-06	-3.906920e-09	-2.156271e+01	-2.647645e+02
1.150000e-06	-2.891102e-06	-3.901067e-09	-2.129243e+01	-2.630823e+02
1.160000e-06	-2.854128e-06	-3.895762e-09	-2.102012e+01	-2.613898e+02
1.170000e-06	-2.817003e-06	-3.856313e-09	-2.074671e+01	-2.596863e+02
1.180000e-06	-2.779716e-06	-3.806066e-09	-2.047209e+01	-2.579707e+02
1.190000e-06	-2.742136e-06	-3.780468e-09	-2.019532e+01	-2.562419e+02
1.200000e-06	-2.704386e-06	-3.775077e-09	-1.991730e+01	-2.544984e+02
1.210000e-06	-2.666472e-06	-3.754268e-09	-1.963807e+01	-2.527387e+02
1.220000e-06	-2.628287e-06	-3.711264e-09	-1.935684e+01	-2.509613e+02
1.230000e-06	-2.589953e-06	-3.672389e-09	-1.907453e+01	-2.491644e+02
1.240000e-06	-2.551466e-06	-3.652850e-09	-1.879107e+01	-2.473465e+02
1.250000e-06	-2.512785e-06	-3.634642e-09	-1.850619e+01	-2.455060e+02
1.260000e-06	-2.473917e-06	-3.604702e-09	-1.821994e+01	-2.436414e+02
1.270000e-06	-2.434920e-06	-3.570476e-09	-1.793273e+01	-2.417516e+02
1.280000e-06	-2.395696e-06	-3.539234e-09	-1.764385e+01	-2.398354e+02
1.290000e-06	-2.356207e-06	-3.510904e-09	-1.735303e+01	-2.378920e+02
1.300000e-06	-2.316667e-06	-3.484378e-09	-1.706182e+01	-2.359206e+02
1.310000e-06	-2.277051e-06	-3.458895e-09	-1.677006e+01	-2.339209e+02
1.320000e-06	-2.237392e-06	-3.425838e-09	-1.647797e+01	-2.318929e+02
1.330000e-06	-2.197667e-06	-3.389914e-09	-1.618541e+01	-2.298365e+02
1.340000e-06	-2.157823e-06	-3.357538e-09	-1.589197e+01	-2.277522e+02
1.350000e-06	-2.117892e-06	-3.331641e-09	-1.559788e+01	-2.256404e+02
1.360000e-06	-2.077856e-06	-3.300252e-09	-1.530302e+01	-2.235021e+02
1.370000e-06	-2.037739e-06	-3.257592e-09	-1.500757e+01	-2.213380e+02
1.380000e-06	-1.997524e-06	-3.215457e-09	-1.471139e+01	-2.191491e+02
1.390000e-06	-1.957077e-06	-3.185707e-09	-1.441351e+01	-2.169367e+02
1.400000e-06	-1.916480e-06	-3.162132e-09	-1.411452e+01	-2.147017e+02
1.410000e-06	-1.875806e-06	-3.131668e-09	-1.381496e+01	-2.124453e+02
1.420000e-06	-1.834961e-06	-3.089321e-09	-1.351414e+01	-2.101687e+02
1.430000e-06	-1.793817e-06	-3.049910e-09	-1.321113e+01	-2.078726e+02
1.440000e-06	-1.752509e-06	-3.022810e-09	-1.290690e+01	-2.055581e+02
1.450000e-06	-1.711033e-06	-2.995552e-09	-1.260144e+01	-2.032257e+02
1.460000e-06	-1.669386e-06	-2.955353e-09	-1.229472e+01	-2.008761e+02
1.470000e-06	-1.627492e-06	-2.907440e-09	-1.198617e+01	-1.985094e+02
1.480000e-06	-1.585319e-06	-2.870994e-09	-1.167558e+01	-1.961258e+02
1.490000e-06	-1.542919e-06	-2.845880e-09	-1.136331e+01	-1.937252e+02
1.500000e-06	-1.500233e-06	-2.813688e-09	-1.104894e+01	-1.913072e+02
1.510000e-06	-1.457416e-06	-2.769223e-09	-1.073360e+01	-1.888714e+02
1.520000e-06	-1.414426e-06	-2.723501e-09	-1.041698e+01	-1.864169e+02
1.530000e-06	-1.371306e-06	-2.690598e-09	-1.009942e+01	-1.839429e+02
1.540000e-06	-1.328061e-06	-2.664267e-09	-9.780921e+00	-1.814484e+02
1.550000e-06	-1.284794e-06	-2.629108e-09	-9.462271e+00	-1.789323e+02
1.560000e-06	-1.241504e-06	-2.584047e-09	-9.143442e+00	-1.763933e+02
1.570000e-06	-1.198068e-06	-2.536222e-09	-8.823551e+00	-1.738303e+02
1.580000e-06	-1.154476e-06	-2.497454e-09	-8.502503e+00	-1.712420e+02
1.590000e-06	-1.110818e-06	-2.463319e-09	-8.180965e+00	-1.686273e+02
1.600000e-06	-1.067182e-06	-2.425578e-09	-7.859598e+00	-1.659851e+02
1.610000e-06	-1.023486e-06	-2.379513e-09	-7.537781e+00	-1.633144e+02
1.620000e-06	-9.797350e-07	-2.333716e-09	-7.215566e+00	-1.606143e+02
1.630000e-06	-9.359200e-07	-2.295166e-09	-6.892877e+00	-1.578843e+02
1.640000e-06	-8.920513e-07	-2.258316e-09	-6.569792e+00	-1.551237e+02
1.650000e-06	-8.482051e-07	-2.216378e-09	-6.246873e+00	-1.523322e+02
1.660000e-06	-8.043482e-07	-2.164340e-09	-5.923875e+00	-1.495098e+02
1.670000e-06	-7.604598e-07	-2.113149e-09	-5.600645e+00	-1.466564e+02
1.680000e-06	-7.165724e-07	-2.072468e-09	-5.277422e+00	-1.437723e+02
1.690000e-06	-6.725736e-07	-2.037757e-09	-4.953379e+00	-1.408579e+02
1.700000e-06	-6.285565e-07	-1.991835e-09	-4.629201e+00	-1.379137e+02
1.710000e-06	-5.846068e-07	-1.937875e-09	-4.305521e+00	-1.349405e+02
1.720000e-06	-5.406324e-07	-1.894650e-09	-3.981657e+00	-1.319389e+02
1.730000e-06	-4.966279e-07	-1.859033e-09	-3.657572e+00	-1.289098e+02
1.740000e-06	-4.525951e-07	-1.817698e-09	-3.333279e+00	-1.258541e+02
1.750000e-06	-4.084656e-07	-1.766613e-09	-3.008273e+00	-1.227726e+02
1.760000e-06	-3.643309e-07	-1.712993e-09	-2.683229e+00	-1.196661e+02
1.770000e-06	-3.202852e-07	-1.663227e-09	-2.358841e+00	-1.165355e+02
1.780000e-06	-2.762507e-07	-1.619011e-09	-2.034535e+00	-1.133815e+02
1.790000e-06	-2.321074e-07	-1.575362e-09	-1.709428e+00	-1.102045e+02
1.800000e-06	-1.879089e-07	-1.526694e-09	-1.383914e+00	-1.070051e+02
1.810000e-06	-1.437521e-07	-1.475363e-09	-1.058707e+00	-1.037835e+02
1.820000e-06	-9.957043e-08	-1.431941e-09	-7.333177e-01	-1.005400e+02
1.830000e-06	-5.538006e-08	-1.392316e-09	-4.078638e-01	-9.727452e+01
1.840000e-06	-1.119907e-08	-1.347908e-09	-8.247905e-02	-9.398689e+01
1.850000e-06	3.292431e-08	-1.295377e-09	2.424814e-01	-9.067686e+01
1.860000e-06	7.705839e-08	-1.241765e-09	5.675207e-01	-8.734399e+01
1.870000e-06	1.212634e-07	-1.194160e-09	8.930825e-01	-8.398776e+01
1.880000e-06	1.654416e-07	-1.149999e-09	1.218447e+00	-8.060754e+01
1.890000e-06	2.096047e-07	-1.102270e-09	1.543699e+00	-7.720264e+01
1.900000e-06	2.537552e-07	-1.048003e-09	1.868860e+00	-7.377233e+01
1.910000e-06	2.979455e-07	-9.955364e-10	2.194313e+00	-7.031586e+01
1.920000e-06	3.421374e-07	-9.471622e-10	2.519778e+00	-6.683250e+01
1.930000e-06	3.862494e-07	-8.992354e-10	2.844655e+00	-6.332156e+01
1.940000e-06	4.303147e-07	-8.465977e-10	3.169188e+00	-5.978242e+01
1.950000e-06	4.743125e-07	-7.887027e-10	3.493223e+00	-5.621454e+01
1.960000e-06	5.182738e-07	-7.314030e-10	3.816990e+00	-5.261751e+01
1.970000e-06	5.623155e-07	-6.805670e-10	4.141349e+00	-4.899102e+01
1.980000e-06	6.063576e-07	-6.303026e-10	4.465711e+00	-4.533490e+01
1.990000e-06	6.503168e-07	-5.764955e-10	4.789462e+00	-4.164913e+01
2.000000e-06	6.942680e-07	-5.211083e-10	5.113155e+00	-3.793383e+01
2.010000e-06	7.381936e-07	-4.661884e-10	5.436659e+00	-3.418924e+01
2.020000e-06	7.820401e-07	-4.144991e-10	5.759580e+00	-3.041575e+01
2.030000e-06	8.258109e-07	-3.619023e-10	6.081943e+00	-2.661387e+01
2.040000e-06	8.696467e-07	-3.043436e-10	6.404786e+00	-2.278420e+01
2.050000e-06	9.135199e-07	-2.452111e-10	6.727904e+00	-1.892742e+01
2.060000e-06	9.572944e-07	-1.851893e-10	7.050295e+00	-1.504429e+01
2.070000e-06	1.001041e-06	-1.275768e-10	7.372483e+00	-1.113560e+01
2.080000e-06	1.044822e-06	-7.373535e-11	7.694922e+00	-7.202171e+00
2.090000e-06	1.088545e-06	-1.874669e-11	8.016934e+00	-3.244811e+00
2.100000e-06	1.132205e-06	4.154570e-11	8.338482e+00	7.356848e-01
2.110000e-06	1.175800e-06	1.043486e-10	8.659546e+00	4.738559e+00
2.120000e-06	1.219288e-06	1.626064e-10	8.979828e+00	8.763105e+00
2.130000e-06	1.262704e-06	2.181491e-10	9.299581e+00	1.280867e+01
2.140000e-06	1.306086e-06	2.745220e-10	9.619083e+00	1.687468e+01
2.150000e-06	1.349376e-06	3.370281e-10	9.937903e+00	2.096061e+01
2.160000e-06	1.392394e-06	4.015456e-10	1.025472e+01	2.506600e+01
2.170000e-06	1.435297e-06	4.592541e-10	1.057070e+01	2.919045e+01
2.180000e-06	1.478099e-06	5.157585e-10	1.088592e+01	3.333357e+01
2.190000e-06	1.520670e-06	5.812178e-10	1.119945e+01	3.749502e+01
2.200000e-06	1.563031e-06	6.502632e-10	1.151143e+01	4.167443e+01
2.210000e-06	1.605249e-06	7.135771e-10	1.182236e+01	4.587143e+01
2.220000e-06	1.647114e-06	7.725062e-10	1.213068e+01	5.008556e+01
2.230000e-06	1.688586e-06	8.342789e-10	1.243612e+01	5.431629e+01
2.240000e-06	1.730047e-06	9.015173e-10	1.274147e+01	5.856299e+01
2.250000e-06	1.771379e-06	9.683878e-10	1.304588e+01	6.282488e+01
2.260000e-06	1.812500e-06	1.032613e-09	1.334873e+01	6.710100e+01
2.270000e-06	1.853477e-06	1.096320e-09	1.365051e+01	7.139024e+01
2.280000e-06	1.894298e-06	1.159766e-09	1.395115e+01	7.569125e+01
2.290000e-06	1.934893e-06	1.224459e-09	1.425013e+01	8.000247e+01
2.300000e-06	1.975261e-06	1.290972e-09	1.454743e+01	8.432213e+01
2.310000e-06	2.015474e-06	1.353072e-09	1.484359e+01	8.864822e+01
2.320000e-06	2.055551e-06	1.412067e-09	1.513875e+01	9.297851e+01
2.330000e-06	2.095569e-06	1.474039e-09	1.543347e+01	9.731056e+01
2.340000e-06	2.135516e-06	1.540708e-09	1.572768e+01	1.016417e+02
2.350000e-06	2.175361e-06	1.607031e-09	1.602113e+01	1.059692e+02
2.360000e-06	2.215120e-06	1.673037e-09	1.631395e+01	1.102900e+02
2.370000e-06	2.254859e-06	1.738094e-09	1.660661e+01	1.146012e+02
2.380000e-06	2.294506e-06	1.799030e-09	1.689861e+01	1.188994e+02
2.390000e-06	2.333957e-06	1.862305e-09	1.718916e+01	1.231817e+02
2.400000e-06	2.373249e-06	1.927620e-09	1.747854e+01	1.274449e+02
2.410000e-06	2.412435e-06	1.988253e-09	1.776713e+01	1.316858e+02
2.420000e-06	2.451425e-06	2.047664e-09	1.805429e+01	1.359015e+02
2.430000e-06	2.490211e-06	2.109766e-09	1.833994e+01	1.400891e+02
2.440000e-06	2.528806e-06	2.171013e-09	1.862418e+01	1.442459e+02
2.450000e-06	2.567125e-06	2.228675e-09	1.890640e+01	1.483695e+02
2.460000e-06	2.605262e-06	2.284391e-09	1.918727e+01	1.524576e+02
2.470000e-06	2.643266e-06	2.342457e-09	1.946716e+01	1.565082e+02
2.480000e-06	2.681147e-06	2.401693e-09	1.974615e+01	1.605197e+02
2.490000e-06	2.718880e-06	2.461150e-09	2.002404e+01	1.644906e+02
2.500000e-06	2.756454e-06	2.520084e-09	2.030077e+01	1.684198e+02
2.510000e-06	2.793876e-06	2.577615e-09	2.057637e+01	1.723065e+02
2.520000e-06	2.831039e-06	2.634353e-09	2.085007e+01	1.761500e+02
2.530000e-06	2.867909e-06	2.691008e-09	2.112162e+01	1.799500e+02
2.540000e-06	2.904559e-06	2.746716e-09	2.139154e+01	1.837064e+02
2.550000e-06	2.941050e-06	2.799295e-09	2.166028e+01	1.874192e+02
2.560000e-06	2.977383e-06	2.848378e-09	2.192787e+01	1.910887e+02
2.570000e-06	3.013503e-06	2.899266e-09	2.219389e+01	1.947152e+02
2.580000e-06	3.049459e-06	2.955811e-09	2.245870e+01	1.982991e+02
2.590000e-06	3.085301e-06	3.010250e-09	2.272267e+01	2.018408e+02
2.600000e-06	3.121063e-06	3.060398e-09	2.298605e+01	2.053408e+02
2.610000e-06	3.156747e-06	3.111272e-09	2.324885e+01	2.087994e+02
2.620000e-06	3.192260e-06	3.163331e-09	2.351040e+01	2.122169e+02
2.630000e-06	3.227560e-06	3.213207e-09	2.377038e+01	2.155936e+02
2.640000e-06	3.262667e-06	3.259626e-09	2.402894e+01	2.189295e+02
2.650000e-06	3.297421e-06	3.305162e-09	2.428489e+01	2.222245e+02
2.660000e-06	3.331759e-06	3.352300e-09	2.453778e+01	2.254784e+02
2.670000e-06	3.365794e-06	3.399448e-09	2.478845e+01	2.286908e+02
2.680000e-06	3.399343e-06	3.445297e-09	2.503553e+01	2.318613e+02
2.690000e-06	3.432296e-06	3.490058e-09	2.527822e+01	2.349890e+02
2.700000e-06	3.464876e-06	3.531944e-09	2.551816e+01	2.380731e+02
2.710000e-06	3.497263e-06	3.572137e-09	2.575669e+01	2.411129e+02
2.720000e-06	3.529450e-06	3.616050e-09	2.599375e+01	2.441073e+02
2.730000e-06	3.561477e-06	3.661809e-09	2.622961e+01	2.470553e+02
2.740000e-06	3.593374e-06	3.703212e-09	2.646453e+01	2.499559e+02
2.750000e-06	3.625060e-06	3.741923e-09	2.669789e+01	2.528083e+02
2.760000e-06	3.656584e-06	3.781080e-09	2.693006e+01	2.556114e+02
2.770000e-06	3.687901e-06	3.821329e-09	2.716070e+01	2.583645e+02
2.780000e-06	3.719002e-06	3.862493e-09	2.738975e+01	2.610672e+02
2.790000e-06	3.749902e-06	3.903692e-09	2.761733e+01	2.637190e+02
2.800000e-06	3.780446e-06	3.943554e-09	2.784228e+01	2.663196e+02
2.810000e-06	3.810577e-06	3.981689e-09	2.806419e+01	2.688693e+02
2.820000e-06	3.840470e-06	4.018400e-09	2.828435e+01	2.713682e+02
2.830000e-06	3.870178e-06	4.055742e-09	2.850314e+01	2.738170e+02
2.840000e-06	3.899620e-06	4.090845e-09	2.871998e+01	2.762164e+02
2.850000e-06	3.928922e-06	4.122868e-09	2.893578e+01	2.785676e+02
2.860000e-06	3.958051e-06	4.155305e-09	2.915031e+01	2.808718e+02
2.870000e-06	3.986837e-06	4.191394e-09	2.936231e+01	2.831306e+02
2.880000e-06	4.015286e-06	4.229307e-09	2.957184e+01	2.853455e+02
2.890000e-06	4.043532e-06	4.266207e-09	2.977986e+01	2.875184e+02
2.900000e-06	4.071568e-06	4.298506e-09	2.998634e+01	2.896511e+02
