# Temperatura_=_20.0
# Concentracion g/m^3_=_12600.0
# C_Vs_to_Am_M_A/Vsm_=_65563218390.804596
# pendiente_HvsI_1/m_=_3716.3
# ordenada_HvsI_A/m_=_1297.0
# frecuencia_Hz_=_135138.89869958526

Tiempo_(s)	Campo_(V.s)	Magnetizacion_(V.s)	Campo_(kA/m)	Magnetizacion_(A/m)
0.000000e+00	-5.183900e-06	-5.785379e-09	-3.846044e+01	-3.725764e+02
1.000000e-08	-5.183988e-06	-5.787329e-09	-3.846109e+01	-3.724349e+02
2.000000e-08	-5.183858e-06	-5.788444e-09	-3.846013e+01	-3.722522e+02
3.000000e-08	-5.183460e-06	-5.789203e-09	-3.845717e+01	-3.720333e+02
4.000000e-08	-5.182600e-06	-5.789349e-09	-3.845079e+01	-3.717842e+02
5.000000e-08	-5.181204e-06	-5.786617e-09	-3.844044e+01	-3.715122e+02
6.000000e-08	-5.179288e-06	-5.782716e-09	-3.842621e+01	-3.712251e+02
7.000000e-08	-5.176772e-06	-5.763766e-09	-3.840755e+01	-3.709316e+02
8.000000e-08	-5.173700e-06	-5.767109e-09	-3.838476e+01	-3.706406e+02
9.000000e-08	-5.170138e-06	-5.823372e-09	-3.835833e+01	-3.703616e+02
1.000000e-07	-5.166257e-06	-5.816816e-09	-3.832954e+01	-3.701039e+02
1.100000e-07	-5.162166e-06	-5.718439e-09	-3.829918e+01	-3.698767e+02
1.200000e-07	-5.157787e-06	-5.693063e-09	-3.826670e+01	-3.696888e+02
1.300000e-07	-5.153104e-06	-5.745958e-09	-3.823195e+01	-3.695484e+02
1.400000e-07	-5.148064e-06	-5.830661e-09	-3.819456e+01	-3.694626e+02
1.500000e-07	-5.142627e-06	-5.784371e-09	-3.815422e+01	-3.694378e+02
1.600000e-07	-5.136829e-06	-5.734741e-09	-3.811121e+01	-3.694788e+02
1.700000e-07	-5.130626e-06	-5.725709e-09	-3.806518e+01	-3.695891e+02
1.800000e-07	-5.124131e-06	-5.789306e-09	-3.801700e+01	-3.697706e+02
1.900000e-07	-5.117451e-06	-5.853975e-09	-3.796743e+01	-3.700237e+02
2.000000e-07	-5.110426e-06	-5.794140e-09	-3.791531e+01	-3.703467e+02
2.100000e-07	-5.103129e-06	-5.678983e-09	-3.786118e+01	-3.707366e+02
2.200000e-07	-5.095520e-06	-5.642253e-09	-3.780473e+01	-3.711884e+02
2.300000e-07	-5.087565e-06	-5.815758e-09	-3.774570e+01	-3.716956e+02
2.400000e-07	-5.079271e-06	-5.906269e-09	-3.768417e+01	-3.722500e+02
2.500000e-07	-5.070321e-06	-5.803196e-09	-3.761777e+01	-3.728421e+02
2.600000e-07	-5.060617e-06	-5.682218e-09	-3.754577e+01	-3.734612e+02
2.700000e-07	-5.050598e-06	-5.774023e-09	-3.747144e+01	-3.740955e+02
2.800000e-07	-5.040291e-06	-5.884524e-09	-3.739497e+01	-3.747325e+02
2.900000e-07	-5.029456e-06	-5.837992e-09	-3.731459e+01	-3.753590e+02
3.000000e-07	-5.018209e-06	-5.743961e-09	-3.723114e+01	-3.759619e+02
3.100000e-07	-5.006584e-06	-5.800242e-09	-3.714489e+01	-3.765279e+02
3.200000e-07	-4.994578e-06	-5.821748e-09	-3.705582e+01	-3.770439e+02
3.300000e-07	-4.982182e-06	-5.721827e-09	-3.696385e+01	-3.774976e+02
3.400000e-07	-4.969422e-06	-5.700459e-09	-3.686918e+01	-3.778775e+02
3.500000e-07	-4.956292e-06	-5.765242e-09	-3.677176e+01	-3.781732e+02
3.600000e-07	-4.942803e-06	-5.701495e-09	-3.667168e+01	-3.783756e+02
3.700000e-07	-4.928975e-06	-5.637378e-09	-3.656909e+01	-3.784770e+02
3.800000e-07	-4.914744e-06	-5.709335e-09	-3.646351e+01	-3.784715e+02
3.900000e-07	-4.899995e-06	-5.680870e-09	-3.635408e+01	-3.783550e+02
4.000000e-07	-4.884532e-06	-5.549753e-09	-3.623936e+01	-3.781250e+02
4.100000e-07	-4.868480e-06	-5.556095e-09	-3.612027e+01	-3.777812e+02
4.200000e-07	-4.852158e-06	-5.639977e-09	-3.599917e+01	-3.773248e+02
4.300000e-07	-4.835537e-06	-5.594431e-09	-3.587586e+01	-3.767590e+02
4.400000e-07	-4.818558e-06	-5.540305e-09	-3.574989e+01	-3.760888e+02
4.500000e-07	-4.801330e-06	-5.535047e-09	-3.562207e+01	-3.753205e+02
4.600000e-07	-4.783858e-06	-5.527738e-09	-3.549244e+01	-3.744619e+02
4.700000e-07	-4.766100e-06	-5.520673e-09	-3.536069e+01	-3.735219e+02
4.800000e-07	-4.747989e-06	-5.544057e-09	-3.522632e+01	-3.725106e+02
4.900000e-07	-4.729473e-06	-5.504907e-09	-3.508895e+01	-3.714386e+02
5.000000e-07	-4.710483e-06	-5.451458e-09	-3.494806e+01	-3.703169e+02
5.100000e-07	-4.691160e-06	-5.469715e-09	-3.480470e+01	-3.691568e+02
5.200000e-07	-4.671657e-06	-5.503375e-09	-3.465999e+01	-3.679696e+02
5.300000e-07	-4.651922e-06	-5.463049e-09	-3.451358e+01	-3.667660e+02
5.400000e-07	-4.631959e-06	-5.414841e-09	-3.436547e+01	-3.655564e+02
5.500000e-07	-4.611808e-06	-5.413999e-09	-3.421596e+01	-3.643504e+02
5.600000e-07	-4.591383e-06	-5.432499e-09	-3.406443e+01	-3.631563e+02
5.700000e-07	-4.570692e-06	-5.419807e-09	-3.391091e+01	-3.619817e+02
5.800000e-07	-4.549791e-06	-5.377860e-09	-3.375585e+01	-3.608326e+02
5.900000e-07	-4.528503e-06	-5.361162e-09	-3.359791e+01	-3.597138e+02
6.000000e-07	-4.506800e-06	-5.382540e-09	-3.343689e+01	-3.586286e+02
6.100000e-07	-4.484811e-06	-5.371575e-09	-3.327375e+01	-3.575788e+02
6.200000e-07	-4.462553e-06	-5.321894e-09	-3.310861e+01	-3.565649e+02
6.300000e-07	-4.439917e-06	-5.316153e-09	-3.294067e+01	-3.555859e+02
6.400000e-07	-4.416907e-06	-5.335264e-09	-3.276996e+01	-3.546396e+02
6.500000e-07	-4.393565e-06	-5.300291e-09	-3.259677e+01	-3.537227e+02
6.600000e-07	-4.370018e-06	-5.246429e-09	-3.242208e+01	-3.528307e+02
6.700000e-07	-4.346346e-06	-5.255790e-09	-3.224645e+01	-3.519583e+02
6.800000e-07	-4.322463e-06	-5.281390e-09	-3.206925e+01	-3.510998e+02
6.900000e-07	-4.298259e-06	-5.245759e-09	-3.188968e+01	-3.502486e+02
7.000000e-07	-4.273727e-06	-5.181331e-09	-3.170767e+01	-3.493981e+02
7.100000e-07	-4.248887e-06	-5.176590e-09	-3.152338e+01	-3.485416e+02
7.200000e-07	-4.223617e-06	-5.214645e-09	-3.133589e+01	-3.476726e+02
7.300000e-07	-4.197842e-06	-5.205792e-09	-3.114467e+01	-3.467847e+02
7.400000e-07	-4.171643e-06	-5.130623e-09	-3.095029e+01	-3.458722e+02
7.500000e-07	-4.145042e-06	-5.088056e-09	-3.075293e+01	-3.449299e+02
7.600000e-07	-4.117937e-06	-5.123561e-09	-3.055183e+01	-3.439533e+02
7.700000e-07	-4.090473e-06	-5.149156e-09	-3.034807e+01	-3.429390e+02
7.800000e-07	-4.062845e-06	-5.087715e-09	-3.014309e+01	-3.418841e+02
7.900000e-07	-4.035046e-06	-5.014082e-09	-2.993684e+01	-3.407871e+02
8.000000e-07	-4.006986e-06	-5.025329e-09	-2.972867e+01	-3.396471e+02
8.100000e-07	-3.978722e-06	-5.074635e-09	-2.951896e+01	-3.384644e+02
8.200000e-07	-3.950161e-06	-5.047293e-09	-2.930707e+01	-3.372400e+02
8.300000e-07	-3.921350e-06	-4.961184e-09	-2.909331e+01	-3.359757e+02
8.400000e-07	-3.892315e-06	-4.927187e-09	-2.887790e+01	-3.346743e+02
8.500000e-07	-3.862925e-06	-4.963464e-09	-2.865985e+01	-3.333388e+02
8.600000e-07	-3.833361e-06	-4.973585e-09	-2.844051e+01	-3.319729e+02
8.700000e-07	-3.803628e-06	-4.910646e-09	-2.821991e+01	-3.305807e+02
8.800000e-07	-3.773669e-06	-4.844827e-09	-2.799763e+01	-3.291663e+02
8.900000e-07	-3.743406e-06	-4.848773e-09	-2.777311e+01	-3.277339e+02
9.000000e-07	-3.712799e-06	-4.879012e-09	-2.754603e+01	-3.262877e+02
9.100000e-07	-3.681952e-06	-4.851664e-09	-2.731717e+01	-3.248315e+02
9.200000e-07	-3.650831e-06	-4.784850e-09	-2.708627e+01	-3.233688e+02
9.300000e-07	-3.619484e-06	-4.756716e-09	-2.685371e+01	-3.219027e+02
9.400000e-07	-3.587977e-06	-4.772163e-09	-2.661995e+01	-3.204357e+02
9.500000e-07	-3.556305e-06	-4.763106e-09	-2.638497e+01	-3.189696e+02
9.600000e-07	-3.524471e-06	-4.714568e-09	-2.614879e+01	-3.175056e+02
9.700000e-07	-3.492455e-06	-4.675207e-09	-2.591125e+01	-3.160442e+02
9.800000e-07	-3.460256e-06	-4.666698e-09	-2.567236e+01	-3.145851e+02
9.900000e-07	-3.427802e-06	-4.659189e-09	-2.543158e+01	-3.131275e+02
1.000000e-06	-3.395091e-06	-4.633408e-09	-2.518889e+01	-3.116698e+02
1.010000e-06	-3.362143e-06	-4.602442e-09	-2.494444e+01	-3.102100e+02
1.020000e-06	-3.328873e-06	-4.577942e-09	-2.469760e+01	-3.087454e+02
1.030000e-06	-3.295162e-06	-4.557323e-09	-2.444749e+01	-3.072731e+02
1.040000e-06	-3.260979e-06	-4.535316e-09	-2.419388e+01	-3.057898e+02
1.050000e-06	-3.226421e-06	-4.511482e-09	-2.393749e+01	-3.042920e+02
1.060000e-06	-3.191484e-06	-4.486915e-09	-2.367828e+01	-3.027762e+02
1.070000e-06	-3.156167e-06	-4.456950e-09	-2.341626e+01	-3.012389e+02
1.080000e-06	-3.120627e-06	-4.426451e-09	-2.315258e+01	-2.996767e+02
1.090000e-06	-3.084967e-06	-4.405966e-09	-2.288801e+01	-2.980867e+02
1.100000e-06	-3.049176e-06	-4.389803e-09	-2.262247e+01	-2.964659e+02
1.110000e-06	-3.013251e-06	-4.361045e-09	-2.235593e+01	-2.948122e+02
1.120000e-06	-2.977250e-06	-4.321228e-09	-2.208884e+01	-2.931237e+02
1.130000e-06	-2.941102e-06	-4.290649e-09	-2.182065e+01	-2.913990e+02
1.140000e-06	-2.904804e-06	-4.274354e-09	-2.155135e+01	-2.896374e+02
1.150000e-06	-2.868338e-06	-4.251379e-09	-2.128080e+01	-2.878386e+02
1.160000e-06	-2.831663e-06	-4.214996e-09	-2.100870e+01	-2.860031e+02
1.170000e-06	-2.794814e-06	-4.177850e-09	-2.073531e+01	-2.841316e+02
1.180000e-06	-2.757723e-06	-4.152503e-09	-2.046012e+01	-2.822255e+02
1.190000e-06	-2.720398e-06	-4.130046e-09	-2.018320e+01	-2.802865e+02
1.200000e-06	-2.682895e-06	-4.101696e-09	-1.990496e+01	-2.783166e+02
1.210000e-06	-2.645155e-06	-4.068026e-09	-1.962496e+01	-2.763182e+02
1.220000e-06	-2.607124e-06	-4.038519e-09	-1.934279e+01	-2.742937e+02
1.230000e-06	-2.568964e-06	-4.012512e-09	-1.905968e+01	-2.722456e+02
1.240000e-06	-2.530806e-06	-3.982860e-09	-1.877658e+01	-2.701765e+02
1.250000e-06	-2.492495e-06	-3.952441e-09	-1.849234e+01	-2.680888e+02
1.260000e-06	-2.453940e-06	-3.923762e-09	-1.820629e+01	-2.659847e+02
1.270000e-06	-2.415273e-06	-3.891977e-09	-1.791941e+01	-2.638661e+02
1.280000e-06	-2.376414e-06	-3.855901e-09	-1.763111e+01	-2.617346e+02
1.290000e-06	-2.337323e-06	-3.826896e-09	-1.734109e+01	-2.595915e+02
1.300000e-06	-2.298056e-06	-3.804019e-09	-1.704976e+01	-2.574375e+02
1.310000e-06	-2.258639e-06	-3.775395e-09	-1.675731e+01	-2.552730e+02
1.320000e-06	-2.219115e-06	-3.734423e-09	-1.646407e+01	-2.530979e+02
1.330000e-06	-2.179484e-06	-3.696718e-09	-1.617005e+01	-2.509116e+02
1.340000e-06	-2.139781e-06	-3.668496e-09	-1.587548e+01	-2.487133e+02
1.350000e-06	-2.099954e-06	-3.638780e-09	-1.557999e+01	-2.465016e+02
1.360000e-06	-2.060019e-06	-3.596624e-09	-1.528371e+01	-2.442748e+02
1.370000e-06	-2.020012e-06	-3.551624e-09	-1.498689e+01	-2.420311e+02
1.380000e-06	-1.979876e-06	-3.517846e-09	-1.468912e+01	-2.397683e+02
1.390000e-06	-1.939602e-06	-3.491548e-09	-1.439031e+01	-2.374843e+02
1.400000e-06	-1.899257e-06	-3.455965e-09	-1.409098e+01	-2.351768e+02
1.410000e-06	-1.858762e-06	-3.408914e-09	-1.379054e+01	-2.328437e+02
1.420000e-06	-1.818126e-06	-3.368421e-09	-1.348906e+01	-2.304829e+02
1.430000e-06	-1.777369e-06	-3.340447e-09	-1.318667e+01	-2.280926e+02
1.440000e-06	-1.736353e-06	-3.311381e-09	-1.288237e+01	-2.256712e+02
1.450000e-06	-1.695171e-06	-3.270665e-09	-1.257683e+01	-2.232174e+02
1.460000e-06	-1.653871e-06	-3.226319e-09	-1.227041e+01	-2.207303e+02
1.470000e-06	-1.612365e-06	-3.189536e-09	-1.196247e+01	-2.182094e+02
1.480000e-06	-1.570596e-06	-3.159016e-09	-1.165258e+01	-2.156546e+02
1.490000e-06	-1.528522e-06	-3.124588e-09	-1.134042e+01	-2.130662e+02
1.500000e-06	-1.486286e-06	-3.082353e-09	-1.102707e+01	-2.104449e+02
1.510000e-06	-1.443871e-06	-3.037759e-09	-1.071238e+01	-2.077917e+02
1.520000e-06	-1.401217e-06	-3.001277e-09	-1.039592e+01	-2.051080e+02
1.530000e-06	-1.358525e-06	-2.969245e-09	-1.007918e+01	-2.023955e+02
1.540000e-06	-1.315810e-06	-2.929857e-09	-9.762272e+00	-1.996560e+02
1.550000e-06	-1.272932e-06	-2.879404e-09	-9.444146e+00	-1.968916e+02
1.560000e-06	-1.229894e-06	-2.827965e-09	-9.124840e+00	-1.941043e+02
1.570000e-06	-1.186776e-06	-2.782868e-09	-8.804940e+00	-1.912961e+02
1.580000e-06	-1.143548e-06	-2.745999e-09	-8.484223e+00	-1.884692e+02
1.590000e-06	-1.100161e-06	-2.707871e-09	-8.162326e+00	-1.856252e+02
1.600000e-06	-1.056658e-06	-2.663374e-09	-7.839569e+00	-1.827658e+02
1.610000e-06	-1.013136e-06	-2.618177e-09	-7.516664e+00	-1.798923e+02
1.620000e-06	-9.696059e-07	-2.578704e-09	-7.193708e+00	-1.770057e+02
1.630000e-06	-9.260133e-07	-2.542058e-09	-6.870286e+00	-1.741065e+02
1.640000e-06	-8.823270e-07	-2.499895e-09	-6.546168e+00	-1.711950e+02
1.650000e-06	-8.386105e-07	-2.448981e-09	-6.221826e+00	-1.682709e+02
1.660000e-06	-7.949194e-07	-2.399200e-09	-5.897673e+00	-1.653336e+02
1.670000e-06	-7.512070e-07	-2.357303e-09	-5.573361e+00	-1.623820e+02
1.680000e-06	-7.074552e-07	-2.317650e-09	-5.248757e+00	-1.594147e+02
1.690000e-06	-6.636507e-07	-2.272156e-09	-4.923763e+00	-1.564299e+02
1.700000e-06	-6.197960e-07	-2.219702e-09	-4.598395e+00	-1.534257e+02
1.710000e-06	-5.759156e-07	-2.173058e-09	-4.272838e+00	-1.503996e+02
1.720000e-06	-5.320149e-07	-2.134812e-09	-3.947129e+00	-1.473494e+02
1.730000e-06	-4.881126e-07	-2.092019e-09	-3.621409e+00	-1.442725e+02
1.740000e-06	-4.441879e-07	-2.038061e-09	-3.295523e+00	-1.411664e+02
1.750000e-06	-4.002118e-07	-1.985354e-09	-2.969254e+00	-1.380288e+02
1.760000e-06	-3.562561e-07	-1.939298e-09	-2.643138e+00	-1.348573e+02
1.770000e-06	-3.122950e-07	-1.894691e-09	-2.316982e+00	-1.316501e+02
1.780000e-06	-2.683128e-07	-1.846014e-09	-1.990668e+00	-1.284053e+02
1.790000e-06	-2.243433e-07	-1.795623e-09	-1.664450e+00	-1.251215e+02
1.800000e-06	-1.803785e-07	-1.747040e-09	-1.338266e+00	-1.217978e+02
1.810000e-06	-1.364126e-07	-1.702427e-09	-1.012073e+00	-1.184336e+02
1.820000e-06	-9.244598e-08	-1.657687e-09	-6.858760e-01	-1.150287e+02
1.830000e-06	-4.843724e-08	-1.608379e-09	-3.593660e-01	-1.115834e+02
1.840000e-06	-4.416917e-09	-1.552100e-09	-3.277003e-02	-1.080985e+02
1.850000e-06	3.956812e-08	-1.497913e-09	2.935642e-01	-1.045751e+02
1.860000e-06	8.356535e-08	-1.448423e-09	6.199888e-01	-1.010145e+02
1.870000e-06	1.275764e-07	-1.398916e-09	9.465160e-01	-9.741878e+01
1.880000e-06	1.716436e-07	-1.346795e-09	1.273460e+00	-9.378985e+01
1.890000e-06	2.156545e-07	-1.292918e-09	1.599986e+00	-9.012998e+01
1.900000e-06	2.595843e-07	-1.241754e-09	1.925910e+00	-8.644156e+01
1.910000e-06	3.035092e-07	-1.192871e-09	2.251798e+00	-8.272698e+01
1.920000e-06	3.474317e-07	-1.142589e-09	2.577668e+00	-7.898864e+01
1.930000e-06	3.913923e-07	-1.087100e-09	2.903821e+00	-7.522878e+01
1.940000e-06	4.353301e-07	-1.029123e-09	3.229805e+00	-7.144950e+01
1.950000e-06	4.792416e-07	-9.745528e-10	3.555593e+00	-6.765261e+01
1.960000e-06	5.231359e-07	-9.225305e-10	3.881254e+00	-6.383966e+01
1.970000e-06	5.669809e-07	-8.676578e-10	4.206549e+00	-6.001181e+01
1.980000e-06	6.108208e-07	-8.074930e-10	4.531806e+00	-5.616987e+01
1.990000e-06	6.546682e-07	-7.478366e-10	4.857120e+00	-5.231421e+01
2.000000e-06	6.985099e-07	-6.924425e-10	5.182391e+00	-4.844481e+01
2.010000e-06	7.423090e-07	-6.382741e-10	5.507345e+00	-4.456124e+01
2.020000e-06	7.860626e-07	-5.817253e-10	5.831962e+00	-4.066269e+01
2.030000e-06	8.298543e-07	-5.223026e-10	6.156862e+00	-3.674799e+01
2.040000e-06	8.736222e-07	-4.653833e-10	6.481585e+00	-3.281567e+01
2.050000e-06	9.173006e-07	-4.101186e-10	6.805644e+00	-2.886401e+01
2.060000e-06	9.609661e-07	-3.536142e-10	7.129608e+00	-2.489112e+01
2.070000e-06	1.004567e-06	-2.936279e-10	7.453091e+00	-2.089499e+01
2.080000e-06	1.048101e-06	-2.314824e-10	7.776081e+00	-1.687357e+01
2.090000e-06	1.091509e-06	-1.698509e-10	8.098135e+00	-1.282487e+01
2.100000e-06	1.134712e-06	-1.072457e-10	8.418666e+00	-8.747019e+00
2.110000e-06	1.177838e-06	-4.365367e-11	8.738624e+00	-4.638347e+00
2.120000e-06	1.220872e-06	1.604467e-11	9.057904e+00	-4.974501e-01
2.130000e-06	1.263813e-06	7.450742e-11	9.376493e+00	3.676741e+00
2.140000e-06	1.306728e-06	1.328330e-10	9.694885e+00	7.884913e+00
2.150000e-06	1.349547e-06	1.920686e-10	1.001257e+01	1.212732e+01
2.160000e-06	1.392165e-06	2.536364e-10	1.032877e+01	1.640378e+01
2.170000e-06	1.434471e-06	3.166051e-10	1.064264e+01	2.071360e+01
2.180000e-06	1.476540e-06	3.821058e-10	1.095476e+01	2.505564e+01
2.190000e-06	1.518547e-06	4.485261e-10	1.126642e+01	2.942830e+01
2.200000e-06	1.560323e-06	5.145199e-10	1.157636e+01	3.382952e+01
2.210000e-06	1.601836e-06	5.803561e-10	1.188436e+01	3.825684e+01
2.220000e-06	1.643236e-06	6.450434e-10	1.219151e+01	4.270745e+01
2.230000e-06	1.684480e-06	7.099525e-10	1.249751e+01	4.717822e+01
2.240000e-06	1.725543e-06	7.756143e-10	1.280217e+01	5.166581e+01
2.250000e-06	1.766381e-06	8.407828e-10	1.310515e+01	5.616668e+01
2.260000e-06	1.807011e-06	9.052391e-10	1.340659e+01	6.067722e+01
2.270000e-06	1.847488e-06	9.713023e-10	1.370690e+01	6.519378e+01
2.280000e-06	1.887813e-06	1.038797e-09	1.400608e+01	6.971277e+01
2.290000e-06	1.927980e-06	1.105903e-09	1.430409e+01	7.423070e+01
2.300000e-06	1.968021e-06	1.173621e-09	1.460116e+01	7.874428e+01
2.310000e-06	2.007962e-06	1.240399e-09	1.489749e+01	8.325043e+01
2.320000e-06	2.047922e-06	1.307070e-09	1.519396e+01	8.774635e+01
2.330000e-06	2.087886e-06	1.371659e-09	1.549046e+01	9.222955e+01
2.340000e-06	2.127659e-06	1.436031e-09	1.578555e+01	9.669787e+01
2.350000e-06	2.167350e-06	1.502111e-09	1.608002e+01	1.011495e+02
2.360000e-06	2.206991e-06	1.569379e-09	1.637413e+01	1.055829e+02
2.370000e-06	2.246531e-06	1.636404e-09	1.666748e+01	1.099970e+02
2.380000e-06	2.285975e-06	1.701315e-09	1.696012e+01	1.143909e+02
2.390000e-06	2.325223e-06	1.767440e-09	1.725131e+01	1.187639e+02
2.400000e-06	2.364205e-06	1.834767e-09	1.754053e+01	1.231157e+02
2.410000e-06	2.402959e-06	1.902158e-09	1.782805e+01	1.274460e+02
2.420000e-06	2.441533e-06	1.968538e-09	1.811424e+01	1.317547e+02
2.430000e-06	2.479941e-06	2.031192e-09	1.839920e+01	1.360418e+02
2.440000e-06	2.518189e-06	2.091189e-09	1.868297e+01	1.403070e+02
2.450000e-06	2.556315e-06	2.152444e-09	1.896584e+01	1.445504e+02
2.460000e-06	2.594286e-06	2.214166e-09	1.924755e+01	1.487715e+02
2.470000e-06	2.632126e-06	2.274055e-09	1.952829e+01	1.529699e+02
2.480000e-06	2.669789e-06	2.333193e-09	1.980772e+01	1.571450e+02
2.490000e-06	2.707267e-06	2.396545e-09	2.008578e+01	1.612958e+02
2.500000e-06	2.744571e-06	2.462735e-09	2.036254e+01	1.654211e+02
2.510000e-06	2.781533e-06	2.526741e-09	2.063677e+01	1.695195e+02
2.520000e-06	2.818250e-06	2.586305e-09	2.090918e+01	1.735892e+02
2.530000e-06	2.854791e-06	2.641937e-09	2.118029e+01	1.776283e+02
2.540000e-06	2.891128e-06	2.698473e-09	2.144988e+01	1.816345e+02
2.550000e-06	2.927287e-06	2.753720e-09	2.171815e+01	1.856055e+02
2.560000e-06	2.963308e-06	2.804044e-09	2.198540e+01	1.895386e+02
2.570000e-06	2.999227e-06	2.854158e-09	2.225189e+01	1.934312e+02
2.580000e-06	3.035066e-06	2.909765e-09	2.251778e+01	1.972805e+02
2.590000e-06	3.070833e-06	2.969372e-09	2.278315e+01	2.010839e+02
2.600000e-06	3.106484e-06	3.027442e-09	2.304765e+01	2.048388e+02
2.610000e-06	3.141951e-06	3.081156e-09	2.331079e+01	2.085427e+02
2.620000e-06	3.177238e-06	3.131538e-09	2.357259e+01	2.121933e+02
2.630000e-06	3.212235e-06	3.182286e-09	2.383224e+01	2.157888e+02
2.640000e-06	3.246818e-06	3.232432e-09	2.408882e+01	2.193274e+02
2.650000e-06	3.281008e-06	3.281016e-09	2.434248e+01	2.228078e+02
2.660000e-06	3.314753e-06	3.328885e-09	2.459284e+01	2.262293e+02
2.670000e-06	3.348033e-06	3.377723e-09	2.483975e+01	2.295912e+02
2.680000e-06	3.380972e-06	3.427565e-09	2.508414e+01	2.328935e+02
2.690000e-06	3.413630e-06	3.479649e-09	2.532643e+01	2.361367e+02
2.700000e-06	3.446040e-06	3.528860e-09	2.556689e+01	2.393215e+02
2.710000e-06	3.478192e-06	3.572837e-09	2.580543e+01	2.424489e+02
2.720000e-06	3.510134e-06	3.618264e-09	2.604241e+01	2.455206e+02
2.730000e-06	3.541986e-06	3.663558e-09	2.627873e+01	2.485382e+02
2.740000e-06	3.573751e-06	3.706736e-09	2.651441e+01	2.515038e+02
2.750000e-06	3.605357e-06	3.745610e-09	2.674890e+01	2.544194e+02
2.760000e-06	3.636690e-06	3.783964e-09	2.698136e+01	2.572874e+02
2.770000e-06	3.667833e-06	3.825885e-09	2.721242e+01	2.601100e+02
2.780000e-06	3.698650e-06	3.869762e-09	2.744106e+01	2.628894e+02
2.790000e-06	3.729139e-06	3.912292e-09	2.766726e+01	2.656277e+02
2.800000e-06	3.759394e-06	3.951935e-09	2.789173e+01	2.683268e+02
2.810000e-06	3.789345e-06	3.990783e-09	2.811394e+01	2.709883e+02
2.820000e-06	3.819079e-06	4.030153e-09	2.833454e+01	2.736137e+02
2.830000e-06	3.848575e-06	4.068829e-09	2.855338e+01	2.762040e+02
2.840000e-06	3.877888e-06	4.104752e-09	2.877086e+01	2.787599e+02
2.850000e-06	3.906990e-06	4.136468e-09	2.898677e+01	2.812817e+02
2.860000e-06	3.935735e-06	4.169643e-09	2.920004e+01	2.837694e+02
2.870000e-06	3.964138e-06	4.207776e-09	2.941077e+01	2.862226e+02
2.880000e-06	3.992303e-06	4.247826e-09	2.961973e+01	2.886406e+02
2.890000e-06	4.020300e-06	4.284083e-09	2.982744e+01	2.910223e+02
2.900000e-06	4.048187e-06	4.315831e-09	3.003434e+01	2.933665e+02
