# Temperatura_=_20.0
# Concentracion g/m^3_=_9000.0
# C_Vs_to_Am_M_A/Vsm_=_65563218390.804596
# pendiente_HvsI_1/m_=_3716.3
# ordenada_HvsI_A/m_=_1297.0
# frecuencia_Hz_=_134998.16484426544

Tiempo_(s)	Campo_(V.s)	Magnetizacion_(V.s)	Campo_(kA/m)	Magnetizacion_(A/m)
0.000000e+00	-3.885486e-06	-3.498279e-09	-2.914851e+01	-2.304145e+02
1.000000e-08	-3.885663e-06	-3.498406e-09	-2.914983e+01	-2.303919e+02
2.000000e-08	-3.885700e-06	-3.496345e-09	-2.915011e+01	-2.303605e+02
3.000000e-08	-3.885513e-06	-3.494334e-09	-2.914871e+01	-2.303202e+02
4.000000e-08	-3.885096e-06	-3.494092e-09	-2.914558e+01	-2.302709e+02
5.000000e-08	-3.884475e-06	-3.498686e-09	-2.914092e+01	-2.302127e+02
6.000000e-08	-3.883527e-06	-3.504053e-09	-2.913381e+01	-2.301455e+02
7.000000e-08	-3.882076e-06	-3.526170e-09	-2.912293e+01	-2.300694e+02
8.000000e-08	-3.880051e-06	-3.521045e-09	-2.910774e+01	-2.299843e+02
9.000000e-08	-3.877482e-06	-3.514013e-09	-2.908847e+01	-2.298905e+02
1.000000e-07	-3.874586e-06	-3.460591e-09	-2.906674e+01	-2.297879e+02
1.100000e-07	-3.871469e-06	-3.465650e-09	-2.904335e+01	-2.296767e+02
1.200000e-07	-3.868007e-06	-3.422616e-09	-2.901738e+01	-2.295570e+02
1.300000e-07	-3.864319e-06	-3.430135e-09	-2.898972e+01	-2.294290e+02
1.400000e-07	-3.860508e-06	-3.518595e-09	-2.896112e+01	-2.292929e+02
1.500000e-07	-3.856479e-06	-3.474785e-09	-2.893090e+01	-2.291490e+02
1.600000e-07	-3.852271e-06	-3.468853e-09	-2.889933e+01	-2.289973e+02
1.700000e-07	-3.847888e-06	-3.441709e-09	-2.886646e+01	-2.288383e+02
1.800000e-07	-3.843233e-06	-3.472900e-09	-2.883153e+01	-2.286722e+02
1.900000e-07	-3.838239e-06	-3.477414e-09	-2.879406e+01	-2.284992e+02
2.000000e-07	-3.832925e-06	-3.485808e-09	-2.875420e+01	-2.283196e+02
2.100000e-07	-3.827438e-06	-3.457778e-09	-2.871304e+01	-2.281339e+02
2.200000e-07	-3.821698e-06	-3.447936e-09	-2.866998e+01	-2.279422e+02
2.300000e-07	-3.815624e-06	-3.457999e-09	-2.862441e+01	-2.277449e+02
2.400000e-07	-3.809387e-06	-3.483475e-09	-2.857762e+01	-2.275423e+02
2.500000e-07	-3.802874e-06	-3.468620e-09	-2.852876e+01	-2.273348e+02
2.600000e-07	-3.795967e-06	-3.408008e-09	-2.847694e+01	-2.271226e+02
2.700000e-07	-3.788761e-06	-3.434230e-09	-2.842289e+01	-2.269060e+02
2.800000e-07	-3.781310e-06	-3.484670e-09	-2.836699e+01	-2.266854e+02
2.900000e-07	-3.773659e-06	-3.462136e-09	-2.830960e+01	-2.264609e+02
3.000000e-07	-3.765867e-06	-3.405488e-09	-2.825114e+01	-2.262329e+02
3.100000e-07	-3.757930e-06	-3.434455e-09	-2.819160e+01	-2.260015e+02
3.200000e-07	-3.749817e-06	-3.455394e-09	-2.813074e+01	-2.257670e+02
3.300000e-07	-3.741452e-06	-3.447442e-09	-2.806798e+01	-2.255296e+02
3.400000e-07	-3.732852e-06	-3.417638e-09	-2.800347e+01	-2.252893e+02
3.500000e-07	-3.723883e-06	-3.423752e-09	-2.793618e+01	-2.250463e+02
3.600000e-07	-3.714443e-06	-3.426609e-09	-2.786536e+01	-2.248006e+02
3.700000e-07	-3.704708e-06	-3.441011e-09	-2.779233e+01	-2.245524e+02
3.800000e-07	-3.694502e-06	-3.425442e-09	-2.771577e+01	-2.243016e+02
3.900000e-07	-3.683752e-06	-3.417089e-09	-2.763512e+01	-2.240483e+02
4.000000e-07	-3.672673e-06	-3.408068e-09	-2.755201e+01	-2.237923e+02
4.100000e-07	-3.661324e-06	-3.416928e-09	-2.746687e+01	-2.235335e+02
4.200000e-07	-3.649683e-06	-3.411878e-09	-2.737954e+01	-2.232719e+02
4.300000e-07	-3.637779e-06	-3.396266e-09	-2.729024e+01	-2.230073e+02
4.400000e-07	-3.625624e-06	-3.378657e-09	-2.719905e+01	-2.227395e+02
4.500000e-07	-3.613207e-06	-3.389216e-09	-2.710590e+01	-2.224682e+02
4.600000e-07	-3.600523e-06	-3.405178e-09	-2.701074e+01	-2.221933e+02
4.700000e-07	-3.587549e-06	-3.388255e-09	-2.691342e+01	-2.219145e+02
4.800000e-07	-3.574231e-06	-3.364846e-09	-2.681351e+01	-2.216315e+02
4.900000e-07	-3.560633e-06	-3.372351e-09	-2.671149e+01	-2.213439e+02
5.000000e-07	-3.546898e-06	-3.392547e-09	-2.660846e+01	-2.210516e+02
5.100000e-07	-3.532946e-06	-3.370581e-09	-2.650379e+01	-2.207540e+02
5.200000e-07	-3.518616e-06	-3.348373e-09	-2.639628e+01	-2.204510e+02
5.300000e-07	-3.503889e-06	-3.353690e-09	-2.628581e+01	-2.201421e+02
5.400000e-07	-3.488836e-06	-3.366675e-09	-2.617288e+01	-2.198271e+02
5.500000e-07	-3.473394e-06	-3.346952e-09	-2.605704e+01	-2.195055e+02
5.600000e-07	-3.457616e-06	-3.335528e-09	-2.593867e+01	-2.191771e+02
5.700000e-07	-3.441495e-06	-3.333280e-09	-2.581774e+01	-2.188415e+02
5.800000e-07	-3.425032e-06	-3.332522e-09	-2.569423e+01	-2.184984e+02
5.900000e-07	-3.408339e-06	-3.321602e-09	-2.556900e+01	-2.181475e+02
6.000000e-07	-3.391455e-06	-3.321297e-09	-2.544234e+01	-2.177886e+02
6.100000e-07	-3.374352e-06	-3.310515e-09	-2.531404e+01	-2.174213e+02
6.200000e-07	-3.356972e-06	-3.300656e-09	-2.518365e+01	-2.170456e+02
6.300000e-07	-3.339482e-06	-3.298859e-09	-2.505244e+01	-2.166611e+02
6.400000e-07	-3.321937e-06	-3.300394e-09	-2.492082e+01	-2.162678e+02
6.500000e-07	-3.304167e-06	-3.281548e-09	-2.478752e+01	-2.158654e+02
6.600000e-07	-3.286020e-06	-3.269988e-09	-2.465138e+01	-2.154539e+02
6.700000e-07	-3.267624e-06	-3.273758e-09	-2.451337e+01	-2.150331e+02
6.800000e-07	-3.249043e-06	-3.270584e-09	-2.437398e+01	-2.146031e+02
6.900000e-07	-3.230188e-06	-3.252209e-09	-2.423253e+01	-2.141638e+02
7.000000e-07	-3.210987e-06	-3.243206e-09	-2.408849e+01	-2.137153e+02
7.100000e-07	-3.191513e-06	-3.242510e-09	-2.394239e+01	-2.132575e+02
7.200000e-07	-3.171901e-06	-3.233490e-09	-2.379527e+01	-2.127905e+02
7.300000e-07	-3.152135e-06	-3.221502e-09	-2.364699e+01	-2.123145e+02
7.400000e-07	-3.132271e-06	-3.213433e-09	-2.349797e+01	-2.118295e+02
7.500000e-07	-3.112334e-06	-3.205290e-09	-2.334840e+01	-2.113358e+02
7.600000e-07	-3.092296e-06	-3.193545e-09	-2.319808e+01	-2.108334e+02
7.700000e-07	-3.072150e-06	-3.186588e-09	-2.304695e+01	-2.103225e+02
7.800000e-07	-3.051815e-06	-3.177306e-09	-2.289440e+01	-2.098033e+02
7.900000e-07	-3.031262e-06	-3.167390e-09	-2.274021e+01	-2.092759e+02
8.000000e-07	-3.010521e-06	-3.157939e-09	-2.258462e+01	-2.087407e+02
8.100000e-07	-2.989500e-06	-3.153525e-09	-2.242692e+01	-2.081977e+02
8.200000e-07	-2.968176e-06	-3.143509e-09	-2.226695e+01	-2.076472e+02
8.300000e-07	-2.946652e-06	-3.132603e-09	-2.210548e+01	-2.070893e+02
8.400000e-07	-2.924981e-06	-3.123290e-09	-2.194290e+01	-2.065242e+02
8.500000e-07	-2.903162e-06	-3.118817e-09	-2.177922e+01	-2.059521e+02
8.600000e-07	-2.881153e-06	-3.108584e-09	-2.161411e+01	-2.053730e+02
8.700000e-07	-2.858925e-06	-3.098286e-09	-2.144735e+01	-2.047871e+02
8.800000e-07	-2.836547e-06	-3.090515e-09	-2.127948e+01	-2.041944e+02
8.900000e-07	-2.813927e-06	-3.084752e-09	-2.110979e+01	-2.035951e+02
9.000000e-07	-2.791027e-06	-3.074313e-09	-2.093799e+01	-2.029891e+02
9.100000e-07	-2.767947e-06	-3.064851e-09	-2.076485e+01	-2.023764e+02
9.200000e-07	-2.744640e-06	-3.055785e-09	-2.059000e+01	-2.017571e+02
9.300000e-07	-2.721150e-06	-3.047476e-09	-2.041378e+01	-2.011308e+02
9.400000e-07	-2.697555e-06	-3.036402e-09	-2.023677e+01	-2.004977e+02
9.500000e-07	-2.673815e-06	-3.023677e-09	-2.005868e+01	-1.998575e+02
9.600000e-07	-2.649919e-06	-3.011674e-09	-1.987942e+01	-1.992100e+02
9.700000e-07	-2.625948e-06	-3.000887e-09	-1.969959e+01	-1.985550e+02
9.800000e-07	-2.601864e-06	-2.991709e-09	-1.951891e+01	-1.978921e+02
9.900000e-07	-2.577687e-06	-2.982999e-09	-1.933754e+01	-1.972212e+02
1.000000e-06	-2.553425e-06	-2.972193e-09	-1.915552e+01	-1.965419e+02
1.010000e-06	-2.529004e-06	-2.960060e-09	-1.897232e+01	-1.958537e+02
1.020000e-06	-2.504337e-06	-2.951091e-09	-1.878727e+01	-1.951563e+02
1.030000e-06	-2.479368e-06	-2.940761e-09	-1.859996e+01	-1.944493e+02
1.040000e-06	-2.454138e-06	-2.926613e-09	-1.841068e+01	-1.937322e+02
1.050000e-06	-2.428504e-06	-2.911643e-09	-1.821838e+01	-1.930045e+02
1.060000e-06	-2.402500e-06	-2.901311e-09	-1.802330e+01	-1.922658e+02
1.070000e-06	-2.376271e-06	-2.890443e-09	-1.782653e+01	-1.915155e+02
1.080000e-06	-2.349694e-06	-2.876067e-09	-1.762715e+01	-1.907532e+02
1.090000e-06	-2.322812e-06	-2.859204e-09	-1.742549e+01	-1.899783e+02
1.100000e-06	-2.295743e-06	-2.845231e-09	-1.722243e+01	-1.891902e+02
1.110000e-06	-2.268480e-06	-2.833773e-09	-1.701790e+01	-1.883886e+02
1.120000e-06	-2.241086e-06	-2.821844e-09	-1.681240e+01	-1.875729e+02
1.130000e-06	-2.213490e-06	-2.805195e-09	-1.660537e+01	-1.867425e+02
1.140000e-06	-2.185723e-06	-2.789877e-09	-1.639706e+01	-1.858970e+02
1.150000e-06	-2.157917e-06	-2.776774e-09	-1.618846e+01	-1.850359e+02
1.160000e-06	-2.130036e-06	-2.763089e-09	-1.597931e+01	-1.841588e+02
1.170000e-06	-2.102080e-06	-2.746865e-09	-1.576958e+01	-1.832652e+02
1.180000e-06	-2.074078e-06	-2.729942e-09	-1.555951e+01	-1.823548e+02
1.190000e-06	-2.046001e-06	-2.714243e-09	-1.534889e+01	-1.814271e+02
1.200000e-06	-2.017788e-06	-2.699059e-09	-1.513723e+01	-1.804817e+02
1.210000e-06	-1.989446e-06	-2.681986e-09	-1.492461e+01	-1.795185e+02
1.220000e-06	-1.961049e-06	-2.666561e-09	-1.471158e+01	-1.785369e+02
1.230000e-06	-1.932555e-06	-2.650278e-09	-1.449783e+01	-1.775368e+02
1.240000e-06	-1.903909e-06	-2.634209e-09	-1.428292e+01	-1.765178e+02
1.250000e-06	-1.875062e-06	-2.618167e-09	-1.406652e+01	-1.754798e+02
1.260000e-06	-1.845997e-06	-2.601288e-09	-1.384848e+01	-1.744226e+02
1.270000e-06	-1.816792e-06	-2.582941e-09	-1.362938e+01	-1.733458e+02
1.280000e-06	-1.787462e-06	-2.564246e-09	-1.340935e+01	-1.722493e+02
1.290000e-06	-1.758021e-06	-2.546661e-09	-1.318849e+01	-1.711331e+02
1.300000e-06	-1.728520e-06	-2.529834e-09	-1.296718e+01	-1.699967e+02
1.310000e-06	-1.698900e-06	-2.513222e-09	-1.274497e+01	-1.688402e+02
1.320000e-06	-1.669134e-06	-2.494790e-09	-1.252167e+01	-1.676633e+02
1.330000e-06	-1.639331e-06	-2.475461e-09	-1.229809e+01	-1.664658e+02
1.340000e-06	-1.609394e-06	-2.455634e-09	-1.207350e+01	-1.652475e+02
1.350000e-06	-1.579331e-06	-2.437332e-09	-1.184798e+01	-1.640082e+02
1.360000e-06	-1.549201e-06	-2.419251e-09	-1.162195e+01	-1.627477e+02
1.370000e-06	-1.518974e-06	-2.398282e-09	-1.139518e+01	-1.614657e+02
1.380000e-06	-1.488694e-06	-2.374558e-09	-1.116803e+01	-1.601618e+02
1.390000e-06	-1.458339e-06	-2.352687e-09	-1.094031e+01	-1.588357e+02
1.400000e-06	-1.427897e-06	-2.331151e-09	-1.071194e+01	-1.574870e+02
1.410000e-06	-1.397359e-06	-2.310265e-09	-1.048284e+01	-1.561153e+02
1.420000e-06	-1.366703e-06	-2.288700e-09	-1.025286e+01	-1.547200e+02
1.430000e-06	-1.335891e-06	-2.268808e-09	-1.002171e+01	-1.533005e+02
1.440000e-06	-1.304978e-06	-2.247355e-09	-9.789812e+00	-1.518562e+02
1.450000e-06	-1.274039e-06	-2.223771e-09	-9.557706e+00	-1.503865e+02
1.460000e-06	-1.243020e-06	-2.199758e-09	-9.325008e+00	-1.488905e+02
1.470000e-06	-1.211891e-06	-2.175080e-09	-9.091478e+00	-1.473673e+02
1.480000e-06	-1.180603e-06	-2.149323e-09	-8.856764e+00	-1.458161e+02
1.490000e-06	-1.149181e-06	-2.121903e-09	-8.621036e+00	-1.442359e+02
1.500000e-06	-1.117748e-06	-2.095258e-09	-8.385227e+00	-1.426255e+02
1.510000e-06	-1.086278e-06	-2.067483e-09	-8.149142e+00	-1.409840e+02
1.520000e-06	-1.054689e-06	-2.040180e-09	-7.912164e+00	-1.393099e+02
1.530000e-06	-1.022990e-06	-2.014841e-09	-7.674366e+00	-1.376022e+02
1.540000e-06	-9.912389e-07	-1.988735e-09	-7.436170e+00	-1.358594e+02
1.550000e-06	-9.594347e-07	-1.961421e-09	-7.197579e+00	-1.340802e+02
1.560000e-06	-9.275987e-07	-1.933219e-09	-6.958748e+00	-1.322632e+02
1.570000e-06	-8.957564e-07	-1.904777e-09	-6.719870e+00	-1.304068e+02
1.580000e-06	-8.639113e-07	-1.873399e-09	-6.480972e+00	-1.285096e+02
1.590000e-06	-8.320226e-07	-1.842422e-09	-6.241747e+00	-1.265700e+02
1.600000e-06	-8.000618e-07	-1.814085e-09	-6.001979e+00	-1.245866e+02
1.610000e-06	-7.680940e-07	-1.785880e-09	-5.762161e+00	-1.225576e+02
1.620000e-06	-7.360933e-07	-1.756178e-09	-5.522095e+00	-1.204817e+02
1.630000e-06	-7.040558e-07	-1.724107e-09	-5.281753e+00	-1.183573e+02
1.640000e-06	-6.720126e-07	-1.689980e-09	-5.041368e+00	-1.161827e+02
1.650000e-06	-6.399341e-07	-1.655176e-09	-4.800719e+00	-1.139567e+02
1.660000e-06	-6.078305e-07	-1.619894e-09	-4.559880e+00	-1.116778e+02
1.670000e-06	-5.756571e-07	-1.583494e-09	-4.318519e+00	-1.093446e+02
1.680000e-06	-5.434607e-07	-1.547413e-09	-4.076985e+00	-1.069559e+02
1.690000e-06	-5.113083e-07	-1.511434e-09	-3.835781e+00	-1.045104e+02
1.700000e-06	-4.791493e-07	-1.475462e-09	-3.594528e+00	-1.020071e+02
1.710000e-06	-4.469713e-07	-1.438618e-09	-3.353132e+00	-9.944509e+01
1.720000e-06	-4.147907e-07	-1.400252e-09	-3.111717e+00	-9.682343e+01
1.730000e-06	-3.825582e-07	-1.361275e-09	-2.869911e+00	-9.414143e+01
1.740000e-06	-3.502985e-07	-1.322149e-09	-2.627903e+00	-9.139853e+01
1.750000e-06	-3.180573e-07	-1.282586e-09	-2.386032e+00	-8.859433e+01
1.760000e-06	-2.857903e-07	-1.242148e-09	-2.143969e+00	-8.572859e+01
1.770000e-06	-2.533901e-07	-1.200052e-09	-1.900906e+00	-8.280122e+01
1.780000e-06	-2.209576e-07	-1.157671e-09	-1.657601e+00	-7.981235e+01
1.790000e-06	-1.885900e-07	-1.112801e-09	-1.414783e+00	-7.676226e+01
1.800000e-06	-1.562211e-07	-1.067153e-09	-1.171954e+00	-7.365145e+01
1.810000e-06	-1.238984e-07	-1.022249e-09	-9.294729e-01	-7.048061e+01
1.820000e-06	-9.157870e-08	-9.763676e-10	-6.870138e-01	-6.725061e+01
1.830000e-06	-5.928550e-08	-9.289154e-10	-4.447536e-01	-6.396255e+01
1.840000e-06	-2.696433e-08	-8.793288e-10	-2.022836e-01	-6.061770e+01
1.850000e-06	5.397156e-09	-8.286735e-10	4.048890e-02	-5.721755e+01
1.860000e-06	3.776196e-08	-7.772145e-10	2.832862e-01	-5.376378e+01
1.870000e-06	7.010534e-08	-7.245896e-10	5.259229e-01	-5.025828e+01
1.880000e-06	1.023701e-07	-6.697727e-10	7.679699e-01	-4.670310e+01
1.890000e-06	1.346686e-07	-6.162005e-10	1.010269e+00	-4.310051e+01
1.900000e-06	1.670350e-07	-5.643165e-10	1.253079e+00	-3.945291e+01
1.910000e-06	1.994091e-07	-5.117684e-10	1.495946e+00	-3.576292e+01
1.920000e-06	2.317801e-07	-4.574537e-10	1.738790e+00	-3.203329e+01
1.930000e-06	2.641254e-07	-4.022939e-10	1.981441e+00	-2.826691e+01
1.940000e-06	2.964317e-07	-3.483054e-10	2.223800e+00	-2.446684e+01
1.950000e-06	3.287047e-07	-2.919695e-10	2.465908e+00	-2.063623e+01
1.960000e-06	3.609324e-07	-2.336050e-10	2.707677e+00	-1.677836e+01
1.970000e-06	3.930740e-07	-1.756939e-10	2.948800e+00	-1.289661e+01
1.980000e-06	4.251831e-07	-1.187105e-10	3.189679e+00	-8.994441e+00
1.990000e-06	4.573250e-07	-6.278258e-11	3.430804e+00	-5.075377e+00
2.000000e-06	4.894888e-07	-5.647338e-12	3.672093e+00	-1.143003e+00
2.010000e-06	5.216134e-07	5.291834e-11	3.913089e+00	2.799059e+00
2.020000e-06	5.537002e-07	1.119257e-10	4.153801e+00	6.747163e+00
2.030000e-06	5.858148e-07	1.695716e-10	4.394722e+00	1.069766e+01
2.040000e-06	6.178801e-07	2.270028e-10	4.635271e+00	1.464690e+01
2.050000e-06	6.499096e-07	2.870801e-10	4.875553e+00	1.859126e+01
2.060000e-06	6.819472e-07	3.477372e-10	5.115897e+00	2.252716e+01
2.070000e-06	7.139794e-07	4.057304e-10	5.356199e+00	2.645107e+01
2.080000e-06	7.459875e-07	4.609059e-10	5.596320e+00	3.035952e+01
2.090000e-06	7.779464e-07	5.146419e-10	5.836072e+00	3.424913e+01
2.100000e-06	8.099037e-07	5.683970e-10	6.075812e+00	3.811660e+01
2.110000e-06	8.418365e-07	6.232915e-10	6.315369e+00	4.195876e+01
2.120000e-06	8.737685e-07	6.766830e-10	6.554919e+00	4.577253e+01
2.130000e-06	9.056991e-07	7.299993e-10	6.794460e+00	4.955496e+01
2.140000e-06	9.375845e-07	7.853356e-10	7.033660e+00	5.330326e+01
2.150000e-06	9.694214e-07	8.401361e-10	7.272498e+00	5.701474e+01
2.160000e-06	1.001209e-06	8.930956e-10	7.510968e+00	6.068690e+01
2.170000e-06	1.032952e-06	9.456160e-10	7.749099e+00	6.431739e+01
2.180000e-06	1.064616e-06	9.981170e-10	7.986641e+00	6.790400e+01
2.190000e-06	1.096260e-06	1.049545e-09	8.224026e+00	7.144470e+01
2.200000e-06	1.127871e-06	1.099931e-09	8.461168e+00	7.493765e+01
2.210000e-06	1.159378e-06	1.149187e-09	8.697532e+00	7.838114e+01
2.220000e-06	1.190787e-06	1.197348e-09	8.933162e+00	8.177366e+01
2.230000e-06	1.222067e-06	1.245250e-09	9.167820e+00	8.511385e+01
2.240000e-06	1.253218e-06	1.293561e-09	9.401507e+00	8.840055e+01
2.250000e-06	1.284269e-06	1.341862e-09	9.634453e+00	9.163272e+01
2.260000e-06	1.315090e-06	1.388591e-09	9.865668e+00	9.480954e+01
2.270000e-06	1.345727e-06	1.432643e-09	1.009550e+01	9.793029e+01
2.280000e-06	1.376345e-06	1.475481e-09	1.032520e+01	1.009945e+02
2.290000e-06	1.406924e-06	1.519383e-09	1.055460e+01	1.040016e+02
2.300000e-06	1.437367e-06	1.562823e-09	1.078298e+01	1.069516e+02
2.310000e-06	1.467696e-06	1.603342e-09	1.101050e+01	1.098442e+02
2.320000e-06	1.497990e-06	1.643316e-09	1.123777e+01	1.126794e+02
2.330000e-06	1.528214e-06	1.684646e-09	1.146450e+01	1.154575e+02
2.340000e-06	1.558285e-06	1.725720e-09	1.169009e+01	1.181786e+02
2.350000e-06	1.588258e-06	1.764588e-09	1.191494e+01	1.208431e+02
2.360000e-06	1.618206e-06	1.801507e-09	1.213961e+01	1.234515e+02
2.370000e-06	1.648062e-06	1.839100e-09	1.236359e+01	1.260042e+02
2.380000e-06	1.677866e-06	1.878581e-09	1.258717e+01	1.285019e+02
2.390000e-06	1.707626e-06	1.917237e-09	1.281043e+01	1.309452e+02
2.400000e-06	1.737236e-06	1.951804e-09	1.303256e+01	1.333350e+02
2.410000e-06	1.766680e-06	1.983971e-09	1.325345e+01	1.356719e+02
2.420000e-06	1.796005e-06	2.018124e-09	1.347344e+01	1.379568e+02
2.430000e-06	1.825159e-06	2.053458e-09	1.369215e+01	1.401905e+02
2.440000e-06	1.854148e-06	2.085097e-09	1.390962e+01	1.423741e+02
2.450000e-06	1.882944e-06	2.114279e-09	1.412565e+01	1.445083e+02
2.460000e-06	1.911547e-06	2.145398e-09	1.434022e+01	1.465942e+02
2.470000e-06	1.940061e-06	2.177531e-09	1.455414e+01	1.486326e+02
2.480000e-06	1.968523e-06	2.208568e-09	1.476765e+01	1.506246e+02
2.490000e-06	1.996873e-06	2.237040e-09	1.498033e+01	1.525710e+02
2.500000e-06	2.025059e-06	2.263566e-09	1.519178e+01	1.544729e+02
2.510000e-06	2.053144e-06	2.291919e-09	1.540247e+01	1.563312e+02
2.520000e-06	2.081175e-06	2.321011e-09	1.561276e+01	1.581467e+02
2.530000e-06	2.109158e-06	2.345876e-09	1.582268e+01	1.599206e+02
2.540000e-06	2.137116e-06	2.371392e-09	1.603242e+01	1.616535e+02
2.550000e-06	2.165017e-06	2.398910e-09	1.624173e+01	1.633466e+02
2.560000e-06	2.192796e-06	2.425126e-09	1.645012e+01	1.650005e+02
2.570000e-06	2.220498e-06	2.448831e-09	1.665794e+01	1.666162e+02
2.580000e-06	2.248095e-06	2.473503e-09	1.686498e+01	1.681946e+02
2.590000e-06	2.275434e-06	2.499335e-09	1.707007e+01	1.697364e+02
2.600000e-06	2.302501e-06	2.521879e-09	1.727312e+01	1.712424e+02
2.610000e-06	2.329318e-06	2.543047e-09	1.747430e+01	1.727135e+02
2.620000e-06	2.355879e-06	2.564699e-09	1.767356e+01	1.741504e+02
2.630000e-06	2.382099e-06	2.587238e-09	1.787026e+01	1.755539e+02
2.640000e-06	2.407955e-06	2.609502e-09	1.806422e+01	1.769247e+02
2.650000e-06	2.433496e-06	2.630880e-09	1.825583e+01	1.782635e+02
2.660000e-06	2.458755e-06	2.652251e-09	1.844532e+01	1.795712e+02
2.670000e-06	2.483747e-06	2.673197e-09	1.863281e+01	1.808484e+02
2.680000e-06	2.508522e-06	2.693003e-09	1.881867e+01	1.820958e+02
2.690000e-06	2.533057e-06	2.711453e-09	1.900273e+01	1.833141e+02
2.700000e-06	2.557430e-06	2.729014e-09	1.918557e+01	1.845040e+02
2.710000e-06	2.581717e-06	2.747807e-09	1.936777e+01	1.856663e+02
2.720000e-06	2.605841e-06	2.766199e-09	1.954874e+01	1.868016e+02
2.730000e-06	2.629855e-06	2.783468e-09	1.972890e+01	1.879106e+02
2.740000e-06	2.653742e-06	2.801116e-09	1.990810e+01	1.889940e+02
2.750000e-06	2.677522e-06	2.819616e-09	2.008649e+01	1.900525e+02
2.760000e-06	2.701167e-06	2.837872e-09	2.026387e+01	1.910868e+02
2.770000e-06	2.724549e-06	2.854288e-09	2.043928e+01	1.920976e+02
2.780000e-06	2.747680e-06	2.866764e-09	2.061281e+01	1.930855e+02
2.790000e-06	2.770644e-06	2.881192e-09	2.078508e+01	1.940513e+02
2.800000e-06	2.793363e-06	2.898327e-09	2.095552e+01	1.949955e+02
2.810000e-06	2.815858e-06	2.913842e-09	2.112427e+01	1.959190e+02
2.820000e-06	2.838194e-06	2.928319e-09	2.129183e+01	1.968224e+02
2.830000e-06	2.860392e-06	2.944701e-09	2.145836e+01	1.977063e+02
2.840000e-06	2.882476e-06	2.961038e-09	2.162404e+01	1.985714e+02
2.850000e-06	2.904435e-06	2.975698e-09	2.178877e+01	1.994184e+02
2.860000e-06	2.926188e-06	2.989950e-09	2.195196e+01	2.002478e+02
2.870000e-06	2.947694e-06	3.004232e-09	2.211329e+01	2.010603e+02
2.880000e-06	2.968976e-06	3.017579e-09	2.227294e+01	2.018565e+02
2.890000e-06	2.990009e-06	3.028713e-09	2.243073e+01	2.026369e+02
2.900000e-06	3.010834e-06	3.039844e-09	2.258696e+01	2.034022e+02
