# Temperatura_=_20.0
# Concentracion g/m^3_=_9000.0
# C_Vs_to_Am_M_A/Vsm_=_65563218390.804596
# pendiente_HvsI_1/m_=_3716.3
# ordenada_HvsI_A/m_=_1297.0
# frecuencia_Hz_=_134998.5380855546

Tiempo_(s)	Campo_(V.s)	Magnetizacion_(V.s)	Campo_(kA/m)	Magnetizacion_(A/m)
0.000000e+00	-3.894570e-06	-3.515877e-09	-2.913880e+01	-2.299664e+02
1.000000e-08	-3.894701e-06	-3.514625e-09	-2.913978e+01	-2.299742e+02
2.000000e-08	-3.894653e-06	-3.513132e-09	-2.913942e+01	-2.299729e+02
3.000000e-08	-3.894460e-06	-3.513278e-09	-2.913797e+01	-2.299624e+02
4.000000e-08	-3.893991e-06	-3.518382e-09	-2.913446e+01	-2.299426e+02
5.000000e-08	-3.893129e-06	-3.535712e-09	-2.912802e+01	-2.299135e+02
6.000000e-08	-3.891850e-06	-3.534195e-09	-2.911844e+01	-2.298749e+02
7.000000e-08	-3.890107e-06	-3.516128e-09	-2.910541e+01	-2.298269e+02
8.000000e-08	-3.887857e-06	-3.464167e-09	-2.908857e+01	-2.297695e+02
9.000000e-08	-3.885083e-06	-3.498935e-09	-2.906782e+01	-2.297025e+02
1.000000e-07	-3.881841e-06	-3.522231e-09	-2.904356e+01	-2.296262e+02
1.100000e-07	-3.878297e-06	-3.513863e-09	-2.901704e+01	-2.295406e+02
1.200000e-07	-3.874598e-06	-3.513485e-09	-2.898936e+01	-2.294457e+02
1.300000e-07	-3.870797e-06	-3.501570e-09	-2.896093e+01	-2.293416e+02
1.400000e-07	-3.866919e-06	-3.443869e-09	-2.893191e+01	-2.292286e+02
1.500000e-07	-3.862860e-06	-3.450982e-09	-2.890154e+01	-2.291068e+02
1.600000e-07	-3.858583e-06	-3.520277e-09	-2.886955e+01	-2.289763e+02
1.700000e-07	-3.854033e-06	-3.511650e-09	-2.883550e+01	-2.288374e+02
1.800000e-07	-3.849168e-06	-3.500756e-09	-2.879910e+01	-2.286902e+02
1.900000e-07	-3.844053e-06	-3.460173e-09	-2.876083e+01	-2.285351e+02
2.000000e-07	-3.838686e-06	-3.473628e-09	-2.872068e+01	-2.283722e+02
2.100000e-07	-3.833045e-06	-3.480824e-09	-2.867847e+01	-2.282018e+02
2.200000e-07	-3.827111e-06	-3.525462e-09	-2.863407e+01	-2.280242e+02
2.300000e-07	-3.820916e-06	-3.491661e-09	-2.858773e+01	-2.278397e+02
2.400000e-07	-3.814457e-06	-3.432987e-09	-2.853940e+01	-2.276484e+02
2.500000e-07	-3.807692e-06	-3.422653e-09	-2.848878e+01	-2.274508e+02
2.600000e-07	-3.800747e-06	-3.527152e-09	-2.843682e+01	-2.272471e+02
2.700000e-07	-3.793572e-06	-3.512984e-09	-2.838314e+01	-2.270375e+02
2.800000e-07	-3.786036e-06	-3.403896e-09	-2.832676e+01	-2.268222e+02
2.900000e-07	-3.778306e-06	-3.389874e-09	-2.826892e+01	-2.266016e+02
3.000000e-07	-3.770430e-06	-3.499853e-09	-2.820999e+01	-2.263759e+02
3.100000e-07	-3.762359e-06	-3.506038e-09	-2.814961e+01	-2.261452e+02
3.200000e-07	-3.754057e-06	-3.409484e-09	-2.808749e+01	-2.259098e+02
3.300000e-07	-3.745536e-06	-3.392389e-09	-2.802374e+01	-2.256698e+02
3.400000e-07	-3.736657e-06	-3.448845e-09	-2.795731e+01	-2.254254e+02
3.500000e-07	-3.727498e-06	-3.479745e-09	-2.788878e+01	-2.251766e+02
3.600000e-07	-3.718031e-06	-3.426152e-09	-2.781794e+01	-2.249237e+02
3.700000e-07	-3.707994e-06	-3.405789e-09	-2.774285e+01	-2.246667e+02
3.800000e-07	-3.697436e-06	-3.409619e-09	-2.766386e+01	-2.244056e+02
3.900000e-07	-3.686380e-06	-3.442000e-09	-2.758114e+01	-2.241405e+02
4.000000e-07	-3.674977e-06	-3.426383e-09	-2.749582e+01	-2.238712e+02
4.100000e-07	-3.663407e-06	-3.411918e-09	-2.740926e+01	-2.235979e+02
4.200000e-07	-3.651600e-06	-3.373251e-09	-2.732091e+01	-2.233205e+02
4.300000e-07	-3.639562e-06	-3.386081e-09	-2.723085e+01	-2.230388e+02
4.400000e-07	-3.627266e-06	-3.413447e-09	-2.713885e+01	-2.227528e+02
4.500000e-07	-3.614635e-06	-3.418853e-09	-2.704435e+01	-2.224623e+02
4.600000e-07	-3.601811e-06	-3.353841e-09	-2.694840e+01	-2.221672e+02
4.700000e-07	-3.588694e-06	-3.352241e-09	-2.685026e+01	-2.218674e+02
4.800000e-07	-3.575256e-06	-3.404645e-09	-2.674972e+01	-2.215626e+02
4.900000e-07	-3.561516e-06	-3.409017e-09	-2.664692e+01	-2.212527e+02
5.000000e-07	-3.547521e-06	-3.336232e-09	-2.654221e+01	-2.209375e+02
5.100000e-07	-3.533368e-06	-3.330070e-09	-2.643631e+01	-2.206168e+02
5.200000e-07	-3.518797e-06	-3.377096e-09	-2.632730e+01	-2.202903e+02
5.300000e-07	-3.503793e-06	-3.369614e-09	-2.621504e+01	-2.199579e+02
5.400000e-07	-3.488484e-06	-3.317758e-09	-2.610050e+01	-2.196193e+02
5.500000e-07	-3.472864e-06	-3.319178e-09	-2.598363e+01	-2.192744e+02
5.600000e-07	-3.456952e-06	-3.342659e-09	-2.586458e+01	-2.189229e+02
5.700000e-07	-3.440678e-06	-3.325571e-09	-2.574282e+01	-2.185647e+02
5.800000e-07	-3.423988e-06	-3.306574e-09	-2.561794e+01	-2.181996e+02
5.900000e-07	-3.407046e-06	-3.308305e-09	-2.549119e+01	-2.178274e+02
6.000000e-07	-3.389979e-06	-3.307798e-09	-2.536350e+01	-2.174480e+02
6.100000e-07	-3.372764e-06	-3.297600e-09	-2.523469e+01	-2.170612e+02
6.200000e-07	-3.355357e-06	-3.302305e-09	-2.510445e+01	-2.166671e+02
6.300000e-07	-3.337703e-06	-3.289043e-09	-2.497237e+01	-2.162653e+02
6.400000e-07	-3.319881e-06	-3.272813e-09	-2.483903e+01	-2.158560e+02
6.500000e-07	-3.301918e-06	-3.275017e-09	-2.470463e+01	-2.154391e+02
6.600000e-07	-3.283669e-06	-3.287790e-09	-2.456809e+01	-2.150144e+02
6.700000e-07	-3.265066e-06	-3.262600e-09	-2.442891e+01	-2.145821e+02
6.800000e-07	-3.246082e-06	-3.244825e-09	-2.428687e+01	-2.141422e+02
6.900000e-07	-3.226841e-06	-3.255094e-09	-2.414291e+01	-2.136946e+02
7.000000e-07	-3.207430e-06	-3.264828e-09	-2.399768e+01	-2.132395e+02
7.100000e-07	-3.187851e-06	-3.235071e-09	-2.385119e+01	-2.127769e+02
7.200000e-07	-3.168125e-06	-3.216931e-09	-2.370360e+01	-2.123069e+02
7.300000e-07	-3.148262e-06	-3.219821e-09	-2.355499e+01	-2.118296e+02
7.400000e-07	-3.128266e-06	-3.221695e-09	-2.340538e+01	-2.113452e+02
7.500000e-07	-3.108190e-06	-3.202821e-09	-2.325518e+01	-2.108536e+02
7.600000e-07	-3.088082e-06	-3.189854e-09	-2.310473e+01	-2.103551e+02
7.700000e-07	-3.067775e-06	-3.181514e-09	-2.295279e+01	-2.098498e+02
7.800000e-07	-3.047238e-06	-3.178639e-09	-2.279914e+01	-2.093378e+02
7.900000e-07	-3.026479e-06	-3.172608e-09	-2.264382e+01	-2.088193e+02
8.000000e-07	-3.005489e-06	-3.161450e-09	-2.248678e+01	-2.082942e+02
8.100000e-07	-2.984276e-06	-3.143501e-09	-2.232806e+01	-2.077628e+02
8.200000e-07	-2.962861e-06	-3.134152e-09	-2.216784e+01	-2.072250e+02
8.300000e-07	-2.941191e-06	-3.132833e-09	-2.200570e+01	-2.066811e+02
8.400000e-07	-2.919230e-06	-3.121592e-09	-2.184139e+01	-2.061309e+02
8.500000e-07	-2.897179e-06	-3.100509e-09	-2.167642e+01	-2.055746e+02
8.600000e-07	-2.875019e-06	-3.089704e-09	-2.151061e+01	-2.050121e+02
8.700000e-07	-2.852716e-06	-3.091569e-09	-2.134374e+01	-2.044435e+02
8.800000e-07	-2.830193e-06	-3.083210e-09	-2.117523e+01	-2.038685e+02
8.900000e-07	-2.807339e-06	-3.064649e-09	-2.100424e+01	-2.032872e+02
9.000000e-07	-2.784348e-06	-3.050174e-09	-2.083222e+01	-2.026994e+02
9.100000e-07	-2.761104e-06	-3.049238e-09	-2.065831e+01	-2.021050e+02
9.200000e-07	-2.737573e-06	-3.042171e-09	-2.048226e+01	-2.015038e+02
9.300000e-07	-2.713990e-06	-3.028456e-09	-2.030581e+01	-2.008955e+02
9.400000e-07	-2.690241e-06	-3.013279e-09	-2.012812e+01	-2.002798e+02
9.500000e-07	-2.666342e-06	-3.007784e-09	-1.994931e+01	-1.996566e+02
9.600000e-07	-2.642400e-06	-2.999837e-09	-1.977018e+01	-1.990254e+02
9.700000e-07	-2.618347e-06	-2.991025e-09	-1.959022e+01	-1.983858e+02
9.800000e-07	-2.594138e-06	-2.979613e-09	-1.940909e+01	-1.977377e+02
9.900000e-07	-2.569788e-06	-2.968851e-09	-1.922690e+01	-1.970804e+02
1.000000e-06	-2.545286e-06	-2.955874e-09	-1.904359e+01	-1.964136e+02
1.010000e-06	-2.520561e-06	-2.946398e-09	-1.885859e+01	-1.957368e+02
1.020000e-06	-2.495552e-06	-2.932654e-09	-1.867148e+01	-1.950495e+02
1.030000e-06	-2.470207e-06	-2.917446e-09	-1.848185e+01	-1.943513e+02
1.040000e-06	-2.444614e-06	-2.905114e-09	-1.829037e+01	-1.936417e+02
1.050000e-06	-2.418871e-06	-2.896630e-09	-1.809776e+01	-1.929201e+02
1.060000e-06	-2.392797e-06	-2.882738e-09	-1.790268e+01	-1.921861e+02
1.070000e-06	-2.366314e-06	-2.865728e-09	-1.770453e+01	-1.914391e+02
1.080000e-06	-2.339489e-06	-2.852387e-09	-1.750383e+01	-1.906786e+02
1.090000e-06	-2.312431e-06	-2.840978e-09	-1.730139e+01	-1.899042e+02
1.100000e-06	-2.285179e-06	-2.826977e-09	-1.709749e+01	-1.891154e+02
1.110000e-06	-2.257661e-06	-2.813986e-09	-1.689160e+01	-1.883117e+02
1.120000e-06	-2.230066e-06	-2.804333e-09	-1.668513e+01	-1.874926e+02
1.130000e-06	-2.202434e-06	-2.791834e-09	-1.647840e+01	-1.866578e+02
1.140000e-06	-2.174648e-06	-2.780115e-09	-1.627050e+01	-1.858067e+02
1.150000e-06	-2.146763e-06	-2.765997e-09	-1.606187e+01	-1.849391e+02
1.160000e-06	-2.118794e-06	-2.749897e-09	-1.585261e+01	-1.840546e+02
1.170000e-06	-2.090790e-06	-2.734628e-09	-1.564309e+01	-1.831529e+02
1.180000e-06	-2.062772e-06	-2.719855e-09	-1.543346e+01	-1.822337e+02
1.190000e-06	-2.034587e-06	-2.704249e-09	-1.522258e+01	-1.812966e+02
1.200000e-06	-2.006256e-06	-2.690964e-09	-1.501062e+01	-1.803416e+02
1.210000e-06	-1.977852e-06	-2.677829e-09	-1.479810e+01	-1.793683e+02
1.220000e-06	-1.949161e-06	-2.664640e-09	-1.458343e+01	-1.783766e+02
1.230000e-06	-1.920316e-06	-2.649829e-09	-1.436762e+01	-1.773664e+02
1.240000e-06	-1.891470e-06	-2.634348e-09	-1.415180e+01	-1.763374e+02
1.250000e-06	-1.862531e-06	-2.616232e-09	-1.393527e+01	-1.752897e+02
1.260000e-06	-1.833428e-06	-2.599991e-09	-1.371753e+01	-1.742230e+02
1.270000e-06	-1.804087e-06	-2.579424e-09	-1.349801e+01	-1.731373e+02
1.280000e-06	-1.774595e-06	-2.560738e-09	-1.327735e+01	-1.720326e+02
1.290000e-06	-1.744951e-06	-2.545985e-09	-1.305555e+01	-1.709087e+02
1.300000e-06	-1.715188e-06	-2.533468e-09	-1.283287e+01	-1.697655e+02
1.310000e-06	-1.685379e-06	-2.516033e-09	-1.260984e+01	-1.686030e+02
1.320000e-06	-1.655466e-06	-2.494843e-09	-1.238603e+01	-1.674211e+02
1.330000e-06	-1.625503e-06	-2.477550e-09	-1.216186e+01	-1.662196e+02
1.340000e-06	-1.595496e-06	-2.462342e-09	-1.193735e+01	-1.649983e+02
1.350000e-06	-1.565355e-06	-2.445678e-09	-1.171183e+01	-1.637572e+02
1.360000e-06	-1.535126e-06	-2.427326e-09	-1.148566e+01	-1.624959e+02
1.370000e-06	-1.504831e-06	-2.405099e-09	-1.125900e+01	-1.612142e+02
1.380000e-06	-1.474401e-06	-2.381424e-09	-1.103133e+01	-1.599117e+02
1.390000e-06	-1.443823e-06	-2.360988e-09	-1.080255e+01	-1.585881e+02
1.400000e-06	-1.413234e-06	-2.338023e-09	-1.057368e+01	-1.572429e+02
1.410000e-06	-1.382557e-06	-2.316067e-09	-1.034415e+01	-1.558756e+02
1.420000e-06	-1.351715e-06	-2.297336e-09	-1.011340e+01	-1.544857e+02
1.430000e-06	-1.320802e-06	-2.278970e-09	-9.882112e+00	-1.530724e+02
1.440000e-06	-1.289764e-06	-2.254965e-09	-9.649891e+00	-1.516350e+02
1.450000e-06	-1.258697e-06	-2.229743e-09	-9.417451e+00	-1.501728e+02
1.460000e-06	-1.227473e-06	-2.206670e-09	-9.183831e+00	-1.486848e+02
1.470000e-06	-1.196007e-06	-2.181538e-09	-8.948411e+00	-1.471701e+02
1.480000e-06	-1.164525e-06	-2.153766e-09	-8.712862e+00	-1.456275e+02
1.490000e-06	-1.133093e-06	-2.125399e-09	-8.477693e+00	-1.440560e+02
1.500000e-06	-1.101560e-06	-2.096834e-09	-8.241762e+00	-1.424544e+02
1.510000e-06	-1.069860e-06	-2.068369e-09	-8.004591e+00	-1.408213e+02
1.520000e-06	-1.038159e-06	-2.038440e-09	-7.767408e+00	-1.391553e+02
1.530000e-06	-1.006401e-06	-2.012809e-09	-7.529796e+00	-1.374551e+02
1.540000e-06	-9.745788e-07	-1.988200e-09	-7.291704e+00	-1.357192e+02
1.550000e-06	-9.427149e-07	-1.960459e-09	-7.053302e+00	-1.339460e+02
1.560000e-06	-9.108009e-07	-1.927056e-09	-6.814524e+00	-1.321339e+02
1.570000e-06	-8.788655e-07	-1.895371e-09	-6.575587e+00	-1.302812e+02
1.580000e-06	-8.469287e-07	-1.865225e-09	-6.336639e+00	-1.283864e+02
1.590000e-06	-8.149819e-07	-1.835088e-09	-6.097615e+00	-1.264478e+02
1.600000e-06	-7.830072e-07	-1.803953e-09	-5.858384e+00	-1.244636e+02
1.610000e-06	-7.510130e-07	-1.773487e-09	-5.619007e+00	-1.224322e+02
1.620000e-06	-7.190092e-07	-1.743616e-09	-5.379557e+00	-1.203519e+02
1.630000e-06	-6.869546e-07	-1.709454e-09	-5.139728e+00	-1.182211e+02
1.640000e-06	-6.547622e-07	-1.672305e-09	-4.898867e+00	-1.160381e+02
1.650000e-06	-6.225588e-07	-1.635606e-09	-4.657925e+00	-1.138015e+02
1.660000e-06	-5.904268e-07	-1.600538e-09	-4.417516e+00	-1.115098e+02
1.670000e-06	-5.582372e-07	-1.564242e-09	-4.176676e+00	-1.091614e+02
1.680000e-06	-5.259932e-07	-1.528462e-09	-3.935430e+00	-1.067553e+02
1.690000e-06	-4.938179e-07	-1.490867e-09	-3.694697e+00	-1.042900e+02
1.700000e-06	-4.615877e-07	-1.454088e-09	-3.453554e+00	-1.017646e+02
1.710000e-06	-4.292664e-07	-1.418111e-09	-3.211730e+00	-9.917812e+01
1.720000e-06	-3.969879e-07	-1.381228e-09	-2.970225e+00	-9.652969e+01
1.730000e-06	-3.647309e-07	-1.340312e-09	-2.728881e+00	-9.381866e+01
1.740000e-06	-3.324722e-07	-1.299137e-09	-2.487525e+00	-9.104454e+01
1.750000e-06	-3.001622e-07	-1.260605e-09	-2.245785e+00	-8.820700e+01
1.760000e-06	-2.677277e-07	-1.221734e-09	-2.003112e+00	-8.530587e+01
1.770000e-06	-2.352569e-07	-1.178879e-09	-1.760170e+00	-8.234121e+01
1.780000e-06	-2.028709e-07	-1.135024e-09	-1.517860e+00	-7.931325e+01
1.790000e-06	-1.704316e-07	-1.092772e-09	-1.275153e+00	-7.622240e+01
1.800000e-06	-1.379913e-07	-1.047985e-09	-1.032438e+00	-7.306932e+01
1.810000e-06	-1.055449e-07	-1.002424e-09	-7.896767e-01	-6.985484e+01
1.820000e-06	-7.302523e-08	-9.562577e-10	-5.463677e-01	-6.658001e+01
1.830000e-06	-4.055905e-08	-9.077245e-10	-3.034588e-01	-6.324610e+01
1.840000e-06	-8.127388e-09	-8.569519e-10	-6.080833e-02	-5.985456e+01
1.850000e-06	2.426351e-08	-8.040373e-10	1.815372e-01	-5.640709e+01
1.860000e-06	5.669037e-08	-7.503351e-10	4.241518e-01	-5.290554e+01
1.870000e-06	8.917813e-08	-6.977985e-10	6.672221e-01	-4.935199e+01
1.880000e-06	1.216658e-07	-6.480436e-10	9.102914e-01	-4.574872e+01
1.890000e-06	1.541169e-07	-5.976785e-10	1.153088e+00	-4.209817e+01
1.900000e-06	1.865419e-07	-5.441516e-10	1.395689e+00	-3.840296e+01
1.910000e-06	2.190782e-07	-4.906661e-10	1.639122e+00	-3.466588e+01
1.920000e-06	2.515555e-07	-4.380339e-10	1.882114e+00	-3.088988e+01
1.930000e-06	2.838585e-07	-3.831839e-10	2.123802e+00	-2.707806e+01
1.940000e-06	3.161512e-07	-3.270707e-10	2.365413e+00	-2.323362e+01
1.950000e-06	3.484486e-07	-2.695438e-10	2.607059e+00	-1.935992e+01
1.960000e-06	3.807146e-07	-2.107775e-10	2.848470e+00	-1.546038e+01
1.970000e-06	4.129108e-07	-1.537269e-10	3.089358e+00	-1.153855e+01
1.980000e-06	4.450985e-07	-9.914091e-11	3.330184e+00	-7.598020e+00
1.990000e-06	4.772731e-07	-4.257580e-11	3.570911e+00	-3.642459e+00
2.000000e-06	5.093890e-07	1.543500e-11	3.811199e+00	3.244284e-01
2.010000e-06	5.415554e-07	7.074591e-11	4.051865e+00	4.298911e+00
2.020000e-06	5.737549e-07	1.266376e-10	4.292779e+00	8.277248e+00
2.030000e-06	6.058600e-07	1.842809e-10	4.532986e+00	1.225570e+01
2.040000e-06	6.379403e-07	2.450416e-10	4.773007e+00	1.623056e+01
2.050000e-06	6.700297e-07	3.077838e-10	5.013097e+00	2.019814e+01
2.060000e-06	7.021091e-07	3.669438e-10	5.253112e+00	2.415482e+01
2.070000e-06	7.341794e-07	4.226048e-10	5.493059e+00	2.809703e+01
2.080000e-06	7.661789e-07	4.773513e-10	5.732476e+00	3.202130e+01
2.090000e-06	7.981724e-07	5.324624e-10	5.971849e+00	3.592423e+01
2.100000e-06	8.301825e-07	5.862090e-10	6.211345e+00	3.980255e+01
2.110000e-06	8.621171e-07	6.398097e-10	6.450276e+00	4.365309e+01
2.120000e-06	8.939945e-07	6.929315e-10	6.688780e+00	4.747280e+01
2.130000e-06	9.258872e-07	7.468287e-10	6.927398e+00	5.125879e+01
2.140000e-06	9.577547e-07	8.037501e-10	7.165828e+00	5.500831e+01
2.150000e-06	9.895632e-07	8.630575e-10	7.403816e+00	5.871874e+01
2.160000e-06	1.021346e-06	9.198653e-10	7.641615e+00	6.238766e+01
2.170000e-06	1.053134e-06	9.738309e-10	7.879450e+00	6.601276e+01
2.180000e-06	1.084852e-06	1.027200e-09	8.116759e+00	6.959195e+01
2.190000e-06	1.116501e-06	1.079145e-09	8.353554e+00	7.312330e+01
2.200000e-06	1.148133e-06	1.129164e-09	8.590221e+00	7.660502e+01
2.210000e-06	1.179610e-06	1.179878e-09	8.825731e+00	8.003553e+01
2.220000e-06	1.210945e-06	1.229878e-09	9.060175e+00	8.341342e+01
2.230000e-06	1.242269e-06	1.274792e-09	9.294540e+00	8.673744e+01
2.240000e-06	1.273513e-06	1.320985e-09	9.528304e+00	9.000651e+01
2.250000e-06	1.304546e-06	1.370005e-09	9.760489e+00	9.321972e+01
2.260000e-06	1.335464e-06	1.413927e-09	9.991812e+00	9.637634e+01
2.270000e-06	1.366303e-06	1.456230e-09	1.022255e+01	9.947577e+01
2.280000e-06	1.396991e-06	1.502402e-09	1.045215e+01	1.025176e+02
2.290000e-06	1.427588e-06	1.549951e-09	1.068108e+01	1.055015e+02
2.300000e-06	1.458143e-06	1.594718e-09	1.090968e+01	1.084273e+02
2.310000e-06	1.488517e-06	1.634673e-09	1.113694e+01	1.112950e+02
2.320000e-06	1.518697e-06	1.674494e-09	1.136275e+01	1.141048e+02
2.330000e-06	1.548843e-06	1.715015e-09	1.158829e+01	1.168568e+02
2.340000e-06	1.578926e-06	1.755445e-09	1.181337e+01	1.195513e+02
2.350000e-06	1.608928e-06	1.794877e-09	1.203784e+01	1.221889e+02
2.360000e-06	1.638920e-06	1.835117e-09	1.226224e+01	1.247699e+02
2.370000e-06	1.668884e-06	1.875122e-09	1.248643e+01	1.272949e+02
2.380000e-06	1.698710e-06	1.913010e-09	1.270959e+01	1.297648e+02
2.390000e-06	1.728390e-06	1.949549e-09	1.293164e+01	1.321800e+02
2.400000e-06	1.757985e-06	1.982522e-09	1.315308e+01	1.345416e+02
2.410000e-06	1.787460e-06	2.013907e-09	1.337360e+01	1.368501e+02
2.420000e-06	1.816739e-06	2.047373e-09	1.359266e+01	1.391066e+02
2.430000e-06	1.845788e-06	2.082504e-09	1.381001e+01	1.413120e+02
2.440000e-06	1.874671e-06	2.113640e-09	1.402611e+01	1.434670e+02
2.450000e-06	1.903447e-06	2.143682e-09	1.424141e+01	1.455728e+02
2.460000e-06	1.932105e-06	2.174327e-09	1.445582e+01	1.476301e+02
2.470000e-06	1.960670e-06	2.204068e-09	1.466954e+01	1.496401e+02
2.480000e-06	1.989120e-06	2.234447e-09	1.488240e+01	1.516036e+02
2.490000e-06	2.017373e-06	2.263346e-09	1.509379e+01	1.535216e+02
2.500000e-06	2.045506e-06	2.288341e-09	1.530427e+01	1.553950e+02
2.510000e-06	2.073646e-06	2.316984e-09	1.551482e+01	1.572249e+02
2.520000e-06	2.101706e-06	2.346723e-09	1.572476e+01	1.590121e+02
2.530000e-06	2.129649e-06	2.372865e-09	1.593383e+01	1.607574e+02
2.540000e-06	2.157558e-06	2.394504e-09	1.614264e+01	1.624620e+02
2.550000e-06	2.185465e-06	2.416854e-09	1.635144e+01	1.641265e+02
2.560000e-06	2.213265e-06	2.440637e-09	1.655944e+01	1.657519e+02
2.570000e-06	2.240922e-06	2.464832e-09	1.676636e+01	1.673391e+02
2.580000e-06	2.268418e-06	2.491715e-09	1.697209e+01	1.688888e+02
2.590000e-06	2.295730e-06	2.514679e-09	1.717643e+01	1.704018e+02
2.600000e-06	2.322897e-06	2.536823e-09	1.737969e+01	1.718790e+02
2.610000e-06	2.349894e-06	2.560424e-09	1.758168e+01	1.733212e+02
2.620000e-06	2.376622e-06	2.583458e-09	1.778166e+01	1.747291e+02
2.630000e-06	2.403068e-06	2.601585e-09	1.797952e+01	1.761034e+02
2.640000e-06	2.429016e-06	2.619198e-09	1.817366e+01	1.774449e+02
2.650000e-06	2.454475e-06	2.640373e-09	1.836414e+01	1.787543e+02
2.660000e-06	2.479739e-06	2.662980e-09	1.855316e+01	1.800324e+02
2.670000e-06	2.504737e-06	2.680874e-09	1.874020e+01	1.812798e+02
2.680000e-06	2.529435e-06	2.699906e-09	1.892498e+01	1.824973e+02
2.690000e-06	2.553903e-06	2.720328e-09	1.910805e+01	1.836856e+02
2.700000e-06	2.578270e-06	2.740278e-09	1.929037e+01	1.848454e+02
2.710000e-06	2.602482e-06	2.757704e-09	1.947152e+01	1.859773e+02
2.720000e-06	2.626506e-06	2.773402e-09	1.965127e+01	1.870821e+02
2.730000e-06	2.650492e-06	2.789191e-09	1.983072e+01	1.881605e+02
2.740000e-06	2.674419e-06	2.804537e-09	2.000975e+01	1.892131e+02
2.750000e-06	2.698179e-06	2.816540e-09	2.018752e+01	1.902407e+02
2.760000e-06	2.721788e-06	2.830817e-09	2.036415e+01	1.912440e+02
2.770000e-06	2.745280e-06	2.847608e-09	2.053992e+01	1.922236e+02
2.780000e-06	2.768589e-06	2.862798e-09	2.071432e+01	1.931803e+02
2.790000e-06	2.791617e-06	2.876652e-09	2.088661e+01	1.941148e+02
2.800000e-06	2.814324e-06	2.891681e-09	2.105650e+01	1.950277e+02
2.810000e-06	2.836775e-06	2.909918e-09	2.122447e+01	1.959197e+02
2.820000e-06	2.859028e-06	2.928881e-09	2.139097e+01	1.967916e+02
2.830000e-06	2.881147e-06	2.944079e-09	2.155646e+01	1.976439e+02
2.840000e-06	2.903103e-06	2.956908e-09	2.172074e+01	1.984775e+02
2.850000e-06	2.924944e-06	2.972068e-09	2.188415e+01	1.992929e+02
2.860000e-06	2.946694e-06	2.985969e-09	2.204688e+01	2.000907e+02
2.870000e-06	2.968235e-06	2.999192e-09	2.220804e+01	2.008717e+02
2.880000e-06	2.989577e-06	3.009537e-09	2.236773e+01	2.016364e+02
2.890000e-06	3.010668e-06	3.023524e-09	2.252553e+01	2.023855e+02
2.900000e-06	3.031416e-06	3.037571e-09	2.268076e+01	2.031194e+02
