# Temperatura_=_20.0
# Concentracion g/m^3_=_9000.0
# C_Vs_to_Am_M_A/Vsm_=_65563218390.804596
# pendiente_HvsI_1/m_=_3716.3
# ordenada_HvsI_A/m_=_1297.0
# frecuencia_Hz_=_135004.6480763667

Tiempo_(s)	Campo_(V.s)	Magnetizacion_(V.s)	Campo_(kA/m)	Magnetizacion_(A/m)
0.000000e+00	-3.898134e-06	-5.509384e-11	-2.915833e+01	-3.208597e+00
1.000000e-08	-3.898255e-06	-5.745804e-11	-2.915923e+01	-3.211505e+00
2.000000e-08	-3.898237e-06	-5.737104e-11	-2.915910e+01	-3.213094e+00
3.000000e-08	-3.898068e-06	-5.439697e-11	-2.915783e+01	-3.213325e+00
4.000000e-08	-3.897740e-06	-4.836200e-11	-2.915538e+01	-3.212169e+00
5.000000e-08	-3.897088e-06	-3.492320e-11	-2.915051e+01	-3.209610e+00
6.000000e-08	-3.895897e-06	-2.668373e-11	-2.914159e+01	-3.205642e+00
7.000000e-08	-3.894200e-06	-3.607367e-11	-2.912890e+01	-3.200271e+00
8.000000e-08	-3.892048e-06	-8.640679e-11	-2.911281e+01	-3.193516e+00
9.000000e-08	-3.889394e-06	-9.502290e-11	-2.909295e+01	-3.185408e+00
1.000000e-07	-3.886187e-06	-6.686039e-11	-2.906896e+01	-3.175989e+00
1.100000e-07	-3.882597e-06	-8.465458e-11	-2.904211e+01	-3.165316e+00
1.200000e-07	-3.878882e-06	-3.996741e-11	-2.901432e+01	-3.153455e+00
1.300000e-07	-3.875037e-06	-3.531871e-12	-2.898556e+01	-3.140487e+00
1.400000e-07	-3.871053e-06	-6.983042e-11	-2.895576e+01	-3.126502e+00
1.500000e-07	-3.866903e-06	-5.624008e-11	-2.892472e+01	-3.111602e+00
1.600000e-07	-3.862541e-06	-2.550481e-12	-2.889209e+01	-3.095898e+00
1.700000e-07	-3.858033e-06	4.466935e-12	-2.885837e+01	-3.079513e+00
1.800000e-07	-3.853326e-06	-2.025209e-11	-2.882316e+01	-3.062576e+00
1.900000e-07	-3.848250e-06	-4.939072e-11	-2.878520e+01	-3.045226e+00
2.000000e-07	-3.842807e-06	-4.892273e-11	-2.874448e+01	-3.027605e+00
2.100000e-07	-3.837122e-06	-3.290018e-11	-2.870195e+01	-3.009865e+00
2.200000e-07	-3.831259e-06	-1.413412e-12	-2.865810e+01	-2.992158e+00
2.300000e-07	-3.825120e-06	-1.828343e-11	-2.861218e+01	-2.974643e+00
2.400000e-07	-3.818631e-06	-6.902805e-11	-2.856364e+01	-2.957477e+00
2.500000e-07	-3.811831e-06	-8.131509e-11	-2.851278e+01	-2.940819e+00
2.600000e-07	-3.804770e-06	1.419506e-11	-2.845996e+01	-2.924828e+00
2.700000e-07	-3.797479e-06	1.955020e-11	-2.840542e+01	-2.909658e+00
2.800000e-07	-3.789953e-06	-8.478124e-11	-2.834913e+01	-2.895460e+00
2.900000e-07	-3.782208e-06	-1.040837e-10	-2.829120e+01	-2.882381e+00
3.000000e-07	-3.774258e-06	5.031410e-12	-2.823173e+01	-2.870559e+00
3.100000e-07	-3.766170e-06	1.771942e-11	-2.817123e+01	-2.860125e+00
3.200000e-07	-3.757991e-06	-6.474177e-11	-2.811005e+01	-2.851201e+00
3.300000e-07	-3.749541e-06	-7.973850e-11	-2.804684e+01	-2.843898e+00
3.400000e-07	-3.740707e-06	-1.318861e-11	-2.798076e+01	-2.838316e+00
3.500000e-07	-3.731503e-06	1.517250e-11	-2.791191e+01	-2.834541e+00
3.600000e-07	-3.721885e-06	-2.837443e-11	-2.783997e+01	-2.832645e+00
3.700000e-07	-3.711664e-06	-5.247155e-11	-2.776352e+01	-2.832687e+00
3.800000e-07	-3.701052e-06	-3.371940e-11	-2.768414e+01	-2.834710e+00
3.900000e-07	-3.690183e-06	-9.348722e-12	-2.760284e+01	-2.838740e+00
4.000000e-07	-3.678861e-06	-2.543245e-11	-2.751815e+01	-2.844789e+00
4.100000e-07	-3.667265e-06	-3.952286e-11	-2.743141e+01	-2.852849e+00
4.200000e-07	-3.655414e-06	-5.679204e-11	-2.734276e+01	-2.862898e+00
4.300000e-07	-3.643308e-06	-4.842967e-11	-2.725221e+01	-2.874895e+00
4.400000e-07	-3.630949e-06	-2.218324e-11	-2.715976e+01	-2.888784e+00
4.500000e-07	-3.618349e-06	-1.387863e-11	-2.706551e+01	-2.904492e+00
4.600000e-07	-3.605564e-06	-6.200847e-11	-2.696988e+01	-2.921928e+00
4.700000e-07	-3.592468e-06	-6.517887e-11	-2.687192e+01	-2.940987e+00
4.800000e-07	-3.579057e-06	-1.128765e-11	-2.677160e+01	-2.961550e+00
4.900000e-07	-3.565333e-06	-2.400069e-13	-2.666895e+01	-2.983482e+00
5.000000e-07	-3.551310e-06	-6.502462e-11	-2.656406e+01	-3.006636e+00
5.100000e-07	-3.537078e-06	-6.980988e-11	-2.645760e+01	-3.030853e+00
5.200000e-07	-3.522593e-06	-1.573120e-11	-2.634926e+01	-3.055964e+00
5.300000e-07	-3.507635e-06	-1.640183e-11	-2.623737e+01	-3.081788e+00
5.400000e-07	-3.492294e-06	-6.602953e-11	-2.612261e+01	-3.108139e+00
5.500000e-07	-3.476573e-06	-5.869201e-11	-2.600502e+01	-3.134823e+00
5.600000e-07	-3.460478e-06	-2.521535e-11	-2.588463e+01	-3.161640e+00
5.700000e-07	-3.444159e-06	-3.382412e-11	-2.576256e+01	-3.188388e+00
5.800000e-07	-3.427531e-06	-5.343686e-11	-2.563818e+01	-3.214864e+00
5.900000e-07	-3.410602e-06	-4.601563e-11	-2.551155e+01	-3.240862e+00
6.000000e-07	-3.393491e-06	-4.020937e-11	-2.538356e+01	-3.266180e+00
6.100000e-07	-3.376255e-06	-4.225106e-11	-2.525463e+01	-3.290618e+00
6.200000e-07	-3.358878e-06	-3.281051e-11	-2.512466e+01	-3.313981e+00
6.300000e-07	-3.341323e-06	-3.776520e-11	-2.499334e+01	-3.336081e+00
6.400000e-07	-3.323554e-06	-5.242699e-11	-2.486043e+01	-3.356735e+00
6.500000e-07	-3.305640e-06	-4.179072e-11	-2.472643e+01	-3.375774e+00
6.600000e-07	-3.287442e-06	-2.014621e-11	-2.459031e+01	-3.393035e+00
6.700000e-07	-3.268910e-06	-3.445774e-11	-2.445169e+01	-3.408369e+00
6.800000e-07	-3.250076e-06	-4.856620e-11	-2.431081e+01	-3.421642e+00
6.900000e-07	-3.230867e-06	-3.247845e-11	-2.416712e+01	-3.432729e+00
7.000000e-07	-3.211396e-06	-1.562553e-11	-2.402147e+01	-3.441525e+00
7.100000e-07	-3.191783e-06	-3.265834e-11	-2.387477e+01	-3.447938e+00
7.200000e-07	-3.172014e-06	-4.525166e-11	-2.372689e+01	-3.451894e+00
7.300000e-07	-3.152135e-06	-3.794212e-11	-2.357820e+01	-3.453333e+00
7.400000e-07	-3.132207e-06	-3.113004e-11	-2.342914e+01	-3.452215e+00
7.500000e-07	-3.112184e-06	-4.094968e-11	-2.327936e+01	-3.448517e+00
7.600000e-07	-3.092037e-06	-4.673880e-11	-2.312867e+01	-3.442232e+00
7.700000e-07	-3.071725e-06	-4.411478e-11	-2.297673e+01	-3.433370e+00
7.800000e-07	-3.051205e-06	-3.670789e-11	-2.282324e+01	-3.421959e+00
7.900000e-07	-3.030440e-06	-3.413040e-11	-2.266791e+01	-3.408043e+00
8.000000e-07	-3.009415e-06	-3.733979e-11	-2.251064e+01	-3.391681e+00
8.100000e-07	-2.988100e-06	-4.502906e-11	-2.235120e+01	-3.372947e+00
8.200000e-07	-2.966535e-06	-4.614888e-11	-2.218990e+01	-3.351929e+00
8.300000e-07	-2.944916e-06	-4.110310e-11	-2.202818e+01	-3.328730e+00
8.400000e-07	-2.923130e-06	-4.240885e-11	-2.186523e+01	-3.303462e+00
8.500000e-07	-2.901103e-06	-4.867325e-11	-2.170046e+01	-3.276248e+00
8.600000e-07	-2.878983e-06	-4.610354e-11	-2.153501e+01	-3.247222e+00
8.700000e-07	-2.856631e-06	-3.793558e-11	-2.136781e+01	-3.216525e+00
8.800000e-07	-2.833969e-06	-3.634108e-11	-2.119830e+01	-3.184304e+00
8.900000e-07	-2.811057e-06	-4.288928e-11	-2.102691e+01	-3.150711e+00
9.000000e-07	-2.787914e-06	-4.303287e-11	-2.085380e+01	-3.115902e+00
9.100000e-07	-2.764600e-06	-3.383236e-11	-2.067941e+01	-3.080033e+00
9.200000e-07	-2.741155e-06	-3.159466e-11	-2.050404e+01	-3.043264e+00
9.300000e-07	-2.717549e-06	-3.447543e-11	-2.032747e+01	-3.005750e+00
9.400000e-07	-2.693742e-06	-3.759695e-11	-2.014938e+01	-2.967644e+00
9.500000e-07	-2.669812e-06	-3.440582e-11	-1.997039e+01	-2.929097e+00
9.600000e-07	-2.645804e-06	-3.200440e-11	-1.979081e+01	-2.890252e+00
9.700000e-07	-2.621644e-06	-3.127310e-11	-1.961009e+01	-2.851246e+00
9.800000e-07	-2.597427e-06	-3.009037e-11	-1.942895e+01	-2.812208e+00
9.900000e-07	-2.573102e-06	-2.848919e-11	-1.924699e+01	-2.773258e+00
1.000000e-06	-2.548618e-06	-2.796672e-11	-1.906385e+01	-2.734505e+00
1.010000e-06	-2.524050e-06	-2.622001e-11	-1.888008e+01	-2.696046e+00
1.020000e-06	-2.499147e-06	-2.595472e-11	-1.869380e+01	-2.657970e+00
1.030000e-06	-2.473841e-06	-2.700509e-11	-1.850451e+01	-2.620348e+00
1.040000e-06	-2.448268e-06	-2.873353e-11	-1.831323e+01	-2.583243e+00
1.050000e-06	-2.422463e-06	-2.932369e-11	-1.812020e+01	-2.546702e+00
1.060000e-06	-2.396320e-06	-3.097686e-11	-1.792465e+01	-2.510759e+00
1.070000e-06	-2.369634e-06	-3.370884e-11	-1.772504e+01	-2.475434e+00
1.080000e-06	-2.342548e-06	-3.631908e-11	-1.752243e+01	-2.440735e+00
1.090000e-06	-2.315375e-06	-3.676790e-11	-1.731917e+01	-2.406657e+00
1.100000e-06	-2.288113e-06	-3.617470e-11	-1.711525e+01	-2.373181e+00
1.110000e-06	-2.260641e-06	-3.448803e-11	-1.690976e+01	-2.340275e+00
1.120000e-06	-2.233011e-06	-3.362316e-11	-1.670309e+01	-2.307899e+00
1.130000e-06	-2.205332e-06	-3.680593e-11	-1.649605e+01	-2.276000e+00
1.140000e-06	-2.177522e-06	-3.682544e-11	-1.628802e+01	-2.244516e+00
1.150000e-06	-2.149564e-06	-3.255923e-11	-1.607890e+01	-2.213376e+00
1.160000e-06	-2.121550e-06	-3.048111e-11	-1.586935e+01	-2.182501e+00
1.170000e-06	-2.093541e-06	-3.112208e-11	-1.565984e+01	-2.151808e+00
1.180000e-06	-2.065399e-06	-3.094775e-11	-1.544934e+01	-2.121206e+00
1.190000e-06	-2.037136e-06	-2.906640e-11	-1.523793e+01	-2.090602e+00
1.200000e-06	-2.008843e-06	-2.661200e-11	-1.502629e+01	-2.059901e+00
1.210000e-06	-1.980361e-06	-2.600707e-11	-1.481325e+01	-2.029005e+00
1.220000e-06	-1.951823e-06	-2.611275e-11	-1.459978e+01	-1.997820e+00
1.230000e-06	-1.923252e-06	-2.529375e-11	-1.438606e+01	-1.966250e+00
1.240000e-06	-1.894431e-06	-2.480400e-11	-1.417048e+01	-1.934204e+00
1.250000e-06	-1.865384e-06	-2.507834e-11	-1.395321e+01	-1.901596e+00
1.260000e-06	-1.836160e-06	-2.372385e-11	-1.373461e+01	-1.868345e+00
1.270000e-06	-1.806832e-06	-2.255784e-11	-1.351523e+01	-1.834376e+00
1.280000e-06	-1.777440e-06	-2.112317e-11	-1.329538e+01	-1.799624e+00
1.290000e-06	-1.747921e-06	-2.044370e-11	-1.307458e+01	-1.764032e+00
1.300000e-06	-1.718274e-06	-1.842942e-11	-1.285281e+01	-1.727552e+00
1.310000e-06	-1.688514e-06	-1.599757e-11	-1.263021e+01	-1.690150e+00
1.320000e-06	-1.658603e-06	-1.393590e-11	-1.240647e+01	-1.651801e+00
1.330000e-06	-1.628573e-06	-1.214393e-11	-1.218184e+01	-1.612492e+00
1.340000e-06	-1.598484e-06	-1.301824e-11	-1.195678e+01	-1.572223e+00
1.350000e-06	-1.568364e-06	-1.464663e-11	-1.173147e+01	-1.531008e+00
1.360000e-06	-1.538168e-06	-1.248517e-11	-1.150561e+01	-1.488872e+00
1.370000e-06	-1.507763e-06	-1.272026e-11	-1.127818e+01	-1.445854e+00
1.380000e-06	-1.477309e-06	-1.542188e-11	-1.105038e+01	-1.402007e+00
1.390000e-06	-1.446848e-06	-1.483260e-11	-1.082253e+01	-1.357394e+00
1.400000e-06	-1.416322e-06	-1.195404e-11	-1.059419e+01	-1.312093e+00
1.410000e-06	-1.385657e-06	-1.044012e-11	-1.036482e+01	-1.266190e+00
1.420000e-06	-1.354780e-06	-1.002910e-11	-1.013385e+01	-1.219785e+00
1.430000e-06	-1.323857e-06	-7.470934e-12	-9.902550e+00	-1.172987e+00
1.440000e-06	-1.292855e-06	-6.010765e-12	-9.670653e+00	-1.125914e+00
1.450000e-06	-1.261717e-06	-5.535694e-12	-9.437737e+00	-1.078692e+00
1.460000e-06	-1.230399e-06	-6.471088e-12	-9.203475e+00	-1.031455e+00
1.470000e-06	-1.198984e-06	-9.699566e-12	-8.968487e+00	-9.843409e-01
1.480000e-06	-1.167583e-06	-1.124829e-11	-8.733610e+00	-9.374945e-01
1.490000e-06	-1.136125e-06	-9.581023e-12	-8.498295e+00	-8.910623e-01
1.500000e-06	-1.104547e-06	-8.522639e-12	-8.262091e+00	-8.451929e-01
1.510000e-06	-1.072838e-06	-9.950067e-12	-8.024903e+00	-8.000356e-01
1.520000e-06	-1.041037e-06	-1.141370e-11	-7.787033e+00	-7.557385e-01
1.530000e-06	-1.009234e-06	-9.974197e-12	-7.549143e+00	-7.124475e-01
1.540000e-06	-9.774105e-07	-9.329244e-12	-7.311102e+00	-6.703047e-01
1.550000e-06	-9.455298e-07	-1.039472e-11	-7.072632e+00	-6.294472e-01
1.560000e-06	-9.136062e-07	-1.421470e-11	-6.833841e+00	-5.900055e-01
1.570000e-06	-8.816741e-07	-1.418331e-11	-6.594987e+00	-5.521026e-01
1.580000e-06	-8.497391e-07	-1.272241e-11	-6.356111e+00	-5.158524e-01
1.590000e-06	-8.177492e-07	-1.320282e-11	-6.116824e+00	-4.813591e-01
1.600000e-06	-7.857658e-07	-1.586974e-11	-5.877586e+00	-4.487156e-01
1.610000e-06	-7.537993e-07	-1.402214e-11	-5.638474e+00	-4.180030e-01
1.620000e-06	-7.217795e-07	-9.379925e-12	-5.398963e+00	-3.892898e-01
1.630000e-06	-6.897221e-07	-8.921650e-12	-5.159172e+00	-3.626309e-01
1.640000e-06	-6.576871e-07	-1.016314e-11	-4.919548e+00	-3.380674e-01
1.650000e-06	-6.256085e-07	-1.062471e-11	-4.679598e+00	-3.156259e-01
1.660000e-06	-5.934574e-07	-8.774944e-12	-4.439105e+00	-2.953184e-01
1.670000e-06	-5.613280e-07	-8.410886e-12	-4.198775e+00	-2.771420e-01
1.680000e-06	-5.292140e-07	-9.140270e-12	-3.958560e+00	-2.610791e-01
1.690000e-06	-4.970406e-07	-1.113831e-11	-3.717900e+00	-2.470972e-01
1.700000e-06	-4.647678e-07	-1.082195e-11	-3.476498e+00	-2.351496e-01
1.710000e-06	-4.324358e-07	-1.027678e-11	-3.234651e+00	-2.251751e-01
1.720000e-06	-4.000772e-07	-1.082214e-11	-2.992607e+00	-2.170995e-01
1.730000e-06	-3.678127e-07	-9.931156e-12	-2.751266e+00	-2.108354e-01
1.740000e-06	-3.355468e-07	-8.297817e-12	-2.509915e+00	-2.062833e-01
1.750000e-06	-3.031661e-07	-6.938014e-12	-2.267705e+00	-2.033326e-01
1.760000e-06	-2.707954e-07	-6.132395e-12	-2.025570e+00	-2.018623e-01
1.770000e-06	-2.384077e-07	-5.050469e-12	-1.783307e+00	-2.017421e-01
1.780000e-06	-2.060063e-07	-3.247294e-12	-1.540942e+00	-2.028338e-01
1.790000e-06	-1.736183e-07	-3.274631e-12	-1.298678e+00	-2.049923e-01
1.800000e-06	-1.412224e-07	-4.451363e-12	-1.056354e+00	-2.080668e-01
1.810000e-06	-1.087648e-07	-4.925308e-12	-8.135683e-01	-2.119024e-01
1.820000e-06	-7.631707e-08	-3.080753e-12	-5.708572e-01	-2.163409e-01
1.830000e-06	-4.388096e-08	-2.596556e-12	-3.282328e-01	-2.212227e-01
1.840000e-06	-1.138449e-08	-5.302609e-12	-8.515685e-02	-2.263880e-01
1.850000e-06	2.104652e-08	-9.590999e-12	1.574295e-01	-2.316778e-01
1.860000e-06	5.344714e-08	-9.301740e-12	3.997885e-01	-2.369357e-01
1.870000e-06	8.586471e-08	-7.284399e-12	6.422743e-01	-2.420089e-01
1.880000e-06	1.183021e-07	-8.605734e-12	8.849085e-01	-2.467495e-01
1.890000e-06	1.507654e-07	-9.519571e-12	1.127736e+00	-2.510156e-01
1.900000e-06	1.831936e-07	-9.425593e-12	1.370301e+00	-2.546727e-01
1.910000e-06	2.156092e-07	-7.055979e-12	1.612773e+00	-2.575944e-01
1.920000e-06	2.480115e-07	-6.211808e-12	1.855144e+00	-2.596634e-01
1.930000e-06	2.803745e-07	-6.975377e-12	2.097222e+00	-2.607724e-01
1.940000e-06	3.127689e-07	-5.947186e-12	2.339534e+00	-2.608251e-01
1.950000e-06	3.451368e-07	-3.190207e-12	2.581649e+00	-2.597361e-01
1.960000e-06	3.774505e-07	-2.698349e-12	2.823357e+00	-2.574325e-01
1.970000e-06	4.098002e-07	-2.394937e-12	3.065335e+00	-2.538531e-01
1.980000e-06	4.420795e-07	-1.231543e-12	3.306787e+00	-2.489498e-01
1.990000e-06	4.742559e-07	3.933632e-13	3.547469e+00	-2.426868e-01
2.000000e-06	5.064114e-07	1.580194e-12	3.787995e+00	-2.350416e-01
2.010000e-06	5.385955e-07	1.155556e-12	4.028734e+00	-2.260039e-01
2.020000e-06	5.707839e-07	3.882200e-13	4.269505e+00	-2.155762e-01
2.030000e-06	6.029443e-07	2.792170e-13	4.510068e+00	-2.037732e-01
2.040000e-06	6.350960e-07	-2.594668e-12	4.750565e+00	-1.906213e-01
2.050000e-06	6.672304e-07	-9.119934e-12	4.990932e+00	-1.761584e-01
2.060000e-06	6.993358e-07	-1.072529e-11	5.231083e+00	-1.604329e-01
2.070000e-06	7.314033e-07	-5.030095e-12	5.470950e+00	-1.435031e-01
2.080000e-06	7.634259e-07	3.224523e-12	5.710481e+00	-1.254366e-01
2.090000e-06	7.954225e-07	6.210250e-12	5.949819e+00	-1.063094e-01
2.100000e-06	8.273927e-07	5.540481e-12	6.188958e+00	-8.620474e-02
2.110000e-06	8.593606e-07	5.462806e-12	6.428080e+00	-6.521248e-02
2.120000e-06	8.913245e-07	6.579336e-12	6.667173e+00	-4.342781e-02
2.130000e-06	9.232343e-07	5.687020e-12	6.905860e+00	-2.095032e-02
2.140000e-06	9.550930e-07	2.522572e-12	7.144166e+00	2.117059e-03
2.150000e-06	9.869051e-07	1.139086e-12	7.382123e+00	2.566917e-02
2.160000e-06	1.018705e-06	2.293784e-12	7.619987e+00	4.959970e-02
2.170000e-06	1.050428e-06	4.080322e-12	7.857281e+00	7.380221e-02
2.180000e-06	1.082113e-06	6.858369e-12	8.094284e+00	9.817125e-02
2.190000e-06	1.113840e-06	9.030868e-12	8.331608e+00	1.226033e-01
2.200000e-06	1.145464e-06	1.034270e-11	8.568151e+00	1.469979e-01
2.210000e-06	1.176980e-06	1.036730e-11	8.803896e+00	1.712584e-01
2.220000e-06	1.208400e-06	9.916162e-12	9.038922e+00	1.952929e-01
2.230000e-06	1.239735e-06	1.018748e-11	9.273310e+00	2.190152e-01
2.240000e-06	1.270991e-06	8.333260e-12	9.507102e+00	2.423453e-01
2.250000e-06	1.302051e-06	5.148058e-12	9.739440e+00	2.652104e-01
2.260000e-06	1.332872e-06	7.162393e-12	9.969983e+00	2.875452e-01
2.270000e-06	1.363550e-06	1.152007e-11	1.019946e+01	3.092926e-01
2.280000e-06	1.394179e-06	1.332019e-11	1.042856e+01	3.304041e-01
2.290000e-06	1.424739e-06	1.331297e-11	1.065715e+01	3.508399e-01
2.300000e-06	1.455192e-06	1.239418e-11	1.088495e+01	3.705696e-01
2.310000e-06	1.485553e-06	1.164713e-11	1.111204e+01	3.895721e-01
2.320000e-06	1.515763e-06	1.100967e-11	1.133802e+01	4.078357e-01
2.330000e-06	1.545843e-06	9.767342e-12	1.156302e+01	4.253578e-01
2.340000e-06	1.575842e-06	5.388133e-12	1.178741e+01	4.421455e-01
2.350000e-06	1.605773e-06	4.290568e-12	1.201130e+01	4.582148e-01
2.360000e-06	1.635649e-06	5.766913e-12	1.223477e+01	4.735905e-01
2.370000e-06	1.665438e-06	6.904442e-12	1.245760e+01	4.883060e-01
2.380000e-06	1.695230e-06	5.380531e-12	1.268045e+01	5.024027e-01
2.390000e-06	1.724953e-06	4.847123e-12	1.290277e+01	5.159298e-01
2.400000e-06	1.754504e-06	7.310994e-12	1.312382e+01	5.289434e-01
2.410000e-06	1.783968e-06	1.048432e-11	1.334421e+01	5.415062e-01
2.420000e-06	1.813265e-06	1.039480e-11	1.356335e+01	5.536867e-01
2.430000e-06	1.842284e-06	6.677301e-12	1.378042e+01	5.655587e-01
2.440000e-06	1.871174e-06	7.233137e-12	1.399652e+01	5.772004e-01
2.450000e-06	1.899964e-06	1.077877e-11	1.421187e+01	5.886940e-01
2.460000e-06	1.928668e-06	1.193926e-11	1.442658e+01	6.001245e-01
2.470000e-06	1.957260e-06	1.093069e-11	1.464045e+01	6.115793e-01
2.480000e-06	1.985675e-06	1.196041e-11	1.485299e+01	6.231471e-01
2.490000e-06	2.013999e-06	1.783427e-11	1.506486e+01	6.349177e-01
2.500000e-06	2.042209e-06	2.467241e-11	1.527587e+01	6.469805e-01
2.510000e-06	2.070264e-06	2.473441e-11	1.548573e+01	6.594245e-01
2.520000e-06	2.098253e-06	2.343592e-11	1.569509e+01	6.723371e-01
2.530000e-06	2.126212e-06	2.537195e-11	1.590422e+01	6.858034e-01
2.540000e-06	2.154118e-06	2.463416e-11	1.611296e+01	6.999059e-01
2.550000e-06	2.182007e-06	2.254937e-11	1.632157e+01	7.147236e-01
2.560000e-06	2.209892e-06	2.346953e-11	1.653016e+01	7.303313e-01
2.570000e-06	2.237718e-06	2.372170e-11	1.673830e+01	7.467995e-01
2.580000e-06	2.265356e-06	2.363944e-11	1.694503e+01	7.641934e-01
2.590000e-06	2.292776e-06	2.456511e-11	1.715013e+01	7.825726e-01
2.600000e-06	2.320027e-06	2.663884e-11	1.735397e+01	8.019911e-01
2.610000e-06	2.346967e-06	2.925376e-11	1.755548e+01	8.224961e-01
2.620000e-06	2.373628e-06	3.179830e-11	1.775491e+01	8.441287e-01
2.630000e-06	2.400060e-06	3.334267e-11	1.795262e+01	8.669229e-01
2.640000e-06	2.426090e-06	3.306345e-11	1.814733e+01	8.909056e-01
2.650000e-06	2.451732e-06	3.173425e-11	1.833914e+01	9.160967e-01
2.660000e-06	2.477106e-06	3.157838e-11	1.852893e+01	9.425088e-01
2.670000e-06	2.502161e-06	3.263740e-11	1.871635e+01	9.701469e-01
2.680000e-06	2.526819e-06	3.423677e-11	1.890079e+01	9.990092e-01
2.690000e-06	2.551212e-06	3.867899e-11	1.908325e+01	1.029086e+00
2.700000e-06	2.575531e-06	4.350290e-11	1.926516e+01	1.060361e+00
2.710000e-06	2.599761e-06	4.487186e-11	1.944640e+01	1.092811e+00
2.720000e-06	2.623809e-06	4.591520e-11	1.962628e+01	1.126406e+00
2.730000e-06	2.647765e-06	4.833628e-11	1.980548e+01	1.161108e+00
2.740000e-06	2.671708e-06	5.090301e-11	1.998457e+01	1.196875e+00
2.750000e-06	2.695496e-06	5.212706e-11	2.016251e+01	1.233656e+00
2.760000e-06	2.719076e-06	4.975924e-11	2.033888e+01	1.271398e+00
2.770000e-06	2.742525e-06	4.762259e-11	2.051429e+01	1.310039e+00
2.780000e-06	2.765776e-06	5.189126e-11	2.068821e+01	1.349514e+00
2.790000e-06	2.788865e-06	5.813046e-11	2.086092e+01	1.389754e+00
2.800000e-06	2.811739e-06	5.696773e-11	2.103201e+01	1.430683e+00
2.810000e-06	2.834319e-06	5.423120e-11	2.120092e+01	1.472224e+00
2.820000e-06	2.856748e-06	5.474291e-11	2.136869e+01	1.514296e+00
2.830000e-06	2.879002e-06	5.650305e-11	2.153515e+01	1.556813e+00
2.840000e-06	2.901042e-06	5.597328e-11	2.170001e+01	1.599690e+00
2.850000e-06	2.922937e-06	5.113725e-11	2.186378e+01	1.642838e+00
2.860000e-06	2.944739e-06	4.831336e-11	2.202686e+01	1.686166e+00
2.870000e-06	2.966388e-06	4.972818e-11	2.218880e+01	1.729583e+00
2.880000e-06	2.987736e-06	5.154547e-11	2.234848e+01	1.772997e+00
2.890000e-06	3.008736e-06	4.929466e-11	2.250557e+01	1.816317e+00
2.900000e-06	3.029523e-06	4.624510e-11	2.266106e+01	1.859450e+00
