# Temperatura_=_20.0
# Concentracion g/m^3_=_9000.0
# C_Vs_to_Am_M_A/Vsm_=_65563218390.804596
# pendiente_HvsI_1/m_=_3716.3
# ordenada_HvsI_A/m_=_1297.0
# frecuencia_Hz_=_134998.70265551307

Tiempo_(s)	Campo_(V.s)	Magnetizacion_(V.s)	Campo_(kA/m)	Magnetizacion_(A/m)
0.000000e+00	-3.897659e-06	-2.798390e-09	-2.915343e+01	-1.818969e+02
1.000000e-08	-3.897670e-06	-2.796213e-09	-2.915352e+01	-1.819954e+02
2.000000e-08	-3.897527e-06	-2.796602e-09	-2.915244e+01	-1.820946e+02
3.000000e-08	-3.897184e-06	-2.800751e-09	-2.914987e+01	-1.821949e+02
4.000000e-08	-3.896593e-06	-2.815603e-09	-2.914546e+01	-1.822960e+02
5.000000e-08	-3.895532e-06	-2.834097e-09	-2.913752e+01	-1.823981e+02
6.000000e-08	-3.894044e-06	-2.823729e-09	-2.912639e+01	-1.825010e+02
7.000000e-08	-3.892177e-06	-2.756540e-09	-2.911243e+01	-1.826047e+02
8.000000e-08	-3.889834e-06	-2.706527e-09	-2.909490e+01	-1.827090e+02
9.000000e-08	-3.886940e-06	-2.714305e-09	-2.907325e+01	-1.828137e+02
1.000000e-07	-3.883692e-06	-2.761202e-09	-2.904896e+01	-1.829186e+02
1.100000e-07	-3.880245e-06	-2.854463e-09	-2.902318e+01	-1.830234e+02
1.200000e-07	-3.876609e-06	-2.861986e-09	-2.899598e+01	-1.831279e+02
1.300000e-07	-3.872780e-06	-2.855643e-09	-2.896734e+01	-1.832317e+02
1.400000e-07	-3.868763e-06	-2.779188e-09	-2.893730e+01	-1.833345e+02
1.500000e-07	-3.864614e-06	-2.781891e-09	-2.890626e+01	-1.834359e+02
1.600000e-07	-3.860249e-06	-2.849495e-09	-2.887362e+01	-1.835355e+02
1.700000e-07	-3.855692e-06	-2.854043e-09	-2.883953e+01	-1.836327e+02
1.800000e-07	-3.850864e-06	-2.833885e-09	-2.880341e+01	-1.837273e+02
1.900000e-07	-3.845684e-06	-2.771641e-09	-2.876467e+01	-1.838187e+02
2.000000e-07	-3.840310e-06	-2.790860e-09	-2.872447e+01	-1.839065e+02
2.100000e-07	-3.834677e-06	-2.835281e-09	-2.868234e+01	-1.839902e+02
2.200000e-07	-3.828770e-06	-2.874954e-09	-2.863816e+01	-1.840692e+02
2.300000e-07	-3.822602e-06	-2.791287e-09	-2.859203e+01	-1.841432e+02
2.400000e-07	-3.816058e-06	-2.758233e-09	-2.854308e+01	-1.842115e+02
2.500000e-07	-3.809214e-06	-2.803021e-09	-2.849188e+01	-1.842738e+02
2.600000e-07	-3.802024e-06	-2.884946e-09	-2.843811e+01	-1.843296e+02
2.700000e-07	-3.794541e-06	-2.844792e-09	-2.838213e+01	-1.843784e+02
2.800000e-07	-3.786933e-06	-2.758160e-09	-2.832523e+01	-1.844198e+02
2.900000e-07	-3.779134e-06	-2.761729e-09	-2.826689e+01	-1.844534e+02
3.000000e-07	-3.771160e-06	-2.860084e-09	-2.820726e+01	-1.844787e+02
3.100000e-07	-3.763048e-06	-2.870810e-09	-2.814658e+01	-1.844955e+02
3.200000e-07	-3.754823e-06	-2.780403e-09	-2.808505e+01	-1.845033e+02
3.300000e-07	-3.746488e-06	-2.761424e-09	-2.802272e+01	-1.845018e+02
3.400000e-07	-3.737734e-06	-2.828227e-09	-2.795724e+01	-1.844909e+02
3.500000e-07	-3.728383e-06	-2.864224e-09	-2.788729e+01	-1.844701e+02
3.600000e-07	-3.718689e-06	-2.804092e-09	-2.781479e+01	-1.844393e+02
3.700000e-07	-3.708584e-06	-2.769825e-09	-2.773920e+01	-1.843984e+02
3.800000e-07	-3.698009e-06	-2.786023e-09	-2.766010e+01	-1.843471e+02
3.900000e-07	-3.687043e-06	-2.832447e-09	-2.757808e+01	-1.842854e+02
4.000000e-07	-3.675685e-06	-2.812529e-09	-2.749312e+01	-1.842131e+02
4.100000e-07	-3.664054e-06	-2.773587e-09	-2.740613e+01	-1.841303e+02
4.200000e-07	-3.652128e-06	-2.744447e-09	-2.731692e+01	-1.840370e+02
4.300000e-07	-3.639930e-06	-2.785421e-09	-2.722569e+01	-1.839331e+02
4.400000e-07	-3.627586e-06	-2.810653e-09	-2.713336e+01	-1.838188e+02
4.500000e-07	-3.615006e-06	-2.788000e-09	-2.703927e+01	-1.836940e+02
4.600000e-07	-3.602086e-06	-2.735365e-09	-2.694262e+01	-1.835590e+02
4.700000e-07	-3.588940e-06	-2.757806e-09	-2.684430e+01	-1.834139e+02
4.800000e-07	-3.575559e-06	-2.801975e-09	-2.674421e+01	-1.832589e+02
4.900000e-07	-3.561849e-06	-2.787257e-09	-2.664167e+01	-1.830942e+02
5.000000e-07	-3.547822e-06	-2.726766e-09	-2.653674e+01	-1.829199e+02
5.100000e-07	-3.533528e-06	-2.728730e-09	-2.642983e+01	-1.827365e+02
5.200000e-07	-3.518949e-06	-2.770006e-09	-2.632078e+01	-1.825440e+02
5.300000e-07	-3.504038e-06	-2.768092e-09	-2.620925e+01	-1.823427e+02
5.400000e-07	-3.488782e-06	-2.726024e-09	-2.609514e+01	-1.821331e+02
5.500000e-07	-3.473118e-06	-2.717110e-09	-2.597798e+01	-1.819153e+02
5.600000e-07	-3.457090e-06	-2.742913e-09	-2.585809e+01	-1.816896e+02
5.700000e-07	-3.440776e-06	-2.746851e-09	-2.573607e+01	-1.814565e+02
5.800000e-07	-3.424090e-06	-2.725063e-09	-2.561126e+01	-1.812160e+02
5.900000e-07	-3.407184e-06	-2.706638e-09	-2.548481e+01	-1.809687e+02
6.000000e-07	-3.390137e-06	-2.714162e-09	-2.535731e+01	-1.807147e+02
6.100000e-07	-3.372887e-06	-2.723780e-09	-2.522828e+01	-1.804544e+02
6.200000e-07	-3.355509e-06	-2.722874e-09	-2.509830e+01	-1.801880e+02
6.300000e-07	-3.337934e-06	-2.700539e-09	-2.496684e+01	-1.799158e+02
6.400000e-07	-3.320098e-06	-2.693441e-09	-2.483343e+01	-1.796381e+02
6.500000e-07	-3.302029e-06	-2.702096e-09	-2.469828e+01	-1.793551e+02
6.600000e-07	-3.283789e-06	-2.706032e-09	-2.456185e+01	-1.790670e+02
6.700000e-07	-3.265367e-06	-2.685088e-09	-2.442406e+01	-1.787740e+02
6.800000e-07	-3.246642e-06	-2.675495e-09	-2.428400e+01	-1.784764e+02
6.900000e-07	-3.227579e-06	-2.681505e-09	-2.414142e+01	-1.781742e+02
7.000000e-07	-3.208218e-06	-2.687140e-09	-2.399660e+01	-1.778677e+02
7.100000e-07	-3.188591e-06	-2.668688e-09	-2.384980e+01	-1.775569e+02
7.200000e-07	-3.168747e-06	-2.654981e-09	-2.370136e+01	-1.772419e+02
7.300000e-07	-3.148813e-06	-2.654268e-09	-2.355226e+01	-1.769228e+02
7.400000e-07	-3.128836e-06	-2.658108e-09	-2.340285e+01	-1.765997e+02
7.500000e-07	-3.108744e-06	-2.646974e-09	-2.325256e+01	-1.762725e+02
7.600000e-07	-3.088496e-06	-2.634762e-09	-2.310111e+01	-1.759412e+02
7.700000e-07	-3.068113e-06	-2.631250e-09	-2.294865e+01	-1.756058e+02
7.800000e-07	-3.047596e-06	-2.637304e-09	-2.279519e+01	-1.752663e+02
7.900000e-07	-3.026838e-06	-2.635960e-09	-2.263993e+01	-1.749225e+02
8.000000e-07	-3.005869e-06	-2.624329e-09	-2.248309e+01	-1.745743e+02
8.100000e-07	-2.984586e-06	-2.613130e-09	-2.232390e+01	-1.742217e+02
8.200000e-07	-2.963013e-06	-2.610231e-09	-2.216253e+01	-1.738644e+02
8.300000e-07	-2.941286e-06	-2.608250e-09	-2.200002e+01	-1.735023e+02
8.400000e-07	-2.919433e-06	-2.598310e-09	-2.183657e+01	-1.731352e+02
8.500000e-07	-2.897382e-06	-2.586369e-09	-2.167163e+01	-1.727628e+02
8.600000e-07	-2.875105e-06	-2.582192e-09	-2.150500e+01	-1.723850e+02
8.700000e-07	-2.852695e-06	-2.585344e-09	-2.133738e+01	-1.720015e+02
8.800000e-07	-2.830067e-06	-2.579051e-09	-2.116814e+01	-1.716120e+02
8.900000e-07	-2.807282e-06	-2.565695e-09	-2.099771e+01	-1.712163e+02
9.000000e-07	-2.784265e-06	-2.557920e-09	-2.082555e+01	-1.708140e+02
9.100000e-07	-2.760941e-06	-2.560914e-09	-2.065109e+01	-1.704049e+02
9.200000e-07	-2.737351e-06	-2.555008e-09	-2.047465e+01	-1.699887e+02
9.300000e-07	-2.713628e-06	-2.541436e-09	-2.029720e+01	-1.695651e+02
9.400000e-07	-2.689844e-06	-2.531158e-09	-2.011930e+01	-1.691337e+02
9.500000e-07	-2.665945e-06	-2.531794e-09	-1.994054e+01	-1.686942e+02
9.600000e-07	-2.641982e-06	-2.528947e-09	-1.976130e+01	-1.682464e+02
9.700000e-07	-2.617898e-06	-2.521844e-09	-1.958116e+01	-1.677899e+02
9.800000e-07	-2.593672e-06	-2.512312e-09	-1.939996e+01	-1.673243e+02
9.900000e-07	-2.569318e-06	-2.506647e-09	-1.921780e+01	-1.668494e+02
1.000000e-06	-2.544784e-06	-2.503140e-09	-1.903429e+01	-1.663649e+02
1.010000e-06	-2.520029e-06	-2.497275e-09	-1.884913e+01	-1.658705e+02
1.020000e-06	-2.495056e-06	-2.483258e-09	-1.866234e+01	-1.653658e+02
1.030000e-06	-2.469669e-06	-2.469691e-09	-1.847245e+01	-1.648505e+02
1.040000e-06	-2.443955e-06	-2.463818e-09	-1.828012e+01	-1.643245e+02
1.050000e-06	-2.418031e-06	-2.458817e-09	-1.808622e+01	-1.637873e+02
1.060000e-06	-2.391695e-06	-2.446605e-09	-1.788923e+01	-1.632388e+02
1.070000e-06	-2.365032e-06	-2.433609e-09	-1.768979e+01	-1.626787e+02
1.080000e-06	-2.338190e-06	-2.424450e-09	-1.748903e+01	-1.621068e+02
1.090000e-06	-2.311142e-06	-2.417753e-09	-1.728672e+01	-1.615228e+02
1.100000e-06	-2.283823e-06	-2.409348e-09	-1.708238e+01	-1.609265e+02
1.110000e-06	-2.256288e-06	-2.397198e-09	-1.687642e+01	-1.603177e+02
1.120000e-06	-2.228633e-06	-2.386205e-09	-1.666957e+01	-1.596962e+02
1.130000e-06	-2.200821e-06	-2.376476e-09	-1.646154e+01	-1.590618e+02
1.140000e-06	-2.172915e-06	-2.368452e-09	-1.625281e+01	-1.584144e+02
1.150000e-06	-2.144967e-06	-2.357088e-09	-1.604377e+01	-1.577538e+02
1.160000e-06	-2.116933e-06	-2.342228e-09	-1.583409e+01	-1.570798e+02
1.170000e-06	-2.088825e-06	-2.328828e-09	-1.562384e+01	-1.563923e+02
1.180000e-06	-2.060643e-06	-2.317568e-09	-1.541305e+01	-1.556911e+02
1.190000e-06	-2.032314e-06	-2.306431e-09	-1.520116e+01	-1.549762e+02
1.200000e-06	-2.003937e-06	-2.293463e-09	-1.498891e+01	-1.542473e+02
1.210000e-06	-1.975508e-06	-2.279653e-09	-1.477626e+01	-1.535044e+02
1.220000e-06	-1.946869e-06	-2.269049e-09	-1.456205e+01	-1.527472e+02
1.230000e-06	-1.918100e-06	-2.257987e-09	-1.434687e+01	-1.519758e+02
1.240000e-06	-1.889127e-06	-2.244237e-09	-1.413016e+01	-1.511899e+02
1.250000e-06	-1.860002e-06	-2.228037e-09	-1.391231e+01	-1.503894e+02
1.260000e-06	-1.830810e-06	-2.215951e-09	-1.369396e+01	-1.495742e+02
1.270000e-06	-1.801473e-06	-2.202991e-09	-1.347453e+01	-1.487440e+02
1.280000e-06	-1.771998e-06	-2.190983e-09	-1.325407e+01	-1.478988e+02
1.290000e-06	-1.742388e-06	-2.179112e-09	-1.303259e+01	-1.470384e+02
1.300000e-06	-1.712644e-06	-2.166591e-09	-1.281011e+01	-1.461624e+02
1.310000e-06	-1.682838e-06	-2.151726e-09	-1.258717e+01	-1.452707e+02
1.320000e-06	-1.652938e-06	-2.136332e-09	-1.236352e+01	-1.443631e+02
1.330000e-06	-1.622916e-06	-2.120302e-09	-1.213897e+01	-1.434393e+02
1.340000e-06	-1.592826e-06	-2.104344e-09	-1.191391e+01	-1.424989e+02
1.350000e-06	-1.562649e-06	-2.090672e-09	-1.168819e+01	-1.415416e+02
1.360000e-06	-1.532423e-06	-2.074282e-09	-1.146211e+01	-1.405671e+02
1.370000e-06	-1.502063e-06	-2.054918e-09	-1.123503e+01	-1.395749e+02
1.380000e-06	-1.471559e-06	-2.037440e-09	-1.100686e+01	-1.385646e+02
1.390000e-06	-1.441023e-06	-2.021107e-09	-1.077846e+01	-1.375357e+02
1.400000e-06	-1.410475e-06	-2.004214e-09	-1.054997e+01	-1.364877e+02
1.410000e-06	-1.379855e-06	-1.987018e-09	-1.032094e+01	-1.354200e+02
1.420000e-06	-1.349032e-06	-1.970956e-09	-1.009040e+01	-1.343320e+02
1.430000e-06	-1.318069e-06	-1.957455e-09	-9.858799e+00	-1.332231e+02
1.440000e-06	-1.286938e-06	-1.940192e-09	-9.625943e+00	-1.320924e+02
1.450000e-06	-1.255679e-06	-1.922326e-09	-9.392135e+00	-1.309394e+02
1.460000e-06	-1.224359e-06	-1.903512e-09	-9.157874e+00	-1.297631e+02
1.470000e-06	-1.192924e-06	-1.887085e-09	-8.922749e+00	-1.285628e+02
1.480000e-06	-1.161416e-06	-1.869956e-09	-8.687074e+00	-1.273375e+02
1.490000e-06	-1.129851e-06	-1.851042e-09	-8.450979e+00	-1.260863e+02
1.500000e-06	-1.098268e-06	-1.828538e-09	-8.214746e+00	-1.248083e+02
1.510000e-06	-1.066552e-06	-1.806352e-09	-7.977521e+00	-1.235025e+02
1.520000e-06	-1.034734e-06	-1.784078e-09	-7.739533e+00	-1.221677e+02
1.530000e-06	-1.002902e-06	-1.762667e-09	-7.501436e+00	-1.208029e+02
1.540000e-06	-9.710296e-07	-1.741219e-09	-7.263038e+00	-1.194071e+02
1.550000e-06	-9.391121e-07	-1.718765e-09	-7.024303e+00	-1.179790e+02
1.560000e-06	-9.071791e-07	-1.695499e-09	-6.785453e+00	-1.165175e+02
1.570000e-06	-8.752475e-07	-1.673954e-09	-6.546613e+00	-1.150214e+02
1.580000e-06	-8.432907e-07	-1.652269e-09	-6.307585e+00	-1.134896e+02
1.590000e-06	-8.112692e-07	-1.628983e-09	-6.068073e+00	-1.119209e+02
1.600000e-06	-7.792251e-07	-1.603233e-09	-5.828392e+00	-1.103140e+02
1.610000e-06	-7.471715e-07	-1.577373e-09	-5.588640e+00	-1.086678e+02
1.620000e-06	-7.150618e-07	-1.552813e-09	-5.348468e+00	-1.069812e+02
1.630000e-06	-6.829512e-07	-1.525580e-09	-5.108289e+00	-1.052529e+02
1.640000e-06	-6.508119e-07	-1.496841e-09	-4.867896e+00	-1.034819e+02
1.650000e-06	-6.186432e-07	-1.469497e-09	-4.627283e+00	-1.016670e+02
1.660000e-06	-5.865009e-07	-1.443252e-09	-4.386868e+00	-9.980729e+01
1.670000e-06	-5.543285e-07	-1.414266e-09	-4.146227e+00	-9.790172e+01
1.680000e-06	-5.221342e-07	-1.386338e-09	-3.905422e+00	-9.594938e+01
1.690000e-06	-4.899156e-07	-1.355203e-09	-3.664436e+00	-9.394941e+01
1.700000e-06	-4.576112e-07	-1.324020e-09	-3.422807e+00	-9.190104e+01
1.710000e-06	-4.252454e-07	-1.293412e-09	-3.180720e+00	-8.980357e+01
1.720000e-06	-3.928809e-07	-1.265308e-09	-2.938642e+00	-8.765638e+01
1.730000e-06	-3.604972e-07	-1.234031e-09	-2.696421e+00	-8.545899e+01
1.740000e-06	-3.281079e-07	-1.201078e-09	-2.454158e+00	-8.321099e+01
1.750000e-06	-2.956752e-07	-1.169533e-09	-2.211570e+00	-8.091209e+01
1.760000e-06	-2.632754e-07	-1.138009e-09	-1.969229e+00	-7.856214e+01
1.770000e-06	-2.309942e-07	-1.100682e-09	-1.727774e+00	-7.616111e+01
1.780000e-06	-1.986914e-07	-1.063057e-09	-1.486158e+00	-7.370907e+01
1.790000e-06	-1.663239e-07	-1.027751e-09	-1.244058e+00	-7.120628e+01
1.800000e-06	-1.338367e-07	-9.920717e-10	-1.001062e+00	-6.865310e+01
1.810000e-06	-1.012706e-07	-9.569935e-10	-7.574769e-01	-6.605006e+01
1.820000e-06	-6.879670e-08	-9.196912e-10	-5.145806e-01	-6.339782e+01
1.830000e-06	-3.634198e-08	-8.827658e-10	-2.718281e-01	-6.069721e+01
1.840000e-06	-3.819718e-09	-8.419641e-10	-2.857045e-02	-5.794920e+01
1.850000e-06	2.879360e-08	-7.965187e-10	2.153683e-01	-5.515492e+01
1.860000e-06	6.140207e-08	-7.494196e-10	4.592708e-01	-5.231564e+01
1.870000e-06	9.380246e-08	-7.055031e-10	7.016169e-01	-4.943282e+01
1.880000e-06	1.261920e-07	-6.621750e-10	9.438822e-01	-4.650802e+01
1.890000e-06	1.587118e-07	-6.183769e-10	1.187121e+00	-4.354300e+01
1.900000e-06	1.911874e-07	-5.741903e-10	1.430030e+00	-4.053962e+01
1.910000e-06	2.235261e-07	-5.320170e-10	1.671915e+00	-3.749990e+01
1.920000e-06	2.559410e-07	-4.901858e-10	1.914369e+00	-3.442601e+01
1.930000e-06	2.884240e-07	-4.478823e-10	2.157333e+00	-3.132024e+01
1.940000e-06	3.208188e-07	-4.036657e-10	2.399638e+00	-2.818498e+01
1.950000e-06	3.531994e-07	-3.563672e-10	2.641836e+00	-2.502277e+01
1.960000e-06	3.855372e-07	-3.075821e-10	2.883714e+00	-2.183624e+01
1.970000e-06	4.178680e-07	-2.589096e-10	3.125539e+00	-1.862811e+01
1.980000e-06	4.501939e-07	-2.135090e-10	3.367328e+00	-1.540122e+01
1.990000e-06	4.825138e-07	-1.674438e-10	3.609072e+00	-1.215845e+01
2.000000e-06	5.147979e-07	-1.199524e-10	3.850548e+00	-8.902766e+00
2.010000e-06	5.469509e-07	-7.522063e-11	4.091044e+00	-5.637192e+00
2.020000e-06	5.790601e-07	-3.200904e-11	4.331213e+00	-2.364790e+00
2.030000e-06	6.112236e-07	1.273985e-11	4.571787e+00	9.113428e-01
2.040000e-06	6.433362e-07	6.400984e-11	4.811980e+00	4.188091e+00
2.050000e-06	6.753738e-07	1.176208e-10	5.051612e+00	7.462330e+00
2.060000e-06	7.074687e-07	1.647811e-10	5.291674e+00	1.073094e+01
2.070000e-06	7.395601e-07	2.082383e-10	5.531709e+00	1.399082e+01
2.080000e-06	7.715927e-07	2.534876e-10	5.771304e+00	1.723891e+01
2.090000e-06	8.035986e-07	3.008326e-10	6.010699e+00	2.047216e+01
2.100000e-06	8.356180e-07	3.468291e-10	6.250195e+00	2.368761e+01
2.110000e-06	8.675983e-07	3.908105e-10	6.489400e+00	2.688236e+01
2.120000e-06	8.995044e-07	4.341573e-10	6.728049e+00	3.005356e+01
2.130000e-06	9.313870e-07	4.808349e-10	6.966522e+00	3.319848e+01
2.140000e-06	9.632787e-07	5.271726e-10	7.205063e+00	3.631449e+01
2.150000e-06	9.951519e-07	5.717759e-10	7.443466e+00	3.939903e+01
2.160000e-06	1.027007e-06	6.139312e-10	7.681735e+00	4.244971e+01
2.170000e-06	1.058842e-06	6.547609e-10	7.919848e+00	4.546423e+01
2.180000e-06	1.090626e-06	6.969267e-10	8.157585e+00	4.844045e+01
2.190000e-06	1.122302e-06	7.389294e-10	8.394514e+00	5.137633e+01
2.200000e-06	1.153812e-06	7.788318e-10	8.630197e+00	5.427003e+01
2.210000e-06	1.185266e-06	8.187998e-10	8.865469e+00	5.711983e+01
2.220000e-06	1.216675e-06	8.587963e-10	9.100397e+00	5.992416e+01
2.230000e-06	1.247896e-06	8.972941e-10	9.333920e+00	6.268164e+01
2.240000e-06	1.278961e-06	9.388588e-10	9.566284e+00	6.539102e+01
2.250000e-06	1.309908e-06	9.789240e-10	9.797758e+00	6.805123e+01
2.260000e-06	1.340833e-06	1.011983e-09	1.002907e+01	7.066135e+01
2.270000e-06	1.371614e-06	1.046916e-09	1.025930e+01	7.322065e+01
2.280000e-06	1.402238e-06	1.087356e-09	1.048836e+01	7.572852e+01
2.290000e-06	1.432808e-06	1.127078e-09	1.071701e+01	7.818454e+01
2.300000e-06	1.463294e-06	1.161400e-09	1.094504e+01	8.058844e+01
2.310000e-06	1.493690e-06	1.191817e-09	1.117239e+01	8.294008e+01
2.320000e-06	1.523943e-06	1.222048e-09	1.139868e+01	8.523949e+01
2.330000e-06	1.554057e-06	1.253711e-09	1.162393e+01	8.748683e+01
2.340000e-06	1.584074e-06	1.288245e-09	1.184844e+01	8.968238e+01
2.350000e-06	1.614086e-06	1.320846e-09	1.207292e+01	9.182658e+01
2.360000e-06	1.643976e-06	1.350143e-09	1.229650e+01	9.391996e+01
2.370000e-06	1.673721e-06	1.381801e-09	1.251898e+01	9.596316e+01
2.380000e-06	1.703452e-06	1.414647e-09	1.274136e+01	9.795694e+01
2.390000e-06	1.733160e-06	1.443974e-09	1.296356e+01	9.990213e+01
2.400000e-06	1.762736e-06	1.470433e-09	1.318478e+01	1.017997e+02
2.410000e-06	1.792164e-06	1.495886e-09	1.340490e+01	1.036506e+02
2.420000e-06	1.821487e-06	1.524828e-09	1.362423e+01	1.054558e+02
2.430000e-06	1.850594e-06	1.554639e-09	1.384194e+01	1.072167e+02
2.440000e-06	1.879547e-06	1.579509e-09	1.405850e+01	1.089342e+02
2.450000e-06	1.908445e-06	1.603828e-09	1.427465e+01	1.106096e+02
2.460000e-06	1.937146e-06	1.631260e-09	1.448933e+01	1.122442e+02
2.470000e-06	1.965696e-06	1.659074e-09	1.470287e+01	1.138391e+02
2.480000e-06	1.994136e-06	1.684522e-09	1.491559e+01	1.153957e+02
2.490000e-06	2.022450e-06	1.706510e-09	1.512738e+01	1.169151e+02
2.500000e-06	2.050671e-06	1.727619e-09	1.533846e+01	1.183988e+02
2.510000e-06	2.078831e-06	1.751432e-09	1.554909e+01	1.198477e+02
2.520000e-06	2.106956e-06	1.774330e-09	1.575946e+01	1.212633e+02
2.530000e-06	2.135004e-06	1.794267e-09	1.596925e+01	1.226467e+02
2.540000e-06	2.162941e-06	1.814526e-09	1.617821e+01	1.239991e+02
2.550000e-06	2.190826e-06	1.836103e-09	1.638678e+01	1.253215e+02
2.560000e-06	2.218594e-06	1.857650e-09	1.659448e+01	1.266150e+02
2.570000e-06	2.246223e-06	1.878033e-09	1.680114e+01	1.278807e+02
2.580000e-06	2.273748e-06	1.896973e-09	1.700702e+01	1.291196e+02
2.590000e-06	2.301090e-06	1.916556e-09	1.721153e+01	1.303326e+02
2.600000e-06	2.328138e-06	1.936493e-09	1.741384e+01	1.315205e+02
2.610000e-06	2.354967e-06	1.955388e-09	1.761452e+01	1.326842e+02
2.620000e-06	2.381604e-06	1.973441e-09	1.781375e+01	1.338244e+02
2.630000e-06	2.407875e-06	1.991003e-09	1.801025e+01	1.349419e+02
2.640000e-06	2.433727e-06	2.010301e-09	1.820362e+01	1.360373e+02
2.650000e-06	2.459247e-06	2.030619e-09	1.839450e+01	1.371112e+02
2.660000e-06	2.484495e-06	2.047032e-09	1.858335e+01	1.381641e+02
2.670000e-06	2.509482e-06	2.062044e-09	1.877024e+01	1.391966e+02
2.680000e-06	2.534250e-06	2.077324e-09	1.895550e+01	1.402091e+02
2.690000e-06	2.558795e-06	2.092279e-09	1.913909e+01	1.412020e+02
2.700000e-06	2.583183e-06	2.108336e-09	1.932151e+01	1.421758e+02
2.710000e-06	2.607435e-06	2.124491e-09	1.950291e+01	1.431306e+02
2.720000e-06	2.631541e-06	2.138772e-09	1.968321e+01	1.440669e+02
2.730000e-06	2.655573e-06	2.150855e-09	1.986296e+01	1.449848e+02
2.740000e-06	2.679503e-06	2.162094e-09	2.004195e+01	1.458848e+02
2.750000e-06	2.703316e-06	2.174353e-09	2.022007e+01	1.467668e+02
2.760000e-06	2.726911e-06	2.186415e-09	2.039655e+01	1.476313e+02
2.770000e-06	2.750261e-06	2.197916e-09	2.057121e+01	1.484783e+02
2.780000e-06	2.773456e-06	2.209911e-09	2.074470e+01	1.493080e+02
2.790000e-06	2.796456e-06	2.221630e-09	2.091673e+01	1.501207e+02
2.800000e-06	2.819219e-06	2.235459e-09	2.108700e+01	1.509166e+02
2.810000e-06	2.841674e-06	2.251488e-09	2.125495e+01	1.516957e+02
2.820000e-06	2.863914e-06	2.266511e-09	2.142130e+01	1.524583e+02
2.830000e-06	2.886031e-06	2.280490e-09	2.158673e+01	1.532046e+02
2.840000e-06	2.908064e-06	2.294728e-09	2.175153e+01	1.539348e+02
2.850000e-06	2.929984e-06	2.306862e-09	2.191548e+01	1.546491e+02
2.860000e-06	2.951608e-06	2.318190e-09	2.207723e+01	1.553477e+02
2.870000e-06	2.973010e-06	2.329383e-09	2.223731e+01	1.560310e+02
2.880000e-06	2.994307e-06	2.339895e-09	2.239660e+01	1.566991e+02
2.890000e-06	3.015375e-06	2.351727e-09	2.255419e+01	1.573523e+02
2.900000e-06	3.036139e-06	2.361758e-09	2.270950e+01	1.579911e+02
