# Temperatura_=_20.0
# Concentracion g/m^3_=_9000.0
# C_Vs_to_Am_M_A/Vsm_=_65563218390.804596
# pendiente_HvsI_1/m_=_3716.3
# ordenada_HvsI_A/m_=_1297.0
# frecuencia_Hz_=_135002.24309669755

Tiempo_(s)	Campo_(V.s)	Magnetizacion_(V.s)	Campo_(kA/m)	Magnetizacion_(A/m)
0.000000e+00	-3.892321e-06	-3.498236e-09	-2.914106e+01	-2.322046e+02
1.000000e-08	-3.892534e-06	-3.496547e-09	-2.914265e+01	-2.322517e+02
2.000000e-08	-3.892523e-06	-3.493753e-09	-2.914257e+01	-2.322882e+02
3.000000e-08	-3.892340e-06	-3.494392e-09	-2.914120e+01	-2.323139e+02
4.000000e-08	-3.891862e-06	-3.502680e-09	-2.913762e+01	-2.323284e+02
5.000000e-08	-3.891026e-06	-3.525582e-09	-2.913136e+01	-2.323314e+02
6.000000e-08	-3.889658e-06	-3.548242e-09	-2.912112e+01	-2.323226e+02
7.000000e-08	-3.887703e-06	-3.498524e-09	-2.910648e+01	-2.323018e+02
8.000000e-08	-3.885374e-06	-3.400440e-09	-2.908905e+01	-2.322688e+02
9.000000e-08	-3.882617e-06	-3.418676e-09	-2.906841e+01	-2.322235e+02
1.000000e-07	-3.879423e-06	-3.488658e-09	-2.904449e+01	-2.321657e+02
1.100000e-07	-3.875994e-06	-3.519912e-09	-2.901882e+01	-2.320955e+02
1.200000e-07	-3.872435e-06	-3.619433e-09	-2.899217e+01	-2.320128e+02
1.300000e-07	-3.868722e-06	-3.647531e-09	-2.896438e+01	-2.319177e+02
1.400000e-07	-3.864868e-06	-3.494220e-09	-2.893553e+01	-2.318103e+02
1.500000e-07	-3.860813e-06	-3.441903e-09	-2.890516e+01	-2.316907e+02
1.600000e-07	-3.856535e-06	-3.521636e-09	-2.887313e+01	-2.315591e+02
1.700000e-07	-3.852042e-06	-3.578366e-09	-2.883950e+01	-2.314159e+02
1.800000e-07	-3.847306e-06	-3.552456e-09	-2.880404e+01	-2.312611e+02
1.900000e-07	-3.842306e-06	-3.485026e-09	-2.876661e+01	-2.310953e+02
2.000000e-07	-3.837033e-06	-3.458807e-09	-2.872712e+01	-2.309188e+02
2.100000e-07	-3.831467e-06	-3.493199e-09	-2.868546e+01	-2.307319e+02
2.200000e-07	-3.825546e-06	-3.568678e-09	-2.864112e+01	-2.305351e+02
2.300000e-07	-3.819377e-06	-3.561430e-09	-2.859494e+01	-2.303289e+02
2.400000e-07	-3.812944e-06	-3.437771e-09	-2.854678e+01	-2.301138e+02
2.500000e-07	-3.806219e-06	-3.397778e-09	-2.849643e+01	-2.298902e+02
2.600000e-07	-3.799295e-06	-3.576897e-09	-2.844459e+01	-2.296587e+02
2.700000e-07	-3.792122e-06	-3.637826e-09	-2.839089e+01	-2.294199e+02
2.800000e-07	-3.784599e-06	-3.445107e-09	-2.833456e+01	-2.291741e+02
2.900000e-07	-3.776844e-06	-3.355570e-09	-2.827651e+01	-2.289221e+02
3.000000e-07	-3.768961e-06	-3.539110e-09	-2.821749e+01	-2.286642e+02
3.100000e-07	-3.760939e-06	-3.617824e-09	-2.815742e+01	-2.284011e+02
3.200000e-07	-3.752698e-06	-3.479970e-09	-2.809573e+01	-2.281332e+02
3.300000e-07	-3.744158e-06	-3.389507e-09	-2.803179e+01	-2.278610e+02
3.400000e-07	-3.735339e-06	-3.481947e-09	-2.796576e+01	-2.275849e+02
3.500000e-07	-3.726235e-06	-3.568558e-09	-2.789761e+01	-2.273054e+02
3.600000e-07	-3.716785e-06	-3.516842e-09	-2.782686e+01	-2.270229e+02
3.700000e-07	-3.706837e-06	-3.434429e-09	-2.775238e+01	-2.267376e+02
3.800000e-07	-3.696286e-06	-3.440786e-09	-2.767338e+01	-2.264499e+02
3.900000e-07	-3.685322e-06	-3.500886e-09	-2.759130e+01	-2.261601e+02
4.000000e-07	-3.674056e-06	-3.506245e-09	-2.750695e+01	-2.258684e+02
4.100000e-07	-3.662453e-06	-3.462595e-09	-2.742008e+01	-2.255750e+02
4.200000e-07	-3.650662e-06	-3.409261e-09	-2.733180e+01	-2.252800e+02
4.300000e-07	-3.638704e-06	-3.417065e-09	-2.724227e+01	-2.249834e+02
4.400000e-07	-3.626429e-06	-3.475616e-09	-2.715037e+01	-2.246853e+02
4.500000e-07	-3.613786e-06	-3.492032e-09	-2.705572e+01	-2.243857e+02
4.600000e-07	-3.600922e-06	-3.404478e-09	-2.695941e+01	-2.240845e+02
4.700000e-07	-3.587844e-06	-3.372106e-09	-2.686150e+01	-2.237816e+02
4.800000e-07	-3.574470e-06	-3.461008e-09	-2.676137e+01	-2.234768e+02
4.900000e-07	-3.560780e-06	-3.496814e-09	-2.665887e+01	-2.231699e+02
5.000000e-07	-3.546798e-06	-3.385729e-09	-2.655420e+01	-2.228607e+02
5.100000e-07	-3.532621e-06	-3.339710e-09	-2.644805e+01	-2.225489e+02
5.200000e-07	-3.518118e-06	-3.426220e-09	-2.633947e+01	-2.222341e+02
5.300000e-07	-3.503255e-06	-3.456252e-09	-2.622820e+01	-2.219160e+02
5.400000e-07	-3.488152e-06	-3.369039e-09	-2.611512e+01	-2.215943e+02
5.500000e-07	-3.472728e-06	-3.342348e-09	-2.599965e+01	-2.212685e+02
5.600000e-07	-3.456850e-06	-3.395023e-09	-2.588077e+01	-2.209382e+02
5.700000e-07	-3.440551e-06	-3.403533e-09	-2.575874e+01	-2.206030e+02
5.800000e-07	-3.423927e-06	-3.361577e-09	-2.563428e+01	-2.202624e+02
5.900000e-07	-3.407196e-06	-3.346703e-09	-2.550902e+01	-2.199161e+02
6.000000e-07	-3.390343e-06	-3.349866e-09	-2.538284e+01	-2.195635e+02
6.100000e-07	-3.373124e-06	-3.351371e-09	-2.525393e+01	-2.192042e+02
6.200000e-07	-3.355709e-06	-3.359317e-09	-2.512355e+01	-2.188379e+02
6.300000e-07	-3.338158e-06	-3.342139e-09	-2.499215e+01	-2.184640e+02
6.400000e-07	-3.320389e-06	-3.305619e-09	-2.485911e+01	-2.180821e+02
6.500000e-07	-3.302398e-06	-3.310393e-09	-2.472442e+01	-2.176920e+02
6.600000e-07	-3.284141e-06	-3.340545e-09	-2.458773e+01	-2.172932e+02
6.700000e-07	-3.265575e-06	-3.316486e-09	-2.444873e+01	-2.168854e+02
6.800000e-07	-3.246751e-06	-3.273044e-09	-2.430780e+01	-2.164683e+02
6.900000e-07	-3.227679e-06	-3.285067e-09	-2.416501e+01	-2.160416e+02
7.000000e-07	-3.208354e-06	-3.315524e-09	-2.402033e+01	-2.156052e+02
7.100000e-07	-3.188819e-06	-3.289413e-09	-2.387408e+01	-2.151587e+02
7.200000e-07	-3.169145e-06	-3.251193e-09	-2.372678e+01	-2.147021e+02
7.300000e-07	-3.149392e-06	-3.251423e-09	-2.357889e+01	-2.142351e+02
7.400000e-07	-3.129537e-06	-3.263530e-09	-2.343024e+01	-2.137578e+02
7.500000e-07	-3.109539e-06	-3.250529e-09	-2.328052e+01	-2.132700e+02
7.600000e-07	-3.089466e-06	-3.230931e-09	-2.313024e+01	-2.127718e+02
7.700000e-07	-3.069317e-06	-3.216945e-09	-2.297938e+01	-2.122630e+02
7.800000e-07	-3.048891e-06	-3.215972e-09	-2.282646e+01	-2.117438e+02
7.900000e-07	-3.028144e-06	-3.215037e-09	-2.267113e+01	-2.112143e+02
8.000000e-07	-3.007174e-06	-3.203687e-09	-2.251413e+01	-2.106744e+02
8.100000e-07	-2.985959e-06	-3.181569e-09	-2.235530e+01	-2.101244e+02
8.200000e-07	-2.964494e-06	-3.170532e-09	-2.219460e+01	-2.095643e+02
8.300000e-07	-2.942853e-06	-3.175250e-09	-2.203257e+01	-2.089943e+02
8.400000e-07	-2.921042e-06	-3.169416e-09	-2.186928e+01	-2.084146e+02
8.500000e-07	-2.899040e-06	-3.145126e-09	-2.170456e+01	-2.078253e+02
8.600000e-07	-2.876819e-06	-3.129999e-09	-2.153819e+01	-2.072266e+02
8.700000e-07	-2.854382e-06	-3.132613e-09	-2.137021e+01	-2.066187e+02
8.800000e-07	-2.831765e-06	-3.130820e-09	-2.120088e+01	-2.060017e+02
8.900000e-07	-2.808933e-06	-3.110009e-09	-2.102994e+01	-2.053759e+02
9.000000e-07	-2.785875e-06	-3.094409e-09	-2.085731e+01	-2.047413e+02
9.100000e-07	-2.762662e-06	-3.097361e-09	-2.068352e+01	-2.040981e+02
9.200000e-07	-2.739282e-06	-3.095641e-09	-2.050848e+01	-2.034464e+02
9.300000e-07	-2.715685e-06	-3.079942e-09	-2.033181e+01	-2.027864e+02
9.400000e-07	-2.691933e-06	-3.062334e-09	-2.015398e+01	-2.021181e+02
9.500000e-07	-2.668103e-06	-3.054475e-09	-1.997558e+01	-2.014416e+02
9.600000e-07	-2.644193e-06	-3.045994e-09	-1.979657e+01	-2.007568e+02
9.700000e-07	-2.620162e-06	-3.034590e-09	-1.961665e+01	-2.000638e+02
9.800000e-07	-2.595898e-06	-3.020534e-09	-1.943499e+01	-1.993626e+02
9.900000e-07	-2.571497e-06	-3.008243e-09	-1.925230e+01	-1.986531e+02
1.000000e-06	-2.547056e-06	-2.999455e-09	-1.906932e+01	-1.979351e+02
1.010000e-06	-2.522397e-06	-2.993277e-09	-1.888470e+01	-1.972086e+02
1.020000e-06	-2.497522e-06	-2.979702e-09	-1.869846e+01	-1.964734e+02
1.030000e-06	-2.472412e-06	-2.961448e-09	-1.851047e+01	-1.957292e+02
1.040000e-06	-2.446953e-06	-2.949341e-09	-1.831986e+01	-1.949759e+02
1.050000e-06	-2.421134e-06	-2.942416e-09	-1.812656e+01	-1.942131e+02
1.060000e-06	-2.394891e-06	-2.928679e-09	-1.793009e+01	-1.934405e+02
1.070000e-06	-2.368285e-06	-2.908917e-09	-1.773089e+01	-1.926579e+02
1.080000e-06	-2.341387e-06	-2.894201e-09	-1.752951e+01	-1.918649e+02
1.090000e-06	-2.314342e-06	-2.886512e-09	-1.732703e+01	-1.910611e+02
1.100000e-06	-2.287111e-06	-2.874523e-09	-1.712316e+01	-1.902460e+02
1.110000e-06	-2.259612e-06	-2.857940e-09	-1.691728e+01	-1.894194e+02
1.120000e-06	-2.232006e-06	-2.843638e-09	-1.671060e+01	-1.885806e+02
1.130000e-06	-2.204324e-06	-2.830687e-09	-1.650335e+01	-1.877294e+02
1.140000e-06	-2.176536e-06	-2.817155e-09	-1.629530e+01	-1.868652e+02
1.150000e-06	-2.148673e-06	-2.802019e-09	-1.608670e+01	-1.859875e+02
1.160000e-06	-2.120787e-06	-2.784196e-09	-1.587793e+01	-1.850959e+02
1.170000e-06	-2.092833e-06	-2.766152e-09	-1.566864e+01	-1.841899e+02
1.180000e-06	-2.064835e-06	-2.750347e-09	-1.545902e+01	-1.832690e+02
1.190000e-06	-2.036770e-06	-2.734778e-09	-1.524890e+01	-1.823328e+02
1.200000e-06	-2.008512e-06	-2.719989e-09	-1.503735e+01	-1.813807e+02
1.210000e-06	-1.980079e-06	-2.703247e-09	-1.482447e+01	-1.804123e+02
1.220000e-06	-1.951460e-06	-2.686486e-09	-1.461021e+01	-1.794271e+02
1.230000e-06	-1.922669e-06	-2.672244e-09	-1.439465e+01	-1.784247e+02
1.240000e-06	-1.893918e-06	-2.657145e-09	-1.417940e+01	-1.774046e+02
1.250000e-06	-1.865009e-06	-2.637481e-09	-1.396296e+01	-1.763663e+02
1.260000e-06	-1.835771e-06	-2.617493e-09	-1.374407e+01	-1.753095e+02
1.270000e-06	-1.806486e-06	-2.598930e-09	-1.352481e+01	-1.742337e+02
1.280000e-06	-1.777089e-06	-2.582912e-09	-1.330473e+01	-1.731385e+02
1.290000e-06	-1.747549e-06	-2.565744e-09	-1.308356e+01	-1.720234e+02
1.300000e-06	-1.717944e-06	-2.549828e-09	-1.286191e+01	-1.708881e+02
1.310000e-06	-1.688204e-06	-2.532407e-09	-1.263926e+01	-1.697322e+02
1.320000e-06	-1.658338e-06	-2.512396e-09	-1.241566e+01	-1.685551e+02
1.330000e-06	-1.628402e-06	-2.492817e-09	-1.219153e+01	-1.673565e+02
1.340000e-06	-1.598417e-06	-2.472517e-09	-1.196704e+01	-1.661360e+02
1.350000e-06	-1.568308e-06	-2.452984e-09	-1.174162e+01	-1.648932e+02
1.360000e-06	-1.538032e-06	-2.433840e-09	-1.151495e+01	-1.636275e+02
1.370000e-06	-1.507717e-06	-2.410774e-09	-1.128799e+01	-1.623385e+02
1.380000e-06	-1.477344e-06	-2.387859e-09	-1.106059e+01	-1.610257e+02
1.390000e-06	-1.446848e-06	-2.367368e-09	-1.083228e+01	-1.596886e+02
1.400000e-06	-1.416179e-06	-2.346277e-09	-1.060266e+01	-1.583267e+02
1.410000e-06	-1.385417e-06	-2.325045e-09	-1.037235e+01	-1.569393e+02
1.420000e-06	-1.354617e-06	-2.303468e-09	-1.014175e+01	-1.555259e+02
1.430000e-06	-1.323718e-06	-2.282370e-09	-9.910419e+00	-1.540858e+02
1.440000e-06	-1.292729e-06	-2.259146e-09	-9.678412e+00	-1.526184e+02
1.450000e-06	-1.261576e-06	-2.235695e-09	-9.445174e+00	-1.511228e+02
1.460000e-06	-1.230325e-06	-2.210414e-09	-9.211205e+00	-1.495982e+02
1.470000e-06	-1.198984e-06	-2.181732e-09	-8.976559e+00	-1.480440e+02
1.480000e-06	-1.167545e-06	-2.155495e-09	-8.741185e+00	-1.464591e+02
1.490000e-06	-1.136019e-06	-2.132014e-09	-8.505158e+00	-1.448427e+02
1.500000e-06	-1.104434e-06	-2.105318e-09	-8.268688e+00	-1.431937e+02
1.510000e-06	-1.072798e-06	-2.077072e-09	-8.031830e+00	-1.415112e+02
1.520000e-06	-1.041125e-06	-2.047773e-09	-7.794701e+00	-1.397940e+02
1.530000e-06	-1.009412e-06	-2.020305e-09	-7.557272e+00	-1.380411e+02
1.540000e-06	-9.776338e-07	-1.994475e-09	-7.319356e+00	-1.362513e+02
1.550000e-06	-9.458443e-07	-1.966016e-09	-7.081354e+00	-1.344233e+02
1.560000e-06	-9.140505e-07	-1.934404e-09	-6.843320e+00	-1.325560e+02
1.570000e-06	-8.822327e-07	-1.905112e-09	-6.605106e+00	-1.306481e+02
1.580000e-06	-8.503544e-07	-1.875860e-09	-6.366439e+00	-1.286983e+02
1.590000e-06	-8.184235e-07	-1.844100e-09	-6.127379e+00	-1.267052e+02
1.600000e-06	-7.864624e-07	-1.810841e-09	-5.888092e+00	-1.246677e+02
1.610000e-06	-7.545005e-07	-1.780771e-09	-5.648800e+00	-1.225843e+02
1.620000e-06	-7.225247e-07	-1.751710e-09	-5.409404e+00	-1.204537e+02
1.630000e-06	-6.905376e-07	-1.719810e-09	-5.169922e+00	-1.182747e+02
1.640000e-06	-6.585119e-07	-1.687921e-09	-4.930152e+00	-1.160460e+02
1.650000e-06	-6.264815e-07	-1.654421e-09	-4.690346e+00	-1.137663e+02
1.660000e-06	-5.944096e-07	-1.618873e-09	-4.450230e+00	-1.114345e+02
1.670000e-06	-5.622419e-07	-1.581494e-09	-4.209397e+00	-1.090493e+02
1.680000e-06	-5.301272e-07	-1.543533e-09	-3.968960e+00	-1.066098e+02
1.690000e-06	-4.980512e-07	-1.504389e-09	-3.728813e+00	-1.041149e+02
1.700000e-06	-4.658590e-07	-1.465972e-09	-3.487797e+00	-1.015637e+02
1.710000e-06	-4.335537e-07	-1.427792e-09	-3.245933e+00	-9.895542e+01
1.720000e-06	-4.012616e-07	-1.389258e-09	-3.004168e+00	-9.628929e+01
1.730000e-06	-3.689749e-07	-1.349907e-09	-2.762444e+00	-9.356473e+01
1.740000e-06	-3.366623e-07	-1.311015e-09	-2.520526e+00	-9.078129e+01
1.750000e-06	-3.043182e-07	-1.273284e-09	-2.278372e+00	-8.793862e+01
1.760000e-06	-2.719168e-07	-1.234457e-09	-2.035789e+00	-8.503653e+01
1.770000e-06	-2.395197e-07	-1.192230e-09	-1.793238e+00	-8.207498e+01
1.780000e-06	-2.070691e-07	-1.149176e-09	-1.550286e+00	-7.905410e+01
1.790000e-06	-1.746164e-07	-1.104920e-09	-1.307319e+00	-7.597417e+01
1.800000e-06	-1.422513e-07	-1.057776e-09	-1.065008e+00	-7.283565e+01
1.810000e-06	-1.097521e-07	-1.010961e-09	-8.216928e-01	-6.963917e+01
1.820000e-06	-7.725437e-08	-9.652913e-10	-5.783886e-01	-6.638555e+01
1.830000e-06	-4.483604e-08	-9.189497e-10	-3.356788e-01	-6.307579e+01
1.840000e-06	-1.230279e-08	-8.688752e-10	-9.210859e-02	-5.971106e+01
1.850000e-06	2.023773e-08	-8.171424e-10	1.515160e-01	-5.629274e+01
1.860000e-06	5.274378e-08	-7.657895e-10	3.948825e-01	-5.282238e+01
1.870000e-06	8.529464e-08	-7.147748e-10	6.385845e-01	-4.930170e+01
1.880000e-06	1.177543e-07	-6.630234e-10	8.816040e-01	-4.573263e+01
1.890000e-06	1.501347e-07	-6.091792e-10	1.124029e+00	-4.211726e+01
1.900000e-06	1.825649e-07	-5.535426e-10	1.366828e+00	-3.845784e+01
1.910000e-06	2.149714e-07	-4.985700e-10	1.609449e+00	-3.475681e+01
1.920000e-06	2.473941e-07	-4.460422e-10	1.852192e+00	-3.101674e+01
1.930000e-06	2.798357e-07	-3.924145e-10	2.095076e+00	-2.724037e+01
1.940000e-06	3.122850e-07	-3.391214e-10	2.338017e+00	-2.343057e+01
1.950000e-06	3.446789e-07	-2.845474e-10	2.580545e+00	-1.959034e+01
1.960000e-06	3.769255e-07	-2.271636e-10	2.821968e+00	-1.572280e+01
1.970000e-06	4.091542e-07	-1.684225e-10	3.063259e+00	-1.183119e+01
1.980000e-06	4.414134e-07	-1.108144e-10	3.304777e+00	-7.918824e+00
1.990000e-06	4.736147e-07	-5.357384e-11	3.545862e+00	-3.989102e+00
2.000000e-06	5.058241e-07	8.527409e-12	3.787007e+00	-4.549937e-02
2.010000e-06	5.379892e-07	6.944745e-11	4.027822e+00	3.908460e+00
2.020000e-06	5.700669e-07	1.245641e-10	4.267981e+00	7.869211e+00
2.030000e-06	6.021692e-07	1.789772e-10	4.508325e+00	1.183316e+01
2.040000e-06	6.342703e-07	2.393221e-10	4.748660e+00	1.579672e+01
2.050000e-06	6.663328e-07	3.018646e-10	4.988706e+00	1.975628e+01
2.060000e-06	6.983223e-07	3.598199e-10	5.228205e+00	2.370827e+01
2.070000e-06	7.302465e-07	4.132627e-10	5.467215e+00	2.764915e+01
2.080000e-06	7.621700e-07	4.677448e-10	5.706220e+00	3.157541e+01
2.090000e-06	7.940785e-07	5.246157e-10	5.945113e+00	3.548363e+01
2.100000e-06	8.259656e-07	5.802295e-10	6.183845e+00	3.937044e+01
2.110000e-06	8.578360e-07	6.340678e-10	6.422453e+00	4.323257e+01
2.120000e-06	8.897278e-07	6.862196e-10	6.661221e+00	4.706683e+01
2.130000e-06	9.216168e-07	7.403600e-10	6.899967e+00	5.087018e+01
2.140000e-06	9.534715e-07	7.944869e-10	7.138458e+00	5.463965e+01
2.150000e-06	9.852880e-07	8.473655e-10	7.376661e+00	5.837244e+01
2.160000e-06	1.017042e-06	8.999854e-10	7.614394e+00	6.206586e+01
2.170000e-06	1.048797e-06	9.530462e-10	7.852140e+00	6.571739e+01
2.180000e-06	1.080545e-06	1.005650e-09	8.089832e+00	6.932464e+01
2.190000e-06	1.112230e-06	1.056318e-09	8.327050e+00	7.288541e+01
2.200000e-06	1.143825e-06	1.104890e-09	8.563597e+00	7.639763e+01
2.210000e-06	1.175304e-06	1.154233e-09	8.799275e+00	7.985943e+01
2.220000e-06	1.206663e-06	1.203875e-09	9.034054e+00	8.326907e+01
2.230000e-06	1.237940e-06	1.249088e-09	9.268215e+00	8.662503e+01
2.240000e-06	1.269075e-06	1.295004e-09	9.501319e+00	8.992592e+01
2.250000e-06	1.300083e-06	1.343831e-09	9.733472e+00	9.317055e+01
2.260000e-06	1.331043e-06	1.389066e-09	9.965264e+00	9.635788e+01
2.270000e-06	1.361899e-06	1.431558e-09	1.019628e+01	9.948707e+01
2.280000e-06	1.392566e-06	1.476672e-09	1.042588e+01	1.025574e+02
2.290000e-06	1.423144e-06	1.523459e-09	1.065480e+01	1.055684e+02
2.300000e-06	1.453708e-06	1.567543e-09	1.088363e+01	1.085196e+02
2.310000e-06	1.484170e-06	1.607343e-09	1.111169e+01	1.114108e+02
2.320000e-06	1.514444e-06	1.646156e-09	1.133835e+01	1.142419e+02
2.330000e-06	1.544600e-06	1.686212e-09	1.156413e+01	1.170131e+02
2.340000e-06	1.574694e-06	1.726286e-09	1.178943e+01	1.197244e+02
2.350000e-06	1.604748e-06	1.763123e-09	1.201444e+01	1.223763e+02
2.360000e-06	1.634718e-06	1.801388e-09	1.223882e+01	1.249690e+02
2.370000e-06	1.664509e-06	1.841884e-09	1.246186e+01	1.275033e+02
2.380000e-06	1.694236e-06	1.881498e-09	1.268442e+01	1.299797e+02
2.390000e-06	1.723853e-06	1.918488e-09	1.290616e+01	1.323989e+02
2.400000e-06	1.753361e-06	1.953156e-09	1.312708e+01	1.347618e+02
2.410000e-06	1.782819e-06	1.984789e-09	1.334762e+01	1.370692e+02
2.420000e-06	1.812096e-06	2.017717e-09	1.356681e+01	1.393222e+02
2.430000e-06	1.841240e-06	2.051896e-09	1.378501e+01	1.415217e+02
2.440000e-06	1.870283e-06	2.080589e-09	1.400245e+01	1.436687e+02
2.450000e-06	1.899132e-06	2.107539e-09	1.421843e+01	1.457645e+02
2.460000e-06	1.927885e-06	2.140140e-09	1.443370e+01	1.478101e+02
2.470000e-06	1.956551e-06	2.173788e-09	1.464832e+01	1.498066e+02
2.480000e-06	1.985029e-06	2.205449e-09	1.486153e+01	1.517554e+02
2.490000e-06	2.013312e-06	2.235978e-09	1.507328e+01	1.536575e+02
2.500000e-06	2.041445e-06	2.264344e-09	1.528391e+01	1.555142e+02
2.510000e-06	2.069442e-06	2.294300e-09	1.549351e+01	1.573267e+02
2.520000e-06	2.097343e-06	2.320516e-09	1.570240e+01	1.590962e+02
2.530000e-06	2.125233e-06	2.341890e-09	1.591121e+01	1.608239e+02
2.540000e-06	2.153133e-06	2.363323e-09	1.612010e+01	1.625110e+02
2.550000e-06	2.180934e-06	2.389408e-09	1.632823e+01	1.641586e+02
2.560000e-06	2.208582e-06	2.416198e-09	1.653523e+01	1.657679e+02
2.570000e-06	2.236072e-06	2.445631e-09	1.674104e+01	1.673400e+02
2.580000e-06	2.263549e-06	2.474784e-09	1.694675e+01	1.688761e+02
2.590000e-06	2.290988e-06	2.500523e-09	1.715218e+01	1.703772e+02
2.600000e-06	2.318146e-06	2.523763e-09	1.735551e+01	1.718444e+02
2.610000e-06	2.345072e-06	2.545648e-09	1.755710e+01	1.732787e+02
2.620000e-06	2.371851e-06	2.565926e-09	1.775759e+01	1.746811e+02
2.630000e-06	2.398338e-06	2.584855e-09	1.795590e+01	1.760525e+02
2.640000e-06	2.424407e-06	2.604509e-09	1.815107e+01	1.773939e+02
2.650000e-06	2.450128e-06	2.627161e-09	1.834364e+01	1.787062e+02
2.660000e-06	2.475551e-06	2.651071e-09	1.853398e+01	1.799902e+02
2.670000e-06	2.500670e-06	2.673770e-09	1.872204e+01	1.812469e+02
2.680000e-06	2.525553e-06	2.696557e-09	1.890833e+01	1.824770e+02
2.690000e-06	2.550203e-06	2.716123e-09	1.909288e+01	1.836813e+02
2.700000e-06	2.574542e-06	2.733973e-09	1.927510e+01	1.848606e+02
2.710000e-06	2.598669e-06	2.752910e-09	1.945573e+01	1.860155e+02
2.720000e-06	2.622653e-06	2.768625e-09	1.963530e+01	1.871469e+02
2.730000e-06	2.646550e-06	2.778770e-09	1.981421e+01	1.882554e+02
2.740000e-06	2.670337e-06	2.790452e-09	1.999230e+01	1.893415e+02
2.750000e-06	2.694011e-06	2.806337e-09	2.016954e+01	1.904061e+02
2.760000e-06	2.717498e-06	2.826254e-09	2.034539e+01	1.914496e+02
2.770000e-06	2.740815e-06	2.842882e-09	2.051996e+01	1.924727e+02
2.780000e-06	2.764033e-06	2.857908e-09	2.069378e+01	1.934758e+02
2.790000e-06	2.787082e-06	2.876372e-09	2.086635e+01	1.944596e+02
2.800000e-06	2.809875e-06	2.896832e-09	2.103700e+01	1.954246e+02
2.810000e-06	2.832335e-06	2.913661e-09	2.120515e+01	1.963712e+02
2.820000e-06	2.854690e-06	2.927904e-09	2.137252e+01	1.972999e+02
2.830000e-06	2.876922e-06	2.941719e-09	2.153896e+01	1.982112e+02
2.840000e-06	2.898932e-06	2.955761e-09	2.170374e+01	1.991054e+02
2.850000e-06	2.920745e-06	2.973683e-09	2.186705e+01	1.999831e+02
2.860000e-06	2.942328e-06	2.991722e-09	2.202864e+01	2.008445e+02
2.870000e-06	2.963757e-06	3.008543e-09	2.218908e+01	2.016900e+02
2.880000e-06	2.985005e-06	3.025019e-09	2.234816e+01	2.025200e+02
2.890000e-06	3.006041e-06	3.041534e-09	2.250565e+01	2.033348e+02
2.900000e-06	3.026904e-06	3.055835e-09	2.266185e+01	2.041347e+02
