# Temperatura_=_20.0
# Concentracion g/m^3_=_9000.0
# C_Vs_to_Am_M_A/Vsm_=_65563218390.804596
# pendiente_HvsI_1/m_=_3716.3
# ordenada_HvsI_A/m_=_1297.0
# frecuencia_Hz_=_134998.88572213348

Tiempo_(s)	Campo_(V.s)	Magnetizacion_(V.s)	Campo_(kA/m)	Magnetizacion_(A/m)
0.000000e+00	-3.903439e-06	-3.462094e-09	-2.914713e+01	-2.280655e+02
1.000000e-08	-3.903565e-06	-3.456627e-09	-2.914807e+01	-2.280637e+02
2.000000e-08	-3.903434e-06	-3.454527e-09	-2.914709e+01	-2.280558e+02
3.000000e-08	-3.903153e-06	-3.457173e-09	-2.914500e+01	-2.280419e+02
4.000000e-08	-3.902755e-06	-3.460980e-09	-2.914202e+01	-2.280222e+02
5.000000e-08	-3.902109e-06	-3.470031e-09	-2.913720e+01	-2.279967e+02
6.000000e-08	-3.901002e-06	-3.479362e-09	-2.912894e+01	-2.279656e+02
7.000000e-08	-3.899324e-06	-3.482449e-09	-2.911640e+01	-2.279288e+02
8.000000e-08	-3.897055e-06	-3.429676e-09	-2.909947e+01	-2.278865e+02
9.000000e-08	-3.894240e-06	-3.482804e-09	-2.907844e+01	-2.278388e+02
1.000000e-07	-3.891151e-06	-3.385220e-09	-2.905537e+01	-2.277857e+02
1.100000e-07	-3.887896e-06	-3.374504e-09	-2.903107e+01	-2.277273e+02
1.200000e-07	-3.884427e-06	-3.425715e-09	-2.900517e+01	-2.276636e+02
1.300000e-07	-3.880679e-06	-3.461822e-09	-2.897718e+01	-2.275948e+02
1.400000e-07	-3.876728e-06	-3.485542e-09	-2.894768e+01	-2.275209e+02
1.500000e-07	-3.872611e-06	-3.475332e-09	-2.891694e+01	-2.274419e+02
1.600000e-07	-3.868354e-06	-3.522587e-09	-2.888515e+01	-2.273579e+02
1.700000e-07	-3.863949e-06	-3.437221e-09	-2.885226e+01	-2.272688e+02
1.800000e-07	-3.859258e-06	-3.485455e-09	-2.881723e+01	-2.271748e+02
1.900000e-07	-3.854180e-06	-3.458043e-09	-2.877931e+01	-2.270758e+02
2.000000e-07	-3.848782e-06	-3.496937e-09	-2.873901e+01	-2.269719e+02
2.100000e-07	-3.843108e-06	-3.451904e-09	-2.869664e+01	-2.268629e+02
2.200000e-07	-3.837214e-06	-3.480098e-09	-2.865262e+01	-2.267491e+02
2.300000e-07	-3.831163e-06	-3.454907e-09	-2.860744e+01	-2.266302e+02
2.400000e-07	-3.824810e-06	-3.443321e-09	-2.856001e+01	-2.265063e+02
2.500000e-07	-3.818147e-06	-3.456121e-09	-2.851025e+01	-2.263774e+02
2.600000e-07	-3.811187e-06	-3.475705e-09	-2.845829e+01	-2.262433e+02
2.700000e-07	-3.803850e-06	-3.436552e-09	-2.840349e+01	-2.261041e+02
2.800000e-07	-3.796250e-06	-3.404190e-09	-2.834675e+01	-2.259596e+02
2.900000e-07	-3.788517e-06	-3.463262e-09	-2.828900e+01	-2.258098e+02
3.000000e-07	-3.780630e-06	-3.476164e-09	-2.823011e+01	-2.256546e+02
3.100000e-07	-3.772628e-06	-3.429283e-09	-2.817036e+01	-2.254939e+02
3.200000e-07	-3.764456e-06	-3.394357e-09	-2.810934e+01	-2.253276e+02
3.300000e-07	-3.756022e-06	-3.460670e-09	-2.804636e+01	-2.251556e+02
3.400000e-07	-3.747246e-06	-3.456382e-09	-2.798083e+01	-2.249777e+02
3.500000e-07	-3.738210e-06	-3.434436e-09	-2.791336e+01	-2.247938e+02
3.600000e-07	-3.728833e-06	-3.389877e-09	-2.784334e+01	-2.246038e+02
3.700000e-07	-3.718861e-06	-3.438025e-09	-2.776888e+01	-2.244076e+02
3.800000e-07	-3.708353e-06	-3.436415e-09	-2.769042e+01	-2.242050e+02
3.900000e-07	-3.697448e-06	-3.436963e-09	-2.760899e+01	-2.239959e+02
4.000000e-07	-3.686222e-06	-3.389309e-09	-2.752516e+01	-2.237800e+02
4.100000e-07	-3.674683e-06	-3.409230e-09	-2.743900e+01	-2.235574e+02
4.200000e-07	-3.662818e-06	-3.405999e-09	-2.735040e+01	-2.233278e+02
4.300000e-07	-3.650649e-06	-3.415285e-09	-2.725954e+01	-2.230911e+02
4.400000e-07	-3.638242e-06	-3.392705e-09	-2.716689e+01	-2.228472e+02
4.500000e-07	-3.625656e-06	-3.387623e-09	-2.707292e+01	-2.225958e+02
4.600000e-07	-3.612747e-06	-3.377485e-09	-2.697652e+01	-2.223370e+02
4.700000e-07	-3.599466e-06	-3.395966e-09	-2.687736e+01	-2.220705e+02
4.800000e-07	-3.585986e-06	-3.397499e-09	-2.677670e+01	-2.217963e+02
4.900000e-07	-3.572287e-06	-3.361561e-09	-2.667441e+01	-2.215143e+02
5.000000e-07	-3.558367e-06	-3.343588e-09	-2.657047e+01	-2.212243e+02
5.100000e-07	-3.544138e-06	-3.371478e-09	-2.646422e+01	-2.209263e+02
5.200000e-07	-3.529633e-06	-3.388836e-09	-2.635591e+01	-2.206202e+02
5.300000e-07	-3.514788e-06	-3.342923e-09	-2.624506e+01	-2.203060e+02
5.400000e-07	-3.499489e-06	-3.327926e-09	-2.613082e+01	-2.199836e+02
5.500000e-07	-3.483938e-06	-3.349611e-09	-2.601470e+01	-2.196530e+02
5.600000e-07	-3.467970e-06	-3.361704e-09	-2.589547e+01	-2.193141e+02
5.700000e-07	-3.451584e-06	-3.319685e-09	-2.577311e+01	-2.189670e+02
5.800000e-07	-3.434914e-06	-3.312675e-09	-2.564864e+01	-2.186117e+02
5.900000e-07	-3.417971e-06	-3.315393e-09	-2.552212e+01	-2.182483e+02
6.000000e-07	-3.400876e-06	-3.320543e-09	-2.539448e+01	-2.178766e+02
6.100000e-07	-3.383615e-06	-3.303983e-09	-2.526559e+01	-2.174970e+02
6.200000e-07	-3.366202e-06	-3.304812e-09	-2.513556e+01	-2.171093e+02
6.300000e-07	-3.348615e-06	-3.288414e-09	-2.500424e+01	-2.167136e+02
6.400000e-07	-3.330760e-06	-3.288324e-09	-2.487092e+01	-2.163102e+02
6.500000e-07	-3.312659e-06	-3.287730e-09	-2.473575e+01	-2.158990e+02
6.600000e-07	-3.294331e-06	-3.284378e-09	-2.459890e+01	-2.154802e+02
6.700000e-07	-3.275790e-06	-3.258688e-09	-2.446045e+01	-2.150539e+02
6.800000e-07	-3.257009e-06	-3.258213e-09	-2.432021e+01	-2.146202e+02
6.900000e-07	-3.237983e-06	-3.265355e-09	-2.417814e+01	-2.141792e+02
7.000000e-07	-3.218671e-06	-3.257746e-09	-2.403394e+01	-2.137312e+02
7.100000e-07	-3.199076e-06	-3.233020e-09	-2.388763e+01	-2.132761e+02
7.200000e-07	-3.179376e-06	-3.228897e-09	-2.374053e+01	-2.128142e+02
7.300000e-07	-3.159582e-06	-3.228102e-09	-2.359272e+01	-2.123455e+02
7.400000e-07	-3.139649e-06	-3.215963e-09	-2.344388e+01	-2.118702e+02
7.500000e-07	-3.119651e-06	-3.203257e-09	-2.329455e+01	-2.113884e+02
7.600000e-07	-3.099546e-06	-3.197632e-09	-2.314443e+01	-2.109001e+02
7.700000e-07	-3.079267e-06	-3.191705e-09	-2.299301e+01	-2.104054e+02
7.800000e-07	-3.058758e-06	-3.180639e-09	-2.283986e+01	-2.099045e+02
7.900000e-07	-3.038052e-06	-3.174717e-09	-2.268525e+01	-2.093973e+02
8.000000e-07	-3.017114e-06	-3.165746e-09	-2.252891e+01	-2.088839e+02
8.100000e-07	-2.995828e-06	-3.157811e-09	-2.236996e+01	-2.083643e+02
8.200000e-07	-2.974311e-06	-3.148091e-09	-2.220930e+01	-2.078384e+02
8.300000e-07	-2.952663e-06	-3.141886e-09	-2.204765e+01	-2.073062e+02
8.400000e-07	-2.930867e-06	-3.127694e-09	-2.188490e+01	-2.067678e+02
8.500000e-07	-2.908855e-06	-3.117966e-09	-2.172053e+01	-2.062228e+02
8.600000e-07	-2.886613e-06	-3.108186e-09	-2.155445e+01	-2.056714e+02
8.700000e-07	-2.864223e-06	-3.103944e-09	-2.138726e+01	-2.051132e+02
8.800000e-07	-2.841620e-06	-3.091590e-09	-2.121849e+01	-2.045482e+02
8.900000e-07	-2.818848e-06	-3.084549e-09	-2.104845e+01	-2.039760e+02
9.000000e-07	-2.795832e-06	-3.075904e-09	-2.087659e+01	-2.033966e+02
9.100000e-07	-2.772520e-06	-3.068925e-09	-2.070252e+01	-2.028096e+02
9.200000e-07	-2.748947e-06	-3.054969e-09	-2.052650e+01	-2.022148e+02
9.300000e-07	-2.725202e-06	-3.045760e-09	-2.034919e+01	-2.016119e+02
9.400000e-07	-2.701431e-06	-3.034156e-09	-2.017169e+01	-2.010004e+02
9.500000e-07	-2.677562e-06	-3.023095e-09	-1.999346e+01	-2.003801e+02
9.600000e-07	-2.653575e-06	-3.009660e-09	-1.981435e+01	-1.997506e+02
9.700000e-07	-2.629509e-06	-3.003707e-09	-1.963464e+01	-1.991115e+02
9.800000e-07	-2.605308e-06	-2.997667e-09	-1.945394e+01	-1.984624e+02
9.900000e-07	-2.580970e-06	-2.988953e-09	-1.927221e+01	-1.978029e+02
1.000000e-06	-2.556486e-06	-2.978359e-09	-1.908938e+01	-1.971324e+02
1.010000e-06	-2.531708e-06	-2.966837e-09	-1.890436e+01	-1.964507e+02
1.020000e-06	-2.506637e-06	-2.953612e-09	-1.871715e+01	-1.957572e+02
1.030000e-06	-2.481485e-06	-2.940975e-09	-1.852934e+01	-1.950516e+02
1.040000e-06	-2.456015e-06	-2.929324e-09	-1.833916e+01	-1.943332e+02
1.050000e-06	-2.430160e-06	-2.913097e-09	-1.814610e+01	-1.936018e+02
1.060000e-06	-2.404051e-06	-2.896825e-09	-1.795114e+01	-1.928567e+02
1.070000e-06	-2.377522e-06	-2.884762e-09	-1.775305e+01	-1.920977e+02
1.080000e-06	-2.350630e-06	-2.876445e-09	-1.755225e+01	-1.913243e+02
1.090000e-06	-2.323455e-06	-2.862121e-09	-1.734933e+01	-1.905361e+02
1.100000e-06	-2.296079e-06	-2.845879e-09	-1.714491e+01	-1.897326e+02
1.110000e-06	-2.268588e-06	-2.830301e-09	-1.693963e+01	-1.889136e+02
1.120000e-06	-2.241003e-06	-2.820333e-09	-1.673366e+01	-1.880786e+02
1.130000e-06	-2.213271e-06	-2.806461e-09	-1.652658e+01	-1.872272e+02
1.140000e-06	-2.185440e-06	-2.793551e-09	-1.631877e+01	-1.863593e+02
1.150000e-06	-2.157569e-06	-2.778313e-09	-1.611065e+01	-1.854745e+02
1.160000e-06	-2.129620e-06	-2.763525e-09	-1.590195e+01	-1.845724e+02
1.170000e-06	-2.101588e-06	-2.749546e-09	-1.569264e+01	-1.836530e+02
1.180000e-06	-2.073473e-06	-2.735308e-09	-1.548271e+01	-1.827159e+02
1.190000e-06	-2.045279e-06	-2.717685e-09	-1.527218e+01	-1.817609e+02
1.200000e-06	-2.016978e-06	-2.703505e-09	-1.506085e+01	-1.807880e+02
1.210000e-06	-1.988548e-06	-2.689620e-09	-1.484856e+01	-1.797968e+02
1.220000e-06	-1.959964e-06	-2.678482e-09	-1.463513e+01	-1.787873e+02
1.230000e-06	-1.931263e-06	-2.662374e-09	-1.442082e+01	-1.777593e+02
1.240000e-06	-1.902407e-06	-2.642712e-09	-1.420535e+01	-1.767128e+02
1.250000e-06	-1.873300e-06	-2.624226e-09	-1.398801e+01	-1.756476e+02
1.260000e-06	-1.843996e-06	-2.610225e-09	-1.376919e+01	-1.745636e+02
1.270000e-06	-1.814550e-06	-2.590400e-09	-1.354931e+01	-1.734608e+02
1.280000e-06	-1.785051e-06	-2.568202e-09	-1.332905e+01	-1.723390e+02
1.290000e-06	-1.755467e-06	-2.550924e-09	-1.310814e+01	-1.711982e+02
1.300000e-06	-1.725828e-06	-2.537181e-09	-1.288682e+01	-1.700382e+02
1.310000e-06	-1.696146e-06	-2.521125e-09	-1.266519e+01	-1.688589e+02
1.320000e-06	-1.666301e-06	-2.497933e-09	-1.244234e+01	-1.676602e+02
1.330000e-06	-1.636325e-06	-2.476456e-09	-1.221851e+01	-1.664419e+02
1.340000e-06	-1.606286e-06	-2.456207e-09	-1.199420e+01	-1.652038e+02
1.350000e-06	-1.576126e-06	-2.437518e-09	-1.176900e+01	-1.639457e+02
1.360000e-06	-1.545876e-06	-2.416450e-09	-1.154312e+01	-1.626673e+02
1.370000e-06	-1.515583e-06	-2.392591e-09	-1.131691e+01	-1.613684e+02
1.380000e-06	-1.485181e-06	-2.369135e-09	-1.108991e+01	-1.600484e+02
1.390000e-06	-1.454536e-06	-2.351332e-09	-1.086107e+01	-1.587072e+02
1.400000e-06	-1.423790e-06	-2.328620e-09	-1.063150e+01	-1.573441e+02
1.410000e-06	-1.393171e-06	-2.308052e-09	-1.040286e+01	-1.559586e+02
1.420000e-06	-1.362436e-06	-2.289748e-09	-1.017336e+01	-1.545502e+02
1.430000e-06	-1.331489e-06	-2.269103e-09	-9.942280e+00	-1.531182e+02
1.440000e-06	-1.300368e-06	-2.244876e-09	-9.709896e+00	-1.516619e+02
1.450000e-06	-1.269114e-06	-2.221459e-09	-9.476526e+00	-1.501805e+02
1.460000e-06	-1.237870e-06	-2.197920e-09	-9.243223e+00	-1.486732e+02
1.470000e-06	-1.206528e-06	-2.172049e-09	-9.009190e+00	-1.471390e+02
1.480000e-06	-1.175006e-06	-2.145772e-09	-8.773816e+00	-1.455769e+02
1.490000e-06	-1.143432e-06	-2.118866e-09	-8.538050e+00	-1.439859e+02
1.500000e-06	-1.111799e-06	-2.092976e-09	-8.301844e+00	-1.423648e+02
1.510000e-06	-1.080114e-06	-2.068648e-09	-8.065250e+00	-1.407125e+02
1.520000e-06	-1.048349e-06	-2.043297e-09	-7.828062e+00	-1.390276e+02
1.530000e-06	-1.016509e-06	-2.017250e-09	-7.590311e+00	-1.373090e+02
1.540000e-06	-9.846507e-07	-1.990851e-09	-7.352425e+00	-1.355552e+02
1.550000e-06	-9.527493e-07	-1.962012e-09	-7.114216e+00	-1.337647e+02
1.560000e-06	-9.208040e-07	-1.928604e-09	-6.875679e+00	-1.319363e+02
1.570000e-06	-8.888293e-07	-1.898413e-09	-6.636923e+00	-1.300684e+02
1.580000e-06	-8.568490e-07	-1.868967e-09	-6.398124e+00	-1.281594e+02
1.590000e-06	-8.248685e-07	-1.835988e-09	-6.159326e+00	-1.262079e+02
1.600000e-06	-7.928921e-07	-1.805015e-09	-5.920556e+00	-1.242124e+02
1.610000e-06	-7.608328e-07	-1.776456e-09	-5.681168e+00	-1.221713e+02
1.620000e-06	-7.287800e-07	-1.746281e-09	-5.441829e+00	-1.200832e+02
1.630000e-06	-6.967206e-07	-1.713626e-09	-5.202440e+00	-1.179464e+02
1.640000e-06	-6.645721e-07	-1.679525e-09	-4.962386e+00	-1.157596e+02
1.650000e-06	-6.324513e-07	-1.644226e-09	-4.722539e+00	-1.135214e+02
1.660000e-06	-6.003280e-07	-1.610552e-09	-4.482673e+00	-1.112304e+02
1.670000e-06	-5.681433e-07	-1.576524e-09	-4.242348e+00	-1.088853e+02
1.680000e-06	-5.359153e-07	-1.539600e-09	-4.001700e+00	-1.064849e+02
1.690000e-06	-5.036245e-07	-1.501383e-09	-3.760584e+00	-1.040280e+02
1.700000e-06	-4.713334e-07	-1.466459e-09	-3.519465e+00	-1.015136e+02
1.710000e-06	-4.390478e-07	-1.430900e-09	-3.278387e+00	-9.894087e+01
1.720000e-06	-4.067322e-07	-1.392199e-09	-3.037085e+00	-9.630890e+01
1.730000e-06	-3.743890e-07	-1.351067e-09	-2.795577e+00	-9.361706e+01
1.740000e-06	-3.419868e-07	-1.311654e-09	-2.553629e+00	-9.086479e+01
1.750000e-06	-3.095662e-07	-1.273540e-09	-2.311543e+00	-8.805172e+01
1.760000e-06	-2.771635e-07	-1.233251e-09	-2.069591e+00	-8.517761e+01
1.770000e-06	-2.447160e-07	-1.188367e-09	-1.827304e+00	-8.224240e+01
1.780000e-06	-2.121815e-07	-1.142713e-09	-1.584367e+00	-7.924618e+01
1.790000e-06	-1.796430e-07	-1.097204e-09	-1.341401e+00	-7.618923e+01
1.800000e-06	-1.471276e-07	-1.052111e-09	-1.098607e+00	-7.307201e+01
1.810000e-06	-1.145918e-07	-1.007930e-09	-8.556617e-01	-6.989516e+01
1.820000e-06	-8.203893e-08	-9.621858e-10	-6.125879e-01	-6.665952e+01
1.830000e-06	-4.952268e-08	-9.150479e-10	-3.697878e-01	-6.336609e+01
1.840000e-06	-1.691751e-08	-8.671680e-10	-1.263237e-01	-6.001611e+01
1.850000e-06	1.571757e-08	-8.170158e-10	1.173637e-01	-5.661096e+01
1.860000e-06	4.825292e-08	-7.649614e-10	3.603064e-01	-5.315223e+01
1.870000e-06	8.078810e-08	-7.130666e-10	6.032479e-01	-4.964172e+01
1.880000e-06	1.133087e-07	-6.622814e-10	8.460807e-01	-4.608138e+01
1.890000e-06	1.458133e-07	-6.102779e-10	1.088794e+00	-4.247335e+01
1.900000e-06	1.783449e-07	-5.557285e-10	1.331708e+00	-3.881995e+01
1.910000e-06	2.109005e-07	-5.026300e-10	1.574802e+00	-3.512366e+01
1.920000e-06	2.433322e-07	-4.508918e-10	1.816971e+00	-3.138713e+01
1.930000e-06	2.757044e-07	-3.973478e-10	2.058695e+00	-2.761314e+01
1.940000e-06	3.081945e-07	-3.436375e-10	2.301301e+00	-2.380462e+01
1.950000e-06	3.407050e-07	-2.902860e-10	2.544058e+00	-1.996466e+01
1.960000e-06	3.731046e-07	-2.353934e-10	2.785986e+00	-1.609641e+01
1.970000e-06	4.054310e-07	-1.766555e-10	3.027369e+00	-1.220319e+01
1.980000e-06	4.377735e-07	-1.167849e-10	3.268871e+00	-8.288365e+00
1.990000e-06	4.700950e-07	-5.998001e-11	3.510218e+00	-4.355416e+00
2.000000e-06	5.024237e-07	-3.678425e-12	3.751617e+00	-4.078772e-01
2.010000e-06	5.346801e-07	5.368189e-11	3.992477e+00	3.550660e+00
2.020000e-06	5.668110e-07	1.102313e-10	4.232400e+00	7.516563e+00
2.030000e-06	5.989812e-07	1.650421e-10	4.472616e+00	1.148617e+01
2.040000e-06	6.311818e-07	2.228509e-10	4.713059e+00	1.545582e+01
2.050000e-06	6.633253e-07	2.837742e-10	4.953076e+00	1.942184e+01
2.060000e-06	6.954173e-07	3.451848e-10	5.192708e+00	2.338058e+01
2.070000e-06	7.274699e-07	4.025768e-10	5.432046e+00	2.732842e+01
2.080000e-06	7.595055e-07	4.566134e-10	5.671257e+00	3.126180e+01
2.090000e-06	7.915074e-07	5.121918e-10	5.910217e+00	3.517719e+01
2.100000e-06	8.234744e-07	5.698309e-10	6.148915e+00	3.907116e+01
2.110000e-06	8.554465e-07	6.277401e-10	6.387653e+00	4.294036e+01
2.120000e-06	8.874064e-07	6.841623e-10	6.626298e+00	4.678152e+01
2.130000e-06	9.192903e-07	7.395738e-10	6.864376e+00	5.059150e+01
2.140000e-06	9.511090e-07	7.950518e-10	7.101968e+00	5.436727e+01
2.150000e-06	9.829241e-07	8.519666e-10	7.339532e+00	5.810594e+01
2.160000e-06	1.014716e-06	9.068413e-10	7.576926e+00	6.180473e+01
2.170000e-06	1.046492e-06	9.588363e-10	7.814196e+00	6.546103e+01
2.180000e-06	1.078251e-06	1.011747e-09	8.051342e+00	6.907239e+01
2.190000e-06	1.109952e-06	1.065724e-09	8.288052e+00	7.263650e+01
2.200000e-06	1.141595e-06	1.116146e-09	8.524337e+00	7.615124e+01
2.210000e-06	1.173219e-06	1.166127e-09	8.760473e+00	7.961463e+01
2.220000e-06	1.204744e-06	1.217032e-09	8.995871e+00	8.302488e+01
2.230000e-06	1.236101e-06	1.264521e-09	9.230016e+00	8.638038e+01
2.240000e-06	1.267329e-06	1.311709e-09	9.463195e+00	8.967970e+01
2.250000e-06	1.298453e-06	1.359198e-09	9.695600e+00	9.292155e+01
2.260000e-06	1.329452e-06	1.403146e-09	9.927071e+00	9.610487e+01
2.270000e-06	1.360364e-06	1.446485e-09	1.015789e+01	9.922874e+01
2.280000e-06	1.391083e-06	1.491816e-09	1.038727e+01	1.022924e+02
2.290000e-06	1.421641e-06	1.536851e-09	1.061545e+01	1.052953e+02
2.300000e-06	1.452161e-06	1.579514e-09	1.084335e+01	1.082371e+02
2.310000e-06	1.482638e-06	1.622200e-09	1.107092e+01	1.111175e+02
2.320000e-06	1.512989e-06	1.664692e-09	1.129755e+01	1.139363e+02
2.330000e-06	1.543252e-06	1.704483e-09	1.152352e+01	1.166937e+02
2.340000e-06	1.573447e-06	1.741132e-09	1.174899e+01	1.193899e+02
2.350000e-06	1.603533e-06	1.774837e-09	1.197364e+01	1.220252e+02
2.360000e-06	1.633578e-06	1.811718e-09	1.219799e+01	1.246000e+02
2.370000e-06	1.663545e-06	1.848701e-09	1.242176e+01	1.271149e+02
2.380000e-06	1.693428e-06	1.885720e-09	1.264490e+01	1.295707e+02
2.390000e-06	1.723148e-06	1.922574e-09	1.286682e+01	1.319680e+02
2.400000e-06	1.752779e-06	1.961301e-09	1.308807e+01	1.343079e+02
2.410000e-06	1.782383e-06	1.995522e-09	1.330913e+01	1.365911e+02
2.420000e-06	1.811950e-06	2.026153e-09	1.352990e+01	1.388189e+02
2.430000e-06	1.841385e-06	2.058482e-09	1.374969e+01	1.409922e+02
2.440000e-06	1.870548e-06	2.088585e-09	1.396745e+01	1.431122e+02
2.450000e-06	1.899509e-06	2.116097e-09	1.418371e+01	1.451802e+02
2.460000e-06	1.928281e-06	2.145573e-09	1.439855e+01	1.471973e+02
2.470000e-06	1.956865e-06	2.175575e-09	1.461199e+01	1.491648e+02
2.480000e-06	1.985304e-06	2.205022e-09	1.482434e+01	1.510840e+02
2.490000e-06	2.013608e-06	2.234831e-09	1.503569e+01	1.529563e+02
2.500000e-06	2.041776e-06	2.261531e-09	1.524602e+01	1.547829e+02
2.510000e-06	2.069837e-06	2.288599e-09	1.545555e+01	1.565651e+02
2.520000e-06	2.097863e-06	2.315577e-09	1.566482e+01	1.583043e+02
2.530000e-06	2.125877e-06	2.340091e-09	1.587401e+01	1.600017e+02
2.540000e-06	2.153802e-06	2.365287e-09	1.608252e+01	1.616587e+02
2.550000e-06	2.181641e-06	2.390961e-09	1.629040e+01	1.632764e+02
2.560000e-06	2.209433e-06	2.412808e-09	1.649792e+01	1.648560e+02
2.570000e-06	2.237154e-06	2.436738e-09	1.670492e+01	1.663989e+02
2.580000e-06	2.264785e-06	2.463566e-09	1.691124e+01	1.679061e+02
2.590000e-06	2.292181e-06	2.487585e-09	1.711581e+01	1.693788e+02
2.600000e-06	2.319382e-06	2.507085e-09	1.731891e+01	1.708180e+02
2.610000e-06	2.346507e-06	2.528289e-09	1.752146e+01	1.722249e+02
2.620000e-06	2.373348e-06	2.549217e-09	1.772188e+01	1.736003e+02
2.630000e-06	2.399801e-06	2.568349e-09	1.791941e+01	1.749453e+02
2.640000e-06	2.425965e-06	2.588765e-09	1.811478e+01	1.762608e+02
2.650000e-06	2.451819e-06	2.610980e-09	1.830783e+01	1.775476e+02
2.660000e-06	2.477222e-06	2.630916e-09	1.849751e+01	1.788066e+02
2.670000e-06	2.502287e-06	2.650778e-09	1.868467e+01	1.800386e+02
2.680000e-06	2.527163e-06	2.670242e-09	1.887043e+01	1.812444e+02
2.690000e-06	2.551815e-06	2.687167e-09	1.905450e+01	1.824245e+02
2.700000e-06	2.576300e-06	2.704301e-09	1.923733e+01	1.835798e+02
2.710000e-06	2.600595e-06	2.722702e-09	1.941874e+01	1.847108e+02
2.720000e-06	2.624743e-06	2.738675e-09	1.959906e+01	1.858181e+02
2.730000e-06	2.648781e-06	2.754216e-09	1.977855e+01	1.869024e+02
2.740000e-06	2.672711e-06	2.770046e-09	1.995724e+01	1.879641e+02
2.750000e-06	2.696579e-06	2.783403e-09	2.013546e+01	1.890037e+02
2.760000e-06	2.720330e-06	2.800464e-09	2.031281e+01	1.900218e+02
2.770000e-06	2.743928e-06	2.817433e-09	2.048902e+01	1.910189e+02
2.780000e-06	2.767385e-06	2.828803e-09	2.066417e+01	1.919952e+02
2.790000e-06	2.790677e-06	2.840134e-09	2.083809e+01	1.929514e+02
2.800000e-06	2.813674e-06	2.857062e-09	2.100981e+01	1.938877e+02
2.810000e-06	2.836403e-06	2.876270e-09	2.117953e+01	1.948045e+02
2.820000e-06	2.858827e-06	2.895012e-09	2.134698e+01	1.957024e+02
2.830000e-06	2.880999e-06	2.912543e-09	2.151253e+01	1.965815e+02
2.840000e-06	2.903027e-06	2.928568e-09	2.167701e+01	1.974423e+02
2.850000e-06	2.924948e-06	2.947105e-09	2.184070e+01	1.982851e+02
2.860000e-06	2.946771e-06	2.965322e-09	2.200365e+01	1.991103e+02
2.870000e-06	2.968373e-06	2.979681e-09	2.216495e+01	1.999181e+02
2.880000e-06	2.989736e-06	2.989851e-09	2.232447e+01	2.007090e+02
2.890000e-06	3.010792e-06	3.000299e-09	2.248170e+01	2.014832e+02
2.900000e-06	3.031598e-06	3.012796e-09	2.263706e+01	2.022412e+02
