# Temperatura_=_20.0
# Concentracion g/m^3_=_9000.0
# C_Vs_to_Am_M_A/Vsm_=_65563218390.804596
# pendiente_HvsI_1/m_=_3716.3
# ordenada_HvsI_A/m_=_1297.0
# frecuencia_Hz_=_134998.5782490805

Tiempo_(s)	Campo_(V.s)	Magnetizacion_(V.s)	Campo_(kA/m)	Magnetizacion_(A/m)
0.000000e+00	-3.899874e-06	-3.479946e-09	-2.914855e+01	-2.296087e+02
1.000000e-08	-3.900020e-06	-3.478567e-09	-2.914964e+01	-2.296623e+02
2.000000e-08	-3.900084e-06	-3.477663e-09	-2.915012e+01	-2.297087e+02
3.000000e-08	-3.900002e-06	-3.477771e-09	-2.914951e+01	-2.297478e+02
4.000000e-08	-3.899679e-06	-3.478476e-09	-2.914709e+01	-2.297792e+02
5.000000e-08	-3.899098e-06	-3.479117e-09	-2.914275e+01	-2.298028e+02
6.000000e-08	-3.898178e-06	-3.483844e-09	-2.913587e+01	-2.298183e+02
7.000000e-08	-3.896710e-06	-3.505581e-09	-2.912491e+01	-2.298256e+02
8.000000e-08	-3.894529e-06	-3.501722e-09	-2.910860e+01	-2.298244e+02
9.000000e-08	-3.891815e-06	-3.469694e-09	-2.908832e+01	-2.298147e+02
1.000000e-07	-3.888888e-06	-3.464218e-09	-2.906644e+01	-2.297964e+02
1.100000e-07	-3.885662e-06	-3.490821e-09	-2.904233e+01	-2.297693e+02
1.200000e-07	-3.882111e-06	-3.458571e-09	-2.901579e+01	-2.297333e+02
1.300000e-07	-3.878453e-06	-3.478624e-09	-2.898845e+01	-2.296884e+02
1.400000e-07	-3.874665e-06	-3.525408e-09	-2.896013e+01	-2.296346e+02
1.500000e-07	-3.870636e-06	-3.473932e-09	-2.893002e+01	-2.295720e+02
1.600000e-07	-3.866427e-06	-3.448226e-09	-2.889856e+01	-2.295004e+02
1.700000e-07	-3.862009e-06	-3.469525e-09	-2.886554e+01	-2.294202e+02
1.800000e-07	-3.857343e-06	-3.505707e-09	-2.883066e+01	-2.293312e+02
1.900000e-07	-3.852375e-06	-3.491922e-09	-2.879353e+01	-2.292337e+02
2.000000e-07	-3.847105e-06	-3.466495e-09	-2.875414e+01	-2.291278e+02
2.100000e-07	-3.841605e-06	-3.451405e-09	-2.871304e+01	-2.290136e+02
2.200000e-07	-3.835818e-06	-3.463878e-09	-2.866979e+01	-2.288914e+02
2.300000e-07	-3.829744e-06	-3.490910e-09	-2.862439e+01	-2.287614e+02
2.400000e-07	-3.823462e-06	-3.512303e-09	-2.857743e+01	-2.286238e+02
2.500000e-07	-3.816944e-06	-3.455371e-09	-2.852871e+01	-2.284788e+02
2.600000e-07	-3.810080e-06	-3.400556e-09	-2.847741e+01	-2.283267e+02
2.700000e-07	-3.802872e-06	-3.470153e-09	-2.842354e+01	-2.281678e+02
2.800000e-07	-3.795439e-06	-3.540882e-09	-2.836798e+01	-2.280023e+02
2.900000e-07	-3.787793e-06	-3.451029e-09	-2.831083e+01	-2.278304e+02
3.000000e-07	-3.779970e-06	-3.373948e-09	-2.825236e+01	-2.276525e+02
3.100000e-07	-3.772024e-06	-3.452417e-09	-2.819297e+01	-2.274687e+02
3.200000e-07	-3.763949e-06	-3.514253e-09	-2.813262e+01	-2.272794e+02
3.300000e-07	-3.755593e-06	-3.454491e-09	-2.807017e+01	-2.270846e+02
3.400000e-07	-3.746845e-06	-3.390173e-09	-2.800478e+01	-2.268847e+02
3.500000e-07	-3.737823e-06	-3.425975e-09	-2.793735e+01	-2.266799e+02
3.600000e-07	-3.728417e-06	-3.471962e-09	-2.786704e+01	-2.264702e+02
3.700000e-07	-3.718533e-06	-3.459986e-09	-2.779317e+01	-2.262558e+02
3.800000e-07	-3.708266e-06	-3.411038e-09	-2.771643e+01	-2.260369e+02
3.900000e-07	-3.697549e-06	-3.406130e-09	-2.763633e+01	-2.258135e+02
4.000000e-07	-3.686327e-06	-3.427068e-09	-2.755245e+01	-2.255857e+02
4.100000e-07	-3.674785e-06	-3.438524e-09	-2.746618e+01	-2.253535e+02
4.200000e-07	-3.663094e-06	-3.418055e-09	-2.737881e+01	-2.251169e+02
4.300000e-07	-3.651202e-06	-3.390938e-09	-2.728992e+01	-2.248758e+02
4.400000e-07	-3.638948e-06	-3.382145e-09	-2.719833e+01	-2.246302e+02
4.500000e-07	-3.626373e-06	-3.416082e-09	-2.710434e+01	-2.243800e+02
4.600000e-07	-3.613625e-06	-3.433896e-09	-2.700906e+01	-2.241251e+02
4.700000e-07	-3.600599e-06	-3.392569e-09	-2.691170e+01	-2.238653e+02
4.800000e-07	-3.587274e-06	-3.355822e-09	-2.681211e+01	-2.236003e+02
4.900000e-07	-3.573748e-06	-3.396016e-09	-2.671101e+01	-2.233301e+02
5.000000e-07	-3.559983e-06	-3.427353e-09	-2.660812e+01	-2.230543e+02
5.100000e-07	-3.545858e-06	-3.374951e-09	-2.650256e+01	-2.227727e+02
5.200000e-07	-3.531394e-06	-3.331655e-09	-2.639444e+01	-2.224850e+02
5.300000e-07	-3.516696e-06	-3.371010e-09	-2.628459e+01	-2.221910e+02
5.400000e-07	-3.501654e-06	-3.398722e-09	-2.617217e+01	-2.218903e+02
5.500000e-07	-3.486170e-06	-3.358942e-09	-2.605643e+01	-2.215827e+02
5.600000e-07	-3.470281e-06	-3.333722e-09	-2.593768e+01	-2.212678e+02
5.700000e-07	-3.454025e-06	-3.355083e-09	-2.581617e+01	-2.209453e+02
5.800000e-07	-3.437489e-06	-3.363047e-09	-2.569258e+01	-2.206150e+02
5.900000e-07	-3.420746e-06	-3.339403e-09	-2.556744e+01	-2.202765e+02
6.000000e-07	-3.403755e-06	-3.325906e-09	-2.544044e+01	-2.199296e+02
6.100000e-07	-3.386533e-06	-3.322197e-09	-2.531172e+01	-2.195740e+02
6.200000e-07	-3.369137e-06	-3.318723e-09	-2.518170e+01	-2.192094e+02
6.300000e-07	-3.351647e-06	-3.320386e-09	-2.505098e+01	-2.188356e+02
6.400000e-07	-3.333982e-06	-3.315254e-09	-2.491894e+01	-2.184524e+02
6.500000e-07	-3.316061e-06	-3.290192e-09	-2.478500e+01	-2.180596e+02
6.600000e-07	-3.297915e-06	-3.283074e-09	-2.464937e+01	-2.176570e+02
6.700000e-07	-3.279487e-06	-3.298043e-09	-2.451164e+01	-2.172446e+02
6.800000e-07	-3.260808e-06	-3.291890e-09	-2.437202e+01	-2.168222e+02
6.900000e-07	-3.241875e-06	-3.260320e-09	-2.423052e+01	-2.163898e+02
7.000000e-07	-3.222647e-06	-3.255325e-09	-2.408680e+01	-2.159474e+02
7.100000e-07	-3.203169e-06	-3.266594e-09	-2.394122e+01	-2.154948e+02
7.200000e-07	-3.183500e-06	-3.253310e-09	-2.379421e+01	-2.150322e+02
7.300000e-07	-3.163698e-06	-3.228292e-09	-2.364621e+01	-2.145597e+02
7.400000e-07	-3.143842e-06	-3.226149e-09	-2.349780e+01	-2.140772e+02
7.500000e-07	-3.123900e-06	-3.227561e-09	-2.334874e+01	-2.135850e+02
7.600000e-07	-3.103862e-06	-3.216303e-09	-2.319897e+01	-2.130832e+02
7.700000e-07	-3.083657e-06	-3.202650e-09	-2.304796e+01	-2.125718e+02
7.800000e-07	-3.063267e-06	-3.194483e-09	-2.289556e+01	-2.120512e+02
7.900000e-07	-3.042674e-06	-3.186910e-09	-2.274165e+01	-2.115215e+02
8.000000e-07	-3.021833e-06	-3.179973e-09	-2.258587e+01	-2.109830e+02
8.100000e-07	-3.000739e-06	-3.172294e-09	-2.242821e+01	-2.104358e+02
8.200000e-07	-2.979339e-06	-3.158251e-09	-2.226826e+01	-2.098801e+02
8.300000e-07	-2.957716e-06	-3.146239e-09	-2.210664e+01	-2.093163e+02
8.400000e-07	-2.935944e-06	-3.143646e-09	-2.194392e+01	-2.087446e+02
8.500000e-07	-2.913994e-06	-3.139196e-09	-2.177986e+01	-2.081651e+02
8.600000e-07	-2.891894e-06	-3.123662e-09	-2.161468e+01	-2.075781e+02
8.700000e-07	-2.869677e-06	-3.110173e-09	-2.144862e+01	-2.069837e+02
8.800000e-07	-2.847221e-06	-3.106313e-09	-2.128078e+01	-2.063823e+02
8.900000e-07	-2.824457e-06	-3.100959e-09	-2.111064e+01	-2.057739e+02
9.000000e-07	-2.801518e-06	-3.085949e-09	-2.093919e+01	-2.051586e+02
9.100000e-07	-2.778391e-06	-3.073099e-09	-2.076633e+01	-2.045366e+02
9.200000e-07	-2.755020e-06	-3.069318e-09	-2.059165e+01	-2.039080e+02
9.300000e-07	-2.731474e-06	-3.066018e-09	-2.041567e+01	-2.032728e+02
9.400000e-07	-2.707772e-06	-3.052301e-09	-2.023851e+01	-2.026309e+02
9.500000e-07	-2.683967e-06	-3.036916e-09	-2.006058e+01	-2.019825e+02
9.600000e-07	-2.660065e-06	-3.026986e-09	-1.988194e+01	-2.013273e+02
9.700000e-07	-2.636033e-06	-3.018661e-09	-1.970232e+01	-2.006653e+02
9.800000e-07	-2.611900e-06	-3.006436e-09	-1.952194e+01	-1.999963e+02
9.900000e-07	-2.587661e-06	-2.993345e-09	-1.934077e+01	-1.993202e+02
1.000000e-06	-2.563294e-06	-2.980982e-09	-1.915864e+01	-1.986366e+02
1.010000e-06	-2.538715e-06	-2.973013e-09	-1.897494e+01	-1.979454e+02
1.020000e-06	-2.513866e-06	-2.966915e-09	-1.878921e+01	-1.972461e+02
1.030000e-06	-2.488742e-06	-2.956246e-09	-1.860142e+01	-1.965385e+02
1.040000e-06	-2.463321e-06	-2.940868e-09	-1.841143e+01	-1.958222e+02
1.050000e-06	-2.437647e-06	-2.927944e-09	-1.821953e+01	-1.950966e+02
1.060000e-06	-2.411704e-06	-2.918536e-09	-1.802562e+01	-1.943615e+02
1.070000e-06	-2.385345e-06	-2.905834e-09	-1.782862e+01	-1.936163e+02
1.080000e-06	-2.358560e-06	-2.886809e-09	-1.762842e+01	-1.928604e+02
1.090000e-06	-2.331522e-06	-2.869676e-09	-1.742633e+01	-1.920935e+02
1.100000e-06	-2.304253e-06	-2.859460e-09	-1.722252e+01	-1.913148e+02
1.110000e-06	-2.276719e-06	-2.848018e-09	-1.701672e+01	-1.905240e+02
1.120000e-06	-2.249062e-06	-2.832250e-09	-1.681000e+01	-1.897204e+02
1.130000e-06	-2.221372e-06	-2.818509e-09	-1.660305e+01	-1.889034e+02
1.140000e-06	-2.193597e-06	-2.808156e-09	-1.639545e+01	-1.880726e+02
1.150000e-06	-2.165715e-06	-2.797011e-09	-1.618705e+01	-1.872273e+02
1.160000e-06	-2.137799e-06	-2.781326e-09	-1.597840e+01	-1.863669e+02
1.170000e-06	-2.109861e-06	-2.762126e-09	-1.576958e+01	-1.854910e+02
1.180000e-06	-2.081829e-06	-2.743607e-09	-1.556007e+01	-1.845990e+02
1.190000e-06	-2.053673e-06	-2.728539e-09	-1.534962e+01	-1.836904e+02
1.200000e-06	-2.025338e-06	-2.714203e-09	-1.513784e+01	-1.827646e+02
1.210000e-06	-1.996860e-06	-2.698876e-09	-1.492499e+01	-1.818213e+02
1.220000e-06	-1.968319e-06	-2.683527e-09	-1.471167e+01	-1.808599e+02
1.230000e-06	-1.939637e-06	-2.668263e-09	-1.449729e+01	-1.798800e+02
1.240000e-06	-1.910773e-06	-2.654927e-09	-1.428156e+01	-1.788812e+02
1.250000e-06	-1.881729e-06	-2.638931e-09	-1.406447e+01	-1.778631e+02
1.260000e-06	-1.852517e-06	-2.621391e-09	-1.384614e+01	-1.768254e+02
1.270000e-06	-1.823232e-06	-2.604031e-09	-1.362725e+01	-1.757676e+02
1.280000e-06	-1.793828e-06	-2.588386e-09	-1.340748e+01	-1.746895e+02
1.290000e-06	-1.764220e-06	-2.572331e-09	-1.318618e+01	-1.735908e+02
1.300000e-06	-1.734495e-06	-2.555315e-09	-1.296401e+01	-1.724711e+02
1.310000e-06	-1.704709e-06	-2.537352e-09	-1.274138e+01	-1.713302e+02
1.320000e-06	-1.674854e-06	-2.520575e-09	-1.251824e+01	-1.701678e+02
1.330000e-06	-1.644927e-06	-2.501644e-09	-1.229456e+01	-1.689836e+02
1.340000e-06	-1.614893e-06	-2.481978e-09	-1.207008e+01	-1.677773e+02
1.350000e-06	-1.584743e-06	-2.463940e-09	-1.184473e+01	-1.665488e+02
1.360000e-06	-1.554552e-06	-2.446841e-09	-1.161908e+01	-1.652975e+02
1.370000e-06	-1.524286e-06	-2.426692e-09	-1.139286e+01	-1.640234e+02
1.380000e-06	-1.493910e-06	-2.403497e-09	-1.116583e+01	-1.627260e+02
1.390000e-06	-1.463466e-06	-2.381517e-09	-1.093828e+01	-1.614050e+02
1.400000e-06	-1.432903e-06	-2.358179e-09	-1.070984e+01	-1.600599e+02
1.410000e-06	-1.402092e-06	-2.336452e-09	-1.047955e+01	-1.586905e+02
1.420000e-06	-1.371105e-06	-2.315642e-09	-1.024795e+01	-1.572961e+02
1.430000e-06	-1.340177e-06	-2.294749e-09	-1.001679e+01	-1.558764e+02
1.440000e-06	-1.309278e-06	-2.272113e-09	-9.785844e+00	-1.544307e+02
1.450000e-06	-1.278187e-06	-2.248912e-09	-9.553463e+00	-1.529584e+02
1.460000e-06	-1.246898e-06	-2.225500e-09	-9.319600e+00	-1.514588e+02
1.470000e-06	-1.215576e-06	-2.200443e-09	-9.085496e+00	-1.499312e+02
1.480000e-06	-1.184175e-06	-2.173536e-09	-8.850793e+00	-1.483749e+02
1.490000e-06	-1.152618e-06	-2.148847e-09	-8.614931e+00	-1.467888e+02
1.500000e-06	-1.120964e-06	-2.124158e-09	-8.378345e+00	-1.451722e+02
1.510000e-06	-1.089236e-06	-2.097581e-09	-8.141203e+00	-1.435239e+02
1.520000e-06	-1.057492e-06	-2.072205e-09	-7.903935e+00	-1.418429e+02
1.530000e-06	-1.025770e-06	-2.049372e-09	-7.666839e+00	-1.401282e+02
1.540000e-06	-9.939679e-07	-2.024755e-09	-7.429144e+00	-1.383784e+02
1.550000e-06	-9.621005e-07	-1.997747e-09	-7.190959e+00	-1.365924e+02
1.560000e-06	-9.302269e-07	-1.967965e-09	-6.952729e+00	-1.347688e+02
1.570000e-06	-8.983380e-07	-1.937268e-09	-6.714384e+00	-1.329063e+02
1.580000e-06	-8.664290e-07	-1.905662e-09	-6.475889e+00	-1.310035e+02
1.590000e-06	-8.344671e-07	-1.874306e-09	-6.236998e+00	-1.290589e+02
1.600000e-06	-8.024768e-07	-1.844511e-09	-5.997895e+00	-1.270710e+02
1.610000e-06	-7.704915e-07	-1.815008e-09	-5.758830e+00	-1.250385e+02
1.620000e-06	-7.384619e-07	-1.786868e-09	-5.519434e+00	-1.229598e+02
1.630000e-06	-7.063779e-07	-1.756703e-09	-5.279630e+00	-1.208334e+02
1.640000e-06	-6.742750e-07	-1.722633e-09	-5.039686e+00	-1.186578e+02
1.650000e-06	-6.421637e-07	-1.685844e-09	-4.799679e+00	-1.164316e+02
1.660000e-06	-6.100791e-07	-1.650824e-09	-4.559871e+00	-1.141533e+02
1.670000e-06	-5.780076e-07	-1.613683e-09	-4.320161e+00	-1.118215e+02
1.680000e-06	-5.458663e-07	-1.574582e-09	-4.079929e+00	-1.094350e+02
1.690000e-06	-5.136652e-07	-1.536572e-09	-3.839251e+00	-1.069925e+02
1.700000e-06	-4.814457e-07	-1.500678e-09	-3.598436e+00	-1.044928e+02
1.710000e-06	-4.491958e-07	-1.466313e-09	-3.357392e+00	-1.019348e+02
1.720000e-06	-4.168870e-07	-1.430663e-09	-3.115909e+00	-9.931752e+01
1.730000e-06	-3.845965e-07	-1.391592e-09	-2.874563e+00	-9.664019e+01
1.740000e-06	-3.522854e-07	-1.350837e-09	-2.633062e+00	-9.390206e+01
1.750000e-06	-3.198471e-07	-1.310986e-09	-2.390610e+00	-9.110256e+01
1.760000e-06	-2.874164e-07	-1.272387e-09	-2.148216e+00	-8.824125e+01
1.770000e-06	-2.549752e-07	-1.231468e-09	-1.905743e+00	-8.531789e+01
1.780000e-06	-2.224742e-07	-1.184868e-09	-1.662823e+00	-8.233240e+01
1.790000e-06	-1.899572e-07	-1.138797e-09	-1.419784e+00	-7.928486e+01
1.800000e-06	-1.574289e-07	-1.095569e-09	-1.176660e+00	-7.617556e+01
1.810000e-06	-1.249462e-07	-1.052557e-09	-9.338766e-01	-7.300497e+01
1.820000e-06	-9.249279e-08	-1.006528e-09	-6.913123e-01	-6.977378e+01
1.830000e-06	-5.997571e-08	-9.599272e-10	-4.482722e-01	-6.648286e+01
1.840000e-06	-2.743834e-08	-9.137104e-10	-2.050804e-01	-6.313330e+01
1.850000e-06	5.075638e-09	-8.642314e-10	3.793648e-02	-5.972639e+01
1.860000e-06	3.758971e-08	-8.124982e-10	2.809541e-01	-5.626363e+01
1.870000e-06	7.011119e-08	-7.607276e-10	5.240271e-01	-5.274672e+01
1.880000e-06	1.026723e-07	-7.081042e-10	7.673964e-01	-4.917756e+01
1.890000e-06	1.351940e-07	-6.539006e-10	1.010471e+00	-4.555827e+01
1.900000e-06	1.676378e-07	-6.008101e-10	1.252963e+00	-4.189114e+01
1.910000e-06	2.000315e-07	-5.486743e-10	1.495081e+00	-3.817866e+01
1.920000e-06	2.324591e-07	-4.964871e-10	1.737452e+00	-3.442348e+01
1.930000e-06	2.649668e-07	-4.430081e-10	1.980423e+00	-3.062846e+01
1.940000e-06	2.974510e-07	-3.879308e-10	2.223217e+00	-2.679656e+01
1.950000e-06	3.298469e-07	-3.313390e-10	2.465351e+00	-2.293095e+01
1.960000e-06	3.621767e-07	-2.729573e-10	2.706991e+00	-1.903489e+01
1.970000e-06	3.944562e-07	-2.117829e-10	2.948256e+00	-1.511179e+01
1.980000e-06	4.267258e-07	-1.522251e-10	3.189447e+00	-1.116516e+01
1.990000e-06	4.589588e-07	-9.635003e-11	3.430363e+00	-7.198584e+00
2.000000e-06	4.911468e-07	-4.132989e-11	3.670944e+00	-3.215757e+00
2.010000e-06	5.233270e-07	1.494514e-11	3.911466e+00	7.795820e-01
2.020000e-06	5.554717e-07	7.066717e-11	4.151723e+00	4.783646e+00
2.030000e-06	5.875925e-07	1.252987e-10	4.391801e+00	8.792617e+00
2.040000e-06	6.196781e-07	1.819338e-10	4.631616e+00	1.280266e+01
2.050000e-06	6.517176e-07	2.428568e-10	4.871087e+00	1.680996e+01
2.060000e-06	6.837641e-07	3.073459e-10	5.110610e+00	2.081070e+01
2.070000e-06	7.158430e-07	3.675330e-10	5.350374e+00	2.480111e+01
2.080000e-06	7.479006e-07	4.218444e-10	5.589980e+00	2.877748e+01
2.090000e-06	7.798932e-07	4.782213e-10	5.829100e+00	3.273615e+01
2.100000e-06	8.118776e-07	5.367189e-10	6.068159e+00	3.667356e+01
2.110000e-06	8.438470e-07	5.917218e-10	6.307105e+00	4.058625e+01
2.120000e-06	8.757503e-07	6.430313e-10	6.545558e+00	4.447084e+01
2.130000e-06	9.076293e-07	6.956880e-10	6.783830e+00	4.832411e+01
2.140000e-06	9.394921e-07	7.503478e-10	7.021979e+00	5.214295e+01
2.150000e-06	9.713281e-07	8.055295e-10	7.259929e+00	5.592441e+01
2.160000e-06	1.003160e-06	8.616923e-10	7.497850e+00	5.966569e+01
2.170000e-06	1.034967e-06	9.155326e-10	7.735583e+00	6.336415e+01
2.180000e-06	1.066704e-06	9.674128e-10	7.972787e+00	6.701731e+01
2.190000e-06	1.098386e-06	1.020889e-09	8.209586e+00	7.062290e+01
2.200000e-06	1.130050e-06	1.071696e-09	8.446251e+00	7.417880e+01
2.210000e-06	1.161647e-06	1.118649e-09	8.682415e+00	7.768309e+01
2.220000e-06	1.193113e-06	1.166469e-09	8.917603e+00	8.113402e+01
2.230000e-06	1.224466e-06	1.213500e-09	9.151942e+00	8.453005e+01
2.240000e-06	1.255723e-06	1.260238e-09	9.385559e+00	8.786981e+01
2.250000e-06	1.286864e-06	1.308416e-09	9.618313e+00	9.115213e+01
2.260000e-06	1.317872e-06	1.357524e-09	9.850075e+00	9.437602e+01
2.270000e-06	1.348749e-06	1.404884e-09	1.008086e+01	9.754066e+01
2.280000e-06	1.379496e-06	1.450787e-09	1.031067e+01	1.006454e+02
2.290000e-06	1.410198e-06	1.495331e-09	1.054014e+01	1.036898e+02
2.300000e-06	1.440801e-06	1.537726e-09	1.076887e+01	1.066736e+02
2.310000e-06	1.471199e-06	1.578980e-09	1.099608e+01	1.095966e+02
2.320000e-06	1.501490e-06	1.618531e-09	1.122248e+01	1.124589e+02
2.330000e-06	1.531753e-06	1.656272e-09	1.144867e+01	1.152605e+02
2.340000e-06	1.561958e-06	1.695360e-09	1.167443e+01	1.180017e+02
2.350000e-06	1.592062e-06	1.735958e-09	1.189944e+01	1.206831e+02
2.360000e-06	1.622082e-06	1.774726e-09	1.212381e+01	1.233050e+02
2.370000e-06	1.651990e-06	1.812564e-09	1.234735e+01	1.258681e+02
2.380000e-06	1.681804e-06	1.851463e-09	1.257019e+01	1.283732e+02
2.390000e-06	1.711577e-06	1.888150e-09	1.279272e+01	1.308209e+02
2.400000e-06	1.741271e-06	1.923262e-09	1.301466e+01	1.332123e+02
2.410000e-06	1.770846e-06	1.958893e-09	1.323571e+01	1.355482e+02
2.420000e-06	1.800310e-06	1.991575e-09	1.345593e+01	1.378297e+02
2.430000e-06	1.829677e-06	2.024067e-09	1.367542e+01	1.400577e+02
2.440000e-06	1.858914e-06	2.057164e-09	1.389395e+01	1.422334e+02
2.450000e-06	1.887971e-06	2.088683e-09	1.411113e+01	1.443578e+02
2.460000e-06	1.916826e-06	2.119366e-09	1.432680e+01	1.464321e+02
2.470000e-06	1.945469e-06	2.150080e-09	1.454088e+01	1.484573e+02
2.480000e-06	1.973920e-06	2.181131e-09	1.475353e+01	1.504347e+02
2.490000e-06	2.002272e-06	2.210936e-09	1.496544e+01	1.523654e+02
2.500000e-06	2.030529e-06	2.237835e-09	1.517664e+01	1.542504e+02
2.510000e-06	2.058669e-06	2.264915e-09	1.538696e+01	1.560909e+02
2.520000e-06	2.086732e-06	2.292976e-09	1.559671e+01	1.578880e+02
2.530000e-06	2.114731e-06	2.318464e-09	1.580598e+01	1.596428e+02
2.540000e-06	2.142658e-06	2.342841e-09	1.601472e+01	1.613562e+02
2.550000e-06	2.170536e-06	2.368337e-09	1.622309e+01	1.630294e+02
2.560000e-06	2.198383e-06	2.392860e-09	1.643122e+01	1.646633e+02
2.570000e-06	2.226169e-06	2.417142e-09	1.663890e+01	1.662589e+02
2.580000e-06	2.253868e-06	2.442535e-09	1.684593e+01	1.678171e+02
2.590000e-06	2.281421e-06	2.468626e-09	1.705186e+01	1.693388e+02
2.600000e-06	2.308847e-06	2.492978e-09	1.725685e+01	1.708248e+02
2.610000e-06	2.336124e-06	2.515885e-09	1.746073e+01	1.722761e+02
2.620000e-06	2.363063e-06	2.538203e-09	1.766207e+01	1.736934e+02
2.630000e-06	2.389614e-06	2.559458e-09	1.786052e+01	1.750775e+02
2.640000e-06	2.415840e-06	2.581294e-09	1.805654e+01	1.764292e+02
2.650000e-06	2.441679e-06	2.603723e-09	1.824967e+01	1.777491e+02
2.660000e-06	2.467134e-06	2.625674e-09	1.843992e+01	1.790381e+02
2.670000e-06	2.492340e-06	2.646192e-09	1.862832e+01	1.802967e+02
2.680000e-06	2.517321e-06	2.666307e-09	1.881503e+01	1.815258e+02
2.690000e-06	2.542073e-06	2.686913e-09	1.900004e+01	1.827258e+02
2.700000e-06	2.566612e-06	2.706684e-09	1.918345e+01	1.838976e+02
2.710000e-06	2.590972e-06	2.725133e-09	1.936552e+01	1.850416e+02
2.720000e-06	2.615201e-06	2.743924e-09	1.954661e+01	1.861586e+02
2.730000e-06	2.639266e-06	2.761714e-09	1.972648e+01	1.872493e+02
2.740000e-06	2.663192e-06	2.777960e-09	1.990531e+01	1.883141e+02
2.750000e-06	2.687029e-06	2.794424e-09	2.008347e+01	1.893538e+02
2.760000e-06	2.710712e-06	2.811408e-09	2.026048e+01	1.903689e+02
2.770000e-06	2.734193e-06	2.827685e-09	2.043599e+01	1.913601e+02
2.780000e-06	2.757489e-06	2.842949e-09	2.061010e+01	1.923280e+02
2.790000e-06	2.780584e-06	2.857052e-09	2.078273e+01	1.932733e+02
2.800000e-06	2.803472e-06	2.870675e-09	2.095379e+01	1.941965e+02
2.810000e-06	2.826071e-06	2.885656e-09	2.112271e+01	1.950983e+02
2.820000e-06	2.848440e-06	2.901766e-09	2.128990e+01	1.959793e+02
2.830000e-06	2.870692e-06	2.916938e-09	2.145621e+01	1.968402e+02
2.840000e-06	2.892781e-06	2.930875e-09	2.162131e+01	1.976816e+02
2.850000e-06	2.914745e-06	2.944264e-09	2.178547e+01	1.985041e+02
2.860000e-06	2.936573e-06	2.959441e-09	2.194862e+01	1.993083e+02
2.870000e-06	2.958204e-06	2.974476e-09	2.211030e+01	2.000949e+02
2.880000e-06	2.979644e-06	2.985755e-09	2.227054e+01	2.008644e+02
2.890000e-06	3.000821e-06	2.996050e-09	2.242883e+01	2.016175e+02
2.900000e-06	3.021686e-06	3.007574e-09	2.258477e+01	2.023548e+02
