# Temperatura_=_20.0
# Concentracion g/m^3_=_9000.0
# C_Vs_to_Am_M_A/Vsm_=_65563218390.804596
# pendiente_HvsI_1/m_=_3716.3
# ordenada_HvsI_A/m_=_1297.0
# frecuencia_Hz_=_134997.3939176544

Tiempo_(s)	Campo_(V.s)	Magnetizacion_(V.s)	Campo_(kA/m)	Magnetizacion_(A/m)
0.000000e+00	-3.907470e-06	-3.471650e-09	-2.914032e+01	-2.280674e+02
1.000000e-08	-3.907726e-06	-3.471718e-09	-2.914223e+01	-2.280875e+02
2.000000e-08	-3.907806e-06	-3.469973e-09	-2.914282e+01	-2.281013e+02
3.000000e-08	-3.907634e-06	-3.469816e-09	-2.914154e+01	-2.281086e+02
4.000000e-08	-3.907236e-06	-3.470848e-09	-2.913857e+01	-2.281096e+02
5.000000e-08	-3.906638e-06	-3.476569e-09	-2.913412e+01	-2.281039e+02
6.000000e-08	-3.905703e-06	-3.494681e-09	-2.912714e+01	-2.280916e+02
7.000000e-08	-3.904233e-06	-3.493839e-09	-2.911618e+01	-2.280727e+02
8.000000e-08	-3.902205e-06	-3.470356e-09	-2.910106e+01	-2.280469e+02
9.000000e-08	-3.899729e-06	-3.410765e-09	-2.908259e+01	-2.280143e+02
1.000000e-07	-3.896794e-06	-3.441534e-09	-2.906071e+01	-2.279747e+02
1.100000e-07	-3.893467e-06	-3.447253e-09	-2.903589e+01	-2.279282e+02
1.200000e-07	-3.889921e-06	-3.483260e-09	-2.900945e+01	-2.278747e+02
1.300000e-07	-3.886208e-06	-3.519723e-09	-2.898176e+01	-2.278142e+02
1.400000e-07	-3.882369e-06	-3.476770e-09	-2.895313e+01	-2.277466e+02
1.500000e-07	-3.878390e-06	-3.430805e-09	-2.892345e+01	-2.276719e+02
1.600000e-07	-3.874264e-06	-3.427178e-09	-2.889268e+01	-2.275902e+02
1.700000e-07	-3.869952e-06	-3.493692e-09	-2.886052e+01	-2.275015e+02
1.800000e-07	-3.865339e-06	-3.481158e-09	-2.882612e+01	-2.274058e+02
1.900000e-07	-3.860381e-06	-3.469741e-09	-2.878915e+01	-2.273031e+02
2.000000e-07	-3.855181e-06	-3.423070e-09	-2.875037e+01	-2.271935e+02
2.100000e-07	-3.849686e-06	-3.439595e-09	-2.870939e+01	-2.270771e+02
2.200000e-07	-3.843872e-06	-3.463075e-09	-2.866603e+01	-2.269539e+02
2.300000e-07	-3.837880e-06	-3.493172e-09	-2.862135e+01	-2.268240e+02
2.400000e-07	-3.831653e-06	-3.441801e-09	-2.857491e+01	-2.266875e+02
2.500000e-07	-3.825048e-06	-3.391808e-09	-2.852565e+01	-2.265446e+02
2.600000e-07	-3.818091e-06	-3.425656e-09	-2.847377e+01	-2.263952e+02
2.700000e-07	-3.810894e-06	-3.509226e-09	-2.842010e+01	-2.262396e+02
2.800000e-07	-3.803399e-06	-3.470692e-09	-2.836420e+01	-2.260778e+02
2.900000e-07	-3.795686e-06	-3.378525e-09	-2.830668e+01	-2.259099e+02
3.000000e-07	-3.787898e-06	-3.396865e-09	-2.824860e+01	-2.257361e+02
3.100000e-07	-3.779980e-06	-3.480356e-09	-2.818955e+01	-2.255564e+02
3.200000e-07	-3.771896e-06	-3.473062e-09	-2.812927e+01	-2.253710e+02
3.300000e-07	-3.763586e-06	-3.390036e-09	-2.806729e+01	-2.251799e+02
3.400000e-07	-3.754976e-06	-3.389791e-09	-2.800308e+01	-2.249833e+02
3.500000e-07	-3.745998e-06	-3.437575e-09	-2.793613e+01	-2.247812e+02
3.600000e-07	-3.736606e-06	-3.462541e-09	-2.786609e+01	-2.245737e+02
3.700000e-07	-3.726827e-06	-3.411470e-09	-2.779316e+01	-2.243609e+02
3.800000e-07	-3.716544e-06	-3.394983e-09	-2.771647e+01	-2.241428e+02
3.900000e-07	-3.705734e-06	-3.399593e-09	-2.763586e+01	-2.239194e+02
4.000000e-07	-3.694559e-06	-3.428419e-09	-2.755251e+01	-2.236908e+02
4.100000e-07	-3.683036e-06	-3.414804e-09	-2.746658e+01	-2.234570e+02
4.200000e-07	-3.671260e-06	-3.394899e-09	-2.737876e+01	-2.232180e+02
4.300000e-07	-3.659310e-06	-3.362955e-09	-2.728964e+01	-2.229737e+02
4.400000e-07	-3.647130e-06	-3.386213e-09	-2.719881e+01	-2.227241e+02
4.500000e-07	-3.634757e-06	-3.412503e-09	-2.710654e+01	-2.224692e+02
4.600000e-07	-3.622099e-06	-3.398510e-09	-2.701214e+01	-2.222089e+02
4.700000e-07	-3.609157e-06	-3.345729e-09	-2.691562e+01	-2.219431e+02
4.800000e-07	-3.595958e-06	-3.359533e-09	-2.681719e+01	-2.216718e+02
4.900000e-07	-3.582431e-06	-3.400773e-09	-2.671631e+01	-2.213947e+02
5.000000e-07	-3.568589e-06	-3.381733e-09	-2.661308e+01	-2.211119e+02
5.100000e-07	-3.554499e-06	-3.326423e-09	-2.650801e+01	-2.208231e+02
5.200000e-07	-3.540164e-06	-3.334422e-09	-2.640110e+01	-2.205283e+02
5.300000e-07	-3.525591e-06	-3.369632e-09	-2.629242e+01	-2.202272e+02
5.400000e-07	-3.510644e-06	-3.350828e-09	-2.618095e+01	-2.199198e+02
5.500000e-07	-3.495130e-06	-3.315843e-09	-2.606526e+01	-2.196059e+02
5.600000e-07	-3.479216e-06	-3.317793e-09	-2.594658e+01	-2.192852e+02
5.700000e-07	-3.463048e-06	-3.333022e-09	-2.582600e+01	-2.189577e+02
5.800000e-07	-3.446601e-06	-3.319932e-09	-2.570334e+01	-2.186232e+02
5.900000e-07	-3.429854e-06	-3.307411e-09	-2.557845e+01	-2.182815e+02
6.000000e-07	-3.412844e-06	-3.299157e-09	-2.545160e+01	-2.179324e+02
6.100000e-07	-3.395645e-06	-3.297284e-09	-2.532334e+01	-2.175758e+02
6.200000e-07	-3.378295e-06	-3.293305e-09	-2.519395e+01	-2.172116e+02
6.300000e-07	-3.360773e-06	-3.292992e-09	-2.506327e+01	-2.168396e+02
6.400000e-07	-3.343075e-06	-3.271199e-09	-2.493129e+01	-2.164596e+02
6.500000e-07	-3.325153e-06	-3.258278e-09	-2.479764e+01	-2.160715e+02
6.600000e-07	-3.306986e-06	-3.264559e-09	-2.466215e+01	-2.156753e+02
6.700000e-07	-3.288515e-06	-3.271697e-09	-2.452441e+01	-2.152708e+02
6.800000e-07	-3.269788e-06	-3.247651e-09	-2.438474e+01	-2.148578e+02
6.900000e-07	-3.250845e-06	-3.235081e-09	-2.424348e+01	-2.144364e+02
7.000000e-07	-3.231591e-06	-3.241420e-09	-2.409989e+01	-2.140065e+02
7.100000e-07	-3.212067e-06	-3.241133e-09	-2.395429e+01	-2.135679e+02
7.200000e-07	-3.192359e-06	-3.216035e-09	-2.380731e+01	-2.131206e+02
7.300000e-07	-3.172525e-06	-3.201638e-09	-2.365940e+01	-2.126647e+02
7.400000e-07	-3.152599e-06	-3.200878e-09	-2.351080e+01	-2.122000e+02
7.500000e-07	-3.132602e-06	-3.199131e-09	-2.336167e+01	-2.117265e+02
7.600000e-07	-3.112510e-06	-3.186043e-09	-2.321183e+01	-2.112443e+02
7.700000e-07	-3.092244e-06	-3.174710e-09	-2.306069e+01	-2.107534e+02
7.800000e-07	-3.071796e-06	-3.167926e-09	-2.290821e+01	-2.102536e+02
7.900000e-07	-3.051145e-06	-3.166165e-09	-2.275419e+01	-2.097451e+02
8.000000e-07	-3.030205e-06	-3.160589e-09	-2.259804e+01	-2.092279e+02
8.100000e-07	-3.008991e-06	-3.148192e-09	-2.243983e+01	-2.087019e+02
8.200000e-07	-2.987564e-06	-3.135947e-09	-2.228004e+01	-2.081673e+02
8.300000e-07	-2.965959e-06	-3.129136e-09	-2.211891e+01	-2.076239e+02
8.400000e-07	-2.944165e-06	-3.125029e-09	-2.195639e+01	-2.070718e+02
8.500000e-07	-2.922192e-06	-3.112954e-09	-2.179252e+01	-2.065111e+02
8.600000e-07	-2.899994e-06	-3.101183e-09	-2.162697e+01	-2.059417e+02
8.700000e-07	-2.877574e-06	-3.092314e-09	-2.145978e+01	-2.053636e+02
8.800000e-07	-2.854981e-06	-3.087552e-09	-2.129129e+01	-2.047768e+02
8.900000e-07	-2.832195e-06	-3.074826e-09	-2.112136e+01	-2.041813e+02
9.000000e-07	-2.809211e-06	-3.061429e-09	-2.094995e+01	-2.035770e+02
9.100000e-07	-2.786011e-06	-3.053089e-09	-2.077694e+01	-2.029639e+02
9.200000e-07	-2.762581e-06	-3.051000e-09	-2.060221e+01	-2.023419e+02
9.300000e-07	-2.739049e-06	-3.039150e-09	-2.042671e+01	-2.017110e+02
9.400000e-07	-2.715371e-06	-3.023106e-09	-2.025013e+01	-2.010710e+02
9.500000e-07	-2.691501e-06	-3.011470e-09	-2.007211e+01	-2.004218e+02
9.600000e-07	-2.667614e-06	-3.005242e-09	-1.989398e+01	-1.997633e+02
9.700000e-07	-2.643648e-06	-2.994205e-09	-1.971525e+01	-1.990954e+02
9.800000e-07	-2.619487e-06	-2.983040e-09	-1.953507e+01	-1.984179e+02
9.900000e-07	-2.595216e-06	-2.971857e-09	-1.935407e+01	-1.977307e+02
1.000000e-06	-2.570830e-06	-2.962235e-09	-1.917220e+01	-1.970334e+02
1.010000e-06	-2.546198e-06	-2.952675e-09	-1.898851e+01	-1.963260e+02
1.020000e-06	-2.521325e-06	-2.942419e-09	-1.880302e+01	-1.956083e+02
1.030000e-06	-2.496201e-06	-2.927874e-09	-1.861565e+01	-1.948799e+02
1.040000e-06	-2.470679e-06	-2.913859e-09	-1.842532e+01	-1.941406e+02
1.050000e-06	-2.444744e-06	-2.903457e-09	-1.823191e+01	-1.933902e+02
1.060000e-06	-2.418457e-06	-2.892115e-09	-1.803587e+01	-1.926285e+02
1.070000e-06	-2.391919e-06	-2.876528e-09	-1.783796e+01	-1.918551e+02
1.080000e-06	-2.365119e-06	-2.860144e-09	-1.763810e+01	-1.910698e+02
1.090000e-06	-2.338028e-06	-2.845890e-09	-1.743606e+01	-1.902723e+02
1.100000e-06	-2.310782e-06	-2.830433e-09	-1.723287e+01	-1.894624e+02
1.110000e-06	-2.283383e-06	-2.815200e-09	-1.702854e+01	-1.886396e+02
1.120000e-06	-2.255779e-06	-2.800956e-09	-1.682268e+01	-1.878039e+02
1.130000e-06	-2.228050e-06	-2.787195e-09	-1.661589e+01	-1.869548e+02
1.140000e-06	-2.200282e-06	-2.772783e-09	-1.640881e+01	-1.860921e+02
1.150000e-06	-2.172453e-06	-2.760304e-09	-1.620127e+01	-1.852155e+02
1.160000e-06	-2.144521e-06	-2.745672e-09	-1.599296e+01	-1.843248e+02
1.170000e-06	-2.116538e-06	-2.730264e-09	-1.578428e+01	-1.834197e+02
1.180000e-06	-2.088505e-06	-2.714386e-09	-1.557522e+01	-1.824998e+02
1.190000e-06	-2.060360e-06	-2.699559e-09	-1.536533e+01	-1.815651e+02
1.200000e-06	-2.032081e-06	-2.685097e-09	-1.515443e+01	-1.806151e+02
1.210000e-06	-2.003653e-06	-2.669983e-09	-1.494243e+01	-1.796497e+02
1.220000e-06	-1.975100e-06	-2.652224e-09	-1.472949e+01	-1.786686e+02
1.230000e-06	-1.946436e-06	-2.636137e-09	-1.451572e+01	-1.776715e+02
1.240000e-06	-1.917599e-06	-2.620530e-09	-1.430067e+01	-1.766583e+02
1.250000e-06	-1.888566e-06	-2.605527e-09	-1.408415e+01	-1.756287e+02
1.260000e-06	-1.859343e-06	-2.587772e-09	-1.386623e+01	-1.745823e+02
1.270000e-06	-1.830036e-06	-2.571275e-09	-1.364766e+01	-1.735191e+02
1.280000e-06	-1.800572e-06	-2.555944e-09	-1.342793e+01	-1.724387e+02
1.290000e-06	-1.770977e-06	-2.540251e-09	-1.320723e+01	-1.713408e+02
1.300000e-06	-1.741319e-06	-2.523485e-09	-1.298605e+01	-1.702251e+02
1.310000e-06	-1.711478e-06	-2.506373e-09	-1.276351e+01	-1.690914e+02
1.320000e-06	-1.681558e-06	-2.487510e-09	-1.254037e+01	-1.679394e+02
1.330000e-06	-1.651577e-06	-2.467967e-09	-1.231679e+01	-1.667686e+02
1.340000e-06	-1.621530e-06	-2.448754e-09	-1.209271e+01	-1.655787e+02
1.350000e-06	-1.591377e-06	-2.430940e-09	-1.186784e+01	-1.643692e+02
1.360000e-06	-1.561076e-06	-2.415071e-09	-1.164187e+01	-1.631399e+02
1.370000e-06	-1.530700e-06	-2.395488e-09	-1.141534e+01	-1.618901e+02
1.380000e-06	-1.500241e-06	-2.373495e-09	-1.118818e+01	-1.606193e+02
1.390000e-06	-1.469697e-06	-2.352328e-09	-1.096040e+01	-1.593270e+02
1.400000e-06	-1.439091e-06	-2.332483e-09	-1.073215e+01	-1.580125e+02
1.410000e-06	-1.408339e-06	-2.309747e-09	-1.050282e+01	-1.566753e+02
1.420000e-06	-1.377465e-06	-2.286331e-09	-1.027258e+01	-1.553144e+02
1.430000e-06	-1.346453e-06	-2.262655e-09	-1.004130e+01	-1.539293e+02
1.440000e-06	-1.315346e-06	-2.241473e-09	-9.809317e+00	-1.525189e+02
1.450000e-06	-1.284187e-06	-2.221612e-09	-9.576945e+00	-1.510825e+02
1.460000e-06	-1.252925e-06	-2.199971e-09	-9.343806e+00	-1.496191e+02
1.470000e-06	-1.221582e-06	-2.174850e-09	-9.110058e+00	-1.481276e+02
1.480000e-06	-1.190139e-06	-2.149971e-09	-8.875571e+00	-1.466070e+02
1.490000e-06	-1.158585e-06	-2.126714e-09	-8.640257e+00	-1.450561e+02
1.500000e-06	-1.126906e-06	-2.102497e-09	-8.404009e+00	-1.434738e+02
1.510000e-06	-1.095209e-06	-2.076051e-09	-8.167620e+00	-1.418588e+02
1.520000e-06	-1.063497e-06	-2.049256e-09	-7.931126e+00	-1.402098e+02
1.530000e-06	-1.031748e-06	-2.023511e-09	-7.694356e+00	-1.385254e+02
1.540000e-06	-9.999809e-07	-1.999480e-09	-7.457450e+00	-1.368044e+02
1.550000e-06	-9.681393e-07	-1.972127e-09	-7.219989e+00	-1.350451e+02
1.560000e-06	-9.362400e-07	-1.943321e-09	-6.982096e+00	-1.332462e+02
1.570000e-06	-9.043276e-07	-1.912880e-09	-6.744107e+00	-1.314063e+02
1.580000e-06	-8.723943e-07	-1.884587e-09	-6.505961e+00	-1.295237e+02
1.590000e-06	-8.404503e-07	-1.857089e-09	-6.267736e+00	-1.275970e+02
1.600000e-06	-8.084837e-07	-1.828386e-09	-6.029342e+00	-1.256247e+02
1.610000e-06	-7.764703e-07	-1.799624e-09	-5.790599e+00	-1.236052e+02
1.620000e-06	-7.444022e-07	-1.769755e-09	-5.551448e+00	-1.215372e+02
1.630000e-06	-7.122668e-07	-1.739317e-09	-5.311796e+00	-1.194190e+02
1.640000e-06	-6.801092e-07	-1.705474e-09	-5.071977e+00	-1.172493e+02
1.650000e-06	-6.479323e-07	-1.670526e-09	-4.832015e+00	-1.150268e+02
1.660000e-06	-6.157314e-07	-1.635208e-09	-4.591874e+00	-1.127500e+02
1.670000e-06	-5.834787e-07	-1.600239e-09	-4.351346e+00	-1.104177e+02
1.680000e-06	-5.512048e-07	-1.564998e-09	-4.110661e+00	-1.080288e+02
1.690000e-06	-5.189655e-07	-1.529781e-09	-3.870233e+00	-1.055822e+02
1.700000e-06	-4.866882e-07	-1.493402e-09	-3.629523e+00	-1.030768e+02
1.710000e-06	-4.543156e-07	-1.456736e-09	-3.388100e+00	-1.005119e+02
1.720000e-06	-4.218490e-07	-1.419063e-09	-3.145978e+00	-9.788658e+01
1.730000e-06	-3.893982e-07	-1.379014e-09	-2.903973e+00	-9.520032e+01
1.740000e-06	-3.569499e-07	-1.336858e-09	-2.661987e+00	-9.245263e+01
1.750000e-06	-3.244588e-07	-1.296622e-09	-2.419681e+00	-8.964316e+01
1.760000e-06	-2.920485e-07	-1.257934e-09	-2.177978e+00	-8.677174e+01
1.770000e-06	-2.596962e-07	-1.217265e-09	-1.936708e+00	-8.383836e+01
1.780000e-06	-2.272697e-07	-1.174632e-09	-1.694885e+00	-8.084319e+01
1.790000e-06	-1.947630e-07	-1.132311e-09	-1.452463e+00	-7.778657e+01
1.800000e-06	-1.621766e-07	-1.089332e-09	-1.209447e+00	-7.466901e+01
1.810000e-06	-1.294998e-07	-1.045071e-09	-9.657568e-01	-7.149122e+01
1.820000e-06	-9.689102e-08	-9.990949e-10	-7.225737e-01	-6.825411e+01
1.830000e-06	-6.432628e-08	-9.518209e-10	-4.797192e-01	-6.495876e+01
1.840000e-06	-3.168972e-08	-9.019975e-10	-2.363290e-01	-6.160644e+01
1.850000e-06	9.819536e-10	-8.492553e-10	7.323010e-03	-5.819864e+01
1.860000e-06	3.364199e-08	-7.970008e-10	2.508883e-01	-5.473701e+01
1.870000e-06	6.624281e-08	-7.456686e-10	4.940119e-01	-5.122340e+01
1.880000e-06	9.879544e-08	-6.948023e-10	7.367761e-01	-4.765984e+01
1.890000e-06	1.313555e-07	-6.429059e-10	9.795956e-01	-4.404855e+01
1.900000e-06	1.638880e-07	-5.899483e-10	1.222210e+00	-4.039190e+01
1.910000e-06	1.963673e-07	-5.368544e-10	1.464428e+00	-3.669245e+01
1.920000e-06	2.288774e-07	-4.828236e-10	1.706874e+00	-3.295290e+01
1.930000e-06	2.614052e-07	-4.262960e-10	1.949453e+00	-2.917612e+01
1.940000e-06	2.939714e-07	-3.708371e-10	2.192319e+00	-2.536508e+01
1.950000e-06	3.265312e-07	-3.163816e-10	2.435137e+00	-2.152293e+01
1.960000e-06	3.589919e-07	-2.590180e-10	2.677216e+00	-1.765289e+01
1.970000e-06	3.913697e-07	-2.000474e-10	2.918676e+00	-1.375832e+01
1.980000e-06	4.237638e-07	-1.430720e-10	3.160258e+00	-9.842635e+00
1.990000e-06	4.561555e-07	-8.849306e-11	3.401822e+00	-5.909362e+00
2.000000e-06	4.884560e-07	-3.409865e-11	3.642706e+00	-1.962071e+00
2.010000e-06	5.207320e-07	2.318552e-11	3.883407e+00	1.995613e+00
2.020000e-06	5.530135e-07	8.051394e-11	4.124149e+00	5.960031e+00
2.030000e-06	5.852916e-07	1.356796e-10	4.364866e+00	9.927505e+00
2.040000e-06	6.175009e-07	1.915333e-10	4.605070e+00	1.389435e+01
2.050000e-06	6.496247e-07	2.535880e-10	4.844636e+00	1.785690e+01
2.060000e-06	6.817011e-07	3.171176e-10	5.083849e+00	2.181149e+01
2.070000e-06	7.137670e-07	3.744007e-10	5.322984e+00	2.575453e+01
2.080000e-06	7.458587e-07	4.285037e-10	5.562310e+00	2.968246e+01
2.090000e-06	7.779058e-07	4.846177e-10	5.801305e+00	3.359179e+01
2.100000e-06	8.098569e-07	5.406794e-10	6.039583e+00	3.747911e+01
2.110000e-06	8.417989e-07	5.940373e-10	6.277793e+00	4.134111e+01
2.120000e-06	8.737441e-07	6.482078e-10	6.516028e+00	4.517458e+01
2.130000e-06	9.056656e-07	7.028614e-10	6.754085e+00	4.897644e+01
2.140000e-06	9.375934e-07	7.578690e-10	6.992190e+00	5.274371e+01
2.150000e-06	9.695076e-07	8.115304e-10	7.230193e+00	5.647357e+01
2.160000e-06	1.001351e-06	8.648105e-10	7.467666e+00	6.016333e+01
2.170000e-06	1.033144e-06	9.183327e-10	7.704766e+00	6.381048e+01
2.180000e-06	1.064909e-06	9.717272e-10	7.941656e+00	6.741262e+01
2.190000e-06	1.096631e-06	1.022126e-09	8.178230e+00	7.096757e+01
2.200000e-06	1.128324e-06	1.069198e-09	8.414582e+00	7.447328e+01
2.210000e-06	1.159953e-06	1.117576e-09	8.650457e+00	7.792789e+01
2.220000e-06	1.191532e-06	1.168469e-09	8.885964e+00	8.132972e+01
2.230000e-06	1.223042e-06	1.217776e-09	9.120950e+00	8.467725e+01
2.240000e-06	1.254430e-06	1.264382e-09	9.355029e+00	8.796916e+01
2.250000e-06	1.285717e-06	1.311729e-09	9.588355e+00	9.120428e+01
2.260000e-06	1.316890e-06	1.360978e-09	9.820833e+00	9.438164e+01
2.270000e-06	1.347971e-06	1.408136e-09	1.005262e+01	9.750042e+01
2.280000e-06	1.378956e-06	1.451184e-09	1.028369e+01	1.005600e+02
2.290000e-06	1.409833e-06	1.493087e-09	1.051396e+01	1.035599e+02
2.300000e-06	1.440608e-06	1.536846e-09	1.074346e+01	1.064998e+02
2.310000e-06	1.471183e-06	1.580436e-09	1.097149e+01	1.093795e+02
2.320000e-06	1.501586e-06	1.620753e-09	1.119822e+01	1.121990e+02
2.330000e-06	1.531868e-06	1.659366e-09	1.142405e+01	1.149585e+02
2.340000e-06	1.562056e-06	1.699512e-09	1.164918e+01	1.176581e+02
2.350000e-06	1.592143e-06	1.740571e-09	1.187355e+01	1.202984e+02
2.360000e-06	1.622146e-06	1.777719e-09	1.209730e+01	1.228797e+02
2.370000e-06	1.652090e-06	1.814168e-09	1.232062e+01	1.254027e+02
2.380000e-06	1.681926e-06	1.852148e-09	1.254312e+01	1.278680e+02
2.390000e-06	1.711686e-06	1.890466e-09	1.276506e+01	1.302766e+02
2.400000e-06	1.741400e-06	1.927149e-09	1.298665e+01	1.326291e+02
2.410000e-06	1.771026e-06	1.961193e-09	1.320759e+01	1.349266e+02
2.420000e-06	1.800524e-06	1.994667e-09	1.342758e+01	1.371701e+02
2.430000e-06	1.829874e-06	2.028481e-09	1.364646e+01	1.393605e+02
2.440000e-06	1.859134e-06	2.062077e-09	1.386466e+01	1.414991e+02
2.450000e-06	1.888248e-06	2.094219e-09	1.408178e+01	1.435869e+02
2.460000e-06	1.917248e-06	2.124642e-09	1.429806e+01	1.456251e+02
2.470000e-06	1.946080e-06	2.155376e-09	1.451307e+01	1.476148e+02
2.480000e-06	1.974631e-06	2.186624e-09	1.472599e+01	1.495573e+02
2.490000e-06	2.003032e-06	2.215906e-09	1.493780e+01	1.514537e+02
2.500000e-06	2.031337e-06	2.242202e-09	1.514889e+01	1.533053e+02
2.510000e-06	2.059549e-06	2.268365e-09	1.535928e+01	1.551132e+02
2.520000e-06	2.087659e-06	2.296657e-09	1.556891e+01	1.568785e+02
2.530000e-06	2.115710e-06	2.324059e-09	1.577810e+01	1.586026e+02
2.540000e-06	2.143702e-06	2.348432e-09	1.598686e+01	1.602863e+02
2.550000e-06	2.171627e-06	2.373079e-09	1.619511e+01	1.619310e+02
2.560000e-06	2.199468e-06	2.398919e-09	1.640273e+01	1.635377e+02
2.570000e-06	2.227272e-06	2.424580e-09	1.661009e+01	1.651073e+02
2.580000e-06	2.255026e-06	2.449178e-09	1.681706e+01	1.666411e+02
2.590000e-06	2.282603e-06	2.473899e-09	1.702272e+01	1.681398e+02
2.600000e-06	2.310052e-06	2.497610e-09	1.722743e+01	1.696046e+02
2.610000e-06	2.337328e-06	2.519277e-09	1.743084e+01	1.710362e+02
2.620000e-06	2.364268e-06	2.541941e-09	1.763175e+01	1.724357e+02
2.630000e-06	2.390887e-06	2.563897e-09	1.783026e+01	1.738038e+02
2.640000e-06	2.417188e-06	2.586194e-09	1.802640e+01	1.751413e+02
2.650000e-06	2.443228e-06	2.608292e-09	1.822060e+01	1.764492e+02
2.660000e-06	2.468937e-06	2.629097e-09	1.841233e+01	1.777280e+02
2.670000e-06	2.494330e-06	2.649542e-09	1.860169e+01	1.789785e+02
2.680000e-06	2.519448e-06	2.669773e-09	1.878902e+01	1.802015e+02
2.690000e-06	2.544239e-06	2.689333e-09	1.897390e+01	1.813976e+02
2.700000e-06	2.568826e-06	2.708529e-09	1.915726e+01	1.825675e+02
2.710000e-06	2.593287e-06	2.728317e-09	1.933968e+01	1.837117e+02
2.720000e-06	2.617552e-06	2.746753e-09	1.952064e+01	1.848309e+02
2.730000e-06	2.641607e-06	2.763425e-09	1.970003e+01	1.859256e+02
2.740000e-06	2.665583e-06	2.779884e-09	1.987883e+01	1.869965e+02
2.750000e-06	2.689456e-06	2.794829e-09	2.005686e+01	1.880441e+02
2.760000e-06	2.713192e-06	2.808932e-09	2.023388e+01	1.890689e+02
2.770000e-06	2.736804e-06	2.824591e-09	2.040997e+01	1.900715e+02
2.780000e-06	2.760212e-06	2.840181e-09	2.058454e+01	1.910524e+02
2.790000e-06	2.783397e-06	2.854568e-09	2.075744e+01	1.920121e+02
2.800000e-06	2.806373e-06	2.868003e-09	2.092879e+01	1.929511e+02
2.810000e-06	2.829111e-06	2.881706e-09	2.109835e+01	1.938699e+02
2.820000e-06	2.851675e-06	2.897792e-09	2.126663e+01	1.947690e+02
2.830000e-06	2.874065e-06	2.915124e-09	2.143361e+01	1.956489e+02
2.840000e-06	2.896243e-06	2.928989e-09	2.159900e+01	1.965101e+02
2.850000e-06	2.918277e-06	2.941523e-09	2.176332e+01	1.973531e+02
2.860000e-06	2.940179e-06	2.956725e-09	2.192666e+01	1.981783e+02
2.870000e-06	2.961879e-06	2.971741e-09	2.208848e+01	1.989862e+02
2.880000e-06	2.983317e-06	2.985111e-09	2.224836e+01	1.997773e+02
2.890000e-06	3.004580e-06	2.997910e-09	2.240694e+01	2.005520e+02
2.900000e-06	3.025623e-06	3.010742e-09	2.256386e+01	2.013107e+02
