# Temperatura_=_20.0
# Concentracion g/m^3_=_9000.0
# C_Vs_to_Am_M_A/Vsm_=_65563218390.804596
# pendiente_HvsI_1/m_=_3716.3
# ordenada_HvsI_A/m_=_1297.0
# frecuencia_Hz_=_134999.35583233388

Tiempo_(s)	Campo_(V.s)	Magnetizacion_(V.s)	Campo_(kA/m)	Magnetizacion_(A/m)
0.000000e+00	-3.898315e-06	-3.506491e-09	-2.914838e+01	-2.301465e+02
1.000000e-08	-3.898460e-06	-3.503850e-09	-2.914947e+01	-2.301127e+02
2.000000e-08	-3.898451e-06	-3.503562e-09	-2.914940e+01	-2.300694e+02
3.000000e-08	-3.898247e-06	-3.504542e-09	-2.914787e+01	-2.300167e+02
4.000000e-08	-3.897850e-06	-3.506396e-09	-2.914491e+01	-2.299546e+02
5.000000e-08	-3.897049e-06	-3.514429e-09	-2.913891e+01	-2.298832e+02
6.000000e-08	-3.895849e-06	-3.503243e-09	-2.912995e+01	-2.298026e+02
7.000000e-08	-3.894170e-06	-3.496704e-09	-2.911739e+01	-2.297131e+02
8.000000e-08	-3.891837e-06	-3.461173e-09	-2.909994e+01	-2.296148e+02
9.000000e-08	-3.888932e-06	-3.520162e-09	-2.907822e+01	-2.295079e+02
1.000000e-07	-3.885710e-06	-3.489821e-09	-2.905413e+01	-2.293926e+02
1.100000e-07	-3.882267e-06	-3.504910e-09	-2.902839e+01	-2.292692e+02
1.200000e-07	-3.878643e-06	-3.521639e-09	-2.900129e+01	-2.291379e+02
1.300000e-07	-3.874889e-06	-3.481078e-09	-2.897322e+01	-2.289991e+02
1.400000e-07	-3.870960e-06	-3.454232e-09	-2.894384e+01	-2.288530e+02
1.500000e-07	-3.866875e-06	-3.470096e-09	-2.891330e+01	-2.286999e+02
1.600000e-07	-3.862692e-06	-3.549556e-09	-2.888202e+01	-2.285403e+02
1.700000e-07	-3.858267e-06	-3.496978e-09	-2.884894e+01	-2.283743e+02
1.800000e-07	-3.853589e-06	-3.502324e-09	-2.881395e+01	-2.282025e+02
1.900000e-07	-3.848556e-06	-3.455134e-09	-2.877632e+01	-2.280250e+02
2.000000e-07	-3.843065e-06	-3.498999e-09	-2.873527e+01	-2.278423e+02
2.100000e-07	-3.837316e-06	-3.509521e-09	-2.869228e+01	-2.276546e+02
2.200000e-07	-3.831378e-06	-3.531042e-09	-2.864788e+01	-2.274624e+02
2.300000e-07	-3.825221e-06	-3.458796e-09	-2.860185e+01	-2.272658e+02
2.400000e-07	-3.818781e-06	-3.434325e-09	-2.855369e+01	-2.270653e+02
2.500000e-07	-3.812079e-06	-3.491864e-09	-2.850358e+01	-2.268610e+02
2.600000e-07	-3.805152e-06	-3.552728e-09	-2.845178e+01	-2.266533e+02
2.700000e-07	-3.797815e-06	-3.476196e-09	-2.839692e+01	-2.264423e+02
2.800000e-07	-3.790209e-06	-3.394913e-09	-2.834005e+01	-2.262282e+02
2.900000e-07	-3.782504e-06	-3.456230e-09	-2.828245e+01	-2.260113e+02
3.000000e-07	-3.774621e-06	-3.536852e-09	-2.822350e+01	-2.257915e+02
3.100000e-07	-3.766609e-06	-3.494006e-09	-2.816359e+01	-2.255691e+02
3.200000e-07	-3.758423e-06	-3.402237e-09	-2.810239e+01	-2.253442e+02
3.300000e-07	-3.749871e-06	-3.441176e-09	-2.803844e+01	-2.251166e+02
3.400000e-07	-3.741060e-06	-3.497515e-09	-2.797256e+01	-2.248865e+02
3.500000e-07	-3.731953e-06	-3.502001e-09	-2.790447e+01	-2.246537e+02
3.600000e-07	-3.722369e-06	-3.421793e-09	-2.783280e+01	-2.244182e+02
3.700000e-07	-3.712379e-06	-3.426659e-09	-2.775811e+01	-2.241798e+02
3.800000e-07	-3.701831e-06	-3.445944e-09	-2.767924e+01	-2.239385e+02
3.900000e-07	-3.690770e-06	-3.475804e-09	-2.759653e+01	-2.236940e+02
4.000000e-07	-3.679358e-06	-3.430989e-09	-2.751120e+01	-2.234460e+02
4.100000e-07	-3.667700e-06	-3.415327e-09	-2.742404e+01	-2.231944e+02
4.200000e-07	-3.655825e-06	-3.394762e-09	-2.733524e+01	-2.229389e+02
4.300000e-07	-3.643786e-06	-3.426453e-09	-2.724522e+01	-2.226791e+02
4.400000e-07	-3.631521e-06	-3.434074e-09	-2.715352e+01	-2.224148e+02
4.500000e-07	-3.618895e-06	-3.413878e-09	-2.705911e+01	-2.221456e+02
4.600000e-07	-3.605976e-06	-3.366657e-09	-2.696251e+01	-2.218711e+02
4.700000e-07	-3.592852e-06	-3.395409e-09	-2.686438e+01	-2.215910e+02
4.800000e-07	-3.579434e-06	-3.432338e-09	-2.676405e+01	-2.213050e+02
4.900000e-07	-3.565703e-06	-3.397506e-09	-2.666139e+01	-2.210126e+02
5.000000e-07	-3.551718e-06	-3.343714e-09	-2.655682e+01	-2.207135e+02
5.100000e-07	-3.537493e-06	-3.369125e-09	-2.645046e+01	-2.204074e+02
5.200000e-07	-3.523077e-06	-3.405789e-09	-2.634266e+01	-2.200938e+02
5.300000e-07	-3.508217e-06	-3.368091e-09	-2.623155e+01	-2.197725e+02
5.400000e-07	-3.492842e-06	-3.334110e-09	-2.611659e+01	-2.194432e+02
5.500000e-07	-3.477285e-06	-3.351035e-09	-2.600027e+01	-2.191055e+02
5.600000e-07	-3.461298e-06	-3.367538e-09	-2.588073e+01	-2.187593e+02
5.700000e-07	-3.444923e-06	-3.334966e-09	-2.575829e+01	-2.184042e+02
5.800000e-07	-3.428404e-06	-3.323824e-09	-2.563477e+01	-2.180401e+02
5.900000e-07	-3.411601e-06	-3.324515e-09	-2.550913e+01	-2.176668e+02
6.000000e-07	-3.394557e-06	-3.325601e-09	-2.538169e+01	-2.172841e+02
6.100000e-07	-3.377236e-06	-3.314462e-09	-2.525218e+01	-2.168920e+02
6.200000e-07	-3.359801e-06	-3.317922e-09	-2.512182e+01	-2.164904e+02
6.300000e-07	-3.342227e-06	-3.298627e-09	-2.499042e+01	-2.160792e+02
6.400000e-07	-3.324356e-06	-3.291189e-09	-2.485679e+01	-2.156586e+02
6.500000e-07	-3.306294e-06	-3.294296e-09	-2.472174e+01	-2.152284e+02
6.600000e-07	-3.288020e-06	-3.293850e-09	-2.458510e+01	-2.147889e+02
6.700000e-07	-3.269474e-06	-3.264329e-09	-2.444643e+01	-2.143401e+02
6.800000e-07	-3.250615e-06	-3.261924e-09	-2.430541e+01	-2.138821e+02
6.900000e-07	-3.231416e-06	-3.271190e-09	-2.416186e+01	-2.134152e+02
7.000000e-07	-3.212007e-06	-3.264914e-09	-2.401674e+01	-2.129396e+02
7.100000e-07	-3.192453e-06	-3.234352e-09	-2.387053e+01	-2.124554e+02
7.200000e-07	-3.172772e-06	-3.227119e-09	-2.372337e+01	-2.119630e+02
7.300000e-07	-3.152979e-06	-3.230241e-09	-2.357538e+01	-2.114626e+02
7.400000e-07	-3.133097e-06	-3.223641e-09	-2.342671e+01	-2.109545e+02
7.500000e-07	-3.113118e-06	-3.205383e-09	-2.327733e+01	-2.104390e+02
7.600000e-07	-3.093024e-06	-3.195417e-09	-2.312708e+01	-2.099163e+02
7.700000e-07	-3.072690e-06	-3.193470e-09	-2.297504e+01	-2.093867e+02
7.800000e-07	-3.052214e-06	-3.191501e-09	-2.282194e+01	-2.088505e+02
7.900000e-07	-3.031553e-06	-3.181591e-09	-2.266745e+01	-2.083081e+02
8.000000e-07	-3.010506e-06	-3.161940e-09	-2.251008e+01	-2.077595e+02
8.100000e-07	-2.989154e-06	-3.148829e-09	-2.235042e+01	-2.072052e+02
8.200000e-07	-2.967535e-06	-3.143021e-09	-2.218878e+01	-2.066452e+02
8.300000e-07	-2.945774e-06	-3.138659e-09	-2.202607e+01	-2.060798e+02
8.400000e-07	-2.923898e-06	-3.120840e-09	-2.186250e+01	-2.055091e+02
8.500000e-07	-2.901901e-06	-3.107357e-09	-2.169802e+01	-2.049332e+02
8.600000e-07	-2.879809e-06	-3.103080e-09	-2.153284e+01	-2.043522e+02
8.700000e-07	-2.857471e-06	-3.102625e-09	-2.136581e+01	-2.037661e+02
8.800000e-07	-2.834943e-06	-3.086724e-09	-2.119737e+01	-2.031750e+02
8.900000e-07	-2.812155e-06	-3.067644e-09	-2.102698e+01	-2.025786e+02
9.000000e-07	-2.789116e-06	-3.056765e-09	-2.085471e+01	-2.019771e+02
9.100000e-07	-2.765872e-06	-3.056546e-09	-2.068091e+01	-2.013700e+02
9.200000e-07	-2.742339e-06	-3.043956e-09	-2.050495e+01	-2.007574e+02
9.300000e-07	-2.718704e-06	-3.028399e-09	-2.032822e+01	-2.001389e+02
9.400000e-07	-2.694945e-06	-3.016061e-09	-2.015058e+01	-1.995142e+02
9.500000e-07	-2.671089e-06	-3.011296e-09	-1.997220e+01	-1.988830e+02
9.600000e-07	-2.647150e-06	-3.000134e-09	-1.979320e+01	-1.982450e+02
9.700000e-07	-2.623065e-06	-2.988926e-09	-1.961311e+01	-1.975995e+02
9.800000e-07	-2.598809e-06	-2.977957e-09	-1.943175e+01	-1.969463e+02
9.900000e-07	-2.574382e-06	-2.969247e-09	-1.924911e+01	-1.962848e+02
1.000000e-06	-2.549815e-06	-2.960393e-09	-1.906541e+01	-1.956145e+02
1.010000e-06	-2.525155e-06	-2.949901e-09	-1.888103e+01	-1.949347e+02
1.020000e-06	-2.500346e-06	-2.933766e-09	-1.869553e+01	-1.942450e+02
1.030000e-06	-2.475201e-06	-2.918198e-09	-1.850751e+01	-1.935447e+02
1.040000e-06	-2.449652e-06	-2.906453e-09	-1.831648e+01	-1.928333e+02
1.050000e-06	-2.423789e-06	-2.894920e-09	-1.812309e+01	-1.921100e+02
1.060000e-06	-2.397716e-06	-2.881899e-09	-1.792814e+01	-1.913744e+02
1.070000e-06	-2.371387e-06	-2.866638e-09	-1.773128e+01	-1.906256e+02
1.080000e-06	-2.344643e-06	-2.853952e-09	-1.753130e+01	-1.898633e+02
1.090000e-06	-2.317527e-06	-2.842120e-09	-1.732856e+01	-1.890866e+02
1.100000e-06	-2.290174e-06	-2.829889e-09	-1.712403e+01	-1.882952e+02
1.110000e-06	-2.262652e-06	-2.815315e-09	-1.691825e+01	-1.874883e+02
1.120000e-06	-2.235020e-06	-2.801880e-09	-1.671164e+01	-1.866655e+02
1.130000e-06	-2.207265e-06	-2.786574e-09	-1.650411e+01	-1.858263e+02
1.140000e-06	-2.179456e-06	-2.773606e-09	-1.629617e+01	-1.849701e+02
1.150000e-06	-2.151594e-06	-2.760402e-09	-1.608784e+01	-1.840966e+02
1.160000e-06	-2.123675e-06	-2.746613e-09	-1.587909e+01	-1.832053e+02
1.170000e-06	-2.095718e-06	-2.730039e-09	-1.567005e+01	-1.822960e+02
1.180000e-06	-2.067682e-06	-2.713365e-09	-1.546042e+01	-1.813682e+02
1.190000e-06	-2.039543e-06	-2.696908e-09	-1.525002e+01	-1.804216e+02
1.200000e-06	-2.011296e-06	-2.682171e-09	-1.503881e+01	-1.794561e+02
1.210000e-06	-1.982927e-06	-2.665542e-09	-1.482669e+01	-1.784715e+02
1.220000e-06	-1.954415e-06	-2.648605e-09	-1.461350e+01	-1.774675e+02
1.230000e-06	-1.925804e-06	-2.629606e-09	-1.439957e+01	-1.764441e+02
1.240000e-06	-1.896948e-06	-2.614861e-09	-1.418381e+01	-1.754011e+02
1.250000e-06	-1.867914e-06	-2.600622e-09	-1.396672e+01	-1.743385e+02
1.260000e-06	-1.838844e-06	-2.582781e-09	-1.374936e+01	-1.732563e+02
1.270000e-06	-1.809537e-06	-2.560009e-09	-1.353023e+01	-1.721543e+02
1.280000e-06	-1.780075e-06	-2.543752e-09	-1.330993e+01	-1.710327e+02
1.290000e-06	-1.750617e-06	-2.532977e-09	-1.308967e+01	-1.698914e+02
1.300000e-06	-1.720992e-06	-2.517937e-09	-1.286816e+01	-1.687304e+02
1.310000e-06	-1.691211e-06	-2.498399e-09	-1.264548e+01	-1.675497e+02
1.320000e-06	-1.661401e-06	-2.479168e-09	-1.242258e+01	-1.663493e+02
1.330000e-06	-1.631476e-06	-2.460878e-09	-1.219883e+01	-1.651291e+02
1.340000e-06	-1.601409e-06	-2.440480e-09	-1.197402e+01	-1.638892e+02
1.350000e-06	-1.571213e-06	-2.420987e-09	-1.174823e+01	-1.626294e+02
1.360000e-06	-1.540971e-06	-2.398962e-09	-1.152211e+01	-1.613496e+02
1.370000e-06	-1.510636e-06	-2.372239e-09	-1.129529e+01	-1.600496e+02
1.380000e-06	-1.480176e-06	-2.348186e-09	-1.106753e+01	-1.587292e+02
1.390000e-06	-1.449620e-06	-2.329932e-09	-1.083906e+01	-1.573881e+02
1.400000e-06	-1.418984e-06	-2.307888e-09	-1.060999e+01	-1.560260e+02
1.410000e-06	-1.388312e-06	-2.284493e-09	-1.038065e+01	-1.546424e+02
1.420000e-06	-1.357508e-06	-2.262255e-09	-1.015032e+01	-1.532368e+02
1.430000e-06	-1.326633e-06	-2.244597e-09	-9.919467e+00	-1.518088e+02
1.440000e-06	-1.295657e-06	-2.223553e-09	-9.687852e+00	-1.503575e+02
1.450000e-06	-1.264521e-06	-2.198838e-09	-9.455043e+00	-1.488823e+02
1.460000e-06	-1.233281e-06	-2.175467e-09	-9.221455e+00	-1.473823e+02
1.470000e-06	-1.201889e-06	-2.153018e-09	-8.986736e+00	-1.458566e+02
1.480000e-06	-1.170379e-06	-2.128788e-09	-8.751130e+00	-1.443042e+02
1.490000e-06	-1.138741e-06	-2.105507e-09	-8.514563e+00	-1.427240e+02
1.500000e-06	-1.107106e-06	-2.081753e-09	-8.278022e+00	-1.411149e+02
1.510000e-06	-1.075461e-06	-2.057241e-09	-8.041413e+00	-1.394755e+02
1.520000e-06	-1.043714e-06	-2.030640e-09	-7.804029e+00	-1.378044e+02
1.530000e-06	-1.011946e-06	-2.002997e-09	-7.566500e+00	-1.361004e+02
1.540000e-06	-9.801757e-07	-1.975485e-09	-7.328945e+00	-1.343619e+02
1.550000e-06	-9.483931e-07	-1.947840e-09	-7.091301e+00	-1.325873e+02
1.560000e-06	-9.165586e-07	-1.917744e-09	-6.853268e+00	-1.307751e+02
1.570000e-06	-8.846623e-07	-1.889064e-09	-6.614774e+00	-1.289236e+02
1.580000e-06	-8.527633e-07	-1.859109e-09	-6.376260e+00	-1.270312e+02
1.590000e-06	-8.208516e-07	-1.826141e-09	-6.137651e+00	-1.250961e+02
1.600000e-06	-7.889145e-07	-1.793160e-09	-5.898851e+00	-1.231166e+02
1.610000e-06	-7.569612e-07	-1.764599e-09	-5.659931e+00	-1.210910e+02
1.620000e-06	-7.249797e-07	-1.736905e-09	-5.420800e+00	-1.190177e+02
1.630000e-06	-6.929416e-07	-1.702618e-09	-5.181245e+00	-1.168949e+02
1.640000e-06	-6.608310e-07	-1.665690e-09	-4.941149e+00	-1.147211e+02
1.650000e-06	-6.287088e-07	-1.628934e-09	-4.700965e+00	-1.124945e+02
1.660000e-06	-5.965909e-07	-1.594130e-09	-4.460814e+00	-1.102138e+02
1.670000e-06	-5.644558e-07	-1.559021e-09	-4.220534e+00	-1.078775e+02
1.680000e-06	-5.322980e-07	-1.522776e-09	-3.980085e+00	-1.054842e+02
1.690000e-06	-5.000912e-07	-1.483762e-09	-3.739269e+00	-1.030327e+02
1.700000e-06	-4.677970e-07	-1.446709e-09	-3.497800e+00	-1.005219e+02
1.710000e-06	-4.354236e-07	-1.410730e-09	-3.255738e+00	-9.795075e+01
1.720000e-06	-4.030571e-07	-1.372790e-09	-3.013728e+00	-9.531843e+01
1.730000e-06	-3.707676e-07	-1.330846e-09	-2.772294e+00	-9.262425e+01
1.740000e-06	-3.384125e-07	-1.288953e-09	-2.530369e+00	-8.986766e+01
1.750000e-06	-3.060234e-07	-1.250781e-09	-2.288191e+00	-8.704831e+01
1.760000e-06	-2.735974e-07	-1.213260e-09	-2.045735e+00	-8.416602e+01
1.770000e-06	-2.410371e-07	-1.171804e-09	-1.802276e+00	-8.122081e+01
1.780000e-06	-2.085258e-07	-1.127919e-09	-1.559184e+00	-7.821288e+01
1.790000e-06	-1.760930e-07	-1.082609e-09	-1.316678e+00	-7.514264e+01
1.800000e-06	-1.436093e-07	-1.035385e-09	-1.073792e+00	-7.201070e+01
1.810000e-06	-1.110336e-07	-9.873182e-10	-8.302173e-01	-6.881790e+01
1.820000e-06	-7.850843e-08	-9.391411e-10	-5.870212e-01	-6.556525e+01
1.830000e-06	-4.608393e-08	-8.903620e-10	-3.445776e-01	-6.225400e+01
1.840000e-06	-1.359374e-08	-8.387266e-10	-1.016428e-01	-5.888560e+01
1.850000e-06	1.893392e-08	-7.864206e-10	1.415723e-01	-5.546170e+01
1.860000e-06	5.140644e-08	-7.358872e-10	3.843749e-01	-5.198416e+01
1.870000e-06	8.394757e-08	-6.848250e-10	6.276907e-01	-4.845503e+01
1.880000e-06	1.164991e-07	-6.337933e-10	8.710838e-01	-4.487655e+01
1.890000e-06	1.489643e-07	-5.812825e-10	1.113832e+00	-4.125115e+01
1.900000e-06	1.814580e-07	-5.255964e-10	1.356793e+00	-3.758142e+01
1.910000e-06	2.140242e-07	-4.696565e-10	1.600296e+00	-3.387013e+01
1.920000e-06	2.464640e-07	-4.170402e-10	1.842854e+00	-3.012020e+01
1.930000e-06	2.788306e-07	-3.642100e-10	2.084865e+00	-2.633467e+01
1.940000e-06	3.112711e-07	-3.083728e-10	2.327429e+00	-2.251673e+01
1.950000e-06	3.436335e-07	-2.553953e-10	2.569408e+00	-1.866968e+01
1.960000e-06	3.759865e-07	-2.031977e-10	2.811316e+00	-1.479692e+01
1.970000e-06	4.083315e-07	-1.448212e-10	3.053166e+00	-1.090193e+01
1.980000e-06	4.406443e-07	-8.554434e-11	3.294775e+00	-6.988269e+00
1.990000e-06	4.729191e-07	-2.917368e-11	3.536099e+00	-3.059540e+00
2.000000e-06	5.051560e-07	2.958758e-11	3.777139e+00	8.806036e-01
2.010000e-06	5.374018e-07	8.688180e-11	4.018247e+00	4.828491e+00
2.020000e-06	5.696243e-07	1.413810e-10	4.259180e+00	8.780442e+00
2.030000e-06	6.018105e-07	1.962892e-10	4.499842e+00	1.273278e+01
2.040000e-06	6.339481e-07	2.540876e-10	4.740141e+00	1.668187e+01
2.050000e-06	6.660815e-07	3.136509e-10	4.980408e+00	2.062408e+01
2.060000e-06	6.981400e-07	3.706507e-10	5.220114e+00	2.455586e+01
2.070000e-06	7.301312e-07	4.242089e-10	5.459318e+00	2.847372e+01
2.080000e-06	7.621067e-07	4.773391e-10	5.698405e+00	3.237425e+01
2.090000e-06	7.940451e-07	5.339996e-10	5.937214e+00	3.625413e+01
2.100000e-06	8.260060e-07	5.900306e-10	6.176191e+00	4.011014e+01
2.110000e-06	8.579624e-07	6.434388e-10	6.415135e+00	4.393918e+01
2.120000e-06	8.899173e-07	6.976758e-10	6.654067e+00	4.773828e+01
2.130000e-06	9.218266e-07	7.525831e-10	6.892659e+00	5.150460e+01
2.140000e-06	9.536985e-07	8.061839e-10	7.130970e+00	5.523544e+01
2.150000e-06	9.855355e-07	8.603564e-10	7.369021e+00	5.892824e+01
2.160000e-06	1.017349e-06	9.131796e-10	7.606897e+00	6.258063e+01
2.170000e-06	1.049196e-06	9.651752e-10	7.845021e+00	6.619035e+01
2.180000e-06	1.080995e-06	1.018397e-09	8.082785e+00	6.975535e+01
2.190000e-06	1.112708e-06	1.072958e-09	8.319915e+00	7.327371e+01
2.200000e-06	1.144296e-06	1.124915e-09	8.556101e+00	7.674370e+01
2.210000e-06	1.175742e-06	1.173010e-09	8.791226e+00	8.016374e+01
2.220000e-06	1.207137e-06	1.221403e-09	9.025972e+00	8.353244e+01
2.230000e-06	1.238489e-06	1.267656e-09	9.260396e+00	8.684856e+01
2.240000e-06	1.269716e-06	1.315378e-09	9.493892e+00	9.011103e+01
2.250000e-06	1.300852e-06	1.363005e-09	9.726696e+00	9.331892e+01
2.260000e-06	1.331893e-06	1.404137e-09	9.958796e+00	9.647148e+01
2.270000e-06	1.362780e-06	1.446234e-09	1.018974e+01	9.956811e+01
2.280000e-06	1.393525e-06	1.494112e-09	1.041963e+01	1.026083e+02
2.290000e-06	1.424111e-06	1.541034e-09	1.064832e+01	1.055918e+02
2.300000e-06	1.454570e-06	1.585216e-09	1.087608e+01	1.085184e+02
2.310000e-06	1.485039e-06	1.626332e-09	1.110390e+01	1.113881e+02
2.320000e-06	1.515403e-06	1.666526e-09	1.133093e+01	1.142007e+02
2.330000e-06	1.545634e-06	1.706695e-09	1.155698e+01	1.169567e+02
2.340000e-06	1.575784e-06	1.748173e-09	1.178242e+01	1.196561e+02
2.350000e-06	1.605828e-06	1.787372e-09	1.200706e+01	1.222994e+02
2.360000e-06	1.635872e-06	1.823900e-09	1.223170e+01	1.248869e+02
2.370000e-06	1.665849e-06	1.862299e-09	1.245585e+01	1.274194e+02
2.380000e-06	1.695713e-06	1.903960e-09	1.267915e+01	1.298972e+02
2.390000e-06	1.725527e-06	1.943104e-09	1.290207e+01	1.323211e+02
2.400000e-06	1.755200e-06	1.976093e-09	1.312394e+01	1.346918e+02
2.410000e-06	1.784711e-06	2.006336e-09	1.334460e+01	1.370100e+02
2.420000e-06	1.814087e-06	2.040544e-09	1.356425e+01	1.392766e+02
2.430000e-06	1.843281e-06	2.076391e-09	1.378254e+01	1.414923e+02
2.440000e-06	1.872315e-06	2.104423e-09	1.399962e+01	1.436580e+02
2.450000e-06	1.901239e-06	2.129545e-09	1.421589e+01	1.457747e+02
2.460000e-06	1.929996e-06	2.160755e-09	1.443092e+01	1.478431e+02
2.470000e-06	1.958510e-06	2.195377e-09	1.464412e+01	1.498643e+02
2.480000e-06	1.986888e-06	2.227129e-09	1.485631e+01	1.518390e+02
2.490000e-06	2.015223e-06	2.253573e-09	1.506817e+01	1.537683e+02
2.500000e-06	2.043480e-06	2.279009e-09	1.527945e+01	1.556531e+02
2.510000e-06	2.071613e-06	2.312247e-09	1.548981e+01	1.574942e+02
2.520000e-06	2.099668e-06	2.342662e-09	1.569959e+01	1.592925e+02
2.530000e-06	2.127650e-06	2.363295e-09	1.590881e+01	1.610491e+02
2.540000e-06	2.155571e-06	2.385178e-09	1.611758e+01	1.627647e+02
2.550000e-06	2.183453e-06	2.413667e-09	1.632606e+01	1.644402e+02
2.560000e-06	2.211179e-06	2.439409e-09	1.653337e+01	1.660765e+02
2.570000e-06	2.238783e-06	2.462667e-09	1.673977e+01	1.676745e+02
2.580000e-06	2.266329e-06	2.488445e-09	1.694574e+01	1.692350e+02
2.590000e-06	2.293736e-06	2.514328e-09	1.715067e+01	1.707588e+02
2.600000e-06	2.320990e-06	2.538316e-09	1.735445e+01	1.722467e+02
2.610000e-06	2.348080e-06	2.563002e-09	1.755701e+01	1.736996e+02
2.620000e-06	2.374849e-06	2.583853e-09	1.775716e+01	1.751183e+02
2.630000e-06	2.401244e-06	2.603168e-09	1.795452e+01	1.765034e+02
2.640000e-06	2.427241e-06	2.626102e-09	1.814891e+01	1.778559e+02
2.650000e-06	2.452783e-06	2.647163e-09	1.833989e+01	1.791765e+02
2.660000e-06	2.478073e-06	2.666576e-09	1.852899e+01	1.804659e+02
2.670000e-06	2.503150e-06	2.688658e-09	1.871649e+01	1.817250e+02
2.680000e-06	2.527939e-06	2.712047e-09	1.890184e+01	1.829543e+02
2.690000e-06	2.552526e-06	2.731274e-09	1.908568e+01	1.841548e+02
2.700000e-06	2.576975e-06	2.748460e-09	1.926849e+01	1.853271e+02
2.710000e-06	2.601192e-06	2.767129e-09	1.944956e+01	1.864719e+02
2.720000e-06	2.625254e-06	2.785556e-09	1.962948e+01	1.875901e+02
2.730000e-06	2.649298e-06	2.800291e-09	1.980927e+01	1.886822e+02
2.740000e-06	2.673198e-06	2.814096e-09	1.998797e+01	1.897491e+02
2.750000e-06	2.696958e-06	2.829728e-09	2.016563e+01	1.907914e+02
2.760000e-06	2.720596e-06	2.850127e-09	2.034237e+01	1.918099e+02
2.770000e-06	2.744047e-06	2.865355e-09	2.051772e+01	1.928053e+02
2.780000e-06	2.767382e-06	2.873251e-09	2.069220e+01	1.937782e+02
2.790000e-06	2.790481e-06	2.885462e-09	2.086492e+01	1.947294e+02
2.800000e-06	2.813289e-06	2.903816e-09	2.103545e+01	1.956595e+02
2.810000e-06	2.835845e-06	2.920793e-09	2.120411e+01	1.965691e+02
2.820000e-06	2.858127e-06	2.935961e-09	2.137072e+01	1.974591e+02
2.830000e-06	2.880224e-06	2.953220e-09	2.153593e+01	1.983299e+02
2.840000e-06	2.902199e-06	2.968499e-09	2.170025e+01	1.991823e+02
2.850000e-06	2.924031e-06	2.986110e-09	2.186349e+01	2.000168e+02
2.860000e-06	2.945685e-06	3.002531e-09	2.202540e+01	2.008340e+02
2.870000e-06	2.967186e-06	3.013102e-09	2.218617e+01	2.016345e+02
2.880000e-06	2.988463e-06	3.022799e-09	2.234526e+01	2.024189e+02
2.890000e-06	3.009462e-06	3.037729e-09	2.250227e+01	2.031877e+02
2.900000e-06	3.030297e-06	3.051571e-09	2.265806e+01	2.039414e+02
