# Temperatura_=_20.0
# Concentracion g/m^3_=_9000.0
# C_Vs_to_Am_M_A/Vsm_=_65563218390.804596
# pendiente_HvsI_1/m_=_3716.3
# ordenada_HvsI_A/m_=_1297.0
# frecuencia_Hz_=_134996.71018303672

Tiempo_(s)	Campo_(V.s)	Magnetizacion_(V.s)	Campo_(kA/m)	Magnetizacion_(A/m)
0.000000e+00	-3.896096e-06	-3.469278e-09	-2.914650e+01	-2.289448e+02
1.000000e-08	-3.896274e-06	-3.468449e-09	-2.914783e+01	-2.289666e+02
2.000000e-08	-3.896367e-06	-3.466084e-09	-2.914853e+01	-2.289794e+02
3.000000e-08	-3.896308e-06	-3.464867e-09	-2.914808e+01	-2.289829e+02
4.000000e-08	-3.896017e-06	-3.470019e-09	-2.914591e+01	-2.289770e+02
5.000000e-08	-3.895383e-06	-3.483018e-09	-2.914116e+01	-2.289614e+02
6.000000e-08	-3.894306e-06	-3.484104e-09	-2.913311e+01	-2.289361e+02
7.000000e-08	-3.892744e-06	-3.456963e-09	-2.912143e+01	-2.289010e+02
8.000000e-08	-3.890682e-06	-3.424437e-09	-2.910600e+01	-2.288559e+02
9.000000e-08	-3.888071e-06	-3.440731e-09	-2.908646e+01	-2.288009e+02
1.000000e-07	-3.885013e-06	-3.459405e-09	-2.906359e+01	-2.287358e+02
1.100000e-07	-3.881687e-06	-3.528880e-09	-2.903871e+01	-2.286608e+02
1.200000e-07	-3.878179e-06	-3.495265e-09	-2.901246e+01	-2.285760e+02
1.300000e-07	-3.874536e-06	-3.495365e-09	-2.898521e+01	-2.284812e+02
1.400000e-07	-3.870703e-06	-3.436865e-09	-2.895654e+01	-2.283768e+02
1.500000e-07	-3.866707e-06	-3.386904e-09	-2.892664e+01	-2.282629e+02
1.600000e-07	-3.862493e-06	-3.479761e-09	-2.889512e+01	-2.281397e+02
1.700000e-07	-3.858063e-06	-3.500948e-09	-2.886197e+01	-2.280073e+02
1.800000e-07	-3.853417e-06	-3.484093e-09	-2.882722e+01	-2.278660e+02
1.900000e-07	-3.848461e-06	-3.405795e-09	-2.879015e+01	-2.277162e+02
2.000000e-07	-3.843209e-06	-3.432780e-09	-2.875086e+01	-2.275581e+02
2.100000e-07	-3.837663e-06	-3.453458e-09	-2.870937e+01	-2.273919e+02
2.200000e-07	-3.831863e-06	-3.499872e-09	-2.866598e+01	-2.272182e+02
2.300000e-07	-3.825729e-06	-3.452562e-09	-2.862009e+01	-2.270371e+02
2.400000e-07	-3.819289e-06	-3.412620e-09	-2.857191e+01	-2.268491e+02
2.500000e-07	-3.812735e-06	-3.408799e-09	-2.852288e+01	-2.266546e+02
2.600000e-07	-3.805955e-06	-3.487973e-09	-2.847216e+01	-2.264538e+02
2.700000e-07	-3.798825e-06	-3.506506e-09	-2.841882e+01	-2.262473e+02
2.800000e-07	-3.791373e-06	-3.411837e-09	-2.836307e+01	-2.260352e+02
2.900000e-07	-3.783682e-06	-3.353135e-09	-2.830553e+01	-2.258180e+02
3.000000e-07	-3.775870e-06	-3.446184e-09	-2.824710e+01	-2.255961e+02
3.100000e-07	-3.767892e-06	-3.509851e-09	-2.818741e+01	-2.253696e+02
3.200000e-07	-3.759690e-06	-3.418103e-09	-2.812605e+01	-2.251391e+02
3.300000e-07	-3.751324e-06	-3.361782e-09	-2.806347e+01	-2.249046e+02
3.400000e-07	-3.742704e-06	-3.414711e-09	-2.799898e+01	-2.246665e+02
3.500000e-07	-3.733667e-06	-3.482549e-09	-2.793138e+01	-2.244251e+02
3.600000e-07	-3.724265e-06	-3.429928e-09	-2.786104e+01	-2.241804e+02
3.700000e-07	-3.714403e-06	-3.381988e-09	-2.778727e+01	-2.239326e+02
3.800000e-07	-3.704012e-06	-3.378673e-09	-2.770953e+01	-2.236819e+02
3.900000e-07	-3.693226e-06	-3.436211e-09	-2.762884e+01	-2.234284e+02
4.000000e-07	-3.682141e-06	-3.427018e-09	-2.754592e+01	-2.231720e+02
4.100000e-07	-3.670713e-06	-3.398348e-09	-2.746042e+01	-2.229129e+02
4.200000e-07	-3.658942e-06	-3.363655e-09	-2.737236e+01	-2.226510e+02
4.300000e-07	-3.646957e-06	-3.389639e-09	-2.728270e+01	-2.223861e+02
4.400000e-07	-3.634730e-06	-3.410135e-09	-2.719124e+01	-2.221183e+02
4.500000e-07	-3.622194e-06	-3.410557e-09	-2.709745e+01	-2.218474e+02
4.600000e-07	-3.609435e-06	-3.359682e-09	-2.700201e+01	-2.215731e+02
4.700000e-07	-3.596432e-06	-3.348431e-09	-2.690473e+01	-2.212954e+02
4.800000e-07	-3.583078e-06	-3.386532e-09	-2.680483e+01	-2.210139e+02
4.900000e-07	-3.569537e-06	-3.406905e-09	-2.670353e+01	-2.207284e+02
5.000000e-07	-3.555726e-06	-3.350044e-09	-2.660021e+01	-2.204387e+02
5.100000e-07	-3.541568e-06	-3.314725e-09	-2.649429e+01	-2.201444e+02
5.200000e-07	-3.527193e-06	-3.358056e-09	-2.638675e+01	-2.198452e+02
5.300000e-07	-3.512506e-06	-3.383907e-09	-2.627688e+01	-2.195407e+02
5.400000e-07	-3.497335e-06	-3.335730e-09	-2.616339e+01	-2.192308e+02
5.500000e-07	-3.481778e-06	-3.300968e-09	-2.604701e+01	-2.189149e+02
5.600000e-07	-3.465972e-06	-3.334714e-09	-2.592876e+01	-2.185927e+02
5.700000e-07	-3.449801e-06	-3.347273e-09	-2.580779e+01	-2.182640e+02
5.800000e-07	-3.433313e-06	-3.317510e-09	-2.568445e+01	-2.179283e+02
5.900000e-07	-3.416549e-06	-3.293116e-09	-2.555904e+01	-2.175854e+02
6.000000e-07	-3.399485e-06	-3.304839e-09	-2.543138e+01	-2.172349e+02
6.100000e-07	-3.382303e-06	-3.306011e-09	-2.530284e+01	-2.168765e+02
6.200000e-07	-3.365031e-06	-3.303067e-09	-2.517363e+01	-2.165099e+02
6.300000e-07	-3.347534e-06	-3.287931e-09	-2.504274e+01	-2.161350e+02
6.400000e-07	-3.329830e-06	-3.272725e-09	-2.491029e+01	-2.157515e+02
6.500000e-07	-3.311983e-06	-3.263036e-09	-2.477678e+01	-2.153591e+02
6.600000e-07	-3.293882e-06	-3.276017e-09	-2.464137e+01	-2.149577e+02
6.700000e-07	-3.275437e-06	-3.262986e-09	-2.450338e+01	-2.145472e+02
6.800000e-07	-3.256727e-06	-3.237683e-09	-2.436341e+01	-2.141274e+02
6.900000e-07	-3.237749e-06	-3.232592e-09	-2.422144e+01	-2.136983e+02
7.000000e-07	-3.218495e-06	-3.249792e-09	-2.407740e+01	-2.132598e+02
7.100000e-07	-3.199042e-06	-3.235018e-09	-2.393188e+01	-2.128119e+02
7.200000e-07	-3.179402e-06	-3.207908e-09	-2.378495e+01	-2.123546e+02
7.300000e-07	-3.159616e-06	-3.199351e-09	-2.363693e+01	-2.118880e+02
7.400000e-07	-3.139746e-06	-3.205170e-09	-2.348829e+01	-2.114122e+02
7.500000e-07	-3.119787e-06	-3.193668e-09	-2.333897e+01	-2.109272e+02
7.600000e-07	-3.099680e-06	-3.176526e-09	-2.318855e+01	-2.104331e+02
7.700000e-07	-3.079374e-06	-3.168862e-09	-2.303664e+01	-2.099301e+02
7.800000e-07	-3.058912e-06	-3.168864e-09	-2.288357e+01	-2.094184e+02
7.900000e-07	-3.038269e-06	-3.163572e-09	-2.272914e+01	-2.088981e+02
8.000000e-07	-3.017352e-06	-3.152457e-09	-2.257266e+01	-2.083694e+02
8.100000e-07	-2.996128e-06	-3.140256e-09	-2.241388e+01	-2.078325e+02
8.200000e-07	-2.974716e-06	-3.129302e-09	-2.225370e+01	-2.072875e+02
8.300000e-07	-2.953147e-06	-3.125189e-09	-2.209235e+01	-2.067348e+02
8.400000e-07	-2.931398e-06	-3.116456e-09	-2.192964e+01	-2.061743e+02
8.500000e-07	-2.909512e-06	-3.101673e-09	-2.176591e+01	-2.056064e+02
8.600000e-07	-2.887454e-06	-3.089016e-09	-2.160090e+01	-2.050311e+02
8.700000e-07	-2.865172e-06	-3.089112e-09	-2.143421e+01	-2.044486e+02
8.800000e-07	-2.842654e-06	-3.084485e-09	-2.126576e+01	-2.038591e+02
8.900000e-07	-2.819927e-06	-3.069697e-09	-2.109573e+01	-2.032625e+02
9.000000e-07	-2.797009e-06	-3.054035e-09	-2.092429e+01	-2.026591e+02
9.100000e-07	-2.773866e-06	-3.052755e-09	-2.075116e+01	-2.020487e+02
9.200000e-07	-2.750494e-06	-3.048147e-09	-2.057631e+01	-2.014315e+02
9.300000e-07	-2.726931e-06	-3.033233e-09	-2.040003e+01	-2.008074e+02
9.400000e-07	-2.703204e-06	-3.015772e-09	-2.022253e+01	-2.001763e+02
9.500000e-07	-2.679406e-06	-3.010108e-09	-2.004451e+01	-1.995381e+02
9.600000e-07	-2.655542e-06	-3.003143e-09	-1.986598e+01	-1.988928e+02
9.700000e-07	-2.631573e-06	-2.991030e-09	-1.968667e+01	-1.982400e+02
9.800000e-07	-2.607485e-06	-2.977107e-09	-1.950647e+01	-1.975796e+02
9.900000e-07	-2.583232e-06	-2.969012e-09	-1.932503e+01	-1.969113e+02
1.000000e-06	-2.558788e-06	-2.960732e-09	-1.914217e+01	-1.962348e+02
1.010000e-06	-2.534139e-06	-2.951793e-09	-1.895776e+01	-1.955498e+02
1.020000e-06	-2.509346e-06	-2.939916e-09	-1.877229e+01	-1.948560e+02
1.030000e-06	-2.484341e-06	-2.927939e-09	-1.858524e+01	-1.941529e+02
1.040000e-06	-2.458951e-06	-2.917049e-09	-1.839529e+01	-1.934401e+02
1.050000e-06	-2.433236e-06	-2.906547e-09	-1.820292e+01	-1.927172e+02
1.060000e-06	-2.407211e-06	-2.892734e-09	-1.800823e+01	-1.919837e+02
1.070000e-06	-2.380780e-06	-2.876168e-09	-1.781049e+01	-1.912391e+02
1.080000e-06	-2.354046e-06	-2.863105e-09	-1.761050e+01	-1.904829e+02
1.090000e-06	-2.327061e-06	-2.852697e-09	-1.740863e+01	-1.897146e+02
1.100000e-06	-2.299831e-06	-2.840682e-09	-1.720493e+01	-1.889336e+02
1.110000e-06	-2.272428e-06	-2.825185e-09	-1.699992e+01	-1.881395e+02
1.120000e-06	-2.244948e-06	-2.811616e-09	-1.679435e+01	-1.873316e+02
1.130000e-06	-2.217342e-06	-2.798417e-09	-1.658783e+01	-1.865096e+02
1.140000e-06	-2.189552e-06	-2.785202e-09	-1.637993e+01	-1.856727e+02
1.150000e-06	-2.161701e-06	-2.769541e-09	-1.617158e+01	-1.848207e+02
1.160000e-06	-2.133789e-06	-2.752773e-09	-1.596277e+01	-1.839529e+02
1.170000e-06	-2.105789e-06	-2.737640e-09	-1.575330e+01	-1.830688e+02
1.180000e-06	-2.077712e-06	-2.723555e-09	-1.554326e+01	-1.821681e+02
1.190000e-06	-2.049547e-06	-2.707805e-09	-1.533256e+01	-1.812502e+02
1.200000e-06	-2.021240e-06	-2.693381e-09	-1.512079e+01	-1.803148e+02
1.210000e-06	-1.992822e-06	-2.678474e-09	-1.490820e+01	-1.793615e+02
1.220000e-06	-1.964310e-06	-2.663700e-09	-1.469491e+01	-1.783899e+02
1.230000e-06	-1.935677e-06	-2.646152e-09	-1.448070e+01	-1.773996e+02
1.240000e-06	-1.906833e-06	-2.630660e-09	-1.426492e+01	-1.763904e+02
1.250000e-06	-1.877803e-06	-2.615065e-09	-1.404775e+01	-1.753620e+02
1.260000e-06	-1.848687e-06	-2.599676e-09	-1.382994e+01	-1.743140e+02
1.270000e-06	-1.819475e-06	-2.582967e-09	-1.361140e+01	-1.732462e+02
1.280000e-06	-1.790140e-06	-2.567810e-09	-1.339195e+01	-1.721584e+02
1.290000e-06	-1.760637e-06	-2.553085e-09	-1.317124e+01	-1.710504e+02
1.300000e-06	-1.730972e-06	-2.538358e-09	-1.294931e+01	-1.699219e+02
1.310000e-06	-1.701255e-06	-2.520896e-09	-1.272700e+01	-1.687727e+02
1.320000e-06	-1.671516e-06	-2.500574e-09	-1.250453e+01	-1.676027e+02
1.330000e-06	-1.641631e-06	-2.481845e-09	-1.228096e+01	-1.664116e+02
1.340000e-06	-1.611570e-06	-2.464332e-09	-1.205608e+01	-1.651992e+02
1.350000e-06	-1.581390e-06	-2.444288e-09	-1.183030e+01	-1.639653e+02
1.360000e-06	-1.551192e-06	-2.423388e-09	-1.160439e+01	-1.627096e+02
1.370000e-06	-1.520959e-06	-2.402438e-09	-1.137822e+01	-1.614318e+02
1.380000e-06	-1.490560e-06	-2.379352e-09	-1.115081e+01	-1.601318e+02
1.390000e-06	-1.460075e-06	-2.359054e-09	-1.092275e+01	-1.588090e+02
1.400000e-06	-1.429529e-06	-2.338597e-09	-1.069423e+01	-1.574632e+02
1.410000e-06	-1.398847e-06	-2.317492e-09	-1.046470e+01	-1.560939e+02
1.420000e-06	-1.368070e-06	-2.294326e-09	-1.023446e+01	-1.547006e+02
1.430000e-06	-1.337117e-06	-2.273885e-09	-1.000291e+01	-1.532829e+02
1.440000e-06	-1.306093e-06	-2.251778e-09	-9.770816e+00	-1.518400e+02
1.450000e-06	-1.275110e-06	-2.227942e-09	-9.539036e+00	-1.503715e+02
1.460000e-06	-1.244034e-06	-2.202419e-09	-9.306556e+00	-1.488764e+02
1.470000e-06	-1.212752e-06	-2.177345e-09	-9.072537e+00	-1.473542e+02
1.480000e-06	-1.181322e-06	-2.153887e-09	-8.837414e+00	-1.458038e+02
1.490000e-06	-1.149878e-06	-2.130353e-09	-8.602183e+00	-1.442245e+02
1.500000e-06	-1.118407e-06	-2.104726e-09	-8.366749e+00	-1.426151e+02
1.510000e-06	-1.086890e-06	-2.077557e-09	-8.130974e+00	-1.409746e+02
1.520000e-06	-1.055336e-06	-2.051881e-09	-7.894918e+00	-1.393019e+02
1.530000e-06	-1.023711e-06	-2.027688e-09	-7.658334e+00	-1.375957e+02
1.540000e-06	-9.919855e-07	-2.001125e-09	-7.420994e+00	-1.358549e+02
1.550000e-06	-9.601870e-07	-1.972229e-09	-7.183112e+00	-1.340780e+02
1.560000e-06	-9.283289e-07	-1.942191e-09	-6.944782e+00	-1.322638e+02
1.570000e-06	-8.964381e-07	-1.911802e-09	-6.706209e+00	-1.304107e+02
1.580000e-06	-8.645306e-07	-1.881617e-09	-6.467510e+00	-1.285174e+02
1.590000e-06	-8.325555e-07	-1.851866e-09	-6.228306e+00	-1.265823e+02
1.600000e-06	-8.005580e-07	-1.822647e-09	-5.988934e+00	-1.246039e+02
1.610000e-06	-7.685911e-07	-1.795350e-09	-5.749792e+00	-1.225807e+02
1.620000e-06	-7.366127e-07	-1.768208e-09	-5.510563e+00	-1.205111e+02
1.630000e-06	-7.045933e-07	-1.736719e-09	-5.271027e+00	-1.183937e+02
1.640000e-06	-6.725724e-07	-1.702126e-09	-5.031481e+00	-1.162269e+02
1.650000e-06	-6.405467e-07	-1.666055e-09	-4.791898e+00	-1.140092e+02
1.660000e-06	-6.084882e-07	-1.630520e-09	-4.552070e+00	-1.117392e+02
1.670000e-06	-5.763583e-07	-1.594287e-09	-4.311708e+00	-1.094156e+02
1.680000e-06	-5.441648e-07	-1.558195e-09	-4.070870e+00	-1.070371e+02
1.690000e-06	-5.118930e-07	-1.523196e-09	-3.829446e+00	-1.046023e+02
1.700000e-06	-4.795947e-07	-1.489362e-09	-3.587824e+00	-1.021102e+02
1.710000e-06	-4.473657e-07	-1.452922e-09	-3.346721e+00	-9.955973e+01
1.720000e-06	-4.151753e-07	-1.414140e-09	-3.105906e+00	-9.694999e+01
1.730000e-06	-3.829462e-07	-1.375459e-09	-2.864802e+00	-9.428019e+01
1.740000e-06	-3.506158e-07	-1.336443e-09	-2.622939e+00	-9.154968e+01
1.750000e-06	-3.182010e-07	-1.296430e-09	-2.380446e+00	-8.875798e+01
1.760000e-06	-2.857761e-07	-1.256411e-09	-2.137877e+00	-8.590474e+01
1.770000e-06	-2.533653e-07	-1.214393e-09	-1.895413e+00	-8.298982e+01
1.780000e-06	-2.209331e-07	-1.171550e-09	-1.652790e+00	-8.001321e+01
1.790000e-06	-1.883951e-07	-1.127769e-09	-1.409375e+00	-7.697513e+01
1.800000e-06	-1.558184e-07	-1.081611e-09	-1.165670e+00	-7.387597e+01
1.810000e-06	-1.232785e-07	-1.033863e-09	-9.222407e-01	-7.071631e+01
1.820000e-06	-9.079360e-08	-9.882776e-10	-6.792224e-01	-6.749694e+01
1.830000e-06	-5.836853e-08	-9.428556e-10	-4.366521e-01	-6.421887e+01
1.840000e-06	-2.591345e-08	-8.925109e-10	-1.938572e-01	-6.088328e+01
1.850000e-06	6.548179e-09	-8.395120e-10	4.898660e-02	-5.749158e+01
1.860000e-06	3.903548e-08	-7.861995e-10	2.920225e-01	-5.404538e+01
1.870000e-06	7.156155e-08	-7.340860e-10	5.353484e-01	-5.054648e+01
1.880000e-06	1.040413e-07	-6.826229e-10	7.783277e-01	-4.699689e+01
1.890000e-06	1.364670e-07	-6.306541e-10	1.020903e+00	-4.339881e+01
1.900000e-06	1.689359e-07	-5.767888e-10	1.263801e+00	-3.975463e+01
1.910000e-06	2.014606e-07	-5.219205e-10	1.507117e+00	-3.606690e+01
1.920000e-06	2.339602e-07	-4.680639e-10	1.750245e+00	-3.233835e+01
1.930000e-06	2.664006e-07	-4.126087e-10	1.992930e+00	-2.857189e+01
1.940000e-06	2.987791e-07	-3.570413e-10	2.235152e+00	-2.477055e+01
1.950000e-06	3.310427e-07	-3.021481e-10	2.476514e+00	-2.093750e+01
1.960000e-06	3.633489e-07	-2.455692e-10	2.718195e+00	-1.707606e+01
1.970000e-06	3.957050e-07	-1.862857e-10	2.960249e+00	-1.318963e+01
1.980000e-06	4.279893e-07	-1.273628e-10	3.201767e+00	-9.281721e+00
1.990000e-06	4.602513e-07	-7.096496e-11	3.443117e+00	-5.355920e+00
2.000000e-06	4.924450e-07	-1.313865e-11	3.683957e+00	-1.415881e+00
2.010000e-06	5.246284e-07	4.647426e-11	3.924719e+00	2.534690e+00
2.020000e-06	5.567892e-07	1.042986e-10	4.165313e+00	6.492056e+00
2.030000e-06	5.888714e-07	1.598432e-10	4.405318e+00	1.045246e+01
2.040000e-06	6.209088e-07	2.159987e-10	4.644988e+00	1.441215e+01
2.050000e-06	6.529686e-07	2.757443e-10	4.884826e+00	1.836739e+01
2.060000e-06	6.850920e-07	3.360201e-10	5.125139e+00	2.231446e+01
2.070000e-06	7.171565e-07	3.927046e-10	5.365012e+00	2.624970e+01
2.080000e-06	7.491233e-07	4.479861e-10	5.604154e+00	3.016950e+01
2.090000e-06	7.810618e-07	5.032776e-10	5.843085e+00	3.407035e+01
2.100000e-06	8.130306e-07	5.594756e-10	6.082241e+00	3.794881e+01
2.110000e-06	8.450035e-07	6.140864e-10	6.321430e+00	4.180154e+01
2.120000e-06	8.769108e-07	6.676686e-10	6.560126e+00	4.562534e+01
2.130000e-06	9.087854e-07	7.220814e-10	6.798579e+00	4.941710e+01
2.140000e-06	9.406260e-07	7.771110e-10	7.036776e+00	5.317389e+01
2.150000e-06	9.724287e-07	8.316256e-10	7.274690e+00	5.689290e+01
2.160000e-06	1.004226e-06	8.838849e-10	7.512568e+00	6.057148e+01
2.170000e-06	1.036021e-06	9.346986e-10	7.750424e+00	6.420714e+01
2.180000e-06	1.067767e-06	9.863084e-10	7.987910e+00	6.779758e+01
2.190000e-06	1.099456e-06	1.039339e-09	8.224978e+00	7.134065e+01
2.200000e-06	1.131092e-06	1.090617e-09	8.461643e+00	7.483439e+01
2.210000e-06	1.162646e-06	1.138993e-09	8.697693e+00	7.827702e+01
2.220000e-06	1.194096e-06	1.186983e-09	8.932974e+00	8.166693e+01
2.230000e-06	1.225445e-06	1.236600e-09	9.167495e+00	8.500272e+01
2.240000e-06	1.256724e-06	1.285467e-09	9.401491e+00	8.828314e+01
2.250000e-06	1.287888e-06	1.332768e-09	9.634627e+00	9.150714e+01
2.260000e-06	1.318882e-06	1.377837e-09	9.866489e+00	9.467384e+01
2.270000e-06	1.349668e-06	1.421624e-09	1.009680e+01	9.778253e+01
2.280000e-06	1.380368e-06	1.465988e-09	1.032646e+01	1.008327e+02
2.290000e-06	1.411037e-06	1.511979e-09	1.055590e+01	1.038239e+02
2.300000e-06	1.441528e-06	1.557561e-09	1.078400e+01	1.067560e+02
2.310000e-06	1.471917e-06	1.600162e-09	1.101134e+01	1.096288e+02
2.320000e-06	1.502309e-06	1.640032e-09	1.123870e+01	1.124425e+02
2.330000e-06	1.532590e-06	1.679528e-09	1.146523e+01	1.151973e+02
2.340000e-06	1.562713e-06	1.720550e-09	1.169058e+01	1.178935e+02
2.350000e-06	1.592713e-06	1.760177e-09	1.191501e+01	1.205314e+02
2.360000e-06	1.622631e-06	1.796831e-09	1.213882e+01	1.231118e+02
2.370000e-06	1.652515e-06	1.833612e-09	1.236238e+01	1.256351e+02
2.380000e-06	1.682344e-06	1.872241e-09	1.258553e+01	1.281022e+02
2.390000e-06	1.712138e-06	1.909655e-09	1.280842e+01	1.305138e+02
2.400000e-06	1.741855e-06	1.944930e-09	1.303073e+01	1.328709e+02
2.410000e-06	1.771482e-06	1.977465e-09	1.325237e+01	1.351743e+02
2.420000e-06	1.800989e-06	2.009970e-09	1.347311e+01	1.374250e+02
2.430000e-06	1.830317e-06	2.045453e-09	1.369251e+01	1.396241e+02
2.440000e-06	1.859524e-06	2.079097e-09	1.391101e+01	1.417726e+02
2.450000e-06	1.888537e-06	2.108235e-09	1.412805e+01	1.438716e+02
2.460000e-06	1.917281e-06	2.138360e-09	1.434308e+01	1.459222e+02
2.470000e-06	1.945852e-06	2.170576e-09	1.455682e+01	1.479255e+02
2.480000e-06	1.974329e-06	2.202384e-09	1.476986e+01	1.498825e+02
2.490000e-06	2.002661e-06	2.231517e-09	1.498181e+01	1.517945e+02
2.500000e-06	2.030857e-06	2.258364e-09	1.519274e+01	1.536625e+02
2.510000e-06	2.058998e-06	2.283856e-09	1.540326e+01	1.554876e+02
2.520000e-06	2.087073e-06	2.310340e-09	1.561329e+01	1.572709e+02
2.530000e-06	2.115050e-06	2.336118e-09	1.582258e+01	1.590133e+02
2.540000e-06	2.142962e-06	2.360369e-09	1.603139e+01	1.607160e+02
2.550000e-06	2.170784e-06	2.387001e-09	1.623953e+01	1.623800e+02
2.560000e-06	2.198506e-06	2.415132e-09	1.644692e+01	1.640061e+02
2.570000e-06	2.226174e-06	2.441421e-09	1.665389e+01	1.655954e+02
2.580000e-06	2.253772e-06	2.464941e-09	1.686035e+01	1.671488e+02
2.590000e-06	2.281284e-06	2.488460e-09	1.706617e+01	1.686671e+02
2.600000e-06	2.308638e-06	2.511693e-09	1.727081e+01	1.701512e+02
2.610000e-06	2.335783e-06	2.533880e-09	1.747387e+01	1.716020e+02
2.620000e-06	2.362634e-06	2.555629e-09	1.767475e+01	1.730202e+02
2.630000e-06	2.389193e-06	2.578437e-09	1.787344e+01	1.744066e+02
2.640000e-06	2.415443e-06	2.601119e-09	1.806981e+01	1.757619e+02
2.650000e-06	2.441288e-06	2.622463e-09	1.826315e+01	1.770869e+02
2.660000e-06	2.466804e-06	2.643675e-09	1.845404e+01	1.783823e+02
2.670000e-06	2.492037e-06	2.663959e-09	1.864281e+01	1.796487e+02
2.680000e-06	2.516961e-06	2.684114e-09	1.882926e+01	1.808869e+02
2.690000e-06	2.541575e-06	2.702719e-09	1.901340e+01	1.820974e+02
2.700000e-06	2.566006e-06	2.718694e-09	1.919617e+01	1.832809e+02
2.710000e-06	2.590338e-06	2.736428e-09	1.937819e+01	1.844380e+02
2.720000e-06	2.614546e-06	2.757854e-09	1.955929e+01	1.855693e+02
2.730000e-06	2.638557e-06	2.777020e-09	1.973891e+01	1.866754e+02
2.740000e-06	2.662399e-06	2.793247e-09	1.991728e+01	1.877569e+02
2.750000e-06	2.686170e-06	2.807049e-09	2.009511e+01	1.888144e+02
2.760000e-06	2.709853e-06	2.822344e-09	2.027228e+01	1.898484e+02
2.770000e-06	2.733396e-06	2.839547e-09	2.044840e+01	1.908595e+02
2.780000e-06	2.756767e-06	2.853913e-09	2.062324e+01	1.918483e+02
2.790000e-06	2.779918e-06	2.868013e-09	2.079643e+01	1.928153e+02
2.800000e-06	2.802853e-06	2.884544e-09	2.096800e+01	1.937611e+02
2.810000e-06	2.825637e-06	2.905162e-09	2.113845e+01	1.946863e+02
2.820000e-06	2.848150e-06	2.922378e-09	2.130687e+01	1.955913e+02
2.830000e-06	2.870357e-06	2.936626e-09	2.147300e+01	1.964767e+02
2.840000e-06	2.892370e-06	2.950039e-09	2.163768e+01	1.973431e+02
2.850000e-06	2.914240e-06	2.964177e-09	2.180128e+01	1.981910e+02
2.860000e-06	2.935997e-06	2.978923e-09	2.196405e+01	1.990208e+02
2.870000e-06	2.957580e-06	2.992202e-09	2.212551e+01	1.998332e+02
2.880000e-06	2.978945e-06	3.005331e-09	2.228534e+01	2.006285e+02
2.890000e-06	3.000088e-06	3.019959e-09	2.244351e+01	2.014073e+02
2.900000e-06	3.020986e-06	3.033636e-09	2.259984e+01	2.021700e+02
