# Temperatura_=_20.0
# Concentracion g/m^3_=_12600.0
# C_Vs_to_Am_M_A/Vsm_=_65563218390.804596
# pendiente_HvsI_1/m_=_3716.3
# ordenada_HvsI_A/m_=_1297.0
# frecuencia_Hz_=_302086.9012784809

Tiempo_(s)	Campo_(V.s)	Magnetizacion_(V.s)	Campo_(kA/m)	Magnetizacion_(A/m)
0.000000e+00	-6.726332e-06	-2.664697e-08	-4.744539e+01	-1.744517e+03
1.000000e-08	-6.724330e-06	-2.664549e-08	-4.743126e+01	-1.744261e+03
2.000000e-08	-6.720029e-06	-2.663452e-08	-4.740093e+01	-1.743639e+03
3.000000e-08	-6.713657e-06	-2.661985e-08	-4.735598e+01	-1.742636e+03
4.000000e-08	-6.705100e-06	-2.660061e-08	-4.729562e+01	-1.741250e+03
5.000000e-08	-6.694111e-06	-2.657372e-08	-4.721811e+01	-1.739492e+03
6.000000e-08	-6.680553e-06	-2.654708e-08	-4.712247e+01	-1.737392e+03
7.000000e-08	-6.664546e-06	-2.650975e-08	-4.700957e+01	-1.734994e+03
8.000000e-08	-6.646379e-06	-2.645956e-08	-4.688142e+01	-1.732352e+03
9.000000e-08	-6.626211e-06	-2.645924e-08	-4.673916e+01	-1.729527e+03
1.000000e-07	-6.603623e-06	-2.648510e-08	-4.657983e+01	-1.726578e+03
1.100000e-07	-6.578239e-06	-2.638996e-08	-4.640079e+01	-1.723555e+03
1.200000e-07	-6.550251e-06	-2.628422e-08	-4.620337e+01	-1.720497e+03
1.300000e-07	-6.520040e-06	-2.620953e-08	-4.599027e+01	-1.717422e+03
1.400000e-07	-6.487899e-06	-2.608548e-08	-4.576355e+01	-1.714327e+03
1.500000e-07	-6.453890e-06	-2.603649e-08	-4.552367e+01	-1.711186e+03
1.600000e-07	-6.417993e-06	-2.620070e-08	-4.527046e+01	-1.707955e+03
1.700000e-07	-6.380099e-06	-2.600839e-08	-4.500317e+01	-1.704573e+03
1.800000e-07	-6.340151e-06	-2.583763e-08	-4.472139e+01	-1.700966e+03
1.900000e-07	-6.297870e-06	-2.593018e-08	-4.442315e+01	-1.697059e+03
2.000000e-07	-6.253103e-06	-2.572852e-08	-4.410738e+01	-1.692782e+03
2.100000e-07	-6.206113e-06	-2.575253e-08	-4.377592e+01	-1.688071e+03
2.200000e-07	-6.156522e-06	-2.568537e-08	-4.342613e+01	-1.682880e+03
2.300000e-07	-6.104186e-06	-2.545566e-08	-4.305697e+01	-1.677179e+03
2.400000e-07	-6.049536e-06	-2.542946e-08	-4.267148e+01	-1.670961e+03
2.500000e-07	-5.992571e-06	-2.533877e-08	-4.226967e+01	-1.664233e+03
2.600000e-07	-5.933310e-06	-2.528366e-08	-4.185166e+01	-1.657021e+03
2.700000e-07	-5.871930e-06	-2.516092e-08	-4.141871e+01	-1.649359e+03
2.800000e-07	-5.808406e-06	-2.494857e-08	-4.097063e+01	-1.641290e+03
2.900000e-07	-5.742695e-06	-2.483995e-08	-4.050712e+01	-1.632856e+03
3.000000e-07	-5.674797e-06	-2.476291e-08	-4.002820e+01	-1.624095e+03
3.100000e-07	-5.604857e-06	-2.467656e-08	-3.953486e+01	-1.615036e+03
3.200000e-07	-5.532865e-06	-2.444503e-08	-3.902705e+01	-1.605697e+03
3.300000e-07	-5.458618e-06	-2.426700e-08	-3.850334e+01	-1.596087e+03
3.400000e-07	-5.382123e-06	-2.415111e-08	-3.796377e+01	-1.586200e+03
3.500000e-07	-5.303456e-06	-2.400612e-08	-3.740887e+01	-1.576023e+03
3.600000e-07	-5.222719e-06	-2.389334e-08	-3.683938e+01	-1.565534e+03
3.700000e-07	-5.140153e-06	-2.368083e-08	-3.625699e+01	-1.554710e+03
3.800000e-07	-5.055928e-06	-2.347082e-08	-3.566289e+01	-1.543525e+03
3.900000e-07	-4.970096e-06	-2.330030e-08	-3.505746e+01	-1.531955e+03
4.000000e-07	-4.882669e-06	-2.315579e-08	-3.444078e+01	-1.519981e+03
4.100000e-07	-4.793591e-06	-2.297870e-08	-3.381245e+01	-1.507588e+03
4.200000e-07	-4.702706e-06	-2.274619e-08	-3.317138e+01	-1.494768e+03
4.300000e-07	-4.610054e-06	-2.252991e-08	-3.251784e+01	-1.481514e+03
4.400000e-07	-4.515856e-06	-2.233764e-08	-3.185340e+01	-1.467826e+03
4.500000e-07	-4.420105e-06	-2.215791e-08	-3.117800e+01	-1.453703e+03
4.600000e-07	-4.322737e-06	-2.193195e-08	-3.049120e+01	-1.439144e+03
4.700000e-07	-4.223719e-06	-2.167176e-08	-2.979276e+01	-1.424146e+03
4.800000e-07	-4.123150e-06	-2.142680e-08	-2.908338e+01	-1.408704e+03
4.900000e-07	-4.021247e-06	-2.120014e-08	-2.836459e+01	-1.392807e+03
5.000000e-07	-3.917895e-06	-2.097451e-08	-2.763557e+01	-1.376441e+03
5.100000e-07	-3.813067e-06	-2.070988e-08	-2.689615e+01	-1.359590e+03
5.200000e-07	-3.706782e-06	-2.041671e-08	-2.614645e+01	-1.342233e+03
5.300000e-07	-3.599024e-06	-2.013409e-08	-2.538636e+01	-1.324349e+03
5.400000e-07	-3.490016e-06	-1.987362e-08	-2.461745e+01	-1.305917e+03
5.500000e-07	-3.379827e-06	-1.960557e-08	-2.384021e+01	-1.286916e+03
5.600000e-07	-3.268321e-06	-1.929682e-08	-2.305368e+01	-1.267329e+03
5.700000e-07	-3.155546e-06	-1.896819e-08	-2.225821e+01	-1.247140e+03
5.800000e-07	-3.041478e-06	-1.864906e-08	-2.145361e+01	-1.226337e+03
5.900000e-07	-2.925995e-06	-1.833798e-08	-2.063903e+01	-1.204908e+03
6.000000e-07	-2.809276e-06	-1.801175e-08	-1.981573e+01	-1.182848e+03
6.100000e-07	-2.691544e-06	-1.765900e-08	-1.898529e+01	-1.160149e+03
6.200000e-07	-2.572869e-06	-1.728899e-08	-1.814819e+01	-1.136805e+03
6.300000e-07	-2.453202e-06	-1.691975e-08	-1.730410e+01	-1.112810e+03
6.400000e-07	-2.332648e-06	-1.655863e-08	-1.645375e+01	-1.088153e+03
6.500000e-07	-2.211351e-06	-1.618262e-08	-1.559816e+01	-1.062824e+03
6.600000e-07	-2.089235e-06	-1.577986e-08	-1.473679e+01	-1.036805e+03
6.700000e-07	-1.966180e-06	-1.536072e-08	-1.386880e+01	-1.010079e+03
6.800000e-07	-1.842334e-06	-1.494218e-08	-1.299523e+01	-9.826203e+02
6.900000e-07	-1.717919e-06	-1.451906e-08	-1.211765e+01	-9.544029e+02
7.000000e-07	-1.593041e-06	-1.407996e-08	-1.123680e+01	-9.253971e+02
7.100000e-07	-1.467740e-06	-1.362416e-08	-1.035297e+01	-8.955725e+02
7.200000e-07	-1.341980e-06	-1.314813e-08	-9.465894e+00	-8.648990e+02
7.300000e-07	-1.215731e-06	-1.266381e-08	-8.575375e+00	-8.333489e+02
7.400000e-07	-1.089028e-06	-1.217454e-08	-7.681655e+00	-8.008981e+02
7.500000e-07	-9.619865e-07	-1.167369e-08	-6.785544e+00	-7.675278e+02
7.600000e-07	-8.346024e-07	-1.114900e-08	-5.887017e+00	-7.332253e+02
7.700000e-07	-7.068571e-07	-1.060291e-08	-4.985943e+00	-6.979836e+02
7.800000e-07	-5.788456e-07	-1.004877e-08	-4.082991e+00	-6.618013e+02
7.900000e-07	-4.506594e-07	-9.492105e-09	-3.178807e+00	-6.246803e+02
8.000000e-07	-3.223154e-07	-8.923075e-09	-2.273509e+00	-5.866235e+02
8.100000e-07	-1.938151e-07	-8.328356e-09	-1.367109e+00	-5.476316e+02
8.200000e-07	-6.520029e-08	-7.711945e-09	-4.599019e-01	-5.076990e+02
8.300000e-07	6.345063e-08	-7.083846e-09	4.475604e-01	-4.668111e+02
8.400000e-07	1.920878e-07	-6.451732e-09	1.354926e+00	-4.249408e+02
8.500000e-07	3.206895e-07	-5.804634e-09	2.262041e+00	-3.820474e+02
8.600000e-07	4.492397e-07	-5.131921e-09	3.168792e+00	-3.380761e+02
8.700000e-07	5.776599e-07	-4.433056e-09	4.074628e+00	-2.929608e+02
8.800000e-07	7.058547e-07	-3.722765e-09	4.978873e+00	-2.466278e+02
8.900000e-07	8.338558e-07	-3.006152e-09	5.881751e+00	-1.990028e+02
9.000000e-07	9.615672e-07	-2.269085e-09	6.782586e+00	-1.500191e+02
9.100000e-07	1.088891e-06	-1.500129e-09	7.680685e+00	-9.962763e+01
9.200000e-07	1.215819e-06	-7.011274e-10	8.575996e+00	-4.780703e+01
9.300000e-07	1.342310e-06	1.109996e-10	9.468221e+00	5.426568e+00
9.400000e-07	1.468319e-06	9.325510e-10	1.035705e+01	6.001124e+01
9.500000e-07	1.593861e-06	1.774092e-09	1.124259e+01	1.158335e+02
9.600000e-07	1.718918e-06	2.646173e-09	1.212469e+01	1.727259e+02
9.700000e-07	1.843449e-06	3.537405e-09	1.300310e+01	2.304684e+02
9.800000e-07	1.967390e-06	4.426912e-09	1.387734e+01	2.887938e+02
9.900000e-07	2.090551e-06	5.311555e-09	1.474607e+01	3.473968e+02
1.000000e-06	2.212810e-06	6.201838e-09	1.560845e+01	4.059470e+02
1.010000e-06	2.334111e-06	7.099519e-09	1.646407e+01	4.641034e+02
1.020000e-06	2.454534e-06	7.983531e-09	1.731349e+01	5.215299e+02
1.030000e-06	2.574091e-06	8.838655e-09	1.815681e+01	5.779114e+02
1.040000e-06	2.692650e-06	9.662861e-09	1.899308e+01	6.329674e+02
1.050000e-06	2.810221e-06	1.046906e-08	1.982240e+01	6.864632e+02
1.060000e-06	2.926791e-06	1.126061e-08	2.064464e+01	7.382170e+02
1.070000e-06	3.042205e-06	1.202745e-08	2.145874e+01	7.881038e+02
1.080000e-06	3.156315e-06	1.275437e-08	2.226363e+01	8.360534e+02
1.090000e-06	3.269154e-06	1.344295e-08	2.305956e+01	8.820460e+02
1.100000e-06	3.380763e-06	1.411154e-08	2.384681e+01	9.261039e+02
1.110000e-06	3.491181e-06	1.476355e-08	2.462567e+01	9.682812e+02
1.120000e-06	3.600461e-06	1.538632e-08	2.539649e+01	1.008653e+03
1.130000e-06	3.708596e-06	1.597070e-08	2.615925e+01	1.047303e+03
1.140000e-06	3.815544e-06	1.652844e-08	2.691362e+01	1.084317e+03
1.150000e-06	3.921101e-06	1.707047e-08	2.765819e+01	1.119773e+03
1.160000e-06	4.025158e-06	1.759656e-08	2.839217e+01	1.153738e+03
1.170000e-06	4.127768e-06	1.809255e-08	2.911595e+01	1.186268e+03
1.180000e-06	4.228976e-06	1.855621e-08	2.982984e+01	1.217405e+03
1.190000e-06	4.328757e-06	1.899812e-08	3.053366e+01	1.247184e+03
1.200000e-06	4.426947e-06	1.942933e-08	3.122626e+01	1.275637e+03
1.210000e-06	4.523405e-06	1.984744e-08	3.190665e+01	1.302794e+03
1.220000e-06	4.618217e-06	2.024203e-08	3.257542e+01	1.328691e+03
1.230000e-06	4.711487e-06	2.061192e-08	3.323331e+01	1.353374e+03
1.240000e-06	4.803150e-06	2.096765e-08	3.387988e+01	1.376894e+03
1.250000e-06	4.893058e-06	2.131617e-08	3.451406e+01	1.399311e+03
1.260000e-06	4.981114e-06	2.165099e-08	3.513518e+01	1.420694e+03
1.270000e-06	5.067388e-06	2.196377e-08	3.574372e+01	1.441110e+03
1.280000e-06	5.151950e-06	2.225756e-08	3.634020e+01	1.460627e+03
1.290000e-06	5.234759e-06	2.254122e-08	3.692430e+01	1.479306e+03
1.300000e-06	5.315612e-06	2.281565e-08	3.749462e+01	1.497196e+03
1.310000e-06	5.394426e-06	2.307678e-08	3.805055e+01	1.514338e+03
1.320000e-06	5.471349e-06	2.332230e-08	3.859314e+01	1.530758e+03
1.330000e-06	5.546262e-06	2.355612e-08	3.912155e+01	1.546470e+03
1.340000e-06	5.618897e-06	2.378284e-08	3.963389e+01	1.561481e+03
1.350000e-06	5.689411e-06	2.400205e-08	4.013128e+01	1.575790e+03
1.360000e-06	5.757985e-06	2.420932e-08	4.061498e+01	1.589397e+03
1.370000e-06	5.824534e-06	2.440101e-08	4.108439e+01	1.602304e+03
1.380000e-06	5.888887e-06	2.458103e-08	4.153832e+01	1.614517e+03
1.390000e-06	5.951106e-06	2.475443e-08	4.197719e+01	1.626053e+03
1.400000e-06	6.011409e-06	2.492141e-08	4.240255e+01	1.636936e+03
1.410000e-06	6.069769e-06	2.508126e-08	4.281420e+01	1.647196e+03
1.420000e-06	6.125906e-06	2.523132e-08	4.321017e+01	1.656871e+03
1.430000e-06	6.179740e-06	2.537271e-08	4.358990e+01	1.665997e+03
1.440000e-06	6.231240e-06	2.550859e-08	4.395316e+01	1.674611e+03
1.450000e-06	6.280061e-06	2.563885e-08	4.429754e+01	1.682741e+03
1.460000e-06	6.326419e-06	2.575759e-08	4.462453e+01	1.690410e+03
1.470000e-06	6.370651e-06	2.586301e-08	4.493653e+01	1.697629e+03
1.480000e-06	6.412740e-06	2.595897e-08	4.523340e+01	1.704401e+03
1.490000e-06	6.452556e-06	2.605071e-08	4.551425e+01	1.710720e+03
1.500000e-06	6.490132e-06	2.613833e-08	4.577931e+01	1.716576e+03
1.510000e-06	6.525573e-06	2.621788e-08	4.602929e+01	1.721958e+03
1.520000e-06	6.558551e-06	2.629033e-08	4.626191e+01	1.726857e+03
1.530000e-06	6.589093e-06	2.635711e-08	4.647735e+01	1.731271e+03
1.540000e-06	6.617444e-06	2.642016e-08	4.667732e+01	1.735206e+03
1.550000e-06	6.643482e-06	2.647870e-08	4.686098e+01	1.738680e+03
1.560000e-06	6.667023e-06	2.652923e-08	4.702704e+01	1.741718e+03
1.570000e-06	6.688136e-06	2.657037e-08	4.717596e+01	1.744354e+03
1.580000e-06	6.707114e-06	2.660360e-08	4.730983e+01	1.746624e+03
1.590000e-06	6.723748e-06	2.663318e-08	4.742716e+01	1.748564e+03
1.600000e-06	6.737754e-06	2.665917e-08	4.752596e+01	1.750206e+03
1.610000e-06	6.749171e-06	2.667853e-08	4.760648e+01	1.751573e+03
1.620000e-06	6.757953e-06	2.669107e-08	4.766843e+01	1.752676e+03
1.630000e-06	6.764219e-06	2.669936e-08	4.771263e+01	1.753513e+03
1.640000e-06	6.768169e-06	2.670603e-08	4.774049e+01	1.754071e+03
1.650000e-06	6.769624e-06	2.671112e-08	4.775075e+01	1.754328e+03
1.660000e-06	6.768649e-06	2.671236e-08	4.774388e+01	1.754259e+03
1.670000e-06	6.765583e-06	2.669695e-08	4.772225e+01	1.753835e+03
1.680000e-06	6.760392e-06	2.668348e-08	4.768563e+01	1.753037e+03
1.690000e-06	6.752818e-06	2.666441e-08	4.763221e+01	1.751855e+03
1.700000e-06	6.742970e-06	2.664462e-08	4.756274e+01	1.750293e+03
1.710000e-06	6.730962e-06	2.662735e-08	4.747804e+01	1.748372e+03
1.720000e-06	6.716504e-06	2.660968e-08	4.737606e+01	1.746127e+03
1.730000e-06	6.699826e-06	2.660554e-08	4.725842e+01	1.743608e+03
1.740000e-06	6.681196e-06	2.651552e-08	4.712701e+01	1.740873e+03
1.750000e-06	6.660029e-06	2.640334e-08	4.697770e+01	1.737983e+03
1.760000e-06	6.635666e-06	2.640217e-08	4.680585e+01	1.734994e+03
1.770000e-06	6.608399e-06	2.636879e-08	4.661352e+01	1.731950e+03
1.780000e-06	6.578851e-06	2.634666e-08	4.640510e+01	1.728883e+03
1.790000e-06	6.547375e-06	2.640671e-08	4.618308e+01	1.725800e+03
1.800000e-06	6.514418e-06	2.614475e-08	4.595061e+01	1.722688e+03
1.810000e-06	6.479686e-06	2.600376e-08	4.570563e+01	1.719512e+03
1.820000e-06	6.442434e-06	2.626186e-08	4.544286e+01	1.716218e+03
1.830000e-06	6.402957e-06	2.610950e-08	4.516440e+01	1.712741e+03
1.840000e-06	6.361454e-06	2.619214e-08	4.487166e+01	1.709004e+03
1.850000e-06	6.317737e-06	2.615366e-08	4.456329e+01	1.704933e+03
1.860000e-06	6.271933e-06	2.581015e-08	4.424020e+01	1.700461e+03
1.870000e-06	6.223760e-06	2.599486e-08	4.390040e+01	1.695531e+03
1.880000e-06	6.173242e-06	2.586768e-08	4.354407e+01	1.690106e+03
1.890000e-06	6.120271e-06	2.574014e-08	4.317042e+01	1.684165e+03
1.900000e-06	6.064538e-06	2.562749e-08	4.277731e+01	1.677707e+03
1.910000e-06	6.006536e-06	2.535141e-08	4.236817e+01	1.670750e+03
1.920000e-06	5.946393e-06	2.545327e-08	4.194394e+01	1.663324e+03
1.930000e-06	5.884074e-06	2.530957e-08	4.150437e+01	1.655468e+03
1.940000e-06	5.819569e-06	2.515608e-08	4.104937e+01	1.647224e+03
1.950000e-06	5.752843e-06	2.502042e-08	4.057870e+01	1.638633e+03
1.960000e-06	5.684022e-06	2.479129e-08	4.009327e+01	1.629730e+03
1.970000e-06	5.612846e-06	2.479565e-08	3.959121e+01	1.620539e+03
1.980000e-06	5.539544e-06	2.461091e-08	3.907416e+01	1.611074e+03
1.990000e-06	5.464285e-06	2.452956e-08	3.854331e+01	1.601336e+03
2.000000e-06	5.386802e-06	2.430603e-08	3.799677e+01	1.591316e+03
2.010000e-06	5.307197e-06	2.407144e-08	3.743526e+01	1.580997e+03
2.020000e-06	5.225656e-06	2.402347e-08	3.686010e+01	1.570355e+03
2.030000e-06	5.142431e-06	2.384015e-08	3.627305e+01	1.559366e+03
2.040000e-06	5.057394e-06	2.369147e-08	3.567323e+01	1.548005e+03
2.050000e-06	4.970434e-06	2.340841e-08	3.505985e+01	1.536249e+03
2.060000e-06	4.881734e-06	2.323786e-08	3.443418e+01	1.524082e+03
2.070000e-06	4.791475e-06	2.311585e-08	3.379752e+01	1.511491e+03
2.080000e-06	4.699695e-06	2.293585e-08	3.315014e+01	1.498469e+03
2.090000e-06	4.606199e-06	2.270326e-08	3.249065e+01	1.485014e+03
2.100000e-06	4.510948e-06	2.240844e-08	3.181878e+01	1.471123e+03
2.110000e-06	4.414048e-06	2.223413e-08	3.113528e+01	1.456798e+03
2.120000e-06	4.315754e-06	2.205205e-08	3.044194e+01	1.442035e+03
2.130000e-06	4.216065e-06	2.185563e-08	2.973877e+01	1.426832e+03
2.140000e-06	4.114808e-06	2.156317e-08	2.902453e+01	1.411179e+03
2.150000e-06	4.011930e-06	2.127414e-08	2.829887e+01	1.395066e+03
2.160000e-06	3.907506e-06	2.104889e-08	2.756229e+01	1.378477e+03
2.170000e-06	3.801758e-06	2.083565e-08	2.681638e+01	1.361393e+03
2.180000e-06	3.694812e-06	2.057434e-08	2.606202e+01	1.343794e+03
2.190000e-06	3.586610e-06	2.023889e-08	2.529879e+01	1.325658e+03
2.200000e-06	3.477141e-06	1.993676e-08	2.452663e+01	1.306964e+03
2.210000e-06	3.366287e-06	1.966942e-08	2.374471e+01	1.287693e+03
2.220000e-06	3.254015e-06	1.940617e-08	2.295277e+01	1.267827e+03
2.230000e-06	3.140554e-06	1.907805e-08	2.215246e+01	1.247354e+03
2.240000e-06	3.025881e-06	1.872386e-08	2.134359e+01	1.226261e+03
2.250000e-06	2.909980e-06	1.837773e-08	2.052606e+01	1.204540e+03
2.260000e-06	2.792880e-06	1.806311e-08	1.970007e+01	1.182183e+03
2.270000e-06	2.674635e-06	1.773690e-08	1.886602e+01	1.159185e+03
2.280000e-06	2.555229e-06	1.736914e-08	1.802376e+01	1.135540e+03
2.290000e-06	2.434760e-06	1.697740e-08	1.717401e+01	1.111238e+03
2.300000e-06	2.313468e-06	1.658913e-08	1.631846e+01	1.086270e+03
2.310000e-06	2.191513e-06	1.621517e-08	1.545823e+01	1.060623e+03
2.320000e-06	2.068958e-06	1.582233e-08	1.459377e+01	1.034278e+03
2.330000e-06	1.945708e-06	1.540500e-08	1.372440e+01	1.007215e+03
2.340000e-06	1.821659e-06	1.496494e-08	1.284940e+01	9.794068e+02
2.350000e-06	1.696913e-06	1.452222e-08	1.196948e+01	9.508267e+02
2.360000e-06	1.571695e-06	1.407777e-08	1.108623e+01	9.214442e+02
2.370000e-06	1.446075e-06	1.362769e-08	1.020015e+01	8.912288e+02
2.380000e-06	1.320042e-06	1.315395e-08	9.311149e+00	8.601512e+02
2.390000e-06	1.193503e-06	1.265681e-08	8.418590e+00	8.281852e+02
2.400000e-06	1.066442e-06	1.214940e-08	7.522340e+00	7.953091e+02
2.410000e-06	9.389639e-07	1.163816e-08	6.623150e+00	7.615069e+02
2.420000e-06	8.111021e-07	1.111964e-08	5.721254e+00	7.267684e+02
2.430000e-06	6.828948e-07	1.057732e-08	4.816920e+00	6.910896e+02
2.440000e-06	5.544225e-07	1.001233e-08	3.910718e+00	6.544707e+02
2.450000e-06	4.257698e-07	9.431352e-09	3.003243e+00	6.169146e+02
2.460000e-06	2.969863e-07	8.845794e-09	2.094846e+00	5.784235e+02
2.470000e-06	1.680981e-07	8.254272e-09	1.185710e+00	5.389956e+02
2.480000e-06	3.913350e-08	7.641138e-09	2.760352e-01	4.986216e+02
2.490000e-06	-8.988282e-08	6.999874e-09	-6.340045e-01	4.572814e+02
2.500000e-06	-2.188462e-07	6.339251e-09	-1.543671e+00	4.149416e+02
2.510000e-06	-3.477706e-07	5.677988e-09	-2.453062e+00	3.715550e+02
2.520000e-06	-4.766334e-07	5.010885e-09	-3.362019e+00	3.270611e+02
2.530000e-06	-6.053165e-07	4.317428e-09	-4.269708e+00	2.813894e+02
2.540000e-06	-7.338526e-07	3.591019e-09	-5.176361e+00	2.344651e+02
2.550000e-06	-8.621607e-07	2.842010e-09	-6.081404e+00	1.862164e+02
2.560000e-06	-9.900821e-07	2.088488e-09	-6.983721e+00	1.365834e+02
2.570000e-06	-1.117524e-06	1.325842e-09	-7.882652e+00	8.552863e+01
2.580000e-06	-1.244442e-06	5.334013e-10	-8.777892e+00	3.304701e+01
2.590000e-06	-1.370888e-06	-2.960509e-10	-9.669801e+00	-2.082498e+01
2.600000e-06	-1.496859e-06	-1.146750e-09	-1.055836e+01	-7.600200e+01
2.610000e-06	-1.622312e-06	-1.998804e-09	-1.144327e+01	-1.323456e+02
2.620000e-06	-1.747152e-06	-2.858290e-09	-1.232385e+01	-1.896635e+02
2.630000e-06	-1.871250e-06	-3.746493e-09	-1.319920e+01	-2.477127e+02
2.640000e-06	-1.994534e-06	-4.660468e-09	-1.406880e+01	-3.062072e+02
2.650000e-06	-2.117020e-06	-5.571560e-09	-1.493278e+01	-3.648282e+02
2.660000e-06	-2.238773e-06	-6.457633e-09	-1.579159e+01	-4.232384e+02
2.670000e-06	-2.359810e-06	-7.328177e-09	-1.664534e+01	-4.810971e+02
2.680000e-06	-2.479989e-06	-8.202156e-09	-1.749305e+01	-5.380762e+02
2.690000e-06	-2.599145e-06	-9.070174e-09	-1.833353e+01	-5.938750e+02
2.700000e-06	-2.717171e-06	-9.903546e-09	-1.916605e+01	-6.482330e+02
2.710000e-06	-2.834064e-06	-1.069065e-08	-1.999058e+01	-7.009396e+02
2.720000e-06	-2.949828e-06	-1.145258e-08	-2.080714e+01	-7.518391e+02
2.730000e-06	-3.064339e-06	-1.220609e-08	-2.161487e+01	-8.008324e+02
2.740000e-06	-3.177535e-06	-1.293888e-08	-2.241331e+01	-8.478734e+02
2.750000e-06	-3.289418e-06	-1.362965e-08	-2.320250e+01	-8.929632e+02
2.760000e-06	-3.399979e-06	-1.427790e-08	-2.398236e+01	-9.361401e+02
2.770000e-06	-3.509352e-06	-1.490572e-08	-2.475384e+01	-9.774693e+02
2.780000e-06	-3.617696e-06	-1.552412e-08	-2.551807e+01	-1.017031e+03
2.790000e-06	-3.724908e-06	-1.611948e-08	-2.627431e+01	-1.054912e+03
2.800000e-06	-3.830902e-06	-1.667454e-08	-2.702195e+01	-1.091194e+03
2.810000e-06	-3.935618e-06	-1.719567e-08	-2.776058e+01	-1.125950e+03
2.820000e-06	-4.038842e-06	-1.770319e-08	-2.848869e+01	-1.159244e+03
2.830000e-06	-4.140471e-06	-1.820080e-08	-2.920555e+01	-1.191122e+03
2.840000e-06	-4.240607e-06	-1.867306e-08	-2.991188e+01	-1.221625e+03
2.850000e-06	-4.339325e-06	-1.911018e-08	-3.060821e+01	-1.250785e+03
2.860000e-06	-4.436651e-06	-1.952270e-08	-3.129471e+01	-1.278632e+03
2.870000e-06	-4.532492e-06	-1.992581e-08	-3.197074e+01	-1.305200e+03
2.880000e-06	-4.626563e-06	-2.032080e-08	-3.263429e+01	-1.330528e+03
2.890000e-06	-4.718879e-06	-2.069439e-08	-3.328546e+01	-1.354664e+03
2.900000e-06	-4.809602e-06	-2.104111e-08	-3.392538e+01	-1.377664e+03
2.910000e-06	-4.898608e-06	-2.136947e-08	-3.455321e+01	-1.399593e+03
2.920000e-06	-4.985822e-06	-2.169205e-08	-3.516839e+01	-1.420519e+03
2.930000e-06	-5.071149e-06	-2.200860e-08	-3.577026e+01	-1.440510e+03
2.940000e-06	-5.154611e-06	-2.230745e-08	-3.635897e+01	-1.459631e+03
