# Temperatura_=_20.0
# Concentracion g/m^3_=_12600.0
# C_Vs_to_Am_M_A/Vsm_=_65563218390.804596
# pendiente_HvsI_1/m_=_3716.3
# ordenada_HvsI_A/m_=_1297.0
# frecuencia_Hz_=_302074.84409018495

Tiempo_(s)	Campo_(V.s)	Magnetizacion_(V.s)	Campo_(kA/m)	Magnetizacion_(A/m)
0.000000e+00	-6.721749e-06	-3.074707e-08	-4.744688e+01	-2.014564e+03
1.000000e-08	-6.719920e-06	-3.074196e-08	-4.743397e+01	-2.014203e+03
2.000000e-08	-6.715770e-06	-3.073030e-08	-4.740468e+01	-2.013472e+03
3.000000e-08	-6.709517e-06	-3.071598e-08	-4.736054e+01	-2.012368e+03
4.000000e-08	-6.701160e-06	-3.069585e-08	-4.730155e+01	-2.010895e+03
5.000000e-08	-6.690378e-06	-3.066368e-08	-4.722544e+01	-2.009068e+03
6.000000e-08	-6.677078e-06	-3.062923e-08	-4.713156e+01	-2.006909e+03
7.000000e-08	-6.661342e-06	-3.058647e-08	-4.702049e+01	-2.004445e+03
8.000000e-08	-6.643394e-06	-3.053188e-08	-4.689380e+01	-2.001710e+03
9.000000e-08	-6.623404e-06	-3.053962e-08	-4.675269e+01	-1.998737e+03
1.000000e-07	-6.601017e-06	-3.057188e-08	-4.659467e+01	-1.995559e+03
1.100000e-07	-6.575929e-06	-3.046793e-08	-4.641758e+01	-1.992204e+03
1.200000e-07	-6.548251e-06	-3.033683e-08	-4.622221e+01	-1.988693e+03
1.300000e-07	-6.518293e-06	-3.024655e-08	-4.601075e+01	-1.985039e+03
1.400000e-07	-6.486380e-06	-3.013207e-08	-4.578548e+01	-1.981243e+03
1.500000e-07	-6.452587e-06	-3.011194e-08	-4.554694e+01	-1.977297e+03
1.600000e-07	-6.416868e-06	-3.025222e-08	-4.529482e+01	-1.973183e+03
1.700000e-07	-6.379126e-06	-3.002124e-08	-4.502840e+01	-1.968873e+03
1.800000e-07	-6.339301e-06	-2.986640e-08	-4.474729e+01	-1.964332e+03
1.900000e-07	-6.297157e-06	-2.996838e-08	-4.444981e+01	-1.959522e+03
2.000000e-07	-6.252592e-06	-2.977361e-08	-4.413524e+01	-1.954400e+03
2.100000e-07	-6.205748e-06	-2.976492e-08	-4.380458e+01	-1.948924e+03
2.200000e-07	-6.156290e-06	-2.965796e-08	-4.345547e+01	-1.943056e+03
2.300000e-07	-6.104203e-06	-2.943301e-08	-4.308780e+01	-1.936762e+03
2.400000e-07	-6.049791e-06	-2.942477e-08	-4.270372e+01	-1.930016e+03
2.500000e-07	-5.993112e-06	-2.932743e-08	-4.230364e+01	-1.922800e+03
2.600000e-07	-5.934095e-06	-2.921505e-08	-4.188706e+01	-1.915106e+03
2.700000e-07	-5.872827e-06	-2.906453e-08	-4.145459e+01	-1.906935e+03
2.800000e-07	-5.809554e-06	-2.887737e-08	-4.100796e+01	-1.898298e+03
2.900000e-07	-5.744172e-06	-2.878276e-08	-4.054645e+01	-1.889213e+03
3.000000e-07	-5.676586e-06	-2.868412e-08	-4.006938e+01	-1.879704e+03
3.100000e-07	-5.606900e-06	-2.854525e-08	-3.957749e+01	-1.869798e+03
3.200000e-07	-5.535117e-06	-2.829490e-08	-3.907079e+01	-1.859520e+03
3.300000e-07	-5.461090e-06	-2.814150e-08	-3.854826e+01	-1.848894e+03
3.400000e-07	-5.384806e-06	-2.803706e-08	-3.800979e+01	-1.837938e+03
3.500000e-07	-5.306377e-06	-2.785346e-08	-3.745618e+01	-1.826661e+03
3.600000e-07	-5.225834e-06	-2.768586e-08	-3.688765e+01	-1.815064e+03
3.700000e-07	-5.143451e-06	-2.746171e-08	-3.630613e+01	-1.803135e+03
3.800000e-07	-5.059439e-06	-2.726743e-08	-3.571312e+01	-1.790858e+03
3.900000e-07	-4.973761e-06	-2.709413e-08	-3.510834e+01	-1.778206e+03
4.000000e-07	-4.886487e-06	-2.690938e-08	-3.449230e+01	-1.765147e+03
4.100000e-07	-4.797535e-06	-2.669232e-08	-3.386441e+01	-1.751651e+03
4.200000e-07	-4.706719e-06	-2.644901e-08	-3.322337e+01	-1.737686e+03
4.300000e-07	-4.614247e-06	-2.623379e-08	-3.257064e+01	-1.723225e+03
4.400000e-07	-4.520264e-06	-2.602467e-08	-3.190724e+01	-1.708247e+03
4.500000e-07	-4.424751e-06	-2.580601e-08	-3.123304e+01	-1.692741e+03
4.600000e-07	-4.327570e-06	-2.554018e-08	-3.054707e+01	-1.676701e+03
4.700000e-07	-4.228652e-06	-2.526453e-08	-2.984883e+01	-1.660129e+03
4.800000e-07	-4.128271e-06	-2.501654e-08	-2.914027e+01	-1.643028e+03
4.900000e-07	-4.026523e-06	-2.477052e-08	-2.842206e+01	-1.625404e+03
5.000000e-07	-3.923409e-06	-2.450450e-08	-2.769421e+01	-1.607262e+03
5.100000e-07	-3.818908e-06	-2.420092e-08	-2.695657e+01	-1.588598e+03
5.200000e-07	-3.712842e-06	-2.388801e-08	-2.620788e+01	-1.569403e+03
5.300000e-07	-3.605273e-06	-2.359093e-08	-2.544858e+01	-1.549657e+03
5.400000e-07	-3.496396e-06	-2.330283e-08	-2.468005e+01	-1.529332e+03
5.500000e-07	-3.386332e-06	-2.298754e-08	-2.390314e+01	-1.508392e+03
5.600000e-07	-3.275088e-06	-2.263417e-08	-2.311790e+01	-1.486797e+03
5.700000e-07	-3.162512e-06	-2.227714e-08	-2.232326e+01	-1.464505e+03
5.800000e-07	-3.048480e-06	-2.193601e-08	-2.151834e+01	-1.441478e+03
5.900000e-07	-2.933082e-06	-2.159166e-08	-2.070378e+01	-1.417682e+03
6.000000e-07	-2.816513e-06	-2.121716e-08	-1.988095e+01	-1.393092e+03
6.100000e-07	-2.698889e-06	-2.081517e-08	-1.905068e+01	-1.367696e+03
6.200000e-07	-2.580376e-06	-2.040888e-08	-1.821413e+01	-1.341486e+03
6.300000e-07	-2.460976e-06	-2.001075e-08	-1.737132e+01	-1.314466e+03
6.400000e-07	-2.340610e-06	-1.960679e-08	-1.652169e+01	-1.286640e+03
6.500000e-07	-2.219340e-06	-1.917140e-08	-1.566568e+01	-1.258013e+03
6.600000e-07	-2.097195e-06	-1.870713e-08	-1.480350e+01	-1.228583e+03
6.700000e-07	-1.974209e-06	-1.823966e-08	-1.393537e+01	-1.198339e+03
6.800000e-07	-1.850481e-06	-1.777837e-08	-1.306201e+01	-1.167255e+03
6.900000e-07	-1.726182e-06	-1.730144e-08	-1.218462e+01	-1.135291e+03
7.000000e-07	-1.601378e-06	-1.679117e-08	-1.130366e+01	-1.102393e+03
7.100000e-07	-1.476044e-06	-1.626021e-08	-1.041897e+01	-1.068497e+03
7.200000e-07	-1.350259e-06	-1.572090e-08	-9.531085e+00	-1.033533e+03
7.300000e-07	-1.224101e-06	-1.517783e-08	-8.640577e+00	-9.974291e+02
7.400000e-07	-1.097617e-06	-1.461848e-08	-7.747759e+00	-9.601230e+02
7.500000e-07	-9.707956e-07	-1.402830e-08	-6.852566e+00	-9.215627e+02
7.600000e-07	-8.436221e-07	-1.341026e-08	-5.954884e+00	-8.817130e+02
7.700000e-07	-7.161428e-07	-1.278118e-08	-5.055045e+00	-8.405562e+02
7.800000e-07	-5.883543e-07	-1.214935e-08	-4.153023e+00	-7.980903e+02
7.900000e-07	-4.603202e-07	-1.149961e-08	-3.249267e+00	-7.543247e+02
8.000000e-07	-3.321501e-07	-1.081257e-08	-2.344552e+00	-7.092727e+02
8.100000e-07	-2.038546e-07	-1.009278e-08	-1.438951e+00	-6.629426e+02
8.200000e-07	-7.542800e-08	-9.362782e-09	-5.324245e-01	-6.153277e+02
8.300000e-07	5.303743e-08	-8.625933e-09	3.743759e-01	-5.663984e+02
8.400000e-07	1.815004e-07	-7.862464e-09	1.281159e+00	-5.160954e+02
8.500000e-07	3.099547e-07	-7.058346e-09	2.187881e+00	-4.643281e+02
8.600000e-07	4.382883e-07	-6.225936e-09	3.093750e+00	-4.109765e+02
8.700000e-07	5.664771e-07	-5.381312e-09	3.998598e+00	-3.558996e+02
8.800000e-07	6.945006e-07	-4.523696e-09	4.902279e+00	-2.989475e+02
8.900000e-07	8.221932e-07	-3.631179e-09	5.803624e+00	-2.399788e+02
9.000000e-07	9.495870e-07	-2.690714e-09	6.702860e+00	-1.788798e+02
9.100000e-07	1.076731e-06	-1.718597e-09	7.600329e+00	-1.155853e+02
9.200000e-07	1.203508e-06	-7.307825e-10	8.495214e+00	-5.009683e+01
9.300000e-07	1.329959e-06	2.791672e-10	9.387794e+00	1.750178e+01
9.400000e-07	1.456042e-06	1.332081e-09	1.027778e+01	8.703463e+01
9.500000e-07	1.581574e-06	2.429943e-09	1.116387e+01	1.582311e+02
9.600000e-07	1.706551e-06	3.548799e-09	1.204605e+01	2.307305e+02
9.700000e-07	1.831013e-06	4.665883e-09	1.292459e+01	3.040949e+02
9.800000e-07	1.954897e-06	5.783310e-09	1.379905e+01	3.778279e+02
9.900000e-07	2.078059e-06	6.911698e-09	1.466842e+01	4.513993e+02
1.000000e-06	2.200375e-06	8.040087e-09	1.553181e+01	5.242721e+02
1.010000e-06	2.321801e-06	9.138157e-09	1.638892e+01	5.959306e+02
1.020000e-06	2.442235e-06	1.018867e-08	1.723903e+01	6.659058e+02
1.030000e-06	2.561697e-06	1.120645e-08	1.808228e+01	7.337976e+02
1.040000e-06	2.680275e-06	1.220163e-08	1.891928e+01	7.992900e+02
1.050000e-06	2.797910e-06	1.316377e-08	1.974964e+01	8.621593e+02
1.060000e-06	2.914543e-06	1.407393e-08	2.057292e+01	9.222755e+02
1.070000e-06	3.030041e-06	1.493389e-08	2.138818e+01	9.795959e+02
1.080000e-06	3.144225e-06	1.575847e-08	2.219417e+01	1.034153e+03
1.090000e-06	3.257051e-06	1.655587e-08	2.299058e+01	1.086037e+03
1.100000e-06	3.368625e-06	1.731892e-08	2.377815e+01	1.135380e+03
1.110000e-06	3.479064e-06	1.803668e-08	2.455771e+01	1.182336e+03
1.120000e-06	3.588375e-06	1.871128e-08	2.532930e+01	1.227062e+03
1.130000e-06	3.696543e-06	1.935840e-08	2.609283e+01	1.269707e+03
1.140000e-06	3.803481e-06	1.998685e-08	2.684767e+01	1.310402e+03
1.150000e-06	3.909048e-06	2.058633e-08	2.759284e+01	1.349255e+03
1.160000e-06	4.013184e-06	2.114674e-08	2.832790e+01	1.386349e+03
1.170000e-06	4.115872e-06	2.167260e-08	2.905275e+01	1.421750e+03
1.180000e-06	4.217158e-06	2.217916e-08	2.976770e+01	1.455509e+03
1.190000e-06	4.317075e-06	2.266925e-08	3.047299e+01	1.487668e+03
1.200000e-06	4.415441e-06	2.313545e-08	3.116732e+01	1.518273e+03
1.210000e-06	4.512032e-06	2.357089e-08	3.184913e+01	1.547374e+03
1.220000e-06	4.606860e-06	2.398348e-08	3.251850e+01	1.575031e+03
1.230000e-06	4.700119e-06	2.438503e-08	3.317678e+01	1.601315e+03
1.240000e-06	4.791914e-06	2.477579e-08	3.382473e+01	1.626307e+03
1.250000e-06	4.882028e-06	2.514630e-08	3.446082e+01	1.650094e+03
1.260000e-06	4.970230e-06	2.549211e-08	3.508342e+01	1.672766e+03
1.270000e-06	5.056574e-06	2.582052e-08	3.569289e+01	1.694408e+03
1.280000e-06	5.141182e-06	2.614046e-08	3.629012e+01	1.715095e+03
1.290000e-06	5.224008e-06	2.644861e-08	3.687476e+01	1.734893e+03
1.300000e-06	5.304931e-06	2.673668e-08	3.744598e+01	1.753850e+03
1.310000e-06	5.383890e-06	2.700420e-08	3.800333e+01	1.772000e+03
1.320000e-06	5.460876e-06	2.726094e-08	3.854674e+01	1.789366e+03
1.330000e-06	5.535839e-06	2.751268e-08	3.907589e+01	1.805957e+03
1.340000e-06	5.608673e-06	2.775546e-08	3.959000e+01	1.821781e+03
1.350000e-06	5.679396e-06	2.798281e-08	4.008922e+01	1.836840e+03
1.360000e-06	5.748095e-06	2.819546e-08	4.057414e+01	1.851143e+03
1.370000e-06	5.814744e-06	2.839938e-08	4.104460e+01	1.864702e+03
1.380000e-06	5.879244e-06	2.859682e-08	4.149988e+01	1.877538e+03
1.390000e-06	5.941639e-06	2.878365e-08	4.194031e+01	1.889679e+03
1.400000e-06	6.002103e-06	2.895665e-08	4.236711e+01	1.901158e+03
1.410000e-06	6.060528e-06	2.912091e-08	4.277951e+01	1.912013e+03
1.420000e-06	6.116741e-06	2.928036e-08	4.317631e+01	1.922282e+03
1.430000e-06	6.170787e-06	2.943535e-08	4.355780e+01	1.931998e+03
1.440000e-06	6.222419e-06	2.958291e-08	4.392226e+01	1.941190e+03
1.450000e-06	6.271409e-06	2.971707e-08	4.426806e+01	1.949876e+03
1.460000e-06	6.318033e-06	2.983826e-08	4.459717e+01	1.958068e+03
1.470000e-06	6.362534e-06	2.995374e-08	4.491129e+01	1.965769e+03
1.480000e-06	6.404800e-06	3.006326e-08	4.520963e+01	1.972974e+03
1.490000e-06	6.444715e-06	3.016199e-08	4.549138e+01	1.979677e+03
1.500000e-06	6.482407e-06	3.025096e-08	4.575744e+01	1.985869e+03
1.510000e-06	6.517985e-06	3.033300e-08	4.600857e+01	1.991547e+03
1.520000e-06	6.551251e-06	3.041046e-08	4.624339e+01	1.996710e+03
1.530000e-06	6.582098e-06	3.048458e-08	4.646113e+01	2.001368e+03
1.540000e-06	6.610707e-06	3.055287e-08	4.666307e+01	2.005536e+03
1.550000e-06	6.637000e-06	3.061232e-08	4.684867e+01	2.009237e+03
1.560000e-06	6.660741e-06	3.066361e-08	4.701624e+01	2.012501e+03
1.570000e-06	6.682076e-06	3.070884e-08	4.716684e+01	2.015357e+03
1.580000e-06	6.701207e-06	3.074904e-08	4.730188e+01	2.017837e+03
1.590000e-06	6.717892e-06	3.078327e-08	4.741966e+01	2.019966e+03
1.600000e-06	6.732017e-06	3.081011e-08	4.751936e+01	2.021766e+03
1.610000e-06	6.743648e-06	3.083085e-08	4.760146e+01	2.023249e+03
1.620000e-06	6.752596e-06	3.084625e-08	4.766462e+01	2.024419e+03
1.630000e-06	6.758974e-06	3.085716e-08	4.770964e+01	2.025272e+03
1.640000e-06	6.763095e-06	3.086393e-08	4.773873e+01	2.025799e+03
1.650000e-06	6.764798e-06	3.086739e-08	4.775075e+01	2.025986e+03
1.660000e-06	6.764085e-06	3.086555e-08	4.774572e+01	2.025819e+03
1.670000e-06	6.761215e-06	3.085030e-08	4.772546e+01	2.025286e+03
1.680000e-06	6.756197e-06	3.083663e-08	4.769004e+01	2.024381e+03
1.690000e-06	6.748832e-06	3.081731e-08	4.763806e+01	2.023103e+03
1.700000e-06	6.739173e-06	3.079681e-08	4.756987e+01	2.021463e+03
1.710000e-06	6.727363e-06	3.077751e-08	4.748651e+01	2.019478e+03
1.720000e-06	6.713198e-06	3.076183e-08	4.738652e+01	2.017173e+03
1.730000e-06	6.696799e-06	3.075882e-08	4.727077e+01	2.014577e+03
1.740000e-06	6.678407e-06	3.065428e-08	4.714094e+01	2.011727e+03
1.750000e-06	6.657536e-06	3.052566e-08	4.699362e+01	2.008654e+03
1.760000e-06	6.633503e-06	3.052749e-08	4.682398e+01	2.005389e+03
1.770000e-06	6.606494e-06	3.051661e-08	4.663333e+01	2.001959e+03
1.780000e-06	6.577108e-06	3.051659e-08	4.642590e+01	1.998380e+03
1.790000e-06	6.545760e-06	3.055479e-08	4.620463e+01	1.994659e+03
1.800000e-06	6.512918e-06	3.025242e-08	4.597281e+01	1.990795e+03
1.810000e-06	6.478360e-06	3.008293e-08	4.572887e+01	1.986773e+03
1.820000e-06	6.441395e-06	3.028060e-08	4.546795e+01	1.982570e+03
1.830000e-06	6.402138e-06	3.012524e-08	4.519084e+01	1.978157e+03
1.840000e-06	6.360785e-06	3.018466e-08	4.489894e+01	1.973496e+03
1.850000e-06	6.317229e-06	3.009554e-08	4.459149e+01	1.968545e+03
1.860000e-06	6.271541e-06	2.978655e-08	4.426899e+01	1.963263e+03
1.870000e-06	6.223529e-06	2.999612e-08	4.393009e+01	1.957608e+03
1.880000e-06	6.173232e-06	2.985769e-08	4.357506e+01	1.951546e+03
1.890000e-06	6.120547e-06	2.966358e-08	4.320317e+01	1.945043e+03
1.900000e-06	6.065131e-06	2.954532e-08	4.281200e+01	1.938080e+03
1.910000e-06	6.007410e-06	2.934114e-08	4.240457e+01	1.930641e+03
1.920000e-06	5.947586e-06	2.943940e-08	4.198229e+01	1.922724e+03
1.930000e-06	5.885503e-06	2.923970e-08	4.154406e+01	1.914334e+03
1.940000e-06	5.821200e-06	2.903054e-08	4.109017e+01	1.905485e+03
1.950000e-06	5.754738e-06	2.891347e-08	4.062103e+01	1.896200e+03
1.960000e-06	5.686193e-06	2.874706e-08	4.013720e+01	1.886502e+03
1.970000e-06	5.615312e-06	2.871667e-08	3.963686e+01	1.876419e+03
1.980000e-06	5.542257e-06	2.845297e-08	3.912119e+01	1.865976e+03
1.990000e-06	5.467255e-06	2.833484e-08	3.859177e+01	1.855195e+03
2.000000e-06	5.390029e-06	2.815418e-08	3.804666e+01	1.844088e+03
2.010000e-06	5.310638e-06	2.794235e-08	3.748626e+01	1.832662e+03
2.020000e-06	5.229310e-06	2.784323e-08	3.691219e+01	1.820911e+03
2.030000e-06	5.146283e-06	2.760604e-08	3.632613e+01	1.808823e+03
2.040000e-06	5.061483e-06	2.744190e-08	3.572755e+01	1.796374e+03
2.050000e-06	4.974688e-06	2.718729e-08	3.511489e+01	1.783536e+03
2.060000e-06	4.886133e-06	2.701038e-08	3.448980e+01	1.770278e+03
2.070000e-06	4.796052e-06	2.684455e-08	3.385395e+01	1.756567e+03
2.080000e-06	4.704446e-06	2.662071e-08	3.320733e+01	1.742373e+03
2.090000e-06	4.611148e-06	2.637494e-08	3.254876e+01	1.727673e+03
2.100000e-06	4.516044e-06	2.608563e-08	3.187745e+01	1.712451e+03
2.110000e-06	4.419348e-06	2.589409e-08	3.119490e+01	1.696696e+03
2.120000e-06	4.321270e-06	2.567266e-08	3.050260e+01	1.680408e+03
2.130000e-06	4.221820e-06	2.543386e-08	2.980061e+01	1.663588e+03
2.140000e-06	4.120830e-06	2.512302e-08	2.908775e+01	1.646243e+03
2.150000e-06	4.018158e-06	2.482501e-08	2.836302e+01	1.628378e+03
2.160000e-06	3.913894e-06	2.458438e-08	2.762705e+01	1.609993e+03
2.170000e-06	3.808315e-06	2.433683e-08	2.688179e+01	1.591083e+03
2.180000e-06	3.701547e-06	2.403032e-08	2.612815e+01	1.571634e+03
2.190000e-06	3.593538e-06	2.366122e-08	2.536575e+01	1.551623e+03
2.200000e-06	3.484226e-06	2.334508e-08	2.459415e+01	1.531016e+03
2.210000e-06	3.373572e-06	2.306401e-08	2.381307e+01	1.509776e+03
2.220000e-06	3.261508e-06	2.275934e-08	2.302204e+01	1.487862e+03
2.230000e-06	3.148126e-06	2.237478e-08	2.222171e+01	1.465232e+03
2.240000e-06	3.033550e-06	2.198189e-08	2.141295e+01	1.441851e+03
2.250000e-06	2.917802e-06	2.162187e-08	2.059592e+01	1.417688e+03
2.260000e-06	2.800870e-06	2.128432e-08	1.977053e+01	1.392724e+03
2.270000e-06	2.682745e-06	2.090457e-08	1.893672e+01	1.366949e+03
2.280000e-06	2.563450e-06	2.046930e-08	1.809465e+01	1.340361e+03
2.290000e-06	2.443128e-06	2.002868e-08	1.724533e+01	1.312965e+03
2.300000e-06	2.322032e-06	1.961010e-08	1.639055e+01	1.284766e+03
2.310000e-06	2.200200e-06	1.919806e-08	1.553058e+01	1.255766e+03
2.320000e-06	2.077680e-06	1.874346e-08	1.466574e+01	1.225960e+03
2.330000e-06	1.954533e-06	1.825388e-08	1.379649e+01	1.195329e+03
2.340000e-06	1.830723e-06	1.775368e-08	1.292254e+01	1.163841e+03
2.350000e-06	1.706284e-06	1.726772e-08	1.204416e+01	1.131450e+03
2.360000e-06	1.581274e-06	1.677826e-08	1.116175e+01	1.098097e+03
2.370000e-06	1.455733e-06	1.626119e-08	1.027560e+01	1.063712e+03
2.380000e-06	1.329746e-06	1.570079e-08	9.386294e+00	1.028227e+03
2.390000e-06	1.203269e-06	1.511857e-08	8.493528e+00	9.915711e+02
2.400000e-06	1.076272e-06	1.454628e-08	7.597095e+00	9.536873e+02
2.410000e-06	9.488360e-07	1.397525e-08	6.697559e+00	9.145308e+02
2.420000e-06	8.209889e-07	1.336995e-08	5.795124e+00	8.740744e+02
2.430000e-06	6.928254e-07	1.271168e-08	4.890454e+00	8.323083e+02
2.440000e-06	5.644554e-07	1.203646e-08	3.984327e+00	7.892364e+02
2.450000e-06	4.359311e-07	1.137562e-08	3.077112e+00	7.448711e+02
2.460000e-06	3.072473e-07	1.071251e-08	2.168770e+00	6.992244e+02
2.470000e-06	1.784259e-07	1.000299e-08	1.259457e+00	6.522989e+02
2.480000e-06	4.953367e-08	9.236732e-09	3.496438e-01	6.040782e+02
2.490000e-06	-7.934269e-08	8.456740e-09	-5.600571e-01	5.545195e+02
2.500000e-06	-2.081754e-07	7.693700e-09	-1.469450e+00	5.035489e+02
2.510000e-06	-3.370003e-07	6.919630e-09	-2.378788e+00	4.510616e+02
2.520000e-06	-4.657738e-07	6.084998e-09	-3.287763e+00	3.969264e+02
2.530000e-06	-5.944678e-07	5.195850e-09	-4.196176e+00	3.409965e+02
2.540000e-06	-7.230178e-07	4.304739e-09	-5.103574e+00	2.831236e+02
2.550000e-06	-8.512779e-07	3.424257e-09	-6.008925e+00	2.231766e+02
2.560000e-06	-9.791223e-07	2.508034e-09	-6.911341e+00	1.610618e+02
2.570000e-06	-1.106533e-06	1.517814e-09	-7.810697e+00	9.674287e+01
2.580000e-06	-1.233516e-06	4.807015e-10	-8.707031e+00	3.025789e+01
2.590000e-06	-1.359990e-06	-5.553917e-10	-9.599776e+00	-3.826733e+01
2.600000e-06	-1.485944e-06	-1.595936e-09	-1.048885e+01	-1.086128e+02
2.610000e-06	-1.611360e-06	-2.682841e-09	-1.137412e+01	-1.804650e+02
2.620000e-06	-1.736068e-06	-3.825521e-09	-1.225440e+01	-2.534255e+02
2.630000e-06	-1.859990e-06	-4.980041e-09	-1.312913e+01	-3.270264e+02
2.640000e-06	-1.983194e-06	-6.104259e-09	-1.399880e+01	-4.007523e+02
2.650000e-06	-2.105656e-06	-7.206545e-09	-1.486322e+01	-4.740664e+02
2.660000e-06	-2.227353e-06	-8.314706e-09	-1.572224e+01	-5.464382e+02
2.670000e-06	-2.348314e-06	-9.421497e-09	-1.657607e+01	-6.173706e+02
2.680000e-06	-2.468455e-06	-1.048636e-08	-1.742411e+01	-6.864244e+02
2.690000e-06	-2.587626e-06	-1.148672e-08	-1.826530e+01	-7.532369e+02
2.700000e-06	-2.705655e-06	-1.244364e-08	-1.909844e+01	-8.175344e+02
2.710000e-06	-2.822485e-06	-1.338507e-08	-1.992310e+01	-8.791371e+02
2.720000e-06	-2.938148e-06	-1.430277e-08	-2.073954e+01	-9.379566e+02
2.730000e-06	-3.052648e-06	-1.516525e-08	-2.154776e+01	-9.939867e+02
2.740000e-06	-3.165933e-06	-1.596391e-08	-2.234740e+01	-1.047289e+03
2.750000e-06	-3.277884e-06	-1.672677e-08	-2.313764e+01	-1.097977e+03
2.760000e-06	-3.388467e-06	-1.747755e-08	-2.391821e+01	-1.146193e+03
2.770000e-06	-3.497871e-06	-1.820269e-08	-2.469046e+01	-1.192095e+03
2.780000e-06	-3.606251e-06	-1.887659e-08	-2.545549e+01	-1.235838e+03
2.790000e-06	-3.713529e-06	-1.950214e-08	-2.621272e+01	-1.277564e+03
2.800000e-06	-3.819601e-06	-2.010596e-08	-2.696146e+01	-1.317392e+03
2.810000e-06	-3.924370e-06	-2.070225e-08	-2.770099e+01	-1.355421e+03
2.820000e-06	-4.027697e-06	-2.127335e-08	-2.843035e+01	-1.391723e+03
2.830000e-06	-4.129422e-06	-2.179691e-08	-2.914839e+01	-1.426356e+03
2.840000e-06	-4.229555e-06	-2.228054e-08	-2.985520e+01	-1.459368e+03
2.850000e-06	-4.328262e-06	-2.275220e-08	-3.055195e+01	-1.490801e+03
2.860000e-06	-4.425618e-06	-2.321947e-08	-3.123915e+01	-1.520702e+03
2.870000e-06	-4.521479e-06	-2.366194e-08	-3.191581e+01	-1.549125e+03
2.880000e-06	-4.615576e-06	-2.406689e-08	-3.258002e+01	-1.576136e+03
2.890000e-06	-4.707925e-06	-2.444733e-08	-3.323188e+01	-1.601810e+03
2.900000e-06	-4.798667e-06	-2.482403e-08	-3.387240e+01	-1.626233e+03
2.910000e-06	-4.887786e-06	-2.519473e-08	-3.450147e+01	-1.649492e+03
2.920000e-06	-4.975129e-06	-2.554149e-08	-3.511800e+01	-1.671677e+03
2.930000e-06	-5.060548e-06	-2.585815e-08	-3.572094e+01	-1.692867e+03
2.940000e-06	-5.144108e-06	-2.615976e-08	-3.631077e+01	-1.713135e+03
