# Temperatura_=_20.0
# Concentracion g/m^3_=_9000.0
# C_Vs_to_Am_M_A/Vsm_=_65563218390.804596
# pendiente_HvsI_1/m_=_3716.3
# ordenada_HvsI_A/m_=_1297.0
# frecuencia_Hz_=_301143.5441639353

Tiempo_(s)	Campo_(V.s)	Magnetizacion_(V.s)	Campo_(kA/m)	Magnetizacion_(A/m)
0.000000e+00	-6.746537e-06	-3.085255e-10	-5.668481e+01	-1.939671e+01
1.000000e-08	-6.744436e-06	-3.148803e-10	-5.666716e+01	-1.933223e+01
2.000000e-08	-6.740094e-06	-3.128915e-10	-5.663067e+01	-1.921880e+01
3.000000e-08	-6.733669e-06	-3.085979e-10	-5.657669e+01	-1.906316e+01
4.000000e-08	-6.725025e-06	-3.072144e-10	-5.650406e+01	-1.887795e+01
5.000000e-08	-6.713961e-06	-3.027244e-10	-5.641110e+01	-1.868070e+01
6.000000e-08	-6.700395e-06	-2.945793e-10	-5.629711e+01	-1.849206e+01
7.000000e-08	-6.684404e-06	-2.855609e-10	-5.616276e+01	-1.833349e+01
8.000000e-08	-6.666192e-06	-2.883699e-10	-5.600974e+01	-1.822476e+01
9.000000e-08	-6.645805e-06	-3.339428e-10	-5.583845e+01	-1.818148e+01
1.000000e-07	-6.622922e-06	-3.440714e-10	-5.564618e+01	-1.821303e+01
1.100000e-07	-6.597350e-06	-3.175361e-10	-5.543132e+01	-1.832118e+01
1.200000e-07	-6.569250e-06	-3.074743e-10	-5.519523e+01	-1.849955e+01
1.300000e-07	-6.539009e-06	-2.658576e-10	-5.494114e+01	-1.873412e+01
1.400000e-07	-6.506916e-06	-1.694411e-10	-5.467149e+01	-1.900452e+01
1.500000e-07	-6.472965e-06	-2.398459e-10	-5.438624e+01	-1.928624e+01
1.600000e-07	-6.436962e-06	-4.048177e-10	-5.408373e+01	-1.955321e+01
1.700000e-07	-6.398851e-06	-3.389348e-10	-5.376353e+01	-1.978067e+01
1.800000e-07	-6.358528e-06	-3.109414e-10	-5.342473e+01	-1.994781e+01
1.900000e-07	-6.315743e-06	-2.750485e-10	-5.306525e+01	-2.003987e+01
2.000000e-07	-6.270642e-06	-2.288811e-10	-5.268631e+01	-2.004960e+01
2.100000e-07	-6.223294e-06	-3.253987e-10	-5.228849e+01	-1.997767e+01
2.200000e-07	-6.173364e-06	-3.231966e-10	-5.186897e+01	-1.983220e+01
2.300000e-07	-6.120834e-06	-2.336430e-10	-5.142761e+01	-1.962742e+01
2.400000e-07	-6.065939e-06	-1.668237e-10	-5.096638e+01	-1.938162e+01
2.500000e-07	-6.008790e-06	-2.248978e-10	-5.048621e+01	-1.911474e+01
2.600000e-07	-5.949438e-06	-3.197949e-10	-4.998753e+01	-1.884586e+01
2.700000e-07	-5.887943e-06	-2.819278e-10	-4.947084e+01	-1.859104e+01
2.800000e-07	-5.824387e-06	-2.169928e-10	-4.893684e+01	-1.836156e+01
2.900000e-07	-5.758724e-06	-2.003150e-10	-4.838514e+01	-1.816297e+01
3.000000e-07	-5.690934e-06	-2.722053e-10	-4.781557e+01	-1.799495e+01
3.100000e-07	-5.621054e-06	-3.326338e-10	-4.722843e+01	-1.785194e+01
3.200000e-07	-5.549130e-06	-2.762206e-10	-4.662412e+01	-1.772443e+01
3.300000e-07	-5.475145e-06	-2.176512e-10	-4.600249e+01	-1.760067e+01
3.400000e-07	-5.398879e-06	-2.008281e-10	-4.536171e+01	-1.746863e+01
3.500000e-07	-5.320369e-06	-2.489760e-10	-4.470206e+01	-1.731771e+01
3.600000e-07	-5.239873e-06	-2.750859e-10	-4.402573e+01	-1.714026e+01
3.700000e-07	-5.157545e-06	-2.338727e-10	-4.333400e+01	-1.693243e+01
3.800000e-07	-5.073439e-06	-1.773117e-10	-4.262734e+01	-1.669450e+01
3.900000e-07	-4.987627e-06	-1.729406e-10	-4.190634e+01	-1.643041e+01
4.000000e-07	-4.900256e-06	-2.396077e-10	-4.117225e+01	-1.614698e+01
4.100000e-07	-4.811187e-06	-2.338022e-10	-4.042388e+01	-1.585252e+01
4.200000e-07	-4.720264e-06	-1.749544e-10	-3.965994e+01	-1.555547e+01
4.300000e-07	-4.627618e-06	-1.752646e-10	-3.888152e+01	-1.526300e+01
4.400000e-07	-4.533392e-06	-2.222031e-10	-3.808983e+01	-1.497996e+01
4.500000e-07	-4.437508e-06	-2.282122e-10	-3.728421e+01	-1.470818e+01
4.600000e-07	-4.339911e-06	-2.099548e-10	-3.646419e+01	-1.444639e+01
4.700000e-07	-4.240730e-06	-2.152501e-10	-3.563087e+01	-1.419052e+01
4.800000e-07	-4.140045e-06	-2.002775e-10	-3.478491e+01	-1.393456e+01
4.900000e-07	-4.037966e-06	-1.893212e-10	-3.392723e+01	-1.367157e+01
5.000000e-07	-3.934461e-06	-2.037557e-10	-3.305757e+01	-1.339487e+01
5.100000e-07	-3.829423e-06	-1.947435e-10	-3.217504e+01	-1.309912e+01
5.200000e-07	-3.722989e-06	-1.521862e-10	-3.128078e+01	-1.278110e+01
5.300000e-07	-3.615213e-06	-1.459413e-10	-3.037523e+01	-1.244019e+01
5.400000e-07	-3.506129e-06	-1.651585e-10	-2.945871e+01	-1.207829e+01
5.500000e-07	-3.395955e-06	-1.489186e-10	-2.853302e+01	-1.169947e+01
5.600000e-07	-3.284654e-06	-1.347151e-10	-2.759786e+01	-1.130916e+01
5.700000e-07	-3.171973e-06	-1.532486e-10	-2.665111e+01	-1.091323e+01
5.800000e-07	-3.057912e-06	-1.590677e-10	-2.569276e+01	-1.051698e+01
5.900000e-07	-2.942626e-06	-1.405572e-10	-2.472412e+01	-1.012433e+01
6.000000e-07	-2.826164e-06	-1.452254e-10	-2.374559e+01	-9.737222e+00
6.100000e-07	-2.708644e-06	-1.599937e-10	-2.275819e+01	-9.355403e+00
6.200000e-07	-2.590210e-06	-1.500804e-10	-2.176310e+01	-8.976617e+00
6.300000e-07	-2.470932e-06	-1.297853e-10	-2.076092e+01	-8.597127e+00
6.400000e-07	-2.350677e-06	-1.205241e-10	-1.975052e+01	-8.212500e+00
6.500000e-07	-2.229408e-06	-1.147663e-10	-1.873162e+01	-7.818511e+00
6.600000e-07	-2.107376e-06	-1.045277e-10	-1.770630e+01	-7.412014e+00
6.700000e-07	-1.984654e-06	-9.580924e-11	-1.667518e+01	-6.991618e+00
6.800000e-07	-1.861148e-06	-8.660534e-11	-1.563748e+01	-6.558069e+00
6.900000e-07	-1.736892e-06	-7.730691e-11	-1.459347e+01	-6.114253e+00
7.000000e-07	-1.612010e-06	-7.456697e-11	-1.354421e+01	-5.664835e+00
7.100000e-07	-1.486629e-06	-7.841468e-11	-1.249075e+01	-5.215570e+00
7.200000e-07	-1.360782e-06	-7.320532e-11	-1.143337e+01	-4.772412e+00
7.300000e-07	-1.234558e-06	-6.035703e-11	-1.037283e+01	-4.340558e+00
7.400000e-07	-1.107952e-06	-5.709242e-11	-9.309076e+00	-3.923579e+00
7.500000e-07	-9.808950e-07	-6.314421e-11	-8.241538e+00	-3.522798e+00
7.600000e-07	-8.534578e-07	-5.986583e-11	-7.170803e+00	-3.136994e+00
7.700000e-07	-7.256857e-07	-4.604887e-11	-6.097255e+00	-2.762510e+00
7.800000e-07	-5.976843e-07	-4.027705e-11	-5.021779e+00	-2.393736e+00
7.900000e-07	-4.694879e-07	-4.170069e-11	-3.944666e+00	-2.023914e+00
8.000000e-07	-3.411393e-07	-3.626197e-11	-2.866273e+00	-1.646132e+00
8.100000e-07	-2.126724e-07	-2.416920e-11	-1.786886e+00	-1.254357e+00
8.200000e-07	-8.407694e-08	-1.580992e-11	-7.064194e-01	-8.443631e-01
8.300000e-07	4.457953e-08	-8.039463e-12	3.745598e-01	-4.143989e-01
8.400000e-07	1.731845e-07	3.504281e-12	1.455106e+00	3.449937e-02
8.500000e-07	3.016861e-07	1.356931e-11	2.534785e+00	4.985961e-01
8.600000e-07	4.301108e-07	1.940423e-11	3.613816e+00	9.719311e-01
8.700000e-07	5.583895e-07	2.411456e-11	4.691621e+00	1.447107e+00
8.800000e-07	6.863895e-07	2.778504e-11	5.767085e+00	1.916272e+00
8.900000e-07	8.141298e-07	3.128114e-11	6.840367e+00	2.372139e+00
9.000000e-07	9.417055e-07	3.718627e-11	7.912266e+00	2.808912e+00
9.100000e-07	1.068924e-06	4.281796e-11	8.981165e+00	3.222952e+00
9.200000e-07	1.195663e-06	4.539557e-11	1.004603e+01	3.613129e+00
9.300000e-07	1.321964e-06	4.875268e-11	1.110722e+01	3.980787e+00
9.400000e-07	1.447808e-06	5.743019e-11	1.216457e+01	4.329359e+00
9.500000e-07	1.573252e-06	6.652020e-11	1.321855e+01	4.663702e+00
9.600000e-07	1.698272e-06	7.154793e-11	1.426898e+01	4.989263e+00
9.700000e-07	1.822752e-06	7.622438e-11	1.531487e+01	5.311213e+00
9.800000e-07	1.946568e-06	8.406680e-11	1.635518e+01	5.633699e+00
9.900000e-07	2.069696e-06	9.116783e-11	1.738971e+01	5.959312e+00
1.000000e-06	2.192113e-06	9.434609e-11	1.841827e+01	6.288854e+00
1.010000e-06	2.313688e-06	9.844941e-11	1.943975e+01	6.621436e+00
1.020000e-06	2.434299e-06	1.026096e-10	2.045313e+01	6.954864e+00
1.030000e-06	2.553991e-06	1.059606e-10	2.145878e+01	7.286241e+00
1.040000e-06	2.672902e-06	1.107149e-10	2.245788e+01	7.612675e+00
1.050000e-06	2.790897e-06	1.156358e-10	2.344929e+01	7.931951e+00
1.060000e-06	2.907849e-06	1.183042e-10	2.443192e+01	8.243065e+00
1.070000e-06	3.023683e-06	1.197115e-10	2.540517e+01	8.546510e+00
1.080000e-06	3.138228e-06	1.239530e-10	2.636758e+01	8.844264e+00
1.090000e-06	3.251447e-06	1.289932e-10	2.731885e+01	9.139489e+00
1.100000e-06	3.363345e-06	1.322849e-10	2.825903e+01	9.435982e+00
1.110000e-06	3.474061e-06	1.356729e-10	2.918927e+01	9.737474e+00
1.120000e-06	3.583692e-06	1.425268e-10	3.011039e+01	1.004690e+01
1.130000e-06	3.692188e-06	1.505993e-10	3.102198e+01	1.036577e+01
1.140000e-06	3.799504e-06	1.570721e-10	3.192366e+01	1.069374e+01
1.150000e-06	3.905437e-06	1.601646e-10	3.281371e+01	1.102853e+01
1.160000e-06	4.009824e-06	1.630332e-10	3.369078e+01	1.136606e+01
1.170000e-06	4.112740e-06	1.685986e-10	3.455549e+01	1.170098e+01
1.180000e-06	4.214217e-06	1.731744e-10	3.540810e+01	1.202744e+01
1.190000e-06	4.314294e-06	1.751052e-10	3.624896e+01	1.233988e+01
1.200000e-06	4.412875e-06	1.767912e-10	3.707724e+01	1.263392e+01
1.210000e-06	4.509664e-06	1.814450e-10	3.789047e+01	1.290699e+01
1.220000e-06	4.604696e-06	1.872421e-10	3.868893e+01	1.315882e+01
1.230000e-06	4.698134e-06	1.915105e-10	3.947400e+01	1.339150e+01
1.240000e-06	4.790116e-06	1.944247e-10	4.024684e+01	1.360918e+01
1.250000e-06	4.880493e-06	1.970379e-10	4.100620e+01	1.381755e+01
1.260000e-06	4.968995e-06	2.006671e-10	4.174979e+01	1.402298e+01
1.270000e-06	5.055685e-06	2.038793e-10	4.247816e+01	1.423159e+01
1.280000e-06	5.140694e-06	2.063448e-10	4.319242e+01	1.444841e+01
1.290000e-06	5.224068e-06	2.088273e-10	4.389293e+01	1.467661e+01
1.300000e-06	5.305585e-06	2.116768e-10	4.457784e+01	1.491709e+01
1.310000e-06	5.385085e-06	2.164071e-10	4.524580e+01	1.516842e+01
1.320000e-06	5.462657e-06	2.216270e-10	4.589757e+01	1.542708e+01
1.330000e-06	5.538234e-06	2.260696e-10	4.653257e+01	1.568807e+01
1.340000e-06	5.611648e-06	2.299960e-10	4.714940e+01	1.594571e+01
1.350000e-06	5.682958e-06	2.337333e-10	4.774855e+01	1.619450e+01
1.360000e-06	5.752268e-06	2.359619e-10	4.833090e+01	1.642999e+01
1.370000e-06	5.819571e-06	2.390085e-10	4.889638e+01	1.664935e+01
1.380000e-06	5.884794e-06	2.428123e-10	4.944439e+01	1.685173e+01
1.390000e-06	5.947890e-06	2.459918e-10	4.997453e+01	1.703819e+01
1.400000e-06	6.009014e-06	2.475608e-10	5.048809e+01	1.721142e+01
1.410000e-06	6.068134e-06	2.498299e-10	5.098482e+01	1.737503e+01
1.420000e-06	6.125040e-06	2.533093e-10	5.146295e+01	1.753278e+01
1.430000e-06	6.179683e-06	2.564804e-10	5.192207e+01	1.768780e+01
1.440000e-06	6.231998e-06	2.592483e-10	5.236162e+01	1.784184e+01
1.450000e-06	6.281741e-06	2.621493e-10	5.277956e+01	1.799494e+01
1.460000e-06	6.328959e-06	2.671336e-10	5.317629e+01	1.814525e+01
1.470000e-06	6.374024e-06	2.709678e-10	5.355493e+01	1.828938e+01
1.480000e-06	6.416928e-06	2.722187e-10	5.391541e+01	1.842300e+01
1.490000e-06	6.457392e-06	2.718474e-10	5.425539e+01	1.854167e+01
1.500000e-06	6.495521e-06	2.721137e-10	5.457576e+01	1.864177e+01
1.510000e-06	6.531553e-06	2.738553e-10	5.487849e+01	1.872140e+01
1.520000e-06	6.565285e-06	2.762151e-10	5.516191e+01	1.878093e+01
1.530000e-06	6.596629e-06	2.761484e-10	5.542527e+01	1.882329e+01
1.540000e-06	6.625771e-06	2.753426e-10	5.567012e+01	1.885376e+01
1.550000e-06	6.652617e-06	2.778948e-10	5.589568e+01	1.887933e+01
1.560000e-06	6.677001e-06	2.828313e-10	5.610056e+01	1.890766e+01
1.570000e-06	6.698993e-06	2.858640e-10	5.628534e+01	1.894585e+01
1.580000e-06	6.718810e-06	2.856579e-10	5.645184e+01	1.899916e+01
1.590000e-06	6.736321e-06	2.858705e-10	5.659897e+01	1.906986e+01
1.600000e-06	6.751381e-06	2.870077e-10	5.672551e+01	1.915648e+01
1.610000e-06	6.763963e-06	2.891211e-10	5.683122e+01	1.925362e+01
1.620000e-06	6.773883e-06	2.919998e-10	5.691457e+01	1.935227e+01
1.630000e-06	6.781210e-06	2.944430e-10	5.697613e+01	1.944081e+01
1.640000e-06	6.786160e-06	2.952997e-10	5.701772e+01	1.950653e+01
1.650000e-06	6.788767e-06	2.957481e-10	5.703962e+01	1.953740e+01
1.660000e-06	6.788990e-06	2.968172e-10	5.704150e+01	1.952397e+01
1.670000e-06	6.786937e-06	2.909238e-10	5.702425e+01	1.946108e+01
1.680000e-06	6.782758e-06	2.861805e-10	5.698914e+01	1.934911e+01
1.690000e-06	6.776366e-06	2.830388e-10	5.693543e+01	1.919459e+01
1.700000e-06	6.767716e-06	2.830232e-10	5.686275e+01	1.900995e+01
1.710000e-06	6.756875e-06	2.861597e-10	5.677167e+01	1.881258e+01
1.720000e-06	6.743695e-06	2.919541e-10	5.666092e+01	1.862304e+01
1.730000e-06	6.728121e-06	3.051282e-10	5.653007e+01	1.846283e+01
1.740000e-06	6.710416e-06	2.684827e-10	5.638132e+01	1.835181e+01
1.750000e-06	6.690338e-06	2.211916e-10	5.621262e+01	1.830579e+01
1.760000e-06	6.667110e-06	2.464121e-10	5.601745e+01	1.833438e+01
1.770000e-06	6.640818e-06	2.531359e-10	5.579655e+01	1.843964e+01
1.780000e-06	6.612255e-06	2.682040e-10	5.555656e+01	1.861550e+01
1.790000e-06	6.581757e-06	3.989139e-10	5.530031e+01	1.884817e+01
1.800000e-06	6.549617e-06	3.705875e-10	5.503027e+01	1.911749e+01
1.810000e-06	6.515803e-06	2.346162e-10	5.474616e+01	1.939904e+01
1.820000e-06	6.479619e-06	2.640068e-10	5.444214e+01	1.966677e+01
1.830000e-06	6.441029e-06	2.211617e-10	5.411791e+01	1.989583e+01
1.840000e-06	6.400270e-06	3.540079e-10	5.377545e+01	2.006521e+01
1.850000e-06	6.357297e-06	4.794705e-10	5.341439e+01	2.015992e+01
1.860000e-06	6.312168e-06	2.967618e-10	5.303522e+01	2.017241e+01
1.870000e-06	6.264752e-06	2.547734e-10	5.263682e+01	2.010309e+01
1.880000e-06	6.215042e-06	2.761710e-10	5.221915e+01	1.995982e+01
1.890000e-06	6.163021e-06	4.230167e-10	5.178207e+01	1.975666e+01
1.900000e-06	6.108423e-06	4.669571e-10	5.132334e+01	1.951177e+01
1.910000e-06	6.051458e-06	2.399677e-10	5.084471e+01	1.924509e+01
1.920000e-06	5.992428e-06	2.269851e-10	5.034874e+01	1.897578e+01
1.930000e-06	5.931317e-06	3.125461e-10	4.983528e+01	1.872002e+01
1.940000e-06	5.867962e-06	4.106059e-10	4.930297e+01	1.848930e+01
1.950000e-06	5.802353e-06	3.542676e-10	4.875172e+01	1.828936e+01
1.960000e-06	5.734720e-06	1.908964e-10	4.818346e+01	1.812011e+01
1.970000e-06	5.664865e-06	2.335148e-10	4.759653e+01	1.797615e+01
1.980000e-06	5.592753e-06	2.998140e-10	4.699065e+01	1.784807e+01
1.990000e-06	5.518662e-06	3.937155e-10	4.636813e+01	1.772418e+01
2.000000e-06	5.442521e-06	3.055104e-10	4.572838e+01	1.759242e+01
2.010000e-06	5.364251e-06	1.843404e-10	4.507075e+01	1.744211e+01
2.020000e-06	5.283958e-06	2.610951e-10	4.439613e+01	1.726549e+01
2.030000e-06	5.201848e-06	3.506478e-10	4.370624e+01	1.705857e+01
2.040000e-06	5.117881e-06	3.513329e-10	4.300074e+01	1.682145e+01
2.050000e-06	5.032019e-06	2.276527e-10	4.227932e+01	1.655798e+01
2.060000e-06	4.944346e-06	2.488787e-10	4.154269e+01	1.627489e+01
2.070000e-06	4.854953e-06	3.160460e-10	4.079161e+01	1.598047e+01
2.080000e-06	4.763947e-06	3.104294e-10	4.002697e+01	1.568317e+01
2.090000e-06	4.671283e-06	2.632026e-10	3.924839e+01	1.539023e+01
2.100000e-06	4.576838e-06	2.133714e-10	3.845486e+01	1.510659e+01
2.110000e-06	4.480645e-06	2.265925e-10	3.764665e+01	1.483421e+01
2.120000e-06	4.382948e-06	2.474710e-10	3.682579e+01	1.457190e+01
2.130000e-06	4.283883e-06	2.596159e-10	3.599344e+01	1.431572e+01
2.140000e-06	4.183326e-06	2.049264e-10	3.514855e+01	1.405967e+01
2.150000e-06	4.081088e-06	1.829823e-10	3.428955e+01	1.379684e+01
2.160000e-06	3.977297e-06	2.261874e-10	3.341748e+01	1.352052e+01
2.170000e-06	3.872166e-06	2.566546e-10	3.253417e+01	1.322531e+01
2.180000e-06	3.765760e-06	2.235407e-10	3.164014e+01	1.290791e+01
2.190000e-06	3.658133e-06	1.934970e-10	3.073585e+01	1.256759e+01
2.200000e-06	3.549265e-06	2.192392e-10	2.982113e+01	1.220617e+01
2.210000e-06	3.439136e-06	2.240486e-10	2.889583e+01	1.182766e+01
2.220000e-06	3.327703e-06	1.959446e-10	2.795956e+01	1.143745e+01
2.230000e-06	3.214994e-06	1.735750e-10	2.701257e+01	1.104141e+01
2.240000e-06	3.101103e-06	1.743866e-10	2.605565e+01	1.064489e+01
2.250000e-06	2.986022e-06	1.635652e-10	2.508873e+01	1.025186e+01
2.260000e-06	2.869714e-06	1.515827e-10	2.411151e+01	9.864331e+00
2.270000e-06	2.752163e-06	1.456271e-10	2.312384e+01	9.482143e+00
2.280000e-06	2.633477e-06	1.432960e-10	2.212663e+01	9.103098e+00
2.290000e-06	2.513772e-06	1.399162e-10	2.112087e+01	8.723500e+00
2.300000e-06	2.393210e-06	1.332038e-10	2.010789e+01	8.338924e+00
2.310000e-06	2.271920e-06	1.248212e-10	1.908881e+01	7.945124e+00
2.320000e-06	2.149879e-06	1.171294e-10	1.806341e+01	7.538901e+00
2.330000e-06	2.027096e-06	1.188159e-10	1.703178e+01	7.118793e+00
2.340000e-06	1.903705e-06	1.181474e-10	1.599504e+01	6.685467e+00
2.350000e-06	1.779624e-06	1.049346e-10	1.495251e+01	6.241738e+00
2.360000e-06	1.654794e-06	8.934904e-11	1.390368e+01	5.792217e+00
2.370000e-06	1.529339e-06	9.276021e-11	1.284960e+01	5.342634e+00
2.380000e-06	1.403328e-06	9.796533e-11	1.179084e+01	4.898953e+00
2.390000e-06	1.276816e-06	7.687937e-11	1.072788e+01	4.466413e+00
2.400000e-06	1.149851e-06	4.753581e-11	9.661117e+00	4.048657e+00
2.410000e-06	1.022529e-06	4.256329e-11	8.591346e+00	3.647095e+00
2.420000e-06	8.948401e-07	5.199474e-11	7.518499e+00	3.260597e+00
2.430000e-06	7.667690e-07	4.449165e-11	6.442438e+00	2.885587e+00
2.440000e-06	6.384453e-07	2.288130e-11	5.364255e+00	2.516513e+00
2.450000e-06	5.099869e-07	1.194679e-11	4.284940e+00	2.146641e+00
2.460000e-06	3.813433e-07	1.455459e-11	3.204069e+00	1.769047e+00
2.470000e-06	2.524539e-07	1.846035e-11	2.121133e+00	1.377649e+00
2.480000e-06	1.234589e-07	1.404915e-11	1.037309e+00	9.681435e-01
2.490000e-06	-5.479046e-09	1.966422e-12	-4.603527e-02	5.386831e-01
2.500000e-06	-1.343995e-07	-6.396751e-12	-1.129233e+00	9.020325e-02
2.510000e-06	-2.633138e-07	-6.402604e-12	-2.212378e+00	-3.736506e-01
2.520000e-06	-3.921140e-07	-1.031036e-11	-3.294565e+00	-8.469857e-01
2.530000e-06	-5.207567e-07	-2.643186e-11	-4.375429e+00	-1.322440e+00
2.540000e-06	-6.492478e-07	-4.145855e-11	-5.455019e+00	-1.792159e+00
2.550000e-06	-7.774526e-07	-4.236549e-11	-6.532203e+00	-2.248821e+00
2.560000e-06	-9.052934e-07	-4.223097e-11	-7.606329e+00	-2.686561e+00
2.570000e-06	-1.032842e-06	-5.522360e-11	-8.678003e+00	-3.101656e+00
2.580000e-06	-1.160049e-06	-6.906649e-11	-9.746804e+00	-3.492885e+00
2.590000e-06	-1.286811e-06	-7.087897e-11	-1.081187e+01	-3.861507e+00
2.600000e-06	-1.413122e-06	-7.060516e-11	-1.187313e+01	-4.210892e+00
2.610000e-06	-1.538909e-06	-7.968528e-11	-1.293000e+01	-4.545859e+00
2.620000e-06	-1.664029e-06	-9.070588e-11	-1.398127e+01	-4.871849e+00
2.630000e-06	-1.788393e-06	-9.318946e-11	-1.502618e+01	-5.194057e+00
2.640000e-06	-1.912084e-06	-9.103102e-11	-1.606544e+01	-5.516678e+00
2.650000e-06	-2.035133e-06	-9.442662e-11	-1.709931e+01	-5.842363e+00
2.660000e-06	-2.157415e-06	-1.023996e-10	-1.812673e+01	-6.171979e+00
2.670000e-06	-2.279029e-06	-1.067949e-10	-1.914854e+01	-6.504692e+00
2.680000e-06	-2.399918e-06	-1.067992e-10	-2.016425e+01	-6.838346e+00
2.690000e-06	-2.519897e-06	-1.079561e-10	-2.117232e+01	-7.170058e+00
2.700000e-06	-2.638892e-06	-1.153615e-10	-2.217213e+01	-7.496920e+00
2.710000e-06	-2.756763e-06	-1.267519e-10	-2.316249e+01	-7.816686e+00
2.720000e-06	-2.873459e-06	-1.335978e-10	-2.414297e+01	-8.128301e+00
2.730000e-06	-2.989007e-06	-1.351209e-10	-2.511382e+01	-8.432202e+00
2.740000e-06	-3.103346e-06	-1.400238e-10	-2.607450e+01	-8.730319e+00
2.750000e-06	-3.216388e-06	-1.506216e-10	-2.702428e+01	-9.025780e+00
2.760000e-06	-3.328082e-06	-1.582094e-10	-2.796274e+01	-9.322369e+00
2.770000e-06	-3.438454e-06	-1.600496e-10	-2.889010e+01	-9.623833e+00
2.780000e-06	-3.547653e-06	-1.621532e-10	-2.980759e+01	-9.933147e+00
2.790000e-06	-3.655809e-06	-1.672315e-10	-3.071632e+01	-1.025188e+01
2.800000e-06	-3.762787e-06	-1.736617e-10	-3.161516e+01	-1.057977e+01
2.810000e-06	-3.868418e-06	-1.796599e-10	-3.250268e+01	-1.091458e+01
2.820000e-06	-3.972728e-06	-1.838657e-10	-3.337910e+01	-1.125230e+01
2.830000e-06	-4.075533e-06	-1.869277e-10	-3.424287e+01	-1.158763e+01
2.840000e-06	-4.176642e-06	-1.926043e-10	-3.509240e+01	-1.191470e+01
2.850000e-06	-4.276234e-06	-1.999023e-10	-3.592917e+01	-1.222794e+01
2.860000e-06	-4.374453e-06	-2.047909e-10	-3.675441e+01	-1.252289e+01
2.870000e-06	-4.471295e-06	-2.068447e-10	-3.756809e+01	-1.279694e+01
2.880000e-06	-4.566576e-06	-2.085430e-10	-3.836864e+01	-1.304972e+01
2.890000e-06	-4.660106e-06	-2.143510e-10	-3.915449e+01	-1.328323e+01
2.900000e-06	-4.751982e-06	-2.222788e-10	-3.992643e+01	-1.350156e+01
2.910000e-06	-4.842254e-06	-2.274240e-10	-4.068490e+01	-1.371037e+01
2.920000e-06	-4.930874e-06	-2.298427e-10	-4.142950e+01	-1.391600e+01
2.930000e-06	-5.017669e-06	-2.326319e-10	-4.215875e+01	-1.412461e+01
2.940000e-06	-5.102537e-06	-2.376539e-10	-4.287182e+01	-1.434128e+01
