# Temperatura_=_20.0
# Concentracion g/m^3_=_9000.0
# C_Vs_to_Am_M_A/Vsm_=_65563218390.804596
# pendiente_HvsI_1/m_=_3716.3
# ordenada_HvsI_A/m_=_1297.0
# frecuencia_Hz_=_301146.51499437616

Tiempo_(s)	Campo_(V.s)	Magnetizacion_(V.s)	Campo_(kA/m)	Magnetizacion_(A/m)
0.000000e+00	-6.736692e-06	-4.835285e-09	-5.668944e+01	-3.167986e+02
1.000000e-08	-6.734623e-06	-4.839067e-09	-5.667204e+01	-3.167203e+02
2.000000e-08	-6.730269e-06	-4.836148e-09	-5.663540e+01	-3.166203e+02
3.000000e-08	-6.723827e-06	-4.832400e-09	-5.658119e+01	-3.164987e+02
4.000000e-08	-6.715208e-06	-4.827507e-09	-5.650865e+01	-3.163531e+02
5.000000e-08	-6.704147e-06	-4.820717e-09	-5.641558e+01	-3.161798e+02
6.000000e-08	-6.690540e-06	-4.815166e-09	-5.630108e+01	-3.159741e+02
7.000000e-08	-6.674517e-06	-4.801154e-09	-5.616625e+01	-3.157312e+02
8.000000e-08	-6.656339e-06	-4.794396e-09	-5.601327e+01	-3.154470e+02
9.000000e-08	-6.636021e-06	-4.858528e-09	-5.584230e+01	-3.151187e+02
1.000000e-07	-6.613163e-06	-4.881099e-09	-5.564994e+01	-3.147452e+02
1.100000e-07	-6.587560e-06	-4.820956e-09	-5.543450e+01	-3.143276e+02
1.200000e-07	-6.559449e-06	-4.773725e-09	-5.519794e+01	-3.138683e+02
1.300000e-07	-6.529242e-06	-4.757385e-09	-5.494375e+01	-3.133715e+02
1.400000e-07	-6.497212e-06	-4.711610e-09	-5.467422e+01	-3.128415e+02
1.500000e-07	-6.463283e-06	-4.766450e-09	-5.438870e+01	-3.122830e+02
1.600000e-07	-6.427277e-06	-4.847278e-09	-5.408571e+01	-3.116996e+02
1.700000e-07	-6.389227e-06	-4.682480e-09	-5.376552e+01	-3.110936e+02
1.800000e-07	-6.349032e-06	-4.728041e-09	-5.342728e+01	-3.104656e+02
1.900000e-07	-6.306363e-06	-4.771449e-09	-5.306822e+01	-3.098147e+02
2.000000e-07	-6.261265e-06	-4.686332e-09	-5.268871e+01	-3.091380e+02
2.100000e-07	-6.213908e-06	-4.741486e-09	-5.229020e+01	-3.084321e+02
2.200000e-07	-6.163954e-06	-4.672248e-09	-5.186984e+01	-3.076926e+02
2.300000e-07	-6.111378e-06	-4.661129e-09	-5.142741e+01	-3.069152e+02
2.400000e-07	-6.056523e-06	-4.693143e-09	-5.096580e+01	-3.060964e+02
2.500000e-07	-5.999426e-06	-4.653603e-09	-5.048534e+01	-3.052333e+02
2.600000e-07	-5.940141e-06	-4.653330e-09	-4.998645e+01	-3.043242e+02
2.700000e-07	-5.878776e-06	-4.619281e-09	-4.947006e+01	-3.033686e+02
2.800000e-07	-5.815320e-06	-4.595281e-09	-4.893608e+01	-3.023663e+02
2.900000e-07	-5.749698e-06	-4.598912e-09	-4.838386e+01	-3.013180e+02
3.000000e-07	-5.681951e-06	-4.613840e-09	-4.781378e+01	-3.002239e+02
3.100000e-07	-5.612146e-06	-4.564902e-09	-4.722636e+01	-2.990840e+02
3.200000e-07	-5.540301e-06	-4.495971e-09	-4.662178e+01	-2.978974e+02
3.300000e-07	-5.466391e-06	-4.549137e-09	-4.599983e+01	-2.966625e+02
3.400000e-07	-5.390250e-06	-4.512080e-09	-4.535910e+01	-2.953771e+02
3.500000e-07	-5.311849e-06	-4.454509e-09	-4.469935e+01	-2.940383e+02
3.600000e-07	-5.231323e-06	-4.460778e-09	-4.402173e+01	-2.926434e+02
3.700000e-07	-5.148967e-06	-4.442953e-09	-4.332870e+01	-2.911899e+02
3.800000e-07	-5.064966e-06	-4.407022e-09	-4.262183e+01	-2.896762e+02
3.900000e-07	-4.979354e-06	-4.377638e-09	-4.190140e+01	-2.881013e+02
4.000000e-07	-4.892153e-06	-4.380724e-09	-4.116760e+01	-2.864655e+02
4.100000e-07	-4.803192e-06	-4.331092e-09	-4.041899e+01	-2.847695e+02
4.200000e-07	-4.712386e-06	-4.296150e-09	-3.965485e+01	-2.830145e+02
4.300000e-07	-4.619852e-06	-4.294263e-09	-3.887618e+01	-2.812012e+02
4.400000e-07	-4.525710e-06	-4.269470e-09	-3.808397e+01	-2.793295e+02
4.500000e-07	-4.429999e-06	-4.223041e-09	-3.727856e+01	-2.773978e+02
4.600000e-07	-4.332654e-06	-4.187627e-09	-3.645940e+01	-2.754027e+02
4.700000e-07	-4.233683e-06	-4.175047e-09	-3.562656e+01	-2.733391e+02
4.800000e-07	-4.133204e-06	-4.130341e-09	-3.478102e+01	-2.712000e+02
4.900000e-07	-4.031311e-06	-4.087915e-09	-3.392359e+01	-2.689775e+02
5.000000e-07	-3.927946e-06	-4.061354e-09	-3.305378e+01	-2.666632e+02
5.100000e-07	-3.823057e-06	-4.027291e-09	-3.217113e+01	-2.642489e+02
5.200000e-07	-3.716786e-06	-3.975756e-09	-3.127686e+01	-2.617282e+02
5.300000e-07	-3.609146e-06	-3.935073e-09	-3.037106e+01	-2.590960e+02
5.400000e-07	-3.500226e-06	-3.903131e-09	-2.945449e+01	-2.563499e+02
5.500000e-07	-3.390139e-06	-3.855086e-09	-2.852811e+01	-2.534894e+02
5.600000e-07	-3.278873e-06	-3.806981e-09	-2.759181e+01	-2.505157e+02
5.700000e-07	-3.166350e-06	-3.764310e-09	-2.664493e+01	-2.474309e+02
5.800000e-07	-3.052438e-06	-3.720690e-09	-2.568635e+01	-2.442366e+02
5.900000e-07	-2.937207e-06	-3.666547e-09	-2.471668e+01	-2.409328e+02
6.000000e-07	-2.820820e-06	-3.616266e-09	-2.373728e+01	-2.375168e+02
6.100000e-07	-2.703437e-06	-3.564628e-09	-2.274950e+01	-2.339819e+02
6.200000e-07	-2.585203e-06	-3.507627e-09	-2.175455e+01	-2.303174e+02
6.300000e-07	-2.466120e-06	-3.444178e-09	-2.075247e+01	-2.265082e+02
6.400000e-07	-2.346071e-06	-3.380123e-09	-1.974225e+01	-2.225352e+02
6.500000e-07	-2.225058e-06	-3.318016e-09	-1.872393e+01	-2.183766e+02
6.600000e-07	-2.103269e-06	-3.246176e-09	-1.769907e+01	-2.140088e+02
6.700000e-07	-1.980714e-06	-3.172720e-09	-1.666776e+01	-2.094073e+02
6.800000e-07	-1.857356e-06	-3.102917e-09	-1.562970e+01	-2.045482e+02
6.900000e-07	-1.733334e-06	-3.028483e-09	-1.458605e+01	-1.994080e+02
7.000000e-07	-1.608762e-06	-2.940252e-09	-1.353778e+01	-1.939638e+02
7.100000e-07	-1.483690e-06	-2.851659e-09	-1.248529e+01	-1.881925e+02
7.200000e-07	-1.358113e-06	-2.764386e-09	-1.142856e+01	-1.820690e+02
7.300000e-07	-1.232082e-06	-2.667186e-09	-1.036800e+01	-1.755642e+02
7.400000e-07	-1.105637e-06	-2.558661e-09	-9.303965e+00	-1.686436e+02
7.500000e-07	-9.788022e-07	-2.445253e-09	-8.236647e+00	-1.612645e+02
7.600000e-07	-8.516275e-07	-2.323780e-09	-7.166469e+00	-1.533759e+02
7.700000e-07	-7.240818e-07	-2.188056e-09	-6.093168e+00	-1.449178e+02
7.800000e-07	-5.962773e-07	-2.047157e-09	-5.017690e+00	-1.358233e+02
7.900000e-07	-4.683043e-07	-1.897586e-09	-3.940794e+00	-1.260213e+02
8.000000e-07	-3.401030e-07	-1.732674e-09	-2.861976e+00	-1.154417e+02
8.100000e-07	-2.117408e-07	-1.555497e-09	-1.781804e+00	-1.040208e+02
8.200000e-07	-8.333070e-08	-1.370195e-09	-7.012301e-01	-9.170893e+01
8.300000e-07	4.511673e-08	-1.168300e-09	3.796585e-01	-7.847736e+01
8.400000e-07	1.735963e-07	-9.485266e-10	1.460818e+00	-6.432512e+01
8.500000e-07	3.020122e-07	-7.187995e-10	2.541441e+00	-4.928459e+01
8.600000e-07	4.302969e-07	-4.803677e-10	3.620960e+00	-3.342512e+01
8.700000e-07	5.584139e-07	-2.320664e-10	4.699068e+00	-1.685416e+01
8.800000e-07	6.862889e-07	2.870467e-11	5.775139e+00	2.845337e-01
8.900000e-07	8.138948e-07	2.971153e-10	6.848947e+00	1.781553e+01
9.000000e-07	9.411774e-07	5.679417e-10	7.920033e+00	3.553911e+01
9.100000e-07	1.068112e-06	8.364493e-10	8.988189e+00	5.324076e+01
9.200000e-07	1.194693e-06	1.101534e-09	1.005338e+01	7.070226e+01
9.300000e-07	1.320829e-06	1.360860e-09	1.111482e+01	8.771313e+01
9.400000e-07	1.446512e-06	1.610504e-09	1.217244e+01	1.040817e+02
9.500000e-07	1.571782e-06	1.846372e-09	1.322659e+01	1.196447e+02
9.600000e-07	1.696591e-06	2.064292e-09	1.427686e+01	1.342750e+02
9.700000e-07	1.820891e-06	2.265805e-09	1.532284e+01	1.478859e+02
9.800000e-07	1.944618e-06	2.452906e-09	1.636402e+01	1.604327e+02
9.900000e-07	2.067600e-06	2.626669e-09	1.739891e+01	1.719114e+02
1.000000e-06	2.189750e-06	2.784712e-09	1.842681e+01	1.823542e+02
1.010000e-06	2.311139e-06	2.930272e-09	1.944830e+01	1.918229e+02
1.020000e-06	2.431720e-06	3.062356e-09	2.046299e+01	2.004009e+02
1.030000e-06	2.551308e-06	3.180894e-09	2.146932e+01	2.081846e+02
1.040000e-06	2.669900e-06	3.287765e-09	2.246728e+01	2.152749e+02
1.050000e-06	2.787568e-06	3.386882e-09	2.345746e+01	2.217694e+02
1.060000e-06	2.904312e-06	3.480609e-09	2.443986e+01	2.277571e+02
1.070000e-06	3.019969e-06	3.565416e-09	2.541312e+01	2.333138e+02
1.080000e-06	3.134352e-06	3.642328e-09	2.637566e+01	2.385006e+02
1.090000e-06	3.247489e-06	3.715698e-09	2.732771e+01	2.433634e+02
1.100000e-06	3.359343e-06	3.787115e-09	2.826897e+01	2.479346e+02
1.110000e-06	3.469931e-06	3.851458e-09	2.919956e+01	2.522361e+02
1.120000e-06	3.579356e-06	3.910079e-09	3.012038e+01	2.562819e+02
1.130000e-06	3.687705e-06	3.965291e-09	3.103214e+01	2.600818e+02
1.140000e-06	3.794842e-06	4.019289e-09	3.193370e+01	2.636445e+02
1.150000e-06	3.900532e-06	4.069614e-09	3.282308e+01	2.669795e+02
1.160000e-06	4.004717e-06	4.116561e-09	3.369980e+01	2.700985e+02
1.170000e-06	4.107404e-06	4.159259e-09	3.456392e+01	2.730159e+02
1.180000e-06	4.208681e-06	4.196875e-09	3.541616e+01	2.757483e+02
1.190000e-06	4.308589e-06	4.234356e-09	3.625690e+01	2.783135e+02
1.200000e-06	4.406993e-06	4.271543e-09	3.708497e+01	2.807290e+02
1.210000e-06	4.503654e-06	4.305994e-09	3.789837e+01	2.830111e+02
1.220000e-06	4.598567e-06	4.336229e-09	3.869707e+01	2.851734e+02
1.230000e-06	4.691883e-06	4.364559e-09	3.948232e+01	2.872266e+02
1.240000e-06	4.783686e-06	4.394098e-09	4.025485e+01	2.891778e+02
1.250000e-06	4.873840e-06	4.421772e-09	4.101350e+01	2.910315e+02
1.260000e-06	4.962139e-06	4.446192e-09	4.175654e+01	2.927901e+02
1.270000e-06	5.048662e-06	4.467894e-09	4.248463e+01	2.944548e+02
1.280000e-06	5.133494e-06	4.490670e-09	4.319849e+01	2.960272e+02
1.290000e-06	5.216653e-06	4.514777e-09	4.389828e+01	2.975093e+02
1.300000e-06	5.297960e-06	4.535650e-09	4.458248e+01	2.989050e+02
1.310000e-06	5.377222e-06	4.554223e-09	4.524947e+01	3.002197e+02
1.320000e-06	5.454562e-06	4.572826e-09	4.590029e+01	3.014601e+02
1.330000e-06	5.530007e-06	4.592182e-09	4.653516e+01	3.026340e+02
1.340000e-06	5.603329e-06	4.609294e-09	4.715216e+01	3.037488e+02
1.350000e-06	5.674459e-06	4.624008e-09	4.775073e+01	3.048115e+02
1.360000e-06	5.743588e-06	4.638143e-09	4.833245e+01	3.058271e+02
1.370000e-06	5.810810e-06	4.652988e-09	4.889812e+01	3.067987e+02
1.380000e-06	5.875919e-06	4.669333e-09	4.944602e+01	3.077269e+02
1.390000e-06	5.938886e-06	4.686521e-09	4.997588e+01	3.086104e+02
1.400000e-06	5.999889e-06	4.701060e-09	5.048923e+01	3.094466e+02
1.410000e-06	6.058904e-06	4.711729e-09	5.098584e+01	3.102320e+02
1.420000e-06	6.115698e-06	4.721075e-09	5.146376e+01	3.109637e+02
1.430000e-06	6.170285e-06	4.731322e-09	5.192312e+01	3.116403e+02
1.440000e-06	6.222606e-06	4.739915e-09	5.236340e+01	3.122620e+02
1.450000e-06	6.272280e-06	4.747931e-09	5.278141e+01	3.128318e+02
1.460000e-06	6.319403e-06	4.757671e-09	5.317795e+01	3.133549e+02
1.470000e-06	6.364300e-06	4.768128e-09	5.355576e+01	3.138385e+02
1.480000e-06	6.407040e-06	4.778509e-09	5.391542e+01	3.142907e+02
1.490000e-06	6.447438e-06	4.787453e-09	5.425537e+01	3.147202e+02
1.500000e-06	6.485520e-06	4.795217e-09	5.457583e+01	3.151342e+02
1.510000e-06	6.521543e-06	4.802033e-09	5.487896e+01	3.155385e+02
1.520000e-06	6.555336e-06	4.810076e-09	5.516333e+01	3.159359e+02
1.530000e-06	6.586673e-06	4.816585e-09	5.542704e+01	3.163263e+02
1.540000e-06	6.615734e-06	4.820282e-09	5.567158e+01	3.167067e+02
1.550000e-06	6.642547e-06	4.826380e-09	5.589721e+01	3.170716e+02
1.560000e-06	6.666904e-06	4.834634e-09	5.610218e+01	3.174137e+02
1.570000e-06	6.688849e-06	4.840781e-09	5.628685e+01	3.177253e+02
1.580000e-06	6.708619e-06	4.843952e-09	5.645321e+01	3.179991e+02
1.590000e-06	6.726106e-06	4.848247e-09	5.660036e+01	3.182292e+02
1.600000e-06	6.741066e-06	4.853347e-09	5.672626e+01	3.184121e+02
1.610000e-06	6.753521e-06	4.857483e-09	5.683107e+01	3.185466e+02
1.620000e-06	6.763391e-06	4.860196e-09	5.691412e+01	3.186342e+02
1.630000e-06	6.770696e-06	4.861572e-09	5.697560e+01	3.186786e+02
1.640000e-06	6.775680e-06	4.863909e-09	5.701753e+01	3.186846e+02
1.650000e-06	6.778326e-06	4.867958e-09	5.703980e+01	3.186580e+02
1.660000e-06	6.778528e-06	4.870673e-09	5.704150e+01	3.186037e+02
1.670000e-06	6.776427e-06	4.863343e-09	5.702382e+01	3.185258e+02
1.680000e-06	6.772231e-06	4.858972e-09	5.698851e+01	3.184263e+02
1.690000e-06	6.765763e-06	4.855856e-09	5.693408e+01	3.183051e+02
1.700000e-06	6.756986e-06	4.855222e-09	5.686023e+01	3.181600e+02
1.710000e-06	6.746111e-06	4.856166e-09	5.676871e+01	3.179874e+02
1.720000e-06	6.732944e-06	4.857751e-09	5.665791e+01	3.177826e+02
1.730000e-06	6.717374e-06	4.872680e-09	5.652689e+01	3.175408e+02
1.740000e-06	6.699671e-06	4.824482e-09	5.637791e+01	3.172577e+02
1.750000e-06	6.679602e-06	4.741127e-09	5.620903e+01	3.169306e+02
1.760000e-06	6.656429e-06	4.777837e-09	5.601403e+01	3.165584e+02
1.770000e-06	6.630220e-06	4.822250e-09	5.579348e+01	3.161419e+02
1.780000e-06	6.601825e-06	4.837059e-09	5.555454e+01	3.156837e+02
1.790000e-06	6.571466e-06	4.924557e-09	5.529906e+01	3.151878e+02
1.800000e-06	6.539307e-06	4.823279e-09	5.502845e+01	3.146586e+02
1.810000e-06	6.505456e-06	4.676382e-09	5.474359e+01	3.141006e+02
1.820000e-06	6.469288e-06	4.819680e-09	5.443924e+01	3.135177e+02
1.830000e-06	6.430760e-06	4.744203e-09	5.411502e+01	3.129121e+02
1.840000e-06	6.390073e-06	4.752921e-09	5.377264e+01	3.122845e+02
1.850000e-06	6.347155e-06	4.821204e-09	5.341148e+01	3.116340e+02
1.860000e-06	6.302154e-06	4.642307e-09	5.303280e+01	3.109580e+02
1.870000e-06	6.254883e-06	4.779675e-09	5.263501e+01	3.102528e+02
1.880000e-06	6.205301e-06	4.756529e-09	5.221778e+01	3.095142e+02
1.890000e-06	6.153417e-06	4.674281e-09	5.178117e+01	3.087379e+02
1.900000e-06	6.098833e-06	4.713667e-09	5.132185e+01	3.079202e+02
1.910000e-06	6.041883e-06	4.615063e-09	5.084261e+01	3.070583e+02
1.920000e-06	5.982896e-06	4.714395e-09	5.034624e+01	3.061506e+02
1.930000e-06	5.921844e-06	4.679504e-09	4.983248e+01	3.051962e+02
1.940000e-06	5.858581e-06	4.606317e-09	4.930012e+01	3.041953e+02
1.950000e-06	5.793063e-06	4.611399e-09	4.874878e+01	3.031482e+02
1.960000e-06	5.725548e-06	4.581719e-09	4.818064e+01	3.020554e+02
1.970000e-06	5.655802e-06	4.645548e-09	4.759373e+01	3.009167e+02
1.980000e-06	5.583833e-06	4.536270e-09	4.698810e+01	2.997315e+02
1.990000e-06	5.509905e-06	4.561078e-09	4.636600e+01	2.984980e+02
2.000000e-06	5.433985e-06	4.546932e-09	4.572713e+01	2.972141e+02
2.010000e-06	5.355948e-06	4.488513e-09	4.507045e+01	2.958769e+02
2.020000e-06	5.275711e-06	4.526262e-09	4.439525e+01	2.944836e+02
2.030000e-06	5.193609e-06	4.456780e-09	4.370436e+01	2.930319e+02
2.040000e-06	5.109782e-06	4.455149e-09	4.299895e+01	2.915199e+02
2.050000e-06	5.024119e-06	4.409114e-09	4.227810e+01	2.899469e+02
2.060000e-06	4.936624e-06	4.422795e-09	4.154183e+01	2.883129e+02
2.070000e-06	4.847327e-06	4.384681e-09	4.079039e+01	2.866187e+02
2.080000e-06	4.756353e-06	4.322569e-09	4.002484e+01	2.848654e+02
2.090000e-06	4.663769e-06	4.317299e-09	3.924575e+01	2.830538e+02
2.100000e-06	4.569528e-06	4.285750e-09	3.845271e+01	2.811838e+02
2.110000e-06	4.473591e-06	4.271667e-09	3.764539e+01	2.792539e+02
2.120000e-06	4.376079e-06	4.212449e-09	3.682482e+01	2.772608e+02
2.130000e-06	4.277136e-06	4.200048e-09	3.599221e+01	2.751993e+02
2.140000e-06	4.176724e-06	4.166071e-09	3.514724e+01	2.730627e+02
2.150000e-06	4.074721e-06	4.130476e-09	3.428889e+01	2.708430e+02
2.160000e-06	3.971103e-06	4.095647e-09	3.341694e+01	2.685317e+02
2.170000e-06	3.866045e-06	4.061508e-09	3.253288e+01	2.661208e+02
2.180000e-06	3.759706e-06	4.025993e-09	3.163803e+01	2.636035e+02
2.190000e-06	3.652189e-06	3.974899e-09	3.073327e+01	2.609750e+02
2.200000e-06	3.543499e-06	3.942831e-09	2.981864e+01	2.582326e+02
2.210000e-06	3.433564e-06	3.894773e-09	2.889354e+01	2.553758e+02
2.220000e-06	3.322234e-06	3.849430e-09	2.795669e+01	2.524058e+02
2.230000e-06	3.209593e-06	3.800504e-09	2.700881e+01	2.493245e+02
2.240000e-06	3.095814e-06	3.759365e-09	2.605136e+01	2.461337e+02
2.250000e-06	2.980889e-06	3.705767e-09	2.508427e+01	2.428335e+02
2.260000e-06	2.864813e-06	3.652664e-09	2.410748e+01	2.394212e+02
2.270000e-06	2.747531e-06	3.603887e-09	2.312054e+01	2.358904e+02
2.280000e-06	2.629069e-06	3.551462e-09	2.212369e+01	2.322304e+02
2.290000e-06	2.509536e-06	3.489305e-09	2.111781e+01	2.284263e+02
2.300000e-06	2.389113e-06	3.422927e-09	2.010445e+01	2.244591e+02
2.310000e-06	2.267853e-06	3.365752e-09	1.908405e+01	2.203072e+02
2.320000e-06	2.145858e-06	3.301792e-09	1.805745e+01	2.159469e+02
2.330000e-06	2.023246e-06	3.229427e-09	1.702567e+01	2.113538e+02
2.340000e-06	1.900015e-06	3.154917e-09	1.598867e+01	2.065039e+02
2.350000e-06	1.776112e-06	3.082999e-09	1.494603e+01	2.013738e+02
2.360000e-06	1.651523e-06	3.003110e-09	1.389761e+01	1.959405e+02
2.370000e-06	1.526387e-06	2.917003e-09	1.284459e+01	1.901809e+02
2.380000e-06	1.400709e-06	2.823107e-09	1.178700e+01	1.840700e+02
2.390000e-06	1.274487e-06	2.719586e-09	1.072484e+01	1.775791e+02
2.400000e-06	1.147806e-06	2.612451e-09	9.658815e+00	1.706736e+02
2.410000e-06	1.020689e-06	2.503196e-09	8.589127e+00	1.633114e+02
2.420000e-06	8.931882e-07	2.386172e-09	7.516203e+00	1.554415e+02
2.430000e-06	7.653035e-07	2.255842e-09	6.440050e+00	1.470045e+02
2.440000e-06	6.370999e-07	2.118715e-09	5.361213e+00	1.379336e+02
2.450000e-06	5.087007e-07	1.975469e-09	4.280731e+00	1.281578e+02
2.460000e-06	3.801305e-07	1.816420e-09	3.198808e+00	1.176067e+02
2.470000e-06	2.513955e-07	1.641618e-09	2.115500e+00	1.062164e+02
2.480000e-06	1.225830e-07	1.456456e-09	1.031540e+00	9.393667e+01
2.490000e-06	-6.256836e-09	1.259314e-09	-5.265144e-02	8.073778e+01
2.500000e-06	-1.350826e-07	1.044557e-09	-1.136723e+00	6.661770e+01
2.510000e-06	-2.638461e-07	8.145481e-10	-2.220272e+00	5.160755e+01
2.520000e-06	-3.925074e-07	5.739115e-10	-3.302960e+00	3.577534e+01
2.530000e-06	-5.210128e-07	3.229253e-10	-4.384337e+00	1.922715e+01
2.540000e-06	-6.493027e-07	6.153286e-11	-5.463900e+00	2.105504e+00
2.550000e-06	-7.773114e-07	-2.061093e-10	-6.541096e+00	-1.541518e+01
2.560000e-06	-9.049965e-07	-4.764516e-10	-7.615570e+00	-3.313588e+01
2.570000e-06	-1.032325e-06	-7.496077e-10	-8.687040e+00	-5.084246e+01
2.580000e-06	-1.159208e-06	-1.020932e-09	-9.754763e+00	-6.831662e+01
2.590000e-06	-1.285600e-06	-1.284239e-09	-1.081836e+01	-8.534738e+01
2.600000e-06	-1.411536e-06	-1.536768e-09	-1.187812e+01	-1.017423e+02
2.610000e-06	-1.536995e-06	-1.776991e-09	-1.293385e+01	-1.173369e+02
2.620000e-06	-1.661878e-06	-2.001959e-09	-1.398475e+01	-1.320026e+02
2.630000e-06	-1.786054e-06	-2.210143e-09	-1.502969e+01	-1.456512e+02
2.640000e-06	-1.909500e-06	-2.402422e-09	-1.606850e+01	-1.582367e+02
2.650000e-06	-2.032270e-06	-2.578651e-09	-1.710160e+01	-1.697536e+02
2.660000e-06	-2.154355e-06	-2.737657e-09	-1.812896e+01	-1.802328e+02
2.670000e-06	-2.275774e-06	-2.880633e-09	-1.915070e+01	-1.897353e+02
2.680000e-06	-2.396458e-06	-3.011900e-09	-2.016626e+01	-1.983440e+02
2.690000e-06	-2.516152e-06	-3.133278e-09	-2.117349e+01	-2.061547e+02
2.700000e-06	-2.634836e-06	-3.245270e-09	-2.217222e+01	-2.132683e+02
2.710000e-06	-2.752507e-06	-3.347832e-09	-2.316242e+01	-2.197829e+02
2.720000e-06	-2.869015e-06	-3.439952e-09	-2.414284e+01	-2.257877e+02
2.730000e-06	-2.984384e-06	-3.524950e-09	-2.511367e+01	-2.313590e+02
2.740000e-06	-3.098511e-06	-3.605615e-09	-2.607405e+01	-2.365585e+02
2.750000e-06	-3.211301e-06	-3.681137e-09	-2.702318e+01	-2.414326e+02
2.760000e-06	-3.322772e-06	-3.749914e-09	-2.796121e+01	-2.460142e+02
2.770000e-06	-3.432953e-06	-3.815239e-09	-2.888839e+01	-2.503254e+02
2.780000e-06	-3.542008e-06	-3.878500e-09	-2.980609e+01	-2.543805e+02
2.790000e-06	-3.650020e-06	-3.936729e-09	-3.071502e+01	-2.581895e+02
2.800000e-06	-3.756900e-06	-3.990872e-09	-3.161442e+01	-2.617609e+02
2.810000e-06	-3.862506e-06	-4.043379e-09	-3.250309e+01	-2.651042e+02
2.820000e-06	-3.966651e-06	-4.095358e-09	-3.337948e+01	-2.682310e+02
2.830000e-06	-4.069198e-06	-4.142728e-09	-3.424241e+01	-2.711558e+02
2.840000e-06	-4.170204e-06	-4.185477e-09	-3.509238e+01	-2.738948e+02
2.850000e-06	-4.269768e-06	-4.227630e-09	-3.593021e+01	-2.764660e+02
2.860000e-06	-4.367946e-06	-4.268596e-09	-3.675638e+01	-2.788870e+02
2.870000e-06	-4.464726e-06	-4.304433e-09	-3.757079e+01	-2.811739e+02
2.880000e-06	-4.559881e-06	-4.336857e-09	-3.837152e+01	-2.833407e+02
2.890000e-06	-4.653312e-06	-4.370407e-09	-3.915775e+01	-2.853980e+02
2.900000e-06	-4.745145e-06	-4.402830e-09	-3.993053e+01	-2.873531e+02
2.910000e-06	-4.835349e-06	-4.431861e-09	-4.068960e+01	-2.892106e+02
2.920000e-06	-4.923910e-06	-4.458085e-09	-4.143484e+01	-2.909729e+02
2.930000e-06	-5.010650e-06	-4.483443e-09	-4.216476e+01	-2.926414e+02
2.940000e-06	-5.095439e-06	-4.509447e-09	-4.287826e+01	-2.942174e+02
