# Temperatura_=_20.0
# Concentracion g/m^3_=_9000.0
# C_Vs_to_Am_M_A/Vsm_=_65563218390.804596
# pendiente_HvsI_1/m_=_3716.3
# ordenada_HvsI_A/m_=_1297.0
# frecuencia_Hz_=_301147.64139776217

Tiempo_(s)	Campo_(V.s)	Magnetizacion_(V.s)	Campo_(kA/m)	Magnetizacion_(A/m)
0.000000e+00	-6.749533e-06	-4.849694e-09	-5.668859e+01	-3.187931e+02
1.000000e-08	-6.747627e-06	-4.853750e-09	-5.667259e+01	-3.187120e+02
2.000000e-08	-6.743392e-06	-4.852506e-09	-5.663701e+01	-3.186214e+02
3.000000e-08	-6.737145e-06	-4.848514e-09	-5.658455e+01	-3.185211e+02
4.000000e-08	-6.728812e-06	-4.844043e-09	-5.651456e+01	-3.184072e+02
5.000000e-08	-6.718068e-06	-4.838430e-09	-5.642432e+01	-3.182724e+02
6.000000e-08	-6.704732e-06	-4.833921e-09	-5.631232e+01	-3.181068e+02
7.000000e-08	-6.688926e-06	-4.822397e-09	-5.617956e+01	-3.178996e+02
8.000000e-08	-6.670913e-06	-4.813154e-09	-5.602827e+01	-3.176398e+02
9.000000e-08	-6.650794e-06	-4.871303e-09	-5.585929e+01	-3.173185e+02
1.000000e-07	-6.628229e-06	-4.904570e-09	-5.566978e+01	-3.169293e+02
1.100000e-07	-6.602858e-06	-4.856299e-09	-5.545668e+01	-3.164697e+02
1.200000e-07	-6.574872e-06	-4.803521e-09	-5.522163e+01	-3.159409e+02
1.300000e-07	-6.544751e-06	-4.785641e-09	-5.496865e+01	-3.153479e+02
1.400000e-07	-6.512826e-06	-4.741384e-09	-5.470052e+01	-3.146989e+02
1.500000e-07	-6.479057e-06	-4.776606e-09	-5.441690e+01	-3.140038e+02
1.600000e-07	-6.443183e-06	-4.857155e-09	-5.411559e+01	-3.132734e+02
1.700000e-07	-6.405206e-06	-4.710319e-09	-5.379663e+01	-3.125182e+02
1.800000e-07	-6.365187e-06	-4.736938e-09	-5.346051e+01	-3.117466e+02
1.900000e-07	-6.322756e-06	-4.795860e-09	-5.310414e+01	-3.109650e+02
2.000000e-07	-6.277871e-06	-4.713545e-09	-5.272716e+01	-3.101765e+02
2.100000e-07	-6.230668e-06	-4.741856e-09	-5.233070e+01	-3.093813e+02
2.200000e-07	-6.180838e-06	-4.701661e-09	-5.191219e+01	-3.085767e+02
2.300000e-07	-6.128399e-06	-4.688538e-09	-5.147176e+01	-3.077582e+02
2.400000e-07	-6.073679e-06	-4.700305e-09	-5.101217e+01	-3.069194e+02
2.500000e-07	-6.016682e-06	-4.678926e-09	-5.053346e+01	-3.060538e+02
2.600000e-07	-5.957418e-06	-4.671353e-09	-5.003570e+01	-3.051550e+02
2.700000e-07	-5.896079e-06	-4.621355e-09	-4.952052e+01	-3.042172e+02
2.800000e-07	-5.832685e-06	-4.617686e-09	-4.898809e+01	-3.032362e+02
2.900000e-07	-5.767135e-06	-4.625079e-09	-4.843754e+01	-3.022087e+02
3.000000e-07	-5.699438e-06	-4.613526e-09	-4.786896e+01	-3.011328e+02
3.100000e-07	-5.629704e-06	-4.577681e-09	-4.728328e+01	-3.000074e+02
3.200000e-07	-5.558011e-06	-4.528244e-09	-4.668113e+01	-2.988321e+02
3.300000e-07	-5.484259e-06	-4.559136e-09	-4.606169e+01	-2.976063e+02
3.400000e-07	-5.408202e-06	-4.524396e-09	-4.542290e+01	-2.963296e+02
3.500000e-07	-5.329839e-06	-4.480470e-09	-4.476474e+01	-2.950010e+02
3.600000e-07	-5.249425e-06	-4.480245e-09	-4.408935e+01	-2.936192e+02
3.700000e-07	-5.167174e-06	-4.461014e-09	-4.339853e+01	-2.921824e+02
3.800000e-07	-5.083193e-06	-4.432516e-09	-4.269318e+01	-2.906884e+02
3.900000e-07	-4.997616e-06	-4.404044e-09	-4.197443e+01	-2.891351e+02
4.000000e-07	-4.910464e-06	-4.398315e-09	-4.124245e+01	-2.875204e+02
4.100000e-07	-4.821562e-06	-4.350024e-09	-4.049578e+01	-2.858422e+02
4.200000e-07	-4.730801e-06	-4.320353e-09	-3.973349e+01	-2.840983e+02
4.300000e-07	-4.638306e-06	-4.312067e-09	-3.895663e+01	-2.822869e+02
4.400000e-07	-4.544188e-06	-4.277982e-09	-3.816614e+01	-2.804056e+02
4.500000e-07	-4.448420e-06	-4.235895e-09	-3.736179e+01	-2.784517e+02
4.600000e-07	-4.350994e-06	-4.208128e-09	-3.654353e+01	-2.764220e+02
4.700000e-07	-4.251936e-06	-4.190117e-09	-3.571155e+01	-2.743126e+02
4.800000e-07	-4.151341e-06	-4.143342e-09	-3.486666e+01	-2.721194e+02
4.900000e-07	-4.049380e-06	-4.103970e-09	-3.401030e+01	-2.698375e+02
5.000000e-07	-3.945958e-06	-4.073972e-09	-3.314167e+01	-2.674624e+02
5.100000e-07	-3.841018e-06	-4.038031e-09	-3.226029e+01	-2.649900e+02
5.200000e-07	-3.734676e-06	-3.990017e-09	-3.136714e+01	-2.624167e+02
5.300000e-07	-3.626960e-06	-3.948161e-09	-3.046244e+01	-2.597402e+02
5.400000e-07	-3.518008e-06	-3.910834e-09	-2.954737e+01	-2.569592e+02
5.500000e-07	-3.407893e-06	-3.864745e-09	-2.862252e+01	-2.540734e+02
5.600000e-07	-3.296610e-06	-3.821518e-09	-2.768787e+01	-2.510830e+02
5.700000e-07	-3.184054e-06	-3.778021e-09	-2.674252e+01	-2.479879e+02
5.800000e-07	-3.070081e-06	-3.729870e-09	-2.578528e+01	-2.447872e+02
5.900000e-07	-2.954810e-06	-3.674099e-09	-2.481713e+01	-2.414781e+02
6.000000e-07	-2.838386e-06	-3.626225e-09	-2.383929e+01	-2.380552e+02
6.100000e-07	-2.720985e-06	-3.575219e-09	-2.285326e+01	-2.345096e+02
6.200000e-07	-2.602693e-06	-3.516271e-09	-2.185974e+01	-2.308294e+02
6.300000e-07	-2.483433e-06	-3.453975e-09	-2.085809e+01	-2.269991e+02
6.400000e-07	-2.363155e-06	-3.391944e-09	-1.984788e+01	-2.230002e+02
6.500000e-07	-2.242045e-06	-3.329254e-09	-1.883069e+01	-2.188122e+02
6.600000e-07	-2.120191e-06	-3.258702e-09	-1.780725e+01	-2.144137e+02
6.700000e-07	-1.997500e-06	-3.186536e-09	-1.677678e+01	-2.097825e+02
6.800000e-07	-1.874038e-06	-3.113673e-09	-1.573984e+01	-2.048970e+02
6.900000e-07	-1.749854e-06	-3.037112e-09	-1.469683e+01	-1.997360e+02
7.000000e-07	-1.625086e-06	-2.951097e-09	-1.364892e+01	-1.942782e+02
7.100000e-07	-1.499885e-06	-2.863099e-09	-1.259737e+01	-1.885016e+02
7.200000e-07	-1.374239e-06	-2.770783e-09	-1.154209e+01	-1.823816e+02
7.300000e-07	-1.248111e-06	-2.669621e-09	-1.048275e+01	-1.758891e+02
7.400000e-07	-1.121556e-06	-2.561707e-09	-9.419829e+00	-1.689889e+02
7.500000e-07	-9.945760e-07	-2.450491e-09	-8.353336e+00	-1.616378e+02
7.600000e-07	-8.671124e-07	-2.330529e-09	-7.282783e+00	-1.537836e+02
7.700000e-07	-7.392391e-07	-2.196083e-09	-6.208789e+00	-1.453655e+02
7.800000e-07	-6.110673e-07	-2.056076e-09	-5.132287e+00	-1.363156e+02
7.900000e-07	-4.826305e-07	-1.907190e-09	-4.053561e+00	-1.265620e+02
8.000000e-07	-3.540551e-07	-1.745617e-09	-2.973670e+00	-1.160335e+02
8.100000e-07	-2.254184e-07	-1.571670e-09	-1.893265e+00	-1.046656e+02
8.200000e-07	-9.672652e-08	-1.385155e-09	-8.123955e-01	-9.240712e+01
8.300000e-07	3.200183e-08	-1.180635e-09	2.687799e-01	-7.922770e+01
8.400000e-07	1.607434e-07	-9.602246e-10	1.350066e+00	-6.512420e+01
8.500000e-07	2.894553e-07	-7.308464e-10	2.431104e+00	-5.012638e+01
8.600000e-07	4.180861e-07	-4.920530e-10	3.511460e+00	-3.430058e+01
8.700000e-07	5.465782e-07	-2.423413e-10	4.590650e+00	-1.775099e+01
8.800000e-07	6.748901e-07	1.823497e-11	5.668329e+00	-6.181595e-01
8.900000e-07	8.029130e-07	2.846570e-10	6.743579e+00	1.692537e+01
9.000000e-07	9.305920e-07	5.537335e-10	7.815941e+00	3.468216e+01
9.100000e-07	1.057893e-06	8.237074e-10	8.885125e+00	5.243909e+01
9.200000e-07	1.184765e-06	1.092237e-09	9.950716e+00	6.997820e+01
9.300000e-07	1.311138e-06	1.354406e-09	1.101211e+01	8.708800e+01
9.400000e-07	1.437005e-06	1.604422e-09	1.206925e+01	1.035746e+02
9.500000e-07	1.562447e-06	1.840634e-09	1.312282e+01	1.192715e+02
9.600000e-07	1.687452e-06	2.061924e-09	1.417273e+01	1.340471e+02
9.700000e-07	1.812022e-06	2.267870e-09	1.521898e+01	1.478099e+02
9.800000e-07	1.936078e-06	2.458077e-09	1.626091e+01	1.605102e+02
9.900000e-07	2.059434e-06	2.630829e-09	1.729696e+01	1.721389e+02
1.000000e-06	2.181875e-06	2.788142e-09	1.832533e+01	1.827238e+02
1.010000e-06	2.303418e-06	2.937855e-09	1.934616e+01	1.923231e+02
1.020000e-06	2.424241e-06	3.074567e-09	2.036093e+01	2.010174e+02
1.030000e-06	2.544248e-06	3.194807e-09	2.136886e+01	2.089016e+02
1.040000e-06	2.663271e-06	3.302186e-09	2.236852e+01	2.160758e+02
1.050000e-06	2.781288e-06	3.403443e-09	2.335974e+01	2.226384e+02
1.060000e-06	2.898324e-06	3.499815e-09	2.434271e+01	2.286796e+02
1.070000e-06	3.014329e-06	3.585995e-09	2.531703e+01	2.342772e+02
1.080000e-06	3.129122e-06	3.662949e-09	2.628115e+01	2.394946e+02
1.090000e-06	3.242618e-06	3.734184e-09	2.723440e+01	2.443804e+02
1.100000e-06	3.354861e-06	3.804431e-09	2.817711e+01	2.489697e+02
1.110000e-06	3.465799e-06	3.869909e-09	2.910887e+01	2.532866e+02
1.120000e-06	3.575488e-06	3.929756e-09	3.003014e+01	2.573477e+02
1.130000e-06	3.684082e-06	3.985634e-09	3.094220e+01	2.611648e+02
1.140000e-06	3.791504e-06	4.040536e-09	3.184443e+01	2.647483e+02
1.150000e-06	3.897519e-06	4.092149e-09	3.273484e+01	2.681089e+02
1.160000e-06	4.002100e-06	4.140027e-09	3.361320e+01	2.712593e+02
1.170000e-06	4.105191e-06	4.184437e-09	3.447906e+01	2.742145e+02
1.180000e-06	4.206759e-06	4.223369e-09	3.533211e+01	2.769911e+02
1.190000e-06	4.306979e-06	4.258825e-09	3.617385e+01	2.796064e+02
1.200000e-06	4.405663e-06	4.294396e-09	3.700269e+01	2.820773e+02
1.210000e-06	4.502605e-06	4.329667e-09	3.781689e+01	2.844186e+02
1.220000e-06	4.597896e-06	4.361558e-09	3.861723e+01	2.866422e+02
1.230000e-06	4.691538e-06	4.391613e-09	3.940371e+01	2.887567e+02
1.240000e-06	4.783631e-06	4.421689e-09	4.017719e+01	2.907673e+02
1.250000e-06	4.874105e-06	4.450264e-09	4.093708e+01	2.926762e+02
1.260000e-06	4.962735e-06	4.476382e-09	4.168147e+01	2.944840e+02
1.270000e-06	5.049545e-06	4.501066e-09	4.241058e+01	2.961906e+02
1.280000e-06	5.134688e-06	4.522834e-09	4.312568e+01	2.977967e+02
1.290000e-06	5.218175e-06	4.543608e-09	4.382689e+01	2.993043e+02
1.300000e-06	5.299853e-06	4.563996e-09	4.451289e+01	3.007181e+02
1.310000e-06	5.379589e-06	4.583673e-09	4.518259e+01	3.020447e+02
1.320000e-06	5.457348e-06	4.603926e-09	4.583567e+01	3.032929e+02
1.330000e-06	5.533102e-06	4.622637e-09	4.647192e+01	3.044726e+02
1.340000e-06	5.606689e-06	4.639541e-09	4.708997e+01	3.055938e+02
1.350000e-06	5.678182e-06	4.656198e-09	4.769044e+01	3.066652e+02
1.360000e-06	5.747728e-06	4.673018e-09	4.827454e+01	3.076935e+02
1.370000e-06	5.815255e-06	4.689823e-09	4.884169e+01	3.086827e+02
1.380000e-06	5.880643e-06	4.705407e-09	4.939088e+01	3.096334e+02
1.390000e-06	5.943874e-06	4.720656e-09	4.992195e+01	3.105438e+02
1.400000e-06	6.005105e-06	4.734944e-09	5.043622e+01	3.114096e+02
1.410000e-06	6.064398e-06	4.746941e-09	5.093422e+01	3.122255e+02
1.420000e-06	6.121559e-06	4.757009e-09	5.141430e+01	3.129867e+02
1.430000e-06	6.176447e-06	4.767454e-09	5.187531e+01	3.136896e+02
1.440000e-06	6.229027e-06	4.777861e-09	5.231692e+01	3.143331e+02
1.450000e-06	6.279025e-06	4.787738e-09	5.273685e+01	3.149191e+02
1.460000e-06	6.326424e-06	4.799175e-09	5.313495e+01	3.154526e+02
1.470000e-06	6.371603e-06	4.810231e-09	5.351440e+01	3.159414e+02
1.480000e-06	6.414711e-06	4.820351e-09	5.387646e+01	3.163951e+02
1.490000e-06	6.455502e-06	4.829194e-09	5.421906e+01	3.168238e+02
1.500000e-06	6.493944e-06	4.836599e-09	5.454193e+01	3.172368e+02
1.510000e-06	6.530248e-06	4.843860e-09	5.484684e+01	3.176413e+02
1.520000e-06	6.564254e-06	4.851491e-09	5.513246e+01	3.180415e+02
1.530000e-06	6.595839e-06	4.857466e-09	5.539774e+01	3.184376e+02
1.540000e-06	6.625189e-06	4.861208e-09	5.564424e+01	3.188262e+02
1.550000e-06	6.652357e-06	4.866764e-09	5.587242e+01	3.192008e+02
1.560000e-06	6.677081e-06	4.875083e-09	5.608007e+01	3.195523e+02
1.570000e-06	6.699298e-06	4.882476e-09	5.626668e+01	3.198710e+02
1.580000e-06	6.719324e-06	4.887023e-09	5.643487e+01	3.201474e+02
1.590000e-06	6.737109e-06	4.891378e-09	5.658425e+01	3.203741e+02
1.600000e-06	6.752416e-06	4.895861e-09	5.671281e+01	3.205466e+02
1.610000e-06	6.765214e-06	4.899834e-09	5.682030e+01	3.206641e+02
1.620000e-06	6.775360e-06	4.903659e-09	5.690551e+01	3.207293e+02
1.630000e-06	6.782901e-06	4.906942e-09	5.696885e+01	3.207483e+02
1.640000e-06	6.788118e-06	4.910106e-09	5.701267e+01	3.207294e+02
1.650000e-06	6.791066e-06	4.914158e-09	5.703743e+01	3.206817e+02
1.660000e-06	6.791551e-06	4.918029e-09	5.704150e+01	3.206139e+02
1.670000e-06	6.789637e-06	4.911057e-09	5.702542e+01	3.205328e+02
1.680000e-06	6.785620e-06	4.906463e-09	5.699168e+01	3.204420e+02
1.690000e-06	6.779325e-06	4.906342e-09	5.693881e+01	3.203417e+02
1.700000e-06	6.770729e-06	4.906621e-09	5.686661e+01	3.202280e+02
1.710000e-06	6.760060e-06	4.904747e-09	5.677701e+01	3.200937e+02
1.720000e-06	6.747058e-06	4.904875e-09	5.666781e+01	3.199290e+02
1.730000e-06	6.731632e-06	4.921234e-09	5.653824e+01	3.197230e+02
1.740000e-06	6.714107e-06	4.880671e-09	5.639106e+01	3.194649e+02
1.750000e-06	6.694305e-06	4.793174e-09	5.622474e+01	3.191454e+02
1.760000e-06	6.671430e-06	4.814764e-09	5.603261e+01	3.187583e+02
1.770000e-06	6.645360e-06	4.860945e-09	5.581366e+01	3.183008e+02
1.780000e-06	6.616964e-06	4.876726e-09	5.557516e+01	3.177740e+02
1.790000e-06	6.586600e-06	4.963451e-09	5.532014e+01	3.171828e+02
1.800000e-06	6.554480e-06	4.886601e-09	5.505036e+01	3.165351e+02
1.810000e-06	6.520748e-06	4.725856e-09	5.476705e+01	3.158411e+02
1.820000e-06	6.484800e-06	4.835492e-09	5.446513e+01	3.151114e+02
1.830000e-06	6.446482e-06	4.770605e-09	5.414330e+01	3.143564e+02
1.840000e-06	6.405946e-06	4.747859e-09	5.380285e+01	3.135849e+02
1.850000e-06	6.363144e-06	4.816130e-09	5.344335e+01	3.128031e+02
1.860000e-06	6.318255e-06	4.662544e-09	5.306634e+01	3.120144e+02
1.870000e-06	6.271116e-06	4.770489e-09	5.267042e+01	3.112191e+02
1.880000e-06	6.221633e-06	4.762750e-09	5.225482e+01	3.104145e+02
1.890000e-06	6.169835e-06	4.680409e-09	5.181977e+01	3.095961e+02
1.900000e-06	6.115363e-06	4.703550e-09	5.136227e+01	3.087578e+02
1.910000e-06	6.058496e-06	4.629010e-09	5.088465e+01	3.078928e+02
1.920000e-06	5.999603e-06	4.731102e-09	5.039001e+01	3.069949e+02
1.930000e-06	5.938671e-06	4.683982e-09	4.987825e+01	3.060582e+02
1.940000e-06	5.875557e-06	4.602219e-09	4.934817e+01	3.050783e+02
1.950000e-06	5.810197e-06	4.621071e-09	4.879922e+01	3.040521e+02
1.960000e-06	5.742814e-06	4.593998e-09	4.823327e+01	3.029775e+02
1.970000e-06	5.673179e-06	4.649407e-09	4.764841e+01	3.018535e+02
1.980000e-06	5.601264e-06	4.547853e-09	4.704441e+01	3.006795e+02
1.990000e-06	5.527355e-06	4.557856e-09	4.642365e+01	2.994551e+02
2.000000e-06	5.451397e-06	4.552737e-09	4.578569e+01	2.981799e+02
2.010000e-06	5.373304e-06	4.503841e-09	4.512979e+01	2.968527e+02
2.020000e-06	5.293125e-06	4.531002e-09	4.445638e+01	2.954724e+02
2.030000e-06	5.211145e-06	4.457261e-09	4.376784e+01	2.940372e+02
2.040000e-06	5.127388e-06	4.453685e-09	4.306437e+01	2.925448e+02
2.050000e-06	5.041718e-06	4.421425e-09	4.234484e+01	2.909933e+02
2.060000e-06	4.954206e-06	4.436010e-09	4.160983e+01	2.893804e+02
2.070000e-06	4.864922e-06	4.391354e-09	4.085995e+01	2.877040e+02
2.080000e-06	4.773985e-06	4.326567e-09	4.009618e+01	2.859622e+02
2.090000e-06	4.681417e-06	4.327174e-09	3.931871e+01	2.841528e+02
2.100000e-06	4.587148e-06	4.301230e-09	3.852696e+01	2.822736e+02
2.110000e-06	4.491150e-06	4.282233e-09	3.772068e+01	2.803219e+02
2.120000e-06	4.393555e-06	4.221681e-09	3.690099e+01	2.782945e+02
2.130000e-06	4.294573e-06	4.204137e-09	3.606965e+01	2.761877e+02
2.140000e-06	4.194156e-06	4.171235e-09	3.522626e+01	2.739971e+02
2.150000e-06	4.092122e-06	4.141231e-09	3.436929e+01	2.717180e+02
2.160000e-06	3.988502e-06	4.105098e-09	3.349899e+01	2.693459e+02
2.170000e-06	3.883421e-06	4.063724e-09	3.261643e+01	2.668766e+02
2.180000e-06	3.777002e-06	4.029128e-09	3.172263e+01	2.643066e+02
2.190000e-06	3.669405e-06	3.986051e-09	3.081893e+01	2.616334e+02
2.200000e-06	3.560583e-06	3.954255e-09	2.990495e+01	2.588557e+02
2.210000e-06	3.450492e-06	3.901637e-09	2.898031e+01	2.559732e+02
2.220000e-06	3.339113e-06	3.851238e-09	2.804484e+01	2.529861e+02
2.230000e-06	3.226496e-06	3.802941e-09	2.709899e+01	2.498943e+02
2.240000e-06	3.112686e-06	3.762665e-09	2.614311e+01	2.466970e+02
2.250000e-06	2.997645e-06	3.707136e-09	2.517690e+01	2.433915e+02
2.260000e-06	2.881397e-06	3.650704e-09	2.420054e+01	2.399723e+02
2.270000e-06	2.763988e-06	3.600219e-09	2.321444e+01	2.364309e+02
2.280000e-06	2.645526e-06	3.550025e-09	2.221948e+01	2.327553e+02
2.290000e-06	2.526038e-06	3.492479e-09	2.121592e+01	2.289302e+02
2.300000e-06	2.405536e-06	3.427800e-09	2.020383e+01	2.249372e+02
2.310000e-06	2.284086e-06	3.366040e-09	1.918379e+01	2.207560e+02
2.320000e-06	2.161947e-06	3.296558e-09	1.815796e+01	2.163649e+02
2.330000e-06	2.039255e-06	3.223139e-09	1.712748e+01	2.117420e+02
2.340000e-06	1.915922e-06	3.150878e-09	1.609162e+01	2.068656e+02
2.350000e-06	1.791786e-06	3.078171e-09	1.504901e+01	2.017143e+02
2.360000e-06	1.666877e-06	2.995156e-09	1.399992e+01	1.962671e+02
2.370000e-06	1.541422e-06	2.909785e-09	1.294624e+01	1.905018e+02
2.380000e-06	1.415484e-06	2.821663e-09	1.188850e+01	1.843941e+02
2.390000e-06	1.289110e-06	2.723111e-09	1.082710e+01	1.779151e+02
2.400000e-06	1.162328e-06	2.616377e-09	9.762267e+00	1.710298e+02
2.410000e-06	1.035062e-06	2.503203e-09	8.693370e+00	1.636952e+02
2.420000e-06	9.073486e-07	2.382340e-09	7.620722e+00	1.558595e+02
2.430000e-06	7.792886e-07	2.252256e-09	6.545160e+00	1.474623e+02
2.440000e-06	6.509388e-07	2.117170e-09	5.467164e+00	1.384357e+02
2.450000e-06	5.223620e-07	1.972864e-09	4.387261e+00	1.287081e+02
2.460000e-06	3.935598e-07	1.812260e-09	3.305466e+00	1.182080e+02
2.470000e-06	2.645869e-07	1.641108e-09	2.222237e+00	1.068706e+02
2.480000e-06	1.355306e-07	1.461708e-09	1.138306e+00	9.464420e+01
2.490000e-06	6.480761e-09	1.266451e-09	5.443120e-02	8.149748e+01
2.500000e-06	-1.225374e-07	1.049263e-09	-1.029178e+00	6.742626e+01
2.510000e-06	-2.515363e-07	8.169631e-10	-2.112626e+00	5.245904e+01
2.520000e-06	-3.804381e-07	5.768024e-10	-3.195258e+00	3.666081e+01
2.530000e-06	-5.091748e-07	3.281667e-10	-4.276504e+00	2.013444e+01
2.540000e-06	-6.377170e-07	6.853290e-11	-5.356116e+00	3.019218e+00
2.550000e-06	-7.660125e-07	-2.006484e-10	-6.433656e+00	-1.451335e+01
2.560000e-06	-8.939781e-07	-4.731896e-10	-7.508425e+00	-3.226654e+01
2.570000e-06	-1.021500e-06	-7.450587e-10	-8.579468e+00	-5.002765e+01
2.580000e-06	-1.148524e-06	-1.013708e-09	-9.646324e+00	-6.757867e+01
2.590000e-06	-1.275067e-06	-1.277826e-09	-1.070915e+01	-8.470770e+01
2.600000e-06	-1.401198e-06	-1.534806e-09	-1.176851e+01	-1.012201e+02
2.610000e-06	-1.526931e-06	-1.779464e-09	-1.282453e+01	-1.169481e+02
2.620000e-06	-1.652155e-06	-2.006895e-09	-1.387627e+01	-1.317588e+02
2.630000e-06	-1.776710e-06	-2.215999e-09	-1.492240e+01	-1.455593e+02
2.640000e-06	-1.900491e-06	-2.409578e-09	-1.596202e+01	-1.582983e+02
2.650000e-06	-2.023493e-06	-2.588652e-09	-1.699510e+01	-1.699655e+02
2.660000e-06	-2.145791e-06	-2.749647e-09	-1.802227e+01	-1.805873e+02
2.670000e-06	-2.267444e-06	-2.892500e-09	-1.904402e+01	-1.902209e+02
2.680000e-06	-2.388408e-06	-3.023942e-09	-2.005998e+01	-1.989464e+02
2.690000e-06	-2.508461e-06	-3.147121e-09	-2.106829e+01	-2.068581e+02
2.700000e-06	-2.627431e-06	-3.261604e-09	-2.206750e+01	-2.140564e+02
2.710000e-06	-2.745354e-06	-3.365191e-09	-2.305793e+01	-2.206397e+02
2.720000e-06	-2.862226e-06	-3.458410e-09	-2.403953e+01	-2.266985e+02
2.730000e-06	-2.977958e-06	-3.544845e-09	-2.501154e+01	-2.323112e+02
2.740000e-06	-3.092433e-06	-3.624896e-09	-2.597301e+01	-2.375417e+02
2.750000e-06	-3.205583e-06	-3.699168e-09	-2.692334e+01	-2.424391e+02
2.760000e-06	-3.317412e-06	-3.767384e-09	-2.786258e+01	-2.470389e+02
2.770000e-06	-3.427919e-06	-3.831361e-09	-2.879072e+01	-2.513656e+02
2.780000e-06	-3.537251e-06	-3.892826e-09	-2.970899e+01	-2.554361e+02
2.790000e-06	-3.645468e-06	-3.951147e-09	-3.061789e+01	-2.592621e+02
2.800000e-06	-3.752489e-06	-4.007271e-09	-3.151675e+01	-2.628542e+02
2.810000e-06	-3.858306e-06	-4.062022e-09	-3.240549e+01	-2.662229e+02
2.820000e-06	-3.962780e-06	-4.113513e-09	-3.328296e+01	-2.693811e+02
2.830000e-06	-4.065721e-06	-4.161609e-09	-3.414754e+01	-2.723434e+02
2.840000e-06	-4.167115e-06	-4.207856e-09	-3.499915e+01	-2.751265e+02
2.850000e-06	-4.267030e-06	-4.251609e-09	-3.583832e+01	-2.777477e+02
2.860000e-06	-4.365492e-06	-4.291829e-09	-3.666529e+01	-2.802239e+02
2.870000e-06	-4.462552e-06	-4.329526e-09	-3.748049e+01	-2.825700e+02
2.880000e-06	-4.558003e-06	-4.364959e-09	-3.828217e+01	-2.847981e+02
2.890000e-06	-4.651719e-06	-4.398641e-09	-3.906929e+01	-2.869168e+02
2.900000e-06	-4.743833e-06	-4.431033e-09	-3.984294e+01	-2.889314e+02
2.910000e-06	-4.834358e-06	-4.460813e-09	-4.060325e+01	-2.908444e+02
2.920000e-06	-4.923272e-06	-4.489372e-09	-4.135003e+01	-2.926562e+02
2.930000e-06	-5.010354e-06	-4.515397e-09	-4.208142e+01	-2.943669e+02
2.940000e-06	-5.095485e-06	-4.541592e-09	-4.279642e+01	-2.959769e+02
