# Temperatura_=_20.0
# Concentracion g/m^3_=_9000.0
# C_Vs_to_Am_M_A/Vsm_=_65563218390.804596
# pendiente_HvsI_1/m_=_3716.3
# ordenada_HvsI_A/m_=_1297.0
# frecuencia_Hz_=_301151.1684489146

Tiempo_(s)	Campo_(V.s)	Magnetizacion_(V.s)	Campo_(kA/m)	Magnetizacion_(A/m)
0.000000e+00	-6.738582e-06	-4.840670e-09	-5.668773e+01	-3.180944e+02
1.000000e-08	-6.736868e-06	-4.843615e-09	-5.667331e+01	-3.179881e+02
2.000000e-08	-6.732858e-06	-4.843464e-09	-5.663958e+01	-3.178565e+02
3.000000e-08	-6.726753e-06	-4.839598e-09	-5.658822e+01	-3.177015e+02
4.000000e-08	-6.718503e-06	-4.833133e-09	-5.651882e+01	-3.175234e+02
5.000000e-08	-6.707794e-06	-4.825950e-09	-5.642872e+01	-3.173213e+02
6.000000e-08	-6.694511e-06	-4.822880e-09	-5.631699e+01	-3.170936e+02
7.000000e-08	-6.678739e-06	-4.814673e-09	-5.618430e+01	-3.168385e+02
8.000000e-08	-6.660769e-06	-4.804665e-09	-5.603313e+01	-3.165542e+02
9.000000e-08	-6.640789e-06	-4.850664e-09	-5.586505e+01	-3.162399e+02
1.000000e-07	-6.618344e-06	-4.890460e-09	-5.567623e+01	-3.158954e+02
1.100000e-07	-6.593096e-06	-4.851603e-09	-5.546384e+01	-3.155213e+02
1.200000e-07	-6.565339e-06	-4.794072e-09	-5.523034e+01	-3.151187e+02
1.300000e-07	-6.535466e-06	-4.768614e-09	-5.497903e+01	-3.146889e+02
1.400000e-07	-6.503696e-06	-4.738800e-09	-5.471177e+01	-3.142328e+02
1.500000e-07	-6.470067e-06	-4.766435e-09	-5.442887e+01	-3.137503e+02
1.600000e-07	-6.434352e-06	-4.849960e-09	-5.412842e+01	-3.132405e+02
1.700000e-07	-6.396515e-06	-4.733498e-09	-5.381012e+01	-3.127010e+02
1.800000e-07	-6.356620e-06	-4.732784e-09	-5.347450e+01	-3.121280e+02
1.900000e-07	-6.314310e-06	-4.795399e-09	-5.311858e+01	-3.115174e+02
2.000000e-07	-6.269588e-06	-4.717407e-09	-5.274236e+01	-3.108642e+02
2.100000e-07	-6.222655e-06	-4.747018e-09	-5.234754e+01	-3.101641e+02
2.200000e-07	-6.173089e-06	-4.712878e-09	-5.193057e+01	-3.094136e+02
2.300000e-07	-6.120826e-06	-4.681324e-09	-5.149091e+01	-3.086107e+02
2.400000e-07	-6.066249e-06	-4.712567e-09	-5.103179e+01	-3.077551e+02
2.500000e-07	-6.009455e-06	-4.682664e-09	-5.055401e+01	-3.068485e+02
2.600000e-07	-5.950402e-06	-4.668826e-09	-5.005723e+01	-3.058939e+02
2.700000e-07	-5.889188e-06	-4.644197e-09	-4.954227e+01	-3.048954e+02
2.800000e-07	-5.825936e-06	-4.621249e-09	-4.901018e+01	-3.038577e+02
2.900000e-07	-5.760627e-06	-4.619342e-09	-4.846077e+01	-3.027845e+02
3.000000e-07	-5.693175e-06	-4.620753e-09	-4.789333e+01	-3.016788e+02
3.100000e-07	-5.623573e-06	-4.590877e-09	-4.730781e+01	-3.005414e+02
3.200000e-07	-5.552012e-06	-4.529910e-09	-4.670581e+01	-2.993712e+02
3.300000e-07	-5.478449e-06	-4.565246e-09	-4.608697e+01	-2.981650e+02
3.400000e-07	-5.402603e-06	-4.546098e-09	-4.544892e+01	-2.969176e+02
3.500000e-07	-5.324535e-06	-4.485635e-09	-4.479219e+01	-2.956229e+02
3.600000e-07	-5.244366e-06	-4.487151e-09	-4.411776e+01	-2.942741e+02
3.700000e-07	-5.162287e-06	-4.474718e-09	-4.342728e+01	-2.928649e+02
3.800000e-07	-5.078505e-06	-4.441324e-09	-4.272248e+01	-2.913901e+02
3.900000e-07	-4.993105e-06	-4.406166e-09	-4.200406e+01	-2.898461e+02
4.000000e-07	-4.906098e-06	-4.402454e-09	-4.127212e+01	-2.882311e+02
4.100000e-07	-4.817353e-06	-4.365915e-09	-4.052556e+01	-2.865450e+02
4.200000e-07	-4.726891e-06	-4.328817e-09	-3.976456e+01	-2.847891e+02
4.300000e-07	-4.634704e-06	-4.320618e-09	-3.898904e+01	-2.829653e+02
4.400000e-07	-4.540824e-06	-4.296038e-09	-3.819928e+01	-2.810752e+02
4.500000e-07	-4.445312e-06	-4.252725e-09	-3.739580e+01	-2.791194e+02
4.600000e-07	-4.348136e-06	-4.220968e-09	-3.657831e+01	-2.770971e+02
4.700000e-07	-4.249384e-06	-4.206777e-09	-3.574757e+01	-2.750053e+02
4.800000e-07	-4.149113e-06	-4.160894e-09	-3.490404e+01	-2.728391e+02
4.900000e-07	-4.047422e-06	-4.112706e-09	-3.404858e+01	-2.705922e+02
5.000000e-07	-3.944270e-06	-4.088334e-09	-3.318083e+01	-2.682570e+02
5.100000e-07	-3.839554e-06	-4.058934e-09	-3.229991e+01	-2.658259e+02
5.200000e-07	-3.733408e-06	-4.006851e-09	-3.140696e+01	-2.632919e+02
5.300000e-07	-3.625914e-06	-3.962895e-09	-3.050269e+01	-2.606499e+02
5.400000e-07	-3.517149e-06	-3.931347e-09	-2.958770e+01	-2.578962e+02
5.500000e-07	-3.407261e-06	-3.887283e-09	-2.866328e+01	-2.550297e+02
5.600000e-07	-3.296243e-06	-3.840263e-09	-2.772936e+01	-2.520507e+02
5.700000e-07	-3.183909e-06	-3.797966e-09	-2.678436e+01	-2.489607e+02
5.800000e-07	-3.070227e-06	-3.751115e-09	-2.582801e+01	-2.457609e+02
5.900000e-07	-2.955282e-06	-3.696969e-09	-2.486105e+01	-2.424513e+02
6.000000e-07	-2.839136e-06	-3.650507e-09	-2.388398e+01	-2.390296e+02
6.100000e-07	-2.721910e-06	-3.600785e-09	-2.289783e+01	-2.354895e+02
6.200000e-07	-2.603756e-06	-3.540111e-09	-2.190387e+01	-2.318209e+02
6.300000e-07	-2.484706e-06	-3.475669e-09	-2.090237e+01	-2.280094e+02
6.400000e-07	-2.364622e-06	-3.415231e-09	-1.989217e+01	-2.240369e+02
6.500000e-07	-2.243595e-06	-3.352900e-09	-1.887405e+01	-2.198819e+02
6.600000e-07	-2.121873e-06	-3.280583e-09	-1.785007e+01	-2.155214e+02
6.700000e-07	-1.999464e-06	-3.207319e-09	-1.682032e+01	-2.109314e+02
6.800000e-07	-1.876242e-06	-3.136165e-09	-1.578372e+01	-2.060882e+02
6.900000e-07	-1.752257e-06	-3.059743e-09	-1.474071e+01	-2.009688e+02
7.000000e-07	-1.627685e-06	-2.972423e-09	-1.369276e+01	-1.955509e+02
7.100000e-07	-1.502609e-06	-2.884507e-09	-1.264057e+01	-1.898118e+02
7.200000e-07	-1.377092e-06	-2.793862e-09	-1.158467e+01	-1.837275e+02
7.300000e-07	-1.251131e-06	-2.694151e-09	-1.052503e+01	-1.772700e+02
7.400000e-07	-1.124746e-06	-2.587108e-09	-9.461826e+00	-1.704060e+02
7.500000e-07	-9.979428e-07	-2.477894e-09	-8.395106e+00	-1.630942e+02
7.600000e-07	-8.707321e-07	-2.360683e-09	-7.324957e+00	-1.552848e+02
7.700000e-07	-7.431970e-07	-2.226554e-09	-6.252080e+00	-1.469189e+02
7.800000e-07	-6.153968e-07	-2.085809e-09	-5.176972e+00	-1.379298e+02
7.900000e-07	-4.873518e-07	-1.939008e-09	-4.099804e+00	-1.282465e+02
8.000000e-07	-3.590554e-07	-1.778300e-09	-3.020522e+00	-1.177974e+02
8.100000e-07	-2.306555e-07	-1.601882e-09	-1.940369e+00	-1.065167e+02
8.200000e-07	-1.022240e-07	-1.414269e-09	-8.599504e-01	-9.435140e+01
8.300000e-07	2.632106e-08	-1.211859e-09	2.214236e-01	-8.126834e+01
8.400000e-07	1.549320e-07	-9.937130e-10	1.303352e+00	-6.726124e+01
8.500000e-07	2.834391e-07	-7.660244e-10	2.384406e+00	-5.235645e+01
8.600000e-07	4.117904e-07	-5.295626e-10	3.464150e+00	-3.661691e+01
8.700000e-07	5.400624e-07	-2.824014e-10	4.543227e+00	-2.014365e+01
8.800000e-07	6.681601e-07	-2.477087e-11	5.620838e+00	-3.074449e+00
8.900000e-07	7.958721e-07	2.400256e-10	6.695204e+00	1.442042e+01
9.000000e-07	9.231776e-07	5.093331e-10	7.766150e+00	3.214517e+01
9.100000e-07	1.050167e-06	7.804477e-10	8.834438e+00	4.988770e+01
9.200000e-07	1.176808e-06	1.049557e-09	9.899796e+00	6.743045e+01
9.300000e-07	1.303058e-06	1.312007e-09	1.096186e+01	8.456176e+01
9.400000e-07	1.428879e-06	1.564695e-09	1.202032e+01	1.010870e+02
9.500000e-07	1.554279e-06	1.803933e-09	1.307523e+01	1.168384e+02
9.600000e-07	1.679250e-06	2.026676e-09	1.412655e+01	1.316827e+02
9.700000e-07	1.803747e-06	2.232822e-09	1.517386e+01	1.455264e+02
9.800000e-07	1.927657e-06	2.423410e-09	1.621624e+01	1.583175e+02
9.900000e-07	2.050785e-06	2.598944e-09	1.725205e+01	1.700446e+02
1.000000e-06	2.173051e-06	2.758979e-09	1.828060e+01	1.807328e+02
1.010000e-06	2.294536e-06	2.907584e-09	1.930259e+01	1.904378e+02
1.020000e-06	2.415281e-06	3.044723e-09	2.031834e+01	1.992383e+02
1.030000e-06	2.535091e-06	3.168276e-09	2.132623e+01	2.072270e+02
1.040000e-06	2.653887e-06	3.278970e-09	2.232559e+01	2.145028e+02
1.050000e-06	2.771781e-06	3.383389e-09	2.331736e+01	2.211630e+02
1.060000e-06	2.888750e-06	3.479838e-09	2.430136e+01	2.272975e+02
1.070000e-06	3.004602e-06	3.564455e-09	2.527595e+01	2.329840e+02
1.080000e-06	3.119221e-06	3.641404e-09	2.624017e+01	2.382865e+02
1.090000e-06	3.232595e-06	3.714506e-09	2.719392e+01	2.432541e+02
1.100000e-06	3.344679e-06	3.786371e-09	2.813682e+01	2.479226e+02
1.110000e-06	3.455476e-06	3.854720e-09	2.906888e+01	2.523169e+02
1.120000e-06	3.565097e-06	3.917527e-09	2.999106e+01	2.564536e+02
1.130000e-06	3.673599e-06	3.974543e-09	3.090383e+01	2.603444e+02
1.140000e-06	3.780866e-06	4.030041e-09	3.180620e+01	2.639987e+02
1.150000e-06	3.886772e-06	4.082267e-09	3.269713e+01	2.674262e+02
1.160000e-06	3.991224e-06	4.129739e-09	3.357582e+01	2.706381e+02
1.170000e-06	4.094201e-06	4.173416e-09	3.444210e+01	2.736475e+02
1.180000e-06	4.195717e-06	4.212716e-09	3.529610e+01	2.764693e+02
1.190000e-06	4.295849e-06	4.250080e-09	3.613845e+01	2.791195e+02
1.200000e-06	4.394498e-06	4.285857e-09	3.696833e+01	2.816143e+02
1.210000e-06	4.491416e-06	4.319700e-09	3.778364e+01	2.839684e+02
1.220000e-06	4.586575e-06	4.352417e-09	3.858416e+01	2.861946e+02
1.230000e-06	4.680086e-06	4.383653e-09	3.937081e+01	2.883031e+02
1.240000e-06	4.772126e-06	4.414625e-09	4.014509e+01	2.903015e+02
1.250000e-06	4.862594e-06	4.442476e-09	4.090615e+01	2.921951e+02
1.260000e-06	4.951247e-06	4.466450e-09	4.165193e+01	2.939873e+02
1.270000e-06	5.038066e-06	4.490218e-09	4.238229e+01	2.956810e+02
1.280000e-06	5.123156e-06	4.513825e-09	4.309810e+01	2.972791e+02
1.290000e-06	5.206595e-06	4.534965e-09	4.380002e+01	2.987853e+02
1.300000e-06	5.288185e-06	4.554405e-09	4.448639e+01	3.002047e+02
1.310000e-06	5.367805e-06	4.574612e-09	4.515619e+01	3.015435e+02
1.320000e-06	5.445533e-06	4.595505e-09	4.581007e+01	3.028092e+02
1.330000e-06	5.521284e-06	4.615103e-09	4.644732e+01	3.040093e+02
1.340000e-06	5.594898e-06	4.632706e-09	4.706659e+01	3.051512e+02
1.350000e-06	5.666380e-06	4.649104e-09	4.766792e+01	3.062409e+02
1.360000e-06	5.735872e-06	4.664937e-09	4.825252e+01	3.072828e+02
1.370000e-06	5.803399e-06	4.681917e-09	4.882058e+01	3.082788e+02
1.380000e-06	5.868819e-06	4.698878e-09	4.937092e+01	3.092286e+02
1.390000e-06	5.932093e-06	4.713647e-09	4.990321e+01	3.101299e+02
1.400000e-06	5.993402e-06	4.726671e-09	5.041896e+01	3.109795e+02
1.410000e-06	6.052786e-06	4.738626e-09	5.091853e+01	3.117734e+02
1.420000e-06	6.109988e-06	4.748746e-09	5.139974e+01	3.125087e+02
1.430000e-06	6.164901e-06	4.759059e-09	5.186169e+01	3.131838e+02
1.440000e-06	6.217490e-06	4.768296e-09	5.230408e+01	3.137996e+02
1.450000e-06	6.267455e-06	4.776752e-09	5.272442e+01	3.143595e+02
1.460000e-06	6.314869e-06	4.787453e-09	5.312328e+01	3.148695e+02
1.470000e-06	6.360091e-06	4.798056e-09	5.350370e+01	3.153375e+02
1.480000e-06	6.403217e-06	4.805453e-09	5.386650e+01	3.157727e+02
1.490000e-06	6.444016e-06	4.811839e-09	5.420972e+01	3.161844e+02
1.500000e-06	6.482415e-06	4.820359e-09	5.453275e+01	3.165810e+02
1.510000e-06	6.518690e-06	4.827831e-09	5.483790e+01	3.169688e+02
1.520000e-06	6.552748e-06	4.834555e-09	5.512442e+01	3.173513e+02
1.530000e-06	6.584417e-06	4.840361e-09	5.539083e+01	3.177291e+02
1.540000e-06	6.613830e-06	4.844429e-09	5.563827e+01	3.180994e+02
1.550000e-06	6.641069e-06	4.850091e-09	5.586741e+01	3.184570e+02
1.560000e-06	6.665918e-06	4.858039e-09	5.607645e+01	3.187946e+02
1.570000e-06	6.688251e-06	4.865186e-09	5.626433e+01	3.191041e+02
1.580000e-06	6.708292e-06	4.869577e-09	5.643292e+01	3.193776e+02
1.590000e-06	6.726019e-06	4.873905e-09	5.658204e+01	3.196085e+02
1.600000e-06	6.741254e-06	4.878534e-09	5.671020e+01	3.197920e+02
1.610000e-06	6.754024e-06	4.882287e-09	5.681763e+01	3.199258e+02
1.620000e-06	6.764211e-06	4.885538e-09	5.690333e+01	3.200100e+02
1.630000e-06	6.771797e-06	4.888138e-09	5.696715e+01	3.200471e+02
1.640000e-06	6.777048e-06	4.890462e-09	5.701132e+01	3.200410e+02
1.650000e-06	6.780045e-06	4.892721e-09	5.703653e+01	3.199969e+02
1.660000e-06	6.780636e-06	4.895723e-09	5.704150e+01	3.199196e+02
1.670000e-06	6.778888e-06	4.890334e-09	5.702680e+01	3.198138e+02
1.680000e-06	6.775019e-06	4.884274e-09	5.699425e+01	3.196826e+02
1.690000e-06	6.768880e-06	4.881021e-09	5.694261e+01	3.195279e+02
1.700000e-06	6.760449e-06	4.880134e-09	5.687168e+01	3.193501e+02
1.710000e-06	6.749917e-06	4.881105e-09	5.678309e+01	3.191484e+02
1.720000e-06	6.737102e-06	4.881351e-09	5.667528e+01	3.189211e+02
1.730000e-06	6.721889e-06	4.891916e-09	5.654730e+01	3.186664e+02
1.740000e-06	6.704548e-06	4.860912e-09	5.640142e+01	3.183828e+02
1.750000e-06	6.684907e-06	4.772266e-09	5.623619e+01	3.180690e+02
1.760000e-06	6.662206e-06	4.777970e-09	5.604522e+01	3.177251e+02
1.770000e-06	6.636350e-06	4.826185e-09	5.582771e+01	3.173515e+02
1.780000e-06	6.608138e-06	4.857106e-09	5.559038e+01	3.169494e+02
1.790000e-06	6.577932e-06	4.933634e-09	5.533628e+01	3.165200e+02
1.800000e-06	6.545958e-06	4.878402e-09	5.506729e+01	3.160643e+02
1.810000e-06	6.512368e-06	4.716373e-09	5.478472e+01	3.155823e+02
1.820000e-06	6.476547e-06	4.814288e-09	5.448338e+01	3.150730e+02
1.830000e-06	6.438386e-06	4.804236e-09	5.416235e+01	3.145340e+02
1.840000e-06	6.398108e-06	4.767458e-09	5.382352e+01	3.139618e+02
1.850000e-06	6.355557e-06	4.841326e-09	5.346557e+01	3.133521e+02
1.860000e-06	6.310844e-06	4.691038e-09	5.308942e+01	3.127000e+02
1.870000e-06	6.263856e-06	4.770289e-09	5.269414e+01	3.120011e+02
1.880000e-06	6.214542e-06	4.806756e-09	5.227929e+01	3.112519e+02
1.890000e-06	6.162978e-06	4.697577e-09	5.184551e+01	3.104504e+02
1.900000e-06	6.108748e-06	4.725985e-09	5.138930e+01	3.095962e+02
1.910000e-06	6.052106e-06	4.667324e-09	5.091281e+01	3.086908e+02
1.920000e-06	5.993393e-06	4.721104e-09	5.041889e+01	3.077373e+02
1.930000e-06	5.932548e-06	4.711155e-09	4.990704e+01	3.067399e+02
1.940000e-06	5.869504e-06	4.623486e-09	4.937668e+01	3.057029e+02
1.950000e-06	5.804233e-06	4.640616e-09	4.882760e+01	3.046305e+02
1.960000e-06	5.737017e-06	4.615767e-09	4.826215e+01	3.035254e+02
1.970000e-06	5.667636e-06	4.659710e-09	4.767849e+01	3.023886e+02
1.980000e-06	5.595942e-06	4.568698e-09	4.707537e+01	3.012191e+02
1.990000e-06	5.522252e-06	4.558646e-09	4.645546e+01	3.000137e+02
2.000000e-06	5.446514e-06	4.582814e-09	4.581832e+01	2.987674e+02
2.010000e-06	5.368638e-06	4.521014e-09	4.516320e+01	2.974740e+02
2.020000e-06	5.288695e-06	4.537898e-09	4.449068e+01	2.961267e+02
2.030000e-06	5.206879e-06	4.477918e-09	4.380241e+01	2.947193e+02
2.040000e-06	5.123257e-06	4.472726e-09	4.309895e+01	2.932464e+02
2.050000e-06	5.037776e-06	4.448317e-09	4.237985e+01	2.917043e+02
2.060000e-06	4.950462e-06	4.440427e-09	4.164532e+01	2.900913e+02
2.070000e-06	4.861341e-06	4.409147e-09	4.089560e+01	2.884073e+02
2.080000e-06	4.770574e-06	4.344829e-09	4.013204e+01	2.866534e+02
2.090000e-06	4.678182e-06	4.344952e-09	3.935479e+01	2.848314e+02
2.100000e-06	4.584118e-06	4.320960e-09	3.856349e+01	2.829431e+02
2.110000e-06	4.488337e-06	4.295842e-09	3.775774e+01	2.809892e+02
2.120000e-06	4.390947e-06	4.235745e-09	3.693846e+01	2.789688e+02
2.130000e-06	4.292202e-06	4.218200e-09	3.610777e+01	2.768790e+02
2.140000e-06	4.191994e-06	4.198362e-09	3.526478e+01	2.747151e+02
2.150000e-06	4.090159e-06	4.155919e-09	3.440810e+01	2.724707e+02
2.160000e-06	3.986793e-06	4.114224e-09	3.353854e+01	2.701382e+02
2.170000e-06	3.881989e-06	4.077841e-09	3.265689e+01	2.677101e+02
2.180000e-06	3.775802e-06	4.048872e-09	3.176360e+01	2.651795e+02
2.190000e-06	3.668403e-06	4.001127e-09	3.086012e+01	2.625408e+02
2.200000e-06	3.559777e-06	3.965152e-09	2.994631e+01	2.597907e+02
2.210000e-06	3.449946e-06	3.916044e-09	2.902237e+01	2.569277e+02
2.220000e-06	3.338824e-06	3.867995e-09	2.808756e+01	2.539522e+02
2.230000e-06	3.226338e-06	3.822592e-09	2.714129e+01	2.508655e+02
2.240000e-06	3.112692e-06	3.779349e-09	2.618524e+01	2.476691e+02
2.250000e-06	2.997906e-06	3.721852e-09	2.521962e+01	2.443630e+02
2.260000e-06	2.881930e-06	3.663583e-09	2.424398e+01	2.409448e+02
2.270000e-06	2.764746e-06	3.615140e-09	2.325818e+01	2.374086e+02
2.280000e-06	2.646476e-06	3.563990e-09	2.226324e+01	2.337443e+02
2.290000e-06	2.527183e-06	3.503093e-09	2.125971e+01	2.299378e+02
2.300000e-06	2.406864e-06	3.437424e-09	2.024753e+01	2.259708e+02
2.310000e-06	2.285592e-06	3.380635e-09	1.922734e+01	2.218222e+02
2.320000e-06	2.163610e-06	3.316707e-09	1.820118e+01	2.174689e+02
2.330000e-06	2.041071e-06	3.244323e-09	1.717033e+01	2.128870e+02
2.340000e-06	1.917893e-06	3.169393e-09	1.613411e+01	2.080527e+02
2.350000e-06	1.793958e-06	3.095383e-09	1.509151e+01	2.029431e+02
2.360000e-06	1.669254e-06	3.013727e-09	1.404245e+01	1.975357e+02
2.370000e-06	1.543983e-06	2.928642e-09	1.298862e+01	1.918080e+02
2.380000e-06	1.418223e-06	2.840393e-09	1.193068e+01	1.857359e+02
2.390000e-06	1.291997e-06	2.741308e-09	1.086881e+01	1.792918e+02
2.400000e-06	1.165329e-06	2.635533e-09	9.803230e+00	1.724424e+02
2.410000e-06	1.038255e-06	2.526566e-09	8.734230e+00	1.651470e+02
2.420000e-06	9.108315e-07	2.410962e-09	7.662290e+00	1.573558e+02
2.430000e-06	7.830794e-07	2.281998e-09	6.587586e+00	1.490103e+02
2.440000e-06	6.550293e-07	2.145165e-09	5.510376e+00	1.400442e+02
2.450000e-06	5.266909e-07	2.000984e-09	4.430741e+00	1.303864e+02
2.460000e-06	3.981747e-07	1.842371e-09	3.349610e+00	1.199653e+02
2.470000e-06	2.695158e-07	1.670880e-09	2.267278e+00	1.087148e+02
2.480000e-06	1.406867e-07	1.490045e-09	1.183515e+00	9.658131e+01
2.490000e-06	1.181422e-08	1.295608e-09	9.938610e-02	8.353080e+01
2.500000e-06	-1.170341e-07	1.082025e-09	-9.845388e-01	6.955594e+01
2.510000e-06	-2.458262e-07	8.554744e-10	-2.067991e+00	5.468184e+01
2.520000e-06	-3.745017e-07	6.206942e-10	-3.150463e+00	3.897008e+01
2.530000e-06	-5.030262e-07	3.730078e-10	-4.231663e+00	2.252035e+01
2.540000e-06	-6.313392e-07	1.103409e-10	-5.311085e+00	5.469158e+00
2.550000e-06	-7.593796e-07	-1.595863e-10	-6.388214e+00	-1.201427e+01
2.560000e-06	-8.870695e-07	-4.295723e-10	-7.462394e+00	-2.973491e+01
2.570000e-06	-1.014341e-06	-7.015761e-10	-8.533055e+00	-4.748107e+01
2.580000e-06	-1.141183e-06	-9.737689e-10	-9.600105e+00	-6.503518e+01
2.590000e-06	-1.267649e-06	-1.239340e-09	-1.066399e+01	-8.218518e+01
2.600000e-06	-1.393767e-06	-1.494080e-09	-1.172494e+01	-9.873565e+01
2.610000e-06	-1.519450e-06	-1.735683e-09	-1.278224e+01	-1.145177e+02
2.620000e-06	-1.644537e-06	-1.963665e-09	-1.383452e+01	-1.293968e+02
2.630000e-06	-1.768917e-06	-2.177063e-09	-1.488086e+01	-1.432779e+02
2.640000e-06	-1.892539e-06	-2.373228e-09	-1.592081e+01	-1.561075e+02
2.650000e-06	-2.015391e-06	-2.551896e-09	-1.695430e+01	-1.678729e+02
2.660000e-06	-2.137548e-06	-2.714468e-09	-1.798193e+01	-1.785979e+02
2.670000e-06	-2.259062e-06	-2.862257e-09	-1.900416e+01	-1.883374e+02
2.680000e-06	-2.379813e-06	-2.996309e-09	-2.001996e+01	-1.971691e+02
2.690000e-06	-2.499636e-06	-3.118581e-09	-2.102797e+01	-2.051856e+02
2.700000e-06	-2.618484e-06	-3.231728e-09	-2.202776e+01	-2.124857e+02
2.710000e-06	-2.736301e-06	-3.335552e-09	-2.301889e+01	-2.191668e+02
2.720000e-06	-2.853019e-06	-3.430067e-09	-2.400077e+01	-2.253191e+02
2.730000e-06	-2.968571e-06	-3.518356e-09	-2.497284e+01	-2.310210e+02
2.740000e-06	-3.082879e-06	-3.602186e-09	-2.593445e+01	-2.363367e+02
2.750000e-06	-3.195906e-06	-3.679870e-09	-2.688528e+01	-2.413161e+02
2.760000e-06	-3.307648e-06	-3.750178e-09	-2.782530e+01	-2.459954e+02
2.770000e-06	-3.418106e-06	-3.815883e-09	-2.875452e+01	-2.503997e+02
2.780000e-06	-3.527409e-06	-3.879438e-09	-2.967402e+01	-2.545459e+02
2.790000e-06	-3.635618e-06	-3.938579e-09	-3.058431e+01	-2.584457e+02
2.800000e-06	-3.742657e-06	-3.992998e-09	-3.148477e+01	-2.621089e+02
2.810000e-06	-3.848432e-06	-4.045930e-09	-3.237459e+01	-2.655448e+02
2.820000e-06	-3.952802e-06	-4.098238e-09	-3.325260e+01	-2.687647e+02
2.830000e-06	-4.055631e-06	-4.148305e-09	-3.411764e+01	-2.717816e+02
2.840000e-06	-4.156908e-06	-4.194563e-09	-3.496962e+01	-2.746103e+02
2.850000e-06	-4.256681e-06	-4.238053e-09	-3.580896e+01	-2.772670e+02
2.860000e-06	-4.355032e-06	-4.279432e-09	-3.663632e+01	-2.797675e+02
2.870000e-06	-4.451991e-06	-4.317666e-09	-3.745198e+01	-2.821269e+02
2.880000e-06	-4.547429e-06	-4.352988e-09	-3.825485e+01	-2.843580e+02
2.890000e-06	-4.641185e-06	-4.386906e-09	-3.904356e+01	-2.864711e+02
2.900000e-06	-4.733251e-06	-4.418741e-09	-3.981806e+01	-2.884739e+02
2.910000e-06	-4.823712e-06	-4.447892e-09	-4.057905e+01	-2.903716e+02
2.920000e-06	-4.912482e-06	-4.475792e-09	-4.132583e+01	-2.921679e+02
2.930000e-06	-4.999417e-06	-4.503202e-09	-4.205716e+01	-2.938656e+02
2.940000e-06	-5.084485e-06	-4.529551e-09	-4.277278e+01	-2.954675e+02
