# Temperatura_=_20.0
# Concentracion g/m^3_=_9000.0
# C_Vs_to_Am_M_A/Vsm_=_65563218390.804596
# pendiente_HvsI_1/m_=_3716.3
# ordenada_HvsI_A/m_=_1297.0
# frecuencia_Hz_=_301150.55762361136

Tiempo_(s)	Campo_(V.s)	Magnetizacion_(V.s)	Campo_(kA/m)	Magnetizacion_(A/m)
0.000000e+00	-6.720602e-06	-4.819360e-09	-5.668755e+01	-3.169450e+02
1.000000e-08	-6.718815e-06	-4.822136e-09	-5.667248e+01	-3.168684e+02
2.000000e-08	-6.714667e-06	-4.821363e-09	-5.663749e+01	-3.167724e+02
3.000000e-08	-6.708427e-06	-4.818488e-09	-5.658485e+01	-3.166569e+02
4.000000e-08	-6.700046e-06	-4.814285e-09	-5.651416e+01	-3.165195e+02
5.000000e-08	-6.689245e-06	-4.809068e-09	-5.642305e+01	-3.163560e+02
6.000000e-08	-6.675976e-06	-4.806196e-09	-5.631113e+01	-3.161608e+02
7.000000e-08	-6.660271e-06	-4.799244e-09	-5.617867e+01	-3.159277e+02
8.000000e-08	-6.642306e-06	-4.793103e-09	-5.602714e+01	-3.156511e+02
9.000000e-08	-6.622208e-06	-4.832159e-09	-5.585761e+01	-3.153264e+02
1.000000e-07	-6.599661e-06	-4.862174e-09	-5.566743e+01	-3.149508e+02
1.100000e-07	-6.574324e-06	-4.827927e-09	-5.545371e+01	-3.145237e+02
1.200000e-07	-6.546390e-06	-4.776498e-09	-5.521809e+01	-3.140468e+02
1.300000e-07	-6.516346e-06	-4.748283e-09	-5.496468e+01	-3.135235e+02
1.400000e-07	-6.484476e-06	-4.722030e-09	-5.469586e+01	-3.129591e+02
1.500000e-07	-6.450749e-06	-4.752381e-09	-5.441137e+01	-3.123594e+02
1.600000e-07	-6.415012e-06	-4.808986e-09	-5.410993e+01	-3.117302e+02
1.700000e-07	-6.377222e-06	-4.713524e-09	-5.379118e+01	-3.110769e+02
1.800000e-07	-6.337300e-06	-4.720970e-09	-5.345444e+01	-3.104033e+02
1.900000e-07	-6.294911e-06	-4.762227e-09	-5.309690e+01	-3.097118e+02
2.000000e-07	-6.250092e-06	-4.702606e-09	-5.271885e+01	-3.090029e+02
2.100000e-07	-6.203046e-06	-4.721107e-09	-5.232202e+01	-3.082756e+02
2.200000e-07	-6.153432e-06	-4.688264e-09	-5.190354e+01	-3.075272e+02
2.300000e-07	-6.101237e-06	-4.665149e-09	-5.146327e+01	-3.067544e+02
2.400000e-07	-6.046748e-06	-4.686288e-09	-5.100367e+01	-3.059532e+02
2.500000e-07	-5.989940e-06	-4.668618e-09	-5.052450e+01	-3.051195e+02
2.600000e-07	-5.930905e-06	-4.653388e-09	-5.002654e+01	-3.042496e+02
2.700000e-07	-5.869780e-06	-4.619953e-09	-4.951096e+01	-3.033403e+02
2.800000e-07	-5.806605e-06	-4.607838e-09	-4.897808e+01	-3.023889e+02
2.900000e-07	-5.741369e-06	-4.611645e-09	-4.842783e+01	-3.013930e+02
3.000000e-07	-5.674011e-06	-4.603446e-09	-4.785967e+01	-3.003508e+02
3.100000e-07	-5.604505e-06	-4.572885e-09	-4.727340e+01	-2.992605e+02
3.200000e-07	-5.533021e-06	-4.528930e-09	-4.667044e+01	-2.981201e+02
3.300000e-07	-5.459568e-06	-4.547485e-09	-4.605087e+01	-2.969276e+02
3.400000e-07	-5.383868e-06	-4.520653e-09	-4.541234e+01	-2.956808e+02
3.500000e-07	-5.305912e-06	-4.474571e-09	-4.475479e+01	-2.943775e+02
3.600000e-07	-5.225807e-06	-4.469274e-09	-4.407911e+01	-2.930153e+02
3.700000e-07	-5.143795e-06	-4.453834e-09	-4.338736e+01	-2.915924e+02
3.800000e-07	-5.060151e-06	-4.426842e-09	-4.268183e+01	-2.901074e+02
3.900000e-07	-4.974848e-06	-4.396452e-09	-4.196231e+01	-2.885594e+02
4.000000e-07	-4.887899e-06	-4.384524e-09	-4.122890e+01	-2.869481e+02
4.100000e-07	-4.799289e-06	-4.347593e-09	-4.048148e+01	-2.852735e+02
4.200000e-07	-4.708888e-06	-4.317641e-09	-3.971896e+01	-2.835360e+02
4.300000e-07	-4.616731e-06	-4.307246e-09	-3.894163e+01	-2.817355e+02
4.400000e-07	-4.522938e-06	-4.277948e-09	-3.815049e+01	-2.798717e+02
4.500000e-07	-4.427553e-06	-4.236504e-09	-3.734593e+01	-2.779431e+02
4.600000e-07	-4.330531e-06	-4.210790e-09	-3.652756e+01	-2.759470e+02
4.700000e-07	-4.231862e-06	-4.193977e-09	-3.569530e+01	-2.738799e+02
4.800000e-07	-4.131704e-06	-4.148029e-09	-3.485048e+01	-2.717368e+02
4.900000e-07	-4.030158e-06	-4.104756e-09	-3.399395e+01	-2.695122e+02
5.000000e-07	-3.927131e-06	-4.078887e-09	-3.312493e+01	-2.672002e+02
5.100000e-07	-3.822659e-06	-4.045609e-09	-3.224371e+01	-2.647951e+02
5.200000e-07	-3.716787e-06	-3.996554e-09	-3.135070e+01	-2.622920e+02
5.300000e-07	-3.609522e-06	-3.954720e-09	-3.044593e+01	-2.596868e+02
5.400000e-07	-3.500989e-06	-3.918513e-09	-2.953046e+01	-2.569768e+02
5.500000e-07	-3.391268e-06	-3.874459e-09	-2.860498e+01	-2.541603e+02
5.600000e-07	-3.280389e-06	-3.833354e-09	-2.766973e+01	-2.512360e+02
5.700000e-07	-3.168211e-06	-3.792722e-09	-2.672352e+01	-2.482028e+02
5.800000e-07	-3.054661e-06	-3.743418e-09	-2.576574e+01	-2.450587e+02
5.900000e-07	-2.939929e-06	-3.689953e-09	-2.479798e+01	-2.418000e+02
6.000000e-07	-2.824031e-06	-3.644391e-09	-2.382040e+01	-2.384206e+02
6.100000e-07	-2.707007e-06	-3.593978e-09	-2.283331e+01	-2.349115e+02
6.200000e-07	-2.589050e-06	-3.533219e-09	-2.183835e+01	-2.312606e+02
6.300000e-07	-2.470240e-06	-3.469322e-09	-2.083620e+01	-2.274529e+02
6.400000e-07	-2.350532e-06	-3.409085e-09	-1.982648e+01	-2.234711e+02
6.500000e-07	-2.229913e-06	-3.348714e-09	-1.880907e+01	-2.192960e+02
6.600000e-07	-2.108493e-06	-3.279538e-09	-1.778491e+01	-2.149079e+02
6.700000e-07	-1.986304e-06	-3.206295e-09	-1.675426e+01	-2.102869e+02
6.800000e-07	-1.863336e-06	-3.133938e-09	-1.571704e+01	-2.054136e+02
6.900000e-07	-1.739555e-06	-3.056857e-09	-1.467296e+01	-2.002689e+02
7.000000e-07	-1.615108e-06	-2.968444e-09	-1.362326e+01	-1.948336e+02
7.100000e-07	-1.490253e-06	-2.878565e-09	-1.257013e+01	-1.890873e+02
7.200000e-07	-1.365000e-06	-2.787584e-09	-1.151363e+01	-1.830061e+02
7.300000e-07	-1.239240e-06	-2.689307e-09	-1.045286e+01	-1.765616e+02
7.400000e-07	-1.113059e-06	-2.583649e-09	-9.388531e+00	-1.697180e+02
7.500000e-07	-9.865409e-07	-2.474178e-09	-8.321366e+00	-1.624313e+02
7.600000e-07	-8.596782e-07	-2.354000e-09	-7.251293e+00	-1.546482e+02
7.700000e-07	-7.325244e-07	-2.219562e-09	-6.178764e+00	-1.463063e+02
7.800000e-07	-6.051431e-07	-2.080291e-09	-5.104316e+00	-1.373363e+02
7.900000e-07	-4.775667e-07	-1.933008e-09	-4.028223e+00	-1.276650e+02
8.000000e-07	-3.497620e-07	-1.770370e-09	-2.950204e+00	-1.172205e+02
8.100000e-07	-2.217810e-07	-1.594232e-09	-1.870699e+00	-1.059377e+02
8.200000e-07	-9.372371e-08	-1.408282e-09	-7.905494e-01	-9.376562e+01
8.300000e-07	3.438756e-08	-1.206912e-09	2.900553e-01	-8.067421e+01
8.400000e-07	1.625288e-07	-9.906325e-10	1.370913e+00	-6.666094e+01
8.500000e-07	2.906075e-07	-7.626698e-10	2.451243e+00	-5.175614e+01
8.600000e-07	4.185350e-07	-5.248721e-10	3.530298e+00	-3.602641e+01
8.700000e-07	5.462957e-07	-2.770917e-10	4.607945e+00	-1.957575e+01
8.800000e-07	6.737990e-07	-1.904392e-11	5.683422e+00	-2.543820e+00
8.900000e-07	8.009863e-07	2.460632e-10	6.756233e+00	1.489845e+01
9.000000e-07	9.279248e-07	5.150134e-10	7.826945e+00	3.255592e+01
9.100000e-07	1.054623e-06	7.841111e-10	8.895630e+00	5.021835e+01
9.200000e-07	1.181012e-06	1.050665e-09	9.961712e+00	6.767092e+01
9.300000e-07	1.306982e-06	1.311522e-09	1.102425e+01	8.470537e+01
9.400000e-07	1.432483e-06	1.562532e-09	1.208284e+01	1.011307e+02
9.500000e-07	1.557525e-06	1.799931e-09	1.313756e+01	1.167824e+02
9.600000e-07	1.682113e-06	2.022240e-09	1.418844e+01	1.315305e+02
9.700000e-07	1.806226e-06	2.228023e-09	1.523532e+01	1.452834e+02
9.800000e-07	1.929734e-06	2.417115e-09	1.627710e+01	1.579906e+02
9.900000e-07	2.052484e-06	2.590791e-09	1.731248e+01	1.696412e+02
1.000000e-06	2.174438e-06	2.749885e-09	1.834115e+01	1.802602e+02
1.010000e-06	2.295554e-06	2.898642e-09	1.936275e+01	1.899024e+02
1.020000e-06	2.415779e-06	3.034911e-09	2.037683e+01	1.986452e+02
1.030000e-06	2.535104e-06	3.156612e-09	2.138333e+01	2.065800e+02
1.040000e-06	2.653508e-06	3.266901e-09	2.238206e+01	2.138044e+02
1.050000e-06	2.771006e-06	3.370592e-09	2.337313e+01	2.204147e+02
1.060000e-06	2.887592e-06	3.466228e-09	2.435652e+01	2.264998e+02
1.070000e-06	3.003111e-06	3.550565e-09	2.533092e+01	2.321373e+02
1.080000e-06	3.117386e-06	3.627275e-09	2.629481e+01	2.373908e+02
1.090000e-06	3.230329e-06	3.700841e-09	2.724748e+01	2.423098e+02
1.100000e-06	3.341973e-06	3.772730e-09	2.818918e+01	2.469305e+02
1.110000e-06	3.452452e-06	3.838431e-09	2.912106e+01	2.512781e+02
1.120000e-06	3.561808e-06	3.897656e-09	3.004346e+01	2.553697e+02
1.130000e-06	3.670041e-06	3.954583e-09	3.095640e+01	2.592176e+02
1.140000e-06	3.777071e-06	4.011887e-09	3.185919e+01	2.628318e+02
1.150000e-06	3.882662e-06	4.063754e-09	3.274984e+01	2.662222e+02
1.160000e-06	3.986765e-06	4.110693e-09	3.362793e+01	2.694005e+02
1.170000e-06	4.089411e-06	4.155366e-09	3.449374e+01	2.723801e+02
1.180000e-06	4.190611e-06	4.195836e-09	3.534735e+01	2.751766e+02
1.190000e-06	4.290420e-06	4.232369e-09	3.618923e+01	2.778063e+02
1.200000e-06	4.388682e-06	4.267274e-09	3.701806e+01	2.802856e+02
1.210000e-06	4.485160e-06	4.302118e-09	3.783184e+01	2.826297e+02
1.220000e-06	4.579928e-06	4.335272e-09	3.863119e+01	2.848515e+02
1.230000e-06	4.673182e-06	4.366037e-09	3.941779e+01	2.869608e+02
1.240000e-06	4.764937e-06	4.396031e-09	4.019173e+01	2.889649e+02
1.250000e-06	4.855004e-06	4.425482e-09	4.095143e+01	2.908680e+02
1.260000e-06	4.943217e-06	4.451686e-09	4.169550e+01	2.926725e+02
1.270000e-06	5.029676e-06	4.474732e-09	4.242477e+01	2.943797e+02
1.280000e-06	5.114511e-06	4.496984e-09	4.314035e+01	2.959910e+02
1.290000e-06	5.197648e-06	4.518726e-09	4.384160e+01	2.975087e+02
1.300000e-06	5.278881e-06	4.539315e-09	4.452679e+01	2.989365e+02
1.310000e-06	5.358155e-06	4.559937e-09	4.519545e+01	3.002799e+02
1.320000e-06	5.435555e-06	4.580276e-09	4.584832e+01	3.015458e+02
1.330000e-06	5.510977e-06	4.599094e-09	4.648449e+01	3.027423e+02
1.340000e-06	5.584228e-06	4.617056e-09	4.710236e+01	3.038775e+02
1.350000e-06	5.655403e-06	4.634658e-09	4.770271e+01	3.049590e+02
1.360000e-06	5.724619e-06	4.650862e-09	4.828654e+01	3.059929e+02
1.370000e-06	5.791838e-06	4.666013e-09	4.885353e+01	3.069831e+02
1.380000e-06	5.856921e-06	4.681803e-09	4.940250e+01	3.079313e+02
1.390000e-06	5.919869e-06	4.697959e-09	4.993345e+01	3.088368e+02
1.400000e-06	5.980874e-06	4.712219e-09	5.044803e+01	3.096973e+02
1.410000e-06	6.039947e-06	4.724754e-09	5.094630e+01	3.105094e+02
1.420000e-06	6.096805e-06	4.735643e-09	5.142589e+01	3.112695e+02
1.430000e-06	6.151374e-06	4.746325e-09	5.188617e+01	3.119751e+02
1.440000e-06	6.203622e-06	4.757476e-09	5.232688e+01	3.126251e+02
1.450000e-06	6.253261e-06	4.767729e-09	5.274558e+01	3.132207e+02
1.460000e-06	6.300434e-06	4.777950e-09	5.314348e+01	3.137654e+02
1.470000e-06	6.345452e-06	4.787936e-09	5.352320e+01	3.142647e+02
1.480000e-06	6.388323e-06	4.797265e-09	5.388481e+01	3.147257e+02
1.490000e-06	6.428861e-06	4.805124e-09	5.422675e+01	3.151560e+02
1.500000e-06	6.467057e-06	4.812042e-09	5.454893e+01	3.155631e+02
1.510000e-06	6.503123e-06	4.819401e-09	5.485314e+01	3.159530e+02
1.520000e-06	6.536943e-06	4.828021e-09	5.513841e+01	3.163295e+02
1.530000e-06	6.568380e-06	4.835195e-09	5.540358e+01	3.166941e+02
1.540000e-06	6.597604e-06	4.839685e-09	5.565008e+01	3.170456e+02
1.550000e-06	6.624598e-06	4.844443e-09	5.587777e+01	3.173801e+02
1.560000e-06	6.649147e-06	4.850807e-09	5.608484e+01	3.176924e+02
1.570000e-06	6.671301e-06	4.856597e-09	5.627170e+01	3.179761e+02
1.580000e-06	6.691235e-06	4.860108e-09	5.643984e+01	3.182250e+02
1.590000e-06	6.708876e-06	4.864351e-09	5.658864e+01	3.184338e+02
1.600000e-06	6.724060e-06	4.868720e-09	5.671672e+01	3.185991e+02
1.610000e-06	6.736716e-06	4.873486e-09	5.682347e+01	3.187198e+02
1.620000e-06	6.746733e-06	4.877471e-09	5.690796e+01	3.187970e+02
1.630000e-06	6.754151e-06	4.880146e-09	5.697054e+01	3.188338e+02
1.640000e-06	6.759244e-06	4.883425e-09	5.701349e+01	3.188348e+02
1.650000e-06	6.762108e-06	4.886155e-09	5.703765e+01	3.188055e+02
1.660000e-06	6.762564e-06	4.887447e-09	5.704150e+01	3.187507e+02
1.670000e-06	6.760680e-06	4.881514e-09	5.702560e+01	3.186745e+02
1.680000e-06	6.756700e-06	4.877520e-09	5.699204e+01	3.185788e+02
1.690000e-06	6.750462e-06	4.875920e-09	5.693941e+01	3.184637e+02
1.700000e-06	6.741913e-06	4.874990e-09	5.686731e+01	3.183268e+02
1.710000e-06	6.731243e-06	4.874013e-09	5.677731e+01	3.181639e+02
1.720000e-06	6.718319e-06	4.872618e-09	5.666830e+01	3.179695e+02
1.730000e-06	6.702985e-06	4.879642e-09	5.653895e+01	3.177375e+02
1.740000e-06	6.685518e-06	4.849822e-09	5.639162e+01	3.174622e+02
1.750000e-06	6.665788e-06	4.777382e-09	5.622520e+01	3.171389e+02
1.760000e-06	6.642983e-06	4.780707e-09	5.603284e+01	3.167648e+02
1.770000e-06	6.617030e-06	4.821880e-09	5.581394e+01	3.163391e+02
1.780000e-06	6.588738e-06	4.856896e-09	5.557529e+01	3.158635e+02
1.790000e-06	6.558470e-06	4.916199e-09	5.531999e+01	3.153415e+02
1.800000e-06	6.526493e-06	4.852215e-09	5.505026e+01	3.147781e+02
1.810000e-06	6.492919e-06	4.722645e-09	5.476707e+01	3.141791e+02
1.820000e-06	6.457109e-06	4.787170e-09	5.446501e+01	3.135506e+02
1.830000e-06	6.418921e-06	4.763335e-09	5.414290e+01	3.128976e+02
1.840000e-06	6.378566e-06	4.746037e-09	5.380251e+01	3.122243e+02
1.850000e-06	6.335952e-06	4.788545e-09	5.344307e+01	3.115331e+02
1.860000e-06	6.291221e-06	4.673148e-09	5.306577e+01	3.108245e+02
1.870000e-06	6.244240e-06	4.747661e-09	5.266949e+01	3.100975e+02
1.880000e-06	6.194941e-06	4.758379e-09	5.225366e+01	3.093496e+02
1.890000e-06	6.143414e-06	4.671472e-09	5.181904e+01	3.085774e+02
1.900000e-06	6.089230e-06	4.684194e-09	5.136200e+01	3.077768e+02
1.910000e-06	6.032557e-06	4.640559e-09	5.088396e+01	3.069440e+02
1.920000e-06	5.973803e-06	4.697355e-09	5.038838e+01	3.060751e+02
1.930000e-06	5.912984e-06	4.670015e-09	4.987538e+01	3.051669e+02
1.940000e-06	5.850021e-06	4.594639e-09	4.934429e+01	3.042166e+02
1.950000e-06	5.784868e-06	4.610659e-09	4.879474e+01	3.032220e+02
1.960000e-06	5.717674e-06	4.594325e-09	4.822796e+01	3.021811e+02
1.970000e-06	5.648276e-06	4.623583e-09	4.764259e+01	3.010922e+02
1.980000e-06	5.576615e-06	4.546678e-09	4.703814e+01	2.999532e+02
1.990000e-06	5.502956e-06	4.542696e-09	4.641684e+01	2.987623e+02
2.000000e-06	5.427302e-06	4.551300e-09	4.577871e+01	2.975171e+02
2.010000e-06	5.349527e-06	4.504350e-09	4.512268e+01	2.962154e+02
2.020000e-06	5.269638e-06	4.510638e-09	4.444882e+01	2.948551e+02
2.030000e-06	5.187882e-06	4.451771e-09	4.375922e+01	2.934340e+02
2.040000e-06	5.104383e-06	4.447100e-09	4.305492e+01	2.919509e+02
2.050000e-06	5.019099e-06	4.431744e-09	4.233556e+01	2.904048e+02
2.060000e-06	4.931961e-06	4.426270e-09	4.160055e+01	2.887953e+02
2.070000e-06	4.842995e-06	4.382317e-09	4.085014e+01	2.871226e+02
2.080000e-06	4.752399e-06	4.323943e-09	4.008597e+01	2.853870e+02
2.090000e-06	4.660198e-06	4.325702e-09	3.930826e+01	2.835884e+02
2.100000e-06	4.566282e-06	4.301812e-09	3.851610e+01	2.817265e+02
2.110000e-06	4.470646e-06	4.268905e-09	3.770942e+01	2.797998e+02
2.120000e-06	4.373447e-06	4.215747e-09	3.688955e+01	2.778059e+02
2.130000e-06	4.274820e-06	4.201724e-09	3.605764e+01	2.757410e+02
2.140000e-06	4.174781e-06	4.177245e-09	3.521383e+01	2.736004e+02
2.150000e-06	4.073212e-06	4.138546e-09	3.435710e+01	2.713784e+02
2.160000e-06	3.970035e-06	4.098253e-09	3.348682e+01	2.690692e+02
2.170000e-06	3.865349e-06	4.059512e-09	3.260380e+01	2.666672e+02
2.180000e-06	3.759326e-06	4.029979e-09	3.170951e+01	2.641673e+02
2.190000e-06	3.652127e-06	3.989482e-09	3.080530e+01	2.615654e+02
2.200000e-06	3.543768e-06	3.950579e-09	2.989130e+01	2.588589e+02
2.210000e-06	3.434157e-06	3.897122e-09	2.896674e+01	2.560458e+02
2.220000e-06	3.323221e-06	3.852163e-09	2.803101e+01	2.531250e+02
2.230000e-06	3.211023e-06	3.812383e-09	2.708463e+01	2.500954e+02
2.240000e-06	3.097618e-06	3.769374e-09	2.612807e+01	2.469549e+02
2.250000e-06	2.983073e-06	3.710087e-09	2.516190e+01	2.437000e+02
2.260000e-06	2.867411e-06	3.654362e-09	2.418630e+01	2.403247e+02
2.270000e-06	2.750510e-06	3.608547e-09	2.320025e+01	2.368200e+02
2.280000e-06	2.632414e-06	3.558150e-09	2.220413e+01	2.331741e+02
2.290000e-06	2.513274e-06	3.496012e-09	2.119920e+01	2.293719e+02
2.300000e-06	2.393226e-06	3.428752e-09	2.018660e+01	2.253962e+02
2.310000e-06	2.272317e-06	3.368085e-09	1.916675e+01	2.212280e+02
2.320000e-06	2.150665e-06	3.302261e-09	1.814062e+01	2.168475e+02
2.330000e-06	2.028384e-06	3.231199e-09	1.710920e+01	2.122348e+02
2.340000e-06	1.905438e-06	3.157124e-09	1.607216e+01	2.073704e+02
2.350000e-06	1.781807e-06	3.082507e-09	1.502935e+01	2.022354e+02
2.360000e-06	1.657599e-06	3.002059e-09	1.398167e+01	1.968105e+02
2.370000e-06	1.532855e-06	2.918541e-09	1.292946e+01	1.910753e+02
2.380000e-06	1.407453e-06	2.828778e-09	1.187171e+01	1.850062e+02
2.390000e-06	1.281468e-06	2.727926e-09	1.080904e+01	1.785748e+02
2.400000e-06	1.155079e-06	2.621362e-09	9.742967e+00	1.717458e+02
2.410000e-06	1.028333e-06	2.511018e-09	8.673875e+00	1.644755e+02
2.420000e-06	9.011891e-07	2.393478e-09	7.601432e+00	1.567107e+02
2.430000e-06	7.736924e-07	2.266267e-09	6.526012e+00	1.483896e+02
2.440000e-06	6.459416e-07	2.133880e-09	5.448448e+00	1.394429e+02
2.450000e-06	5.179864e-07	1.990665e-09	4.369159e+00	1.297976e+02
2.460000e-06	3.898226e-07	1.830872e-09	3.288111e+00	1.193815e+02
2.470000e-06	2.614514e-07	1.661299e-09	2.205314e+00	1.081292e+02
2.480000e-06	1.329167e-07	1.482475e-09	1.121138e+00	9.598917e+01
2.490000e-06	4.293661e-09	1.285606e-09	3.621657e-02	8.293045e+01
2.500000e-06	-1.243077e-07	1.069382e-09	-1.048522e+00	6.894942e+01
2.510000e-06	-2.527865e-07	8.420330e-10	-2.132227e+00	5.407516e+01
2.520000e-06	-3.811360e-07	6.053656e-10	-3.214841e+00	3.837296e+01
2.530000e-06	-5.093343e-07	3.565938e-10	-4.296179e+00	2.194547e+01
2.540000e-06	-6.372852e-07	9.661143e-11	-5.375431e+00	4.931160e+00
2.550000e-06	-7.649343e-07	-1.704572e-10	-6.452138e+00	-1.250007e+01
2.560000e-06	-8.922748e-07	-4.404374e-10	-7.526241e+00	-3.015378e+01
2.570000e-06	-1.019296e-06	-7.107678e-10	-8.597650e+00	-4.782010e+01
2.580000e-06	-1.145968e-06	-9.793925e-10	-9.666112e+00	-6.528420e+01
2.590000e-06	-1.272200e-06	-1.243661e-09	-1.073087e+01	-8.233737e+01
2.600000e-06	-1.397958e-06	-1.498806e-09	-1.179162e+01	-9.878780e+01
2.610000e-06	-1.523200e-06	-1.740161e-09	-1.284803e+01	-1.144700e+02
2.620000e-06	-1.647773e-06	-1.966291e-09	-1.389879e+01	-1.292525e+02
2.630000e-06	-1.771648e-06	-2.177330e-09	-1.494366e+01	-1.430424e+02
2.640000e-06	-1.894909e-06	-2.372247e-09	-1.598336e+01	-1.557878e+02
2.650000e-06	-2.017514e-06	-2.550731e-09	-1.701751e+01	-1.674763e+02
2.660000e-06	-2.139405e-06	-2.711451e-09	-1.804565e+01	-1.781317e+02
2.670000e-06	-2.260616e-06	-2.856157e-09	-1.906805e+01	-1.878079e+02
2.680000e-06	-2.381027e-06	-2.990082e-09	-2.008370e+01	-1.965817e+02
2.690000e-06	-2.500529e-06	-3.114640e-09	-2.109169e+01	-2.045441e+02
2.700000e-06	-2.619063e-06	-3.228126e-09	-2.209151e+01	-2.117925e+02
2.710000e-06	-2.736434e-06	-3.329936e-09	-2.308152e+01	-2.184235e+02
2.720000e-06	-2.852649e-06	-3.422757e-09	-2.406178e+01	-2.245264e+02
2.730000e-06	-2.967823e-06	-3.510251e-09	-2.503326e+01	-2.301790e+02
2.740000e-06	-3.081817e-06	-3.592495e-09	-2.599479e+01	-2.354457e+02
2.750000e-06	-3.194496e-06	-3.667876e-09	-2.694523e+01	-2.403763e+02
2.760000e-06	-3.305835e-06	-3.736574e-09	-2.788436e+01	-2.450075e+02
2.770000e-06	-3.415912e-06	-3.801703e-09	-2.881285e+01	-2.493649e+02
2.780000e-06	-3.524852e-06	-3.865136e-09	-2.973175e+01	-2.534658e+02
2.790000e-06	-3.632696e-06	-3.923685e-09	-3.064139e+01	-2.573226e+02
2.800000e-06	-3.739370e-06	-3.977368e-09	-3.154118e+01	-2.609453e+02
2.810000e-06	-3.844770e-06	-4.029964e-09	-3.243022e+01	-2.643439e+02
2.820000e-06	-3.948749e-06	-4.082996e-09	-3.330727e+01	-2.675299e+02
2.830000e-06	-4.051149e-06	-4.132731e-09	-3.417100e+01	-2.705168e+02
2.840000e-06	-4.152012e-06	-4.177678e-09	-3.502177e+01	-2.733198e+02
2.850000e-06	-4.251456e-06	-4.220457e-09	-3.586057e+01	-2.759556e+02
2.860000e-06	-4.349504e-06	-4.260978e-09	-3.668760e+01	-2.784404e+02
2.870000e-06	-4.446127e-06	-4.299372e-09	-3.750260e+01	-2.807895e+02
2.880000e-06	-4.541192e-06	-4.333138e-09	-3.830446e+01	-2.830157e+02
2.890000e-06	-4.634560e-06	-4.363937e-09	-3.909202e+01	-2.851294e+02
2.900000e-06	-4.726318e-06	-4.395892e-09	-3.986598e+01	-2.871375e+02
2.910000e-06	-4.816519e-06	-4.427899e-09	-4.062682e+01	-2.890445e+02
2.920000e-06	-4.905005e-06	-4.456860e-09	-4.137318e+01	-2.908528e+02
2.930000e-06	-4.991615e-06	-4.482033e-09	-4.210374e+01	-2.925638e+02
2.940000e-06	-5.076348e-06	-4.507434e-09	-4.281845e+01	-2.941789e+02
