# Temperatura_=_20.0
# Concentracion g/m^3_=_9000.0
# C_Vs_to_Am_M_A/Vsm_=_65563218390.804596
# pendiente_HvsI_1/m_=_3716.3
# ordenada_HvsI_A/m_=_1297.0
# frecuencia_Hz_=_301146.1021971538

Tiempo_(s)	Campo_(V.s)	Magnetizacion_(V.s)	Campo_(kA/m)	Magnetizacion_(A/m)
0.000000e+00	-6.711104e-06	-3.403831e-09	-5.668656e+01	-2.198541e+02
1.000000e-08	-6.709205e-06	-3.402568e-09	-5.667052e+01	-2.197292e+02
2.000000e-08	-6.705032e-06	-3.395924e-09	-5.663527e+01	-2.195755e+02
3.000000e-08	-6.698803e-06	-3.387844e-09	-5.658266e+01	-2.193943e+02
4.000000e-08	-6.690413e-06	-3.380666e-09	-5.651179e+01	-2.191853e+02
5.000000e-08	-6.679573e-06	-3.372598e-09	-5.642022e+01	-2.189461e+02
6.000000e-08	-6.666244e-06	-3.363229e-09	-5.630764e+01	-2.186729e+02
7.000000e-08	-6.650473e-06	-3.347619e-09	-5.617443e+01	-2.183604e+02
8.000000e-08	-6.632474e-06	-3.324234e-09	-5.602239e+01	-2.180024e+02
9.000000e-08	-6.612401e-06	-3.332634e-09	-5.585284e+01	-2.175930e+02
1.000000e-07	-6.589855e-06	-3.341309e-09	-5.566241e+01	-2.171265e+02
1.100000e-07	-6.564497e-06	-3.310930e-09	-5.544822e+01	-2.165990e+02
1.200000e-07	-6.536580e-06	-3.295955e-09	-5.521241e+01	-2.160081e+02
1.300000e-07	-6.506565e-06	-3.309879e-09	-5.495889e+01	-2.153539e+02
1.400000e-07	-6.474819e-06	-3.281573e-09	-5.469073e+01	-2.146388e+02
1.500000e-07	-6.441218e-06	-3.270846e-09	-5.440692e+01	-2.138677e+02
1.600000e-07	-6.405487e-06	-3.325614e-09	-5.410511e+01	-2.130472e+02
1.700000e-07	-6.367668e-06	-3.237739e-09	-5.378566e+01	-2.121855e+02
1.800000e-07	-6.327756e-06	-3.214015e-09	-5.344854e+01	-2.112914e+02
1.900000e-07	-6.285485e-06	-3.265331e-09	-5.309149e+01	-2.103736e+02
2.000000e-07	-6.240772e-06	-3.216371e-09	-5.271382e+01	-2.094401e+02
2.100000e-07	-6.193786e-06	-3.193503e-09	-5.231694e+01	-2.084975e+02
2.200000e-07	-6.144284e-06	-3.156714e-09	-5.189881e+01	-2.075501e+02
2.300000e-07	-6.092160e-06	-3.173105e-09	-5.145853e+01	-2.066001e+02
2.400000e-07	-6.037652e-06	-3.177236e-09	-5.099812e+01	-2.056471e+02
2.500000e-07	-5.980937e-06	-3.121139e-09	-5.051907e+01	-2.046885e+02
2.600000e-07	-5.922049e-06	-3.127659e-09	-5.002166e+01	-2.037194e+02
2.700000e-07	-5.861005e-06	-3.101507e-09	-4.950604e+01	-2.027334e+02
2.800000e-07	-5.797943e-06	-3.056730e-09	-4.897337e+01	-2.017232e+02
2.900000e-07	-5.732841e-06	-3.066100e-09	-4.842348e+01	-2.006808e+02
3.000000e-07	-5.665591e-06	-3.077256e-09	-4.785545e+01	-1.995990e+02
3.100000e-07	-5.596128e-06	-3.033002e-09	-4.726871e+01	-1.984708e+02
3.200000e-07	-5.524681e-06	-2.977696e-09	-4.666522e+01	-1.972912e+02
3.300000e-07	-5.451314e-06	-3.015959e-09	-4.604552e+01	-1.960563e+02
3.400000e-07	-5.375705e-06	-2.987028e-09	-4.540686e+01	-1.947642e+02
3.500000e-07	-5.297842e-06	-2.913110e-09	-4.474918e+01	-1.934146e+02
3.600000e-07	-5.217785e-06	-2.911079e-09	-4.407297e+01	-1.920089e+02
3.700000e-07	-5.135822e-06	-2.908017e-09	-4.338065e+01	-1.905494e+02
3.800000e-07	-5.052277e-06	-2.869300e-09	-4.267497e+01	-1.890389e+02
3.900000e-07	-4.967096e-06	-2.828574e-09	-4.195548e+01	-1.874805e+02
4.000000e-07	-4.880298e-06	-2.827864e-09	-4.122232e+01	-1.858767e+02
4.100000e-07	-4.791836e-06	-2.794354e-09	-4.047511e+01	-1.842290e+02
4.200000e-07	-4.701511e-06	-2.757026e-09	-3.971216e+01	-1.825378e+02
4.300000e-07	-4.609411e-06	-2.747815e-09	-3.893423e+01	-1.808021e+02
4.400000e-07	-4.515717e-06	-2.720518e-09	-3.814282e+01	-1.790194e+02
4.500000e-07	-4.420490e-06	-2.673483e-09	-3.733847e+01	-1.771860e+02
4.600000e-07	-4.323638e-06	-2.642589e-09	-3.652039e+01	-1.752975e+02
4.700000e-07	-4.225078e-06	-2.631563e-09	-3.568789e+01	-1.733493e+02
4.800000e-07	-4.124993e-06	-2.590815e-09	-3.484251e+01	-1.713369e+02
4.900000e-07	-4.023453e-06	-2.543352e-09	-3.398482e+01	-1.692567e+02
5.000000e-07	-3.920496e-06	-2.516357e-09	-3.311518e+01	-1.671062e+02
5.100000e-07	-3.816223e-06	-2.492758e-09	-3.223442e+01	-1.648847e+02
5.200000e-07	-3.710476e-06	-2.452356e-09	-3.134121e+01	-1.625928e+02
5.300000e-07	-3.603260e-06	-2.409656e-09	-3.043559e+01	-1.602329e+02
5.400000e-07	-3.494793e-06	-2.374299e-09	-2.951940e+01	-1.578080e+02
5.500000e-07	-3.385145e-06	-2.338250e-09	-2.859324e+01	-1.553219e+02
5.600000e-07	-3.274399e-06	-2.300554e-09	-2.765781e+01	-1.527780e+02
5.700000e-07	-3.162516e-06	-2.258204e-09	-2.671276e+01	-1.501787e+02
5.800000e-07	-3.049324e-06	-2.215614e-09	-2.575666e+01	-1.475248e+02
5.900000e-07	-2.934761e-06	-2.175166e-09	-2.478899e+01	-1.448147e+02
6.000000e-07	-2.818943e-06	-2.139627e-09	-2.381071e+01	-1.420442e+02
6.100000e-07	-2.702032e-06	-2.099826e-09	-2.282320e+01	-1.392069e+02
6.200000e-07	-2.584195e-06	-2.054402e-09	-2.182787e+01	-1.362937e+02
6.300000e-07	-2.465522e-06	-2.002325e-09	-2.082548e+01	-1.332942e+02
6.400000e-07	-2.346010e-06	-1.950714e-09	-1.981600e+01	-1.301967e+02
6.500000e-07	-2.225716e-06	-1.903550e-09	-1.879991e+01	-1.269896e+02
6.600000e-07	-2.104537e-06	-1.850576e-09	-1.777636e+01	-1.236618e+02
6.700000e-07	-1.982376e-06	-1.791797e-09	-1.674450e+01	-1.202034e+02
6.800000e-07	-1.859350e-06	-1.737333e-09	-1.570534e+01	-1.166058e+02
6.900000e-07	-1.735694e-06	-1.687097e-09	-1.466086e+01	-1.128616e+02
7.000000e-07	-1.611574e-06	-1.626776e-09	-1.361245e+01	-1.089641e+02
7.100000e-07	-1.486962e-06	-1.562216e-09	-1.255990e+01	-1.049061e+02
7.200000e-07	-1.361831e-06	-1.499191e-09	-1.150296e+01	-1.006790e+02
7.300000e-07	-1.236223e-06	-1.433731e-09	-1.044198e+01	-9.627079e+01
7.400000e-07	-1.110189e-06	-1.363334e-09	-9.377414e+00	-9.166536e+01
7.500000e-07	-9.837783e-07	-1.291692e-09	-8.309662e+00	-8.684120e+01
7.600000e-07	-8.570407e-07	-1.215715e-09	-7.239150e+00	-8.177103e+01
7.700000e-07	-7.300361e-07	-1.129723e-09	-6.166382e+00	-7.642214e+01
7.800000e-07	-6.028051e-07	-1.038731e-09	-5.091702e+00	-7.075748e+01
7.900000e-07	-4.753828e-07	-9.463056e-10	-4.015407e+00	-6.473774e+01
8.000000e-07	-3.477982e-07	-8.491627e-10	-2.937740e+00	-5.832413e+01
8.100000e-07	-2.200524e-07	-7.439138e-10	-1.858713e+00	-5.148182e+01
8.200000e-07	-9.224643e-08	-6.331296e-10	-7.791762e-01	-4.418377e+01
8.300000e-07	3.554386e-08	-5.138163e-10	3.002277e-01	-3.641445e+01
8.400000e-07	1.633545e-07	-3.860165e-10	1.379803e+00	-2.817328e+01
8.500000e-07	2.911141e-07	-2.516426e-10	2.458948e+00	-1.947729e+01
8.600000e-07	4.187318e-07	-1.141439e-10	3.536894e+00	-1.036268e+01
8.700000e-07	5.461453e-07	2.712623e-11	4.613115e+00	-8.850758e-01
8.800000e-07	6.732959e-07	1.754682e-10	5.687116e+00	8.881623e+00
8.900000e-07	8.002411e-07	3.265660e-10	6.759382e+00	1.884788e+01
9.000000e-07	9.270329e-07	4.783400e-10	7.830351e+00	2.891239e+01
9.100000e-07	1.053587e-06	6.313922e-10	8.899310e+00	3.896697e+01
9.200000e-07	1.179826e-06	7.860001e-10	9.965612e+00	4.890204e+01
9.300000e-07	1.305701e-06	9.364042e-10	1.102884e+01	5.861228e+01
9.400000e-07	1.431087e-06	1.078029e-09	1.208793e+01	6.800198e+01
9.500000e-07	1.555929e-06	1.212005e-09	1.314244e+01	7.698962e+01
9.600000e-07	1.680327e-06	1.339925e-09	1.419319e+01	8.551140e+01
9.700000e-07	1.804266e-06	1.460364e-09	1.524006e+01	9.352334e+01
9.800000e-07	1.927609e-06	1.571228e-09	1.628190e+01	1.010019e+02
9.900000e-07	2.050246e-06	1.673515e-09	1.731777e+01	1.079433e+02
1.000000e-06	2.172066e-06	1.768538e-09	1.834675e+01	1.143610e+02
1.010000e-06	2.292976e-06	1.857750e-09	1.936804e+01	1.202831e+02
1.020000e-06	2.412936e-06	1.938807e-09	2.038130e+01	1.257481e+02
1.030000e-06	2.532021e-06	2.014849e-09	2.138717e+01	1.308009e+02
1.040000e-06	2.650299e-06	2.085001e-09	2.238623e+01	1.354890e+02
1.050000e-06	2.767682e-06	2.151557e-09	2.337773e+01	1.398585e+02
1.060000e-06	2.884116e-06	2.215709e-09	2.436121e+01	1.439520e+02
1.070000e-06	2.999485e-06	2.274404e-09	2.533569e+01	1.478060e+02
1.080000e-06	3.113575e-06	2.327416e-09	2.629938e+01	1.514505e+02
1.090000e-06	3.226285e-06	2.377064e-09	2.725141e+01	1.549085e+02
1.100000e-06	3.337693e-06	2.425105e-09	2.819243e+01	1.581970e+02
1.110000e-06	3.448005e-06	2.470739e-09	2.912420e+01	1.613282e+02
1.120000e-06	3.557267e-06	2.515432e-09	3.004710e+01	1.643106e+02
1.130000e-06	3.665373e-06	2.559053e-09	3.096024e+01	1.671508e+02
1.140000e-06	3.772231e-06	2.599998e-09	3.186283e+01	1.698551e+02
1.150000e-06	3.877626e-06	2.637115e-09	3.275307e+01	1.724299e+02
1.160000e-06	3.981434e-06	2.674929e-09	3.362991e+01	1.748826e+02
1.170000e-06	4.083847e-06	2.711376e-09	3.449496e+01	1.772220e+02
1.180000e-06	4.184907e-06	2.743443e-09	3.534858e+01	1.794575e+02
1.190000e-06	4.284526e-06	2.773144e-09	3.619003e+01	1.815990e+02
1.200000e-06	4.382616e-06	2.802710e-09	3.701856e+01	1.836558e+02
1.210000e-06	4.478953e-06	2.830719e-09	3.783229e+01	1.856365e+02
1.220000e-06	4.573572e-06	2.856962e-09	3.863151e+01	1.875480e+02
1.230000e-06	4.666698e-06	2.883302e-09	3.941811e+01	1.893951e+02
1.240000e-06	4.758320e-06	2.911433e-09	4.019201e+01	1.911807e+02
1.250000e-06	4.848279e-06	2.937683e-09	4.095187e+01	1.929059e+02
1.260000e-06	4.936448e-06	2.959930e-09	4.169660e+01	1.945705e+02
1.270000e-06	5.022836e-06	2.981113e-09	4.242630e+01	1.961734e+02
1.280000e-06	5.107515e-06	3.002291e-09	4.314155e+01	1.977133e+02
1.290000e-06	5.190527e-06	3.022246e-09	4.384273e+01	1.991892e+02
1.300000e-06	5.271732e-06	3.039482e-09	4.452864e+01	2.006012e+02
1.310000e-06	5.351005e-06	3.056774e-09	4.519823e+01	2.019502e+02
1.320000e-06	5.428348e-06	3.076242e-09	4.585153e+01	2.032380e+02
1.330000e-06	5.503632e-06	3.095414e-09	4.648743e+01	2.044677e+02
1.340000e-06	5.576723e-06	3.111569e-09	4.710480e+01	2.056424e+02
1.350000e-06	5.647729e-06	3.126338e-09	4.770457e+01	2.067654e+02
1.360000e-06	5.716822e-06	3.142304e-09	4.828817e+01	2.078397e+02
1.370000e-06	5.783927e-06	3.158249e-09	4.885499e+01	2.088672e+02
1.380000e-06	5.848881e-06	3.172743e-09	4.940363e+01	2.098490e+02
1.390000e-06	5.911775e-06	3.185541e-09	4.993488e+01	2.107852e+02
1.400000e-06	5.972758e-06	3.197311e-09	5.044998e+01	2.116750e+02
1.410000e-06	6.031723e-06	3.208351e-09	5.094804e+01	2.125171e+02
1.420000e-06	6.088491e-06	3.217623e-09	5.142754e+01	2.133101e+02
1.430000e-06	6.143074e-06	3.226036e-09	5.188859e+01	2.140529e+02
1.440000e-06	6.195352e-06	3.234773e-09	5.233017e+01	2.147456e+02
1.450000e-06	6.244961e-06	3.245025e-09	5.274919e+01	2.153891e+02
1.460000e-06	6.292061e-06	3.255635e-09	5.314704e+01	2.159857e+02
1.470000e-06	6.337018e-06	3.264644e-09	5.352677e+01	2.165389e+02
1.480000e-06	6.379822e-06	3.272422e-09	5.388832e+01	2.170532e+02
1.490000e-06	6.420241e-06	3.278883e-09	5.422973e+01	2.175334e+02
1.500000e-06	6.458312e-06	3.284521e-09	5.455131e+01	2.179843e+02
1.510000e-06	6.494312e-06	3.289288e-09	5.485538e+01	2.184101e+02
1.520000e-06	6.528093e-06	3.294632e-09	5.514072e+01	2.188136e+02
1.530000e-06	6.559482e-06	3.299285e-09	5.540586e+01	2.191962e+02
1.540000e-06	6.588629e-06	3.302651e-09	5.565205e+01	2.195575e+02
1.550000e-06	6.615520e-06	3.308177e-09	5.587919e+01	2.198956e+02
1.560000e-06	6.639946e-06	3.314711e-09	5.608551e+01	2.202071e+02
1.570000e-06	6.661968e-06	3.319391e-09	5.627152e+01	2.204874e+02
1.580000e-06	6.681820e-06	3.322172e-09	5.643921e+01	2.207322e+02
1.590000e-06	6.699444e-06	3.324756e-09	5.658807e+01	2.209368e+02
1.600000e-06	6.714625e-06	3.325571e-09	5.671630e+01	2.210980e+02
1.610000e-06	6.727279e-06	3.325392e-09	5.682318e+01	2.212135e+02
1.620000e-06	6.737268e-06	3.326402e-09	5.690755e+01	2.212829e+02
1.630000e-06	6.744675e-06	3.327967e-09	5.697012e+01	2.213071e+02
1.640000e-06	6.749835e-06	3.328959e-09	5.701371e+01	2.212888e+02
1.650000e-06	6.752716e-06	3.329251e-09	5.703804e+01	2.212312e+02
1.660000e-06	6.753126e-06	3.332699e-09	5.704150e+01	2.211384e+02
1.670000e-06	6.751206e-06	3.331345e-09	5.702528e+01	2.210140e+02
1.680000e-06	6.747177e-06	3.328308e-09	5.699126e+01	2.208607e+02
1.690000e-06	6.740930e-06	3.326864e-09	5.693849e+01	2.206798e+02
1.700000e-06	6.732434e-06	3.326489e-09	5.686672e+01	2.204712e+02
1.710000e-06	6.721805e-06	3.324431e-09	5.677694e+01	2.202326e+02
1.720000e-06	6.708873e-06	3.322562e-09	5.666771e+01	2.199601e+02
1.730000e-06	6.693563e-06	3.339485e-09	5.653839e+01	2.196484e+02
1.740000e-06	6.676117e-06	3.345910e-09	5.639103e+01	2.192916e+02
1.750000e-06	6.656338e-06	3.308089e-09	5.622397e+01	2.188835e+02
1.760000e-06	6.633485e-06	3.321803e-09	5.603094e+01	2.184185e+02
1.770000e-06	6.607551e-06	3.327516e-09	5.581188e+01	2.178926e+02
1.780000e-06	6.579304e-06	3.284092e-09	5.557328e+01	2.173034e+02
1.790000e-06	6.549051e-06	3.307876e-09	5.531774e+01	2.166508e+02
1.800000e-06	6.517085e-06	3.303265e-09	5.504774e+01	2.159372e+02
1.810000e-06	6.483532e-06	3.207194e-09	5.476433e+01	2.151674e+02
1.820000e-06	6.447783e-06	3.282442e-09	5.446237e+01	2.143480e+02
1.830000e-06	6.409616e-06	3.257846e-09	5.413998e+01	2.134870e+02
1.840000e-06	6.369241e-06	3.169582e-09	5.379895e+01	2.125932e+02
1.850000e-06	6.326659e-06	3.220615e-09	5.343928e+01	2.116755e+02
1.860000e-06	6.281960e-06	3.165006e-09	5.306172e+01	2.107419e+02
1.870000e-06	6.234993e-06	3.212474e-09	5.266500e+01	2.097989e+02
1.880000e-06	6.185680e-06	3.184627e-09	5.224847e+01	2.088510e+02
1.890000e-06	6.134130e-06	3.112344e-09	5.181304e+01	2.079004e+02
1.900000e-06	6.079966e-06	3.154318e-09	5.135553e+01	2.069470e+02
1.910000e-06	6.023400e-06	3.094877e-09	5.087774e+01	2.059880e+02
1.920000e-06	5.964820e-06	3.140689e-09	5.038294e+01	2.050188e+02
1.930000e-06	5.904196e-06	3.142977e-09	4.987087e+01	2.040330e+02
1.940000e-06	5.841296e-06	3.049496e-09	4.933956e+01	2.030231e+02
1.950000e-06	5.776146e-06	3.061021e-09	4.878926e+01	2.019815e+02
1.960000e-06	5.709057e-06	3.061755e-09	4.822258e+01	2.009005e+02
1.970000e-06	5.639702e-06	3.083928e-09	4.763677e+01	1.997735e+02
1.980000e-06	5.568099e-06	2.990824e-09	4.703196e+01	1.985952e+02
1.990000e-06	5.494569e-06	2.993481e-09	4.641087e+01	1.973617e+02
2.000000e-06	5.419056e-06	3.026550e-09	4.577304e+01	1.960710e+02
2.010000e-06	5.341390e-06	2.964900e-09	4.511702e+01	1.947229e+02
2.020000e-06	5.261587e-06	2.967958e-09	4.444295e+01	1.933186e+02
2.030000e-06	5.179964e-06	2.919514e-09	4.375350e+01	1.918603e+02
2.040000e-06	5.096617e-06	2.911793e-09	4.304950e+01	1.903510e+02
2.050000e-06	5.011420e-06	2.889710e-09	4.232987e+01	1.887937e+02
2.060000e-06	4.924271e-06	2.890071e-09	4.159375e+01	1.871908e+02
2.070000e-06	4.835359e-06	2.858957e-09	4.084274e+01	1.855441e+02
2.080000e-06	4.744878e-06	2.793175e-09	4.007847e+01	1.838538e+02
2.090000e-06	4.652875e-06	2.795152e-09	3.930135e+01	1.821191e+02
2.100000e-06	4.559210e-06	2.781552e-09	3.851020e+01	1.803375e+02
2.110000e-06	4.463717e-06	2.754260e-09	3.770360e+01	1.785054e+02
2.120000e-06	4.366634e-06	2.689330e-09	3.688357e+01	1.766184e+02
2.130000e-06	4.268117e-06	2.670667e-09	3.605142e+01	1.746718e+02
2.140000e-06	4.168222e-06	2.660166e-09	3.520765e+01	1.726611e+02
2.150000e-06	4.066812e-06	2.630986e-09	3.435107e+01	1.705828e+02
2.160000e-06	3.963671e-06	2.593142e-09	3.347986e+01	1.684342e+02
2.170000e-06	3.859048e-06	2.555179e-09	3.259615e+01	1.662146e+02
2.180000e-06	3.753164e-06	2.530003e-09	3.170178e+01	1.639246e+02
2.190000e-06	3.646089e-06	2.491668e-09	3.079735e+01	1.615664e+02
2.200000e-06	3.537912e-06	2.459424e-09	2.988361e+01	1.591432e+02
2.210000e-06	3.428580e-06	2.415183e-09	2.896013e+01	1.566586e+02
2.220000e-06	3.317829e-06	2.372726e-09	2.802465e+01	1.541161e+02
2.230000e-06	3.205736e-06	2.331755e-09	2.707783e+01	1.515182e+02
2.240000e-06	3.092503e-06	2.300636e-09	2.612139e+01	1.488657e+02
2.250000e-06	2.978115e-06	2.257026e-09	2.515519e+01	1.461570e+02
2.260000e-06	2.862704e-06	2.205083e-09	2.418035e+01	1.433882e+02
2.270000e-06	2.746198e-06	2.164006e-09	2.319626e+01	1.405527e+02
2.280000e-06	2.628439e-06	2.132105e-09	2.220159e+01	1.376418e+02
2.290000e-06	2.509412e-06	2.091284e-09	2.119621e+01	1.346450e+02
2.300000e-06	2.389424e-06	2.034955e-09	2.018270e+01	1.315506e+02
2.310000e-06	2.268745e-06	1.984811e-09	1.916337e+01	1.283470e+02
2.320000e-06	2.147326e-06	1.935449e-09	1.813778e+01	1.250231e+02
2.330000e-06	2.025153e-06	1.883601e-09	1.710582e+01	1.215689e+02
2.340000e-06	1.902343e-06	1.828282e-09	1.606848e+01	1.179757e+02
2.350000e-06	1.778949e-06	1.774025e-09	1.502621e+01	1.142363e+02
2.360000e-06	1.654916e-06	1.714901e-09	1.397855e+01	1.103438e+02
2.370000e-06	1.530381e-06	1.655772e-09	1.292664e+01	1.062911e+02
2.380000e-06	1.405406e-06	1.596990e-09	1.187102e+01	1.020696e+02
2.390000e-06	1.279856e-06	1.527415e-09	1.081053e+01	9.766747e+01
2.400000e-06	1.153715e-06	1.449031e-09	9.745059e+00	9.306882e+01
2.410000e-06	1.027075e-06	1.371785e-09	8.675372e+00	8.825229e+01
2.420000e-06	8.999818e-07	1.298396e-09	7.601859e+00	8.319084e+01
2.430000e-06	7.724460e-07	1.218769e-09	6.524606e+00	7.785191e+01
2.440000e-06	6.445814e-07	1.130626e-09	5.444573e+00	7.219859e+01
2.450000e-06	5.165103e-07	1.038406e-09	4.362798e+00	6.619160e+01
2.460000e-06	3.882848e-07	9.434285e-10	3.279718e+00	5.979208e+01
2.470000e-06	2.599817e-07	8.435764e-10	2.195983e+00	5.296500e+01
2.480000e-06	1.316602e-07	7.357335e-10	1.112092e+00	4.568296e+01
2.490000e-06	3.278291e-09	6.183482e-10	2.769068e-02	3.792997e+01
2.500000e-06	-1.251659e-07	4.908654e-10	-1.057236e+00	2.970486e+01
2.510000e-06	-2.535631e-07	3.557454e-10	-2.141767e+00	2.102400e+01
2.520000e-06	-3.818587e-07	2.164046e-10	-3.225439e+00	1.192288e+01
2.530000e-06	-5.099944e-07	7.330320e-11	-4.307760e+00	2.456466e+00
2.540000e-06	-6.379639e-07	-7.612353e-11	-5.388678e+00	-7.301975e+00
2.550000e-06	-7.656887e-07	-2.292763e-10	-6.467528e+00	-1.726340e+01
2.560000e-06	-8.930571e-07	-3.809870e-10	-7.543369e+00	-2.732685e+01
2.570000e-06	-1.020045e-06	-5.307293e-10	-8.615991e+00	-3.738429e+01
2.580000e-06	-1.146590e-06	-6.817088e-10	-9.684882e+00	-4.732609e+01
2.590000e-06	-1.272619e-06	-8.338502e-10	-1.074941e+01	-5.704669e+01
2.600000e-06	-1.398078e-06	-9.823843e-10	-1.180912e+01	-6.644994e+01
2.610000e-06	-1.522978e-06	-1.123810e-09	-1.286411e+01	-7.545376e+01
2.620000e-06	-1.647247e-06	-1.255626e-09	-1.391377e+01	-8.399367e+01
2.630000e-06	-1.770876e-06	-1.377674e-09	-1.495802e+01	-9.202496e+01
2.640000e-06	-1.893927e-06	-1.492605e-09	-1.599740e+01	-9.952338e+01
2.650000e-06	-2.016339e-06	-1.601808e-09	-1.703137e+01	-1.064844e+02
2.660000e-06	-2.137990e-06	-1.699463e-09	-1.805892e+01	-1.129210e+02
2.670000e-06	-2.258948e-06	-1.785333e-09	-1.908061e+01	-1.188608e+02
2.680000e-06	-2.379225e-06	-1.868033e-09	-2.009655e+01	-1.243420e+02
2.690000e-06	-2.498582e-06	-1.949230e-09	-2.110473e+01	-1.294094e+02
2.700000e-06	-2.616942e-06	-2.024995e-09	-2.210448e+01	-1.341102e+02
2.710000e-06	-2.734161e-06	-2.092022e-09	-2.309459e+01	-1.384910e+02
2.720000e-06	-2.850218e-06	-2.155403e-09	-2.407488e+01	-1.425943e+02
2.730000e-06	-2.965205e-06	-2.219831e-09	-2.504614e+01	-1.464569e+02
2.740000e-06	-3.078947e-06	-2.280484e-09	-2.600689e+01	-1.501090e+02
2.750000e-06	-3.191344e-06	-2.334155e-09	-2.695627e+01	-1.535739e+02
2.760000e-06	-3.302426e-06	-2.381972e-09	-2.789454e+01	-1.568689e+02
2.770000e-06	-3.412299e-06	-2.428607e-09	-2.882261e+01	-1.600062e+02
2.780000e-06	-3.521084e-06	-2.474737e-09	-2.974147e+01	-1.629943e+02
2.790000e-06	-3.628770e-06	-2.518101e-09	-3.065107e+01	-1.658402e+02
2.800000e-06	-3.735267e-06	-2.558288e-09	-3.155061e+01	-1.685498e+02
2.810000e-06	-3.840486e-06	-2.597813e-09	-3.243936e+01	-1.711297e+02
2.820000e-06	-3.944308e-06	-2.639932e-09	-3.331632e+01	-1.735873e+02
2.830000e-06	-4.046533e-06	-2.681818e-09	-3.417977e+01	-1.759311e+02
2.840000e-06	-4.147156e-06	-2.718858e-09	-3.502971e+01	-1.781708e+02
2.850000e-06	-4.246440e-06	-2.752118e-09	-3.586833e+01	-1.803160e+02
2.860000e-06	-4.344413e-06	-2.784964e-09	-3.669587e+01	-1.823764e+02
2.870000e-06	-4.440878e-06	-2.816708e-09	-3.751068e+01	-1.843603e+02
2.880000e-06	-4.535738e-06	-2.846077e-09	-3.831194e+01	-1.862747e+02
2.890000e-06	-4.628885e-06	-2.874655e-09	-3.909872e+01	-1.881247e+02
2.900000e-06	-4.720389e-06	-2.903310e-09	-3.987162e+01	-1.899130e+02
2.910000e-06	-4.810323e-06	-2.932407e-09	-4.063126e+01	-1.916411e+02
2.920000e-06	-4.898550e-06	-2.960645e-09	-4.137649e+01	-1.933084e+02
2.930000e-06	-4.984946e-06	-2.988944e-09	-4.210625e+01	-1.949142e+02
2.940000e-06	-5.069508e-06	-3.016060e-09	-4.282052e+01	-1.964569e+02
