# Temperatura_=_20.0
# Concentracion g/m^3_=_9000.0
# C_Vs_to_Am_M_A/Vsm_=_65563218390.804596
# pendiente_HvsI_1/m_=_3716.3
# ordenada_HvsI_A/m_=_1297.0
# frecuencia_Hz_=_301148.26684951305

Tiempo_(s)	Campo_(V.s)	Magnetizacion_(V.s)	Campo_(kA/m)	Magnetizacion_(A/m)
0.000000e+00	-6.718891e-06	-4.871235e-09	-5.668718e+01	-3.196246e+02
1.000000e-08	-6.716736e-06	-4.876469e-09	-5.666900e+01	-3.195277e+02
2.000000e-08	-6.712328e-06	-4.872205e-09	-5.663181e+01	-3.194143e+02
3.000000e-08	-6.705884e-06	-4.867615e-09	-5.657744e+01	-3.192875e+02
4.000000e-08	-6.697237e-06	-4.863824e-09	-5.650449e+01	-3.191478e+02
5.000000e-08	-6.686096e-06	-4.857491e-09	-5.641049e+01	-3.189926e+02
6.000000e-08	-6.672401e-06	-4.851133e-09	-5.629494e+01	-3.188169e+02
7.000000e-08	-6.656326e-06	-4.834149e-09	-5.615932e+01	-3.186138e+02
8.000000e-08	-6.638164e-06	-4.826056e-09	-5.600609e+01	-3.183755e+02
9.000000e-08	-6.617920e-06	-4.907331e-09	-5.583529e+01	-3.180941e+02
1.000000e-07	-6.595173e-06	-4.938452e-09	-5.564337e+01	-3.177627e+02
1.100000e-07	-6.569616e-06	-4.870347e-09	-5.542775e+01	-3.173764e+02
1.200000e-07	-6.541565e-06	-4.811491e-09	-5.519108e+01	-3.169324e+02
1.300000e-07	-6.511463e-06	-4.787589e-09	-5.493711e+01	-3.164305e+02
1.400000e-07	-6.479543e-06	-4.734000e-09	-5.466780e+01	-3.158729e+02
1.500000e-07	-6.445728e-06	-4.813814e-09	-5.438250e+01	-3.152638e+02
1.600000e-07	-6.409781e-06	-4.901183e-09	-5.407922e+01	-3.146090e+02
1.700000e-07	-6.371736e-06	-4.692536e-09	-5.375823e+01	-3.139148e+02
1.800000e-07	-6.331575e-06	-4.770955e-09	-5.341940e+01	-3.131876e+02
1.900000e-07	-6.288938e-06	-4.826002e-09	-5.305967e+01	-3.124329e+02
2.000000e-07	-6.243893e-06	-4.712258e-09	-5.267963e+01	-3.116550e+02
2.100000e-07	-6.196611e-06	-4.782387e-09	-5.228071e+01	-3.108567e+02
2.200000e-07	-6.146686e-06	-4.717193e-09	-5.185949e+01	-3.100388e+02
2.300000e-07	-6.094183e-06	-4.694661e-09	-5.141653e+01	-3.092008e+02
2.400000e-07	-6.039476e-06	-4.720831e-09	-5.095496e+01	-3.083405e+02
2.500000e-07	-5.982531e-06	-4.704822e-09	-5.047452e+01	-3.074547e+02
2.600000e-07	-5.923351e-06	-4.699271e-09	-4.997522e+01	-3.065394e+02
2.700000e-07	-5.862050e-06	-4.632148e-09	-4.945803e+01	-3.055902e+02
2.800000e-07	-5.798697e-06	-4.632028e-09	-4.892352e+01	-3.046026e+02
2.900000e-07	-5.733237e-06	-4.651806e-09	-4.837123e+01	-3.035723e+02
3.000000e-07	-5.665619e-06	-4.646446e-09	-4.780074e+01	-3.024952e+02
3.100000e-07	-5.595887e-06	-4.594444e-09	-4.721241e+01	-3.013678e+02
3.200000e-07	-5.524189e-06	-4.540787e-09	-4.660749e+01	-3.001869e+02
3.300000e-07	-5.450487e-06	-4.593278e-09	-4.598567e+01	-2.989498e+02
3.400000e-07	-5.374524e-06	-4.543992e-09	-4.534478e+01	-2.976545e+02
3.500000e-07	-5.296316e-06	-4.497013e-09	-4.468493e+01	-2.962993e+02
3.600000e-07	-5.216051e-06	-4.502360e-09	-4.400774e+01	-2.948831e+02
3.700000e-07	-5.133941e-06	-4.471982e-09	-4.331498e+01	-2.934054e+02
3.800000e-07	-5.050131e-06	-4.442396e-09	-4.260787e+01	-2.918660e+02
3.900000e-07	-4.964702e-06	-4.422225e-09	-4.188711e+01	-2.902650e+02
4.000000e-07	-4.877658e-06	-4.419301e-09	-4.115272e+01	-2.886028e+02
4.100000e-07	-4.788864e-06	-4.358798e-09	-4.040357e+01	-2.868793e+02
4.200000e-07	-4.698253e-06	-4.333871e-09	-3.963909e+01	-2.850942e+02
4.300000e-07	-4.605966e-06	-4.337111e-09	-3.886046e+01	-2.832466e+02
4.400000e-07	-4.512095e-06	-4.297477e-09	-3.806848e+01	-2.813344e+02
4.500000e-07	-4.416612e-06	-4.245532e-09	-3.726288e+01	-2.793549e+02
4.600000e-07	-4.319450e-06	-4.218842e-09	-3.644314e+01	-2.773039e+02
4.700000e-07	-4.220634e-06	-4.206502e-09	-3.560943e+01	-2.751766e+02
4.800000e-07	-4.120373e-06	-4.153393e-09	-3.476352e+01	-2.729676e+02
4.900000e-07	-4.018757e-06	-4.113473e-09	-3.390619e+01	-2.706712e+02
5.000000e-07	-3.915634e-06	-4.088523e-09	-3.303615e+01	-2.682821e+02
5.100000e-07	-3.811032e-06	-4.052088e-09	-3.215362e+01	-2.657958e+02
5.200000e-07	-3.704985e-06	-3.999409e-09	-3.125890e+01	-2.632087e+02
5.300000e-07	-3.597542e-06	-3.958494e-09	-3.035241e+01	-2.605186e+02
5.400000e-07	-3.488917e-06	-3.924108e-09	-2.943594e+01	-2.577244e+02
5.500000e-07	-3.379176e-06	-3.873489e-09	-2.851006e+01	-2.548259e+02
5.600000e-07	-3.268251e-06	-3.830040e-09	-2.757419e+01	-2.518231e+02
5.700000e-07	-3.156038e-06	-3.789071e-09	-2.662745e+01	-2.487153e+02
5.800000e-07	-3.042435e-06	-3.739631e-09	-2.566898e+01	-2.455007e+02
5.900000e-07	-2.927483e-06	-3.683159e-09	-2.469913e+01	-2.421752e+02
6.000000e-07	-2.811399e-06	-3.639623e-09	-2.371973e+01	-2.387318e+02
6.100000e-07	-2.694388e-06	-3.589134e-09	-2.273251e+01	-2.351603e+02
6.200000e-07	-2.576515e-06	-3.525350e-09	-2.173802e+01	-2.314474e+02
6.300000e-07	-2.457668e-06	-3.460808e-09	-2.073531e+01	-2.275768e+02
6.400000e-07	-2.337848e-06	-3.399118e-09	-1.972439e+01	-2.235300e+02
6.500000e-07	-2.217282e-06	-3.334680e-09	-1.870717e+01	-2.192871e+02
6.600000e-07	-2.095973e-06	-3.259863e-09	-1.768369e+01	-2.148276e+02
6.700000e-07	-1.973743e-06	-3.186851e-09	-1.665244e+01	-2.101312e+02
6.800000e-07	-1.850707e-06	-3.116769e-09	-1.561438e+01	-2.051784e+02
6.900000e-07	-1.726975e-06	-3.041455e-09	-1.457046e+01	-1.999498e+02
7.000000e-07	-1.602644e-06	-2.953320e-09	-1.352148e+01	-1.944261e+02
7.100000e-07	-1.477872e-06	-2.864297e-09	-1.246879e+01	-1.885864e+02
7.200000e-07	-1.352692e-06	-2.772406e-09	-1.141264e+01	-1.824064e+02
7.300000e-07	-1.226980e-06	-2.670582e-09	-1.035201e+01	-1.758568e+02
7.400000e-07	-1.100776e-06	-2.561742e-09	-9.287233e+00	-1.689010e+02
7.500000e-07	-9.742099e-07	-2.449338e-09	-8.219394e+00	-1.614937e+02
7.600000e-07	-8.472665e-07	-2.326707e-09	-7.148374e+00	-1.535808e+02
7.700000e-07	-7.199968e-07	-2.189453e-09	-6.074602e+00	-1.450991e+02
7.800000e-07	-5.924280e-07	-2.050326e-09	-4.998306e+00	-1.359792e+02
7.900000e-07	-4.646523e-07	-1.902282e-09	-3.920264e+00	-1.261481e+02
8.000000e-07	-3.367586e-07	-1.737563e-09	-2.841227e+00	-1.155349e+02
8.100000e-07	-2.087237e-07	-1.559339e-09	-1.760998e+00	-1.040767e+02
8.200000e-07	-8.063497e-08	-1.371686e-09	-6.803160e-01	-9.172494e+01
8.300000e-07	4.746293e-08	-1.166659e-09	4.004440e-01	-7.845317e+01
8.400000e-07	1.755786e-07	-9.434891e-10	1.481354e+00	-6.426277e+01
8.500000e-07	3.036299e-07	-7.113584e-10	2.561721e+00	-4.918835e+01
8.600000e-07	4.315553e-07	-4.715930e-10	3.641025e+00	-3.330090e+01
8.700000e-07	5.593622e-07	-2.222458e-10	4.719330e+00	-1.670853e+01
8.800000e-07	6.869829e-07	3.766103e-11	5.796064e+00	4.454305e-01
8.900000e-07	8.142744e-07	3.021843e-10	6.870020e+00	1.798710e+01
9.000000e-07	9.412285e-07	5.700466e-10	7.941130e+00	3.571927e+01
9.100000e-07	1.067867e-06	8.394011e-10	9.009578e+00	5.343067e+01
9.200000e-07	1.194124e-06	1.106434e-09	1.007480e+01	7.090647e+01
9.300000e-07	1.319930e-06	1.367097e-09	1.113623e+01	8.793940e+01
9.400000e-07	1.445299e-06	1.617995e-09	1.219396e+01	1.043403e+02
9.500000e-07	1.570251e-06	1.855187e-09	1.324818e+01	1.199475e+02
9.600000e-07	1.694741e-06	2.073529e-09	1.429850e+01	1.346341e+02
9.700000e-07	1.818716e-06	2.276099e-09	1.534448e+01	1.483121e+02
9.800000e-07	1.942167e-06	2.464373e-09	1.638603e+01	1.609348e+02
9.900000e-07	2.064942e-06	2.636546e-09	1.742189e+01	1.724950e+02
1.000000e-06	2.186767e-06	2.792402e-09	1.844972e+01	1.830212e+02
1.010000e-06	2.307635e-06	2.937413e-09	1.946948e+01	1.925714e+02
1.020000e-06	2.427718e-06	3.070546e-09	2.048262e+01	2.012256e+02
1.030000e-06	2.546981e-06	3.190828e-09	2.148884e+01	2.090775e+02
1.040000e-06	2.665286e-06	3.301660e-09	2.248697e+01	2.162265e+02
1.050000e-06	2.782616e-06	3.404868e-09	2.347689e+01	2.227698e+02
1.060000e-06	2.899009e-06	3.499032e-09	2.445890e+01	2.287973e+02
1.070000e-06	3.014319e-06	3.582672e-09	2.543176e+01	2.343865e+02
1.080000e-06	3.128303e-06	3.659030e-09	2.639344e+01	2.396012e+02
1.090000e-06	3.240967e-06	3.730113e-09	2.734399e+01	2.444904e+02
1.100000e-06	3.352409e-06	3.798946e-09	2.828422e+01	2.490895e+02
1.110000e-06	3.462675e-06	3.864297e-09	2.921453e+01	2.534232e+02
1.120000e-06	3.571817e-06	3.925238e-09	3.013537e+01	2.575078e+02
1.130000e-06	3.679886e-06	3.982524e-09	3.104714e+01	2.613545e+02
1.140000e-06	3.786777e-06	4.037397e-09	3.194898e+01	2.649727e+02
1.150000e-06	3.892218e-06	4.088456e-09	3.283858e+01	2.683716e+02
1.160000e-06	3.996109e-06	4.136751e-09	3.371511e+01	2.715622e+02
1.170000e-06	4.098493e-06	4.180076e-09	3.457892e+01	2.745573e+02
1.180000e-06	4.199435e-06	4.217375e-09	3.543057e+01	2.773719e+02
1.190000e-06	4.299034e-06	4.254472e-09	3.627088e+01	2.800217e+02
1.200000e-06	4.397090e-06	4.293519e-09	3.709818e+01	2.825227e+02
1.210000e-06	4.493384e-06	4.329657e-09	3.791061e+01	2.848893e+02
1.220000e-06	4.587999e-06	4.361568e-09	3.870888e+01	2.871338e+02
1.230000e-06	4.681041e-06	4.392944e-09	3.949387e+01	2.892656e+02
1.240000e-06	4.772614e-06	4.424069e-09	4.026647e+01	2.912909e+02
1.250000e-06	4.862491e-06	4.451651e-09	4.102476e+01	2.932136e+02
1.260000e-06	4.950486e-06	4.476634e-09	4.176718e+01	2.950355e+02
1.270000e-06	5.036729e-06	4.501211e-09	4.249480e+01	2.967578e+02
1.280000e-06	5.121320e-06	4.523631e-09	4.320850e+01	2.983817e+02
1.290000e-06	5.204260e-06	4.544142e-09	4.390826e+01	2.999095e+02
1.300000e-06	5.285326e-06	4.564041e-09	4.459221e+01	3.013456e+02
1.310000e-06	5.364396e-06	4.584728e-09	4.525933e+01	3.026961e+02
1.320000e-06	5.441579e-06	4.604771e-09	4.591051e+01	3.039687e+02
1.330000e-06	5.516754e-06	4.624095e-09	4.654477e+01	3.051724e+02
1.340000e-06	5.589783e-06	4.644041e-09	4.716092e+01	3.063163e+02
1.350000e-06	5.660780e-06	4.662049e-09	4.775991e+01	3.074086e+02
1.360000e-06	5.729808e-06	4.676874e-09	4.834230e+01	3.084559e+02
1.370000e-06	5.796793e-06	4.691920e-09	4.890745e+01	3.094621e+02
1.380000e-06	5.861621e-06	4.708503e-09	4.945441e+01	3.104287e+02
1.390000e-06	5.924363e-06	4.724142e-09	4.998376e+01	3.113541e+02
1.400000e-06	5.985197e-06	4.736473e-09	5.049701e+01	3.122349e+02
1.410000e-06	6.044094e-06	4.748110e-09	5.099393e+01	3.130664e+02
1.420000e-06	6.100757e-06	4.760350e-09	5.147199e+01	3.138436e+02
1.430000e-06	6.155156e-06	4.772271e-09	5.193095e+01	3.145626e+02
1.440000e-06	6.207277e-06	4.783512e-09	5.237070e+01	3.152216e+02
1.450000e-06	6.256764e-06	4.794423e-09	5.278822e+01	3.158211e+02
1.460000e-06	6.303693e-06	4.805221e-09	5.318416e+01	3.163648e+02
1.470000e-06	6.348474e-06	4.815155e-09	5.356198e+01	3.168589e+02
1.480000e-06	6.391111e-06	4.824025e-09	5.392171e+01	3.173118e+02
1.490000e-06	6.431375e-06	4.831629e-09	5.426141e+01	3.177330e+02
1.500000e-06	6.469345e-06	4.838543e-09	5.458176e+01	3.181319e+02
1.510000e-06	6.505209e-06	4.844751e-09	5.488435e+01	3.185165e+02
1.520000e-06	6.538794e-06	4.851705e-09	5.516771e+01	3.188925e+02
1.530000e-06	6.569986e-06	4.859177e-09	5.543087e+01	3.192628e+02
1.540000e-06	6.598996e-06	4.865652e-09	5.567563e+01	3.196265e+02
1.550000e-06	6.625805e-06	4.871403e-09	5.590181e+01	3.199798e+02
1.560000e-06	6.650054e-06	4.878479e-09	5.610640e+01	3.203161e+02
1.570000e-06	6.671833e-06	4.885558e-09	5.629015e+01	3.206271e+02
1.580000e-06	6.691513e-06	4.889569e-09	5.645619e+01	3.209043e+02
1.590000e-06	6.708943e-06	4.893550e-09	5.660325e+01	3.211397e+02
1.600000e-06	6.723853e-06	4.897566e-09	5.672904e+01	3.213273e+02
1.610000e-06	6.736254e-06	4.901554e-09	5.683367e+01	3.214635e+02
1.620000e-06	6.746048e-06	4.906036e-09	5.691630e+01	3.215481e+02
1.630000e-06	6.753253e-06	4.910794e-09	5.697709e+01	3.215837e+02
1.640000e-06	6.758152e-06	4.914357e-09	5.701842e+01	3.215755e+02
1.650000e-06	6.760740e-06	4.916799e-09	5.704026e+01	3.215303e+02
1.660000e-06	6.760887e-06	4.920865e-09	5.704150e+01	3.214558e+02
1.670000e-06	6.758781e-06	4.913688e-09	5.702373e+01	3.213591e+02
1.680000e-06	6.754624e-06	4.909422e-09	5.698866e+01	3.212457e+02
1.690000e-06	6.748185e-06	4.907343e-09	5.693433e+01	3.211189e+02
1.700000e-06	6.739481e-06	4.908152e-09	5.686090e+01	3.209792e+02
1.710000e-06	6.728680e-06	4.909108e-09	5.676977e+01	3.208241e+02
1.720000e-06	6.715534e-06	4.910740e-09	5.665886e+01	3.206488e+02
1.730000e-06	6.699946e-06	4.931575e-09	5.652734e+01	3.204463e+02
1.740000e-06	6.682237e-06	4.873305e-09	5.637793e+01	3.202089e+02
1.750000e-06	6.662237e-06	4.776195e-09	5.620919e+01	3.199287e+02
1.760000e-06	6.639065e-06	4.815525e-09	5.601369e+01	3.195987e+02
1.770000e-06	6.612767e-06	4.866109e-09	5.579182e+01	3.192140e+02
1.780000e-06	6.584287e-06	4.897211e-09	5.555153e+01	3.187715e+02
1.790000e-06	6.553837e-06	5.011991e-09	5.529462e+01	3.182712e+02
1.800000e-06	6.521660e-06	4.871307e-09	5.502314e+01	3.177150e+02
1.810000e-06	6.487881e-06	4.717245e-09	5.473815e+01	3.171072e+02
1.820000e-06	6.451821e-06	4.907660e-09	5.443391e+01	3.164534e+02
1.830000e-06	6.413466e-06	4.786859e-09	5.411032e+01	3.157601e+02
1.840000e-06	6.372877e-06	4.791244e-09	5.376786e+01	3.150334e+02
1.850000e-06	6.329907e-06	4.857883e-09	5.340532e+01	3.142791e+02
1.860000e-06	6.284909e-06	4.647023e-09	5.302568e+01	3.135016e+02
1.870000e-06	6.237700e-06	4.827636e-09	5.262738e+01	3.127034e+02
1.880000e-06	6.188155e-06	4.800697e-09	5.220937e+01	3.118858e+02
1.890000e-06	6.136329e-06	4.706771e-09	5.177212e+01	3.110480e+02
1.900000e-06	6.081833e-06	4.731076e-09	5.131233e+01	3.101881e+02
1.910000e-06	6.024984e-06	4.636025e-09	5.083270e+01	3.093028e+02
1.920000e-06	5.966116e-06	4.789263e-09	5.033603e+01	3.083881e+02
1.930000e-06	5.905125e-06	4.705719e-09	4.982145e+01	3.074397e+02
1.940000e-06	5.841919e-06	4.611872e-09	4.928818e+01	3.064531e+02
1.950000e-06	5.776512e-06	4.648897e-09	4.873634e+01	3.054239e+02
1.960000e-06	5.709094e-06	4.623084e-09	4.816754e+01	3.043481e+02
1.970000e-06	5.639494e-06	4.685463e-09	4.758032e+01	3.032220e+02
1.980000e-06	5.567683e-06	4.557642e-09	4.697445e+01	3.020426e+02
1.990000e-06	5.493794e-06	4.596211e-09	4.635105e+01	3.008071e+02
2.000000e-06	5.417866e-06	4.577508e-09	4.571045e+01	2.995134e+02
2.010000e-06	5.339901e-06	4.524135e-09	4.505266e+01	2.981598e+02
2.020000e-06	5.259848e-06	4.570263e-09	4.437726e+01	2.967453e+02
2.030000e-06	5.177952e-06	4.477096e-09	4.368630e+01	2.952693e+02
2.040000e-06	5.094254e-06	4.477477e-09	4.298014e+01	2.937317e+02
2.050000e-06	5.008778e-06	4.442836e-09	4.225899e+01	2.921324e+02
2.060000e-06	4.921459e-06	4.470144e-09	4.152227e+01	2.904718e+02
2.070000e-06	4.832248e-06	4.412875e-09	4.076960e+01	2.887500e+02
2.080000e-06	4.741427e-06	4.341109e-09	4.000335e+01	2.869667e+02
2.090000e-06	4.649027e-06	4.355752e-09	3.922377e+01	2.851208e+02
2.100000e-06	4.555014e-06	4.327647e-09	3.843058e+01	2.832106e+02
2.110000e-06	4.459248e-06	4.302841e-09	3.762261e+01	2.812330e+02
2.120000e-06	4.361849e-06	4.240523e-09	3.680085e+01	2.791842e+02
2.130000e-06	4.263074e-06	4.235165e-09	3.596749e+01	2.770592e+02
2.140000e-06	4.162856e-06	4.194738e-09	3.512195e+01	2.748527e+02
2.150000e-06	4.061140e-06	4.157901e-09	3.426378e+01	2.725591e+02
2.160000e-06	3.957854e-06	4.125198e-09	3.339235e+01	2.701729e+02
2.170000e-06	3.853051e-06	4.087838e-09	3.250813e+01	2.676896e+02
2.180000e-06	3.746966e-06	4.049589e-09	3.161310e+01	2.651057e+02
2.190000e-06	3.639714e-06	4.003785e-09	3.070821e+01	2.624188e+02
2.200000e-06	3.531198e-06	3.977114e-09	2.979266e+01	2.596279e+02
2.210000e-06	3.421456e-06	3.922167e-09	2.886677e+01	2.567326e+02
2.220000e-06	3.310429e-06	3.871494e-09	2.793004e+01	2.537330e+02
2.230000e-06	3.198149e-06	3.825472e-09	2.698274e+01	2.506286e+02
2.240000e-06	3.084704e-06	3.784528e-09	2.602560e+01	2.474173e+02
2.250000e-06	2.970048e-06	3.722907e-09	2.505825e+01	2.440954e+02
2.260000e-06	2.854221e-06	3.665979e-09	2.408102e+01	2.406558e+02
2.270000e-06	2.737293e-06	3.620874e-09	2.309450e+01	2.370886e+02
2.280000e-06	2.619311e-06	3.570016e-09	2.209908e+01	2.333806e+02
2.290000e-06	2.500158e-06	3.507438e-09	2.109380e+01	2.295155e+02
2.300000e-06	2.379982e-06	3.442924e-09	2.007987e+01	2.254748e+02
2.310000e-06	2.258982e-06	3.386185e-09	1.905900e+01	2.212388e+02
2.320000e-06	2.137292e-06	3.316375e-09	1.803230e+01	2.167869e+02
2.330000e-06	2.014995e-06	3.238375e-09	1.700048e+01	2.120988e+02
2.340000e-06	1.892066e-06	3.163760e-09	1.596333e+01	2.071549e+02
2.350000e-06	1.768397e-06	3.089567e-09	1.491994e+01	2.019361e+02
2.360000e-06	1.643985e-06	3.004713e-09	1.387028e+01	1.964228e+02
2.370000e-06	1.519034e-06	2.919390e-09	1.281606e+01	1.905943e+02
2.380000e-06	1.393651e-06	2.830140e-09	1.175821e+01	1.844264e+02
2.390000e-06	1.267906e-06	2.727739e-09	1.069731e+01	1.778901e+02
2.400000e-06	1.141780e-06	2.619637e-09	9.633179e+00	1.709490e+02
2.410000e-06	1.015207e-06	2.509983e-09	8.565286e+00	1.635583e+02
2.420000e-06	8.881516e-07	2.391262e-09	7.493321e+00	1.556640e+02
2.430000e-06	7.606098e-07	2.258189e-09	6.417253e+00	1.472033e+02
2.440000e-06	6.327542e-07	2.121155e-09	5.338538e+00	1.381069e+02
2.450000e-06	5.046883e-07	1.977184e-09	4.258047e+00	1.283020e+02
2.460000e-06	3.764702e-07	1.815474e-09	3.176273e+00	1.177174e+02
2.470000e-06	2.481326e-07	1.640152e-09	2.093491e+00	1.062898e+02
2.480000e-06	1.196204e-07	1.458305e-09	1.009235e+00	9.397011e+01
2.490000e-06	-8.955086e-09	1.263423e-09	-7.555392e-02	8.073087e+01
2.500000e-06	-1.374758e-07	1.047729e-09	-1.159881e+00	6.657240e+01
2.510000e-06	-2.659299e-07	8.179732e-10	-2.243646e+00	5.152807e+01
2.520000e-06	-3.942815e-07	5.771589e-10	-3.326547e+00	3.566752e+01
2.530000e-06	-5.225164e-07	3.242120e-10	-4.408463e+00	1.909757e+01
2.540000e-06	-6.505418e-07	6.092284e-11	-5.488611e+00	1.960356e+00
2.550000e-06	-7.782329e-07	-2.070330e-10	-6.565939e+00	-1.557123e+01
2.560000e-06	-9.055265e-07	-4.783622e-10	-7.639913e+00	-3.330067e+01
2.570000e-06	-1.032341e-06	-7.517988e-10	-8.709848e+00	-5.101701e+01
2.580000e-06	-1.158689e-06	-1.021284e-09	-9.775842e+00	-6.850535e+01
2.590000e-06	-1.284596e-06	-1.282790e-09	-1.083812e+01	-8.555798e+01
2.600000e-06	-1.410096e-06	-1.535950e-09	-1.189696e+01	-1.019849e+02
2.610000e-06	-1.535187e-06	-1.779482e-09	-1.295234e+01	-1.176234e+02
2.620000e-06	-1.659755e-06	-2.007477e-09	-1.400333e+01	-1.323450e+02
2.630000e-06	-1.783658e-06	-2.217070e-09	-1.504870e+01	-1.460606e+02
2.640000e-06	-1.906788e-06	-2.410389e-09	-1.608754e+01	-1.587219e+02
2.650000e-06	-2.029195e-06	-2.588987e-09	-1.712029e+01	-1.703202e+02
2.660000e-06	-2.150959e-06	-2.750022e-09	-1.814761e+01	-1.808830e+02
2.670000e-06	-2.272054e-06	-2.892618e-09	-1.916929e+01	-1.904672e+02
2.680000e-06	-2.392375e-06	-3.023755e-09	-2.018443e+01	-1.991523e+02
2.690000e-06	-2.511701e-06	-3.146325e-09	-2.119118e+01	-2.070317e+02
2.700000e-06	-2.629921e-06	-3.259383e-09	-2.218861e+01	-2.142046e+02
2.710000e-06	-2.747133e-06	-3.362492e-09	-2.317751e+01	-2.207684e+02
2.720000e-06	-2.863298e-06	-3.455469e-09	-2.415760e+01	-2.268133e+02
2.730000e-06	-2.978313e-06	-3.541886e-09	-2.512798e+01	-2.324176e+02
2.740000e-06	-3.092014e-06	-3.624371e-09	-2.608727e+01	-2.376452e+02
2.750000e-06	-3.204380e-06	-3.702354e-09	-2.703530e+01	-2.425458e+02
2.760000e-06	-3.315523e-06	-3.772410e-09	-2.797302e+01	-2.471553e+02
2.770000e-06	-3.425417e-06	-3.836633e-09	-2.890019e+01	-2.514986e+02
2.780000e-06	-3.534233e-06	-3.898895e-09	-2.981827e+01	-2.555923e+02
2.790000e-06	-3.642005e-06	-3.957651e-09	-3.072754e+01	-2.594479e+02
2.800000e-06	-3.748514e-06	-4.011731e-09	-3.162615e+01	-2.630746e+02
2.810000e-06	-3.853722e-06	-4.064950e-09	-3.251379e+01	-2.664816e+02
2.820000e-06	-3.957506e-06	-4.117552e-09	-3.338942e+01	-2.696799e+02
2.830000e-06	-4.059714e-06	-4.166632e-09	-3.425174e+01	-2.726823e+02
2.840000e-06	-4.160473e-06	-4.212803e-09	-3.510185e+01	-2.755035e+02
2.850000e-06	-4.259826e-06	-4.257060e-09	-3.594008e+01	-2.781594e+02
2.860000e-06	-4.357739e-06	-4.298314e-09	-3.676617e+01	-2.806660e+02
2.870000e-06	-4.454203e-06	-4.336323e-09	-3.758004e+01	-2.830376e+02
2.880000e-06	-4.549060e-06	-4.372048e-09	-3.838035e+01	-2.852868e+02
2.890000e-06	-4.642237e-06	-4.405050e-09	-3.916648e+01	-2.874229e+02
2.900000e-06	-4.733825e-06	-4.437088e-09	-3.993921e+01	-2.894525e+02
2.910000e-06	-4.823813e-06	-4.467856e-09	-4.069844e+01	-2.913793e+02
2.920000e-06	-4.912043e-06	-4.497391e-09	-4.144283e+01	-2.932053e+02
2.930000e-06	-4.998335e-06	-4.524757e-09	-4.217087e+01	-2.949316e+02
2.940000e-06	-5.082811e-06	-4.550006e-09	-4.288360e+01	-2.965594e+02
