# Temperatura_=_20.0
# Concentracion g/m^3_=_9000.0
# C_Vs_to_Am_M_A/Vsm_=_65563218390.804596
# pendiente_HvsI_1/m_=_3716.3
# ordenada_HvsI_A/m_=_1297.0
# frecuencia_Hz_=_301144.85381457716

Tiempo_(s)	Campo_(V.s)	Magnetizacion_(V.s)	Campo_(kA/m)	Magnetizacion_(A/m)
0.000000e+00	-6.745469e-06	-4.840320e-09	-5.668872e+01	-3.165477e+02
1.000000e-08	-6.743419e-06	-4.843096e-09	-5.667149e+01	-3.164675e+02
2.000000e-08	-6.739044e-06	-4.839548e-09	-5.663473e+01	-3.163700e+02
3.000000e-08	-6.732597e-06	-4.834230e-09	-5.658054e+01	-3.162557e+02
4.000000e-08	-6.723973e-06	-4.829137e-09	-5.650807e+01	-3.161226e+02
5.000000e-08	-6.712927e-06	-4.822619e-09	-5.641523e+01	-3.159664e+02
6.000000e-08	-6.699383e-06	-4.816965e-09	-5.630141e+01	-3.157809e+02
7.000000e-08	-6.683407e-06	-4.801743e-09	-5.616715e+01	-3.155589e+02
8.000000e-08	-6.665272e-06	-4.785938e-09	-5.601474e+01	-3.152931e+02
9.000000e-08	-6.645005e-06	-4.842519e-09	-5.584442e+01	-3.149766e+02
1.000000e-07	-6.622242e-06	-4.866931e-09	-5.565312e+01	-3.146043e+02
1.100000e-07	-6.596725e-06	-4.808242e-09	-5.543868e+01	-3.141731e+02
1.200000e-07	-6.568688e-06	-4.764259e-09	-5.520306e+01	-3.136822e+02
1.300000e-07	-6.538536e-06	-4.765876e-09	-5.494966e+01	-3.131335e+02
1.400000e-07	-6.506567e-06	-4.727145e-09	-5.468099e+01	-3.125308e+02
1.500000e-07	-6.472711e-06	-4.756542e-09	-5.439647e+01	-3.118799e+02
1.600000e-07	-6.436735e-06	-4.839233e-09	-5.409413e+01	-3.111876e+02
1.700000e-07	-6.398673e-06	-4.674394e-09	-5.377426e+01	-3.104610e+02
1.800000e-07	-6.358437e-06	-4.701735e-09	-5.343611e+01	-3.097071e+02
1.900000e-07	-6.315734e-06	-4.774618e-09	-5.307724e+01	-3.089315e+02
2.000000e-07	-6.270632e-06	-4.689847e-09	-5.269821e+01	-3.081390e+02
2.100000e-07	-6.223316e-06	-4.706994e-09	-5.230056e+01	-3.073322e+02
2.200000e-07	-6.173409e-06	-4.656161e-09	-5.188114e+01	-3.065123e+02
2.300000e-07	-6.120897e-06	-4.674253e-09	-5.143984e+01	-3.056786e+02
2.400000e-07	-6.066089e-06	-4.684665e-09	-5.097923e+01	-3.048289e+02
2.500000e-07	-6.008960e-06	-4.630652e-09	-5.049912e+01	-3.039597e+02
2.600000e-07	-5.949643e-06	-4.645263e-09	-5.000062e+01	-3.030667e+02
2.700000e-07	-5.888233e-06	-4.601416e-09	-4.948453e+01	-3.021447e+02
2.800000e-07	-5.824746e-06	-4.570416e-09	-4.895099e+01	-3.011882e+02
2.900000e-07	-5.759157e-06	-4.590942e-09	-4.839979e+01	-3.001918e+02
3.000000e-07	-5.691408e-06	-4.599735e-09	-4.783042e+01	-2.991500e+02
3.100000e-07	-5.621517e-06	-4.540256e-09	-4.724306e+01	-2.980579e+02
3.200000e-07	-5.549650e-06	-4.484388e-09	-4.663909e+01	-2.969109e+02
3.300000e-07	-5.475783e-06	-4.551774e-09	-4.601832e+01	-2.957057e+02
3.400000e-07	-5.399608e-06	-4.503241e-09	-4.537814e+01	-2.944394e+02
3.500000e-07	-5.321170e-06	-4.431259e-09	-4.471895e+01	-2.931107e+02
3.600000e-07	-5.240684e-06	-4.445953e-09	-4.404255e+01	-2.917190e+02
3.700000e-07	-5.158362e-06	-4.435022e-09	-4.335072e+01	-2.902651e+02
3.800000e-07	-5.074350e-06	-4.391168e-09	-4.264468e+01	-2.887504e+02
3.900000e-07	-4.988682e-06	-4.356531e-09	-4.192473e+01	-2.871772e+02
4.000000e-07	-4.901426e-06	-4.364314e-09	-4.119144e+01	-2.855477e+02
4.100000e-07	-4.812419e-06	-4.314365e-09	-4.044342e+01	-2.838637e+02
4.200000e-07	-4.721543e-06	-4.279634e-09	-3.967971e+01	-2.821263e+02
4.300000e-07	-4.628939e-06	-4.278900e-09	-3.890146e+01	-2.803353e+02
4.400000e-07	-4.534662e-06	-4.248027e-09	-3.810916e+01	-2.784884e+02
4.500000e-07	-4.438799e-06	-4.198209e-09	-3.730353e+01	-2.765817e+02
4.600000e-07	-4.341309e-06	-4.169815e-09	-3.648423e+01	-2.746095e+02
4.700000e-07	-4.242182e-06	-4.161312e-09	-3.565117e+01	-2.725643e+02
4.800000e-07	-4.141543e-06	-4.110804e-09	-3.480540e+01	-2.704378e+02
4.900000e-07	-4.039482e-06	-4.064897e-09	-3.394768e+01	-2.682214e+02
5.000000e-07	-3.936026e-06	-4.040981e-09	-3.307824e+01	-2.659069e+02
5.100000e-07	-3.831087e-06	-4.011877e-09	-3.219634e+01	-2.634873e+02
5.200000e-07	-3.724656e-06	-3.960127e-09	-3.130190e+01	-2.609575e+02
5.300000e-07	-3.616888e-06	-3.915994e-09	-3.039622e+01	-2.583142e+02
5.400000e-07	-3.507882e-06	-3.884879e-09	-2.948014e+01	-2.555566e+02
5.500000e-07	-3.397717e-06	-3.840711e-09	-2.855431e+01	-2.526851e+02
5.600000e-07	-3.286413e-06	-3.792076e-09	-2.761892e+01	-2.497014e+02
5.700000e-07	-3.173855e-06	-3.745276e-09	-2.667298e+01	-2.466069e+02
5.800000e-07	-3.059918e-06	-3.700354e-09	-2.571546e+01	-2.434018e+02
5.900000e-07	-2.944576e-06	-3.646920e-09	-2.474613e+01	-2.400843e+02
6.000000e-07	-2.828051e-06	-3.598652e-09	-2.376686e+01	-2.366493e+02
6.100000e-07	-2.710562e-06	-3.548579e-09	-2.277948e+01	-2.330882e+02
6.200000e-07	-2.592182e-06	-3.491590e-09	-2.178462e+01	-2.293884e+02
6.300000e-07	-2.472906e-06	-3.426383e-09	-2.078223e+01	-2.255340e+02
6.400000e-07	-2.352685e-06	-3.360650e-09	-1.977189e+01	-2.215066e+02
6.500000e-07	-2.231617e-06	-3.298516e-09	-1.875444e+01	-2.172857e+02
6.600000e-07	-2.109761e-06	-3.226160e-09	-1.773037e+01	-2.128504e+02
6.700000e-07	-1.987089e-06	-3.151017e-09	-1.669944e+01	-2.081800e+02
6.800000e-07	-1.863652e-06	-3.079505e-09	-1.566208e+01	-2.032544e+02
6.900000e-07	-1.739532e-06	-3.004419e-09	-1.461898e+01	-1.980544e+02
7.000000e-07	-1.614813e-06	-2.913715e-09	-1.357084e+01	-1.925608e+02
7.100000e-07	-1.489574e-06	-2.823669e-09	-1.251834e+01	-1.867533e+02
7.200000e-07	-1.363904e-06	-2.736775e-09	-1.146221e+01	-1.806084e+02
7.300000e-07	-1.237800e-06	-2.639291e-09	-1.040243e+01	-1.740974e+02
7.400000e-07	-1.111220e-06	-2.528600e-09	-9.338661e+00	-1.671844e+02
7.500000e-07	-9.842117e-07	-2.413978e-09	-8.271286e+00	-1.598245e+02
7.600000e-07	-8.568840e-07	-2.294969e-09	-7.201227e+00	-1.519636e+02
7.700000e-07	-7.292431e-07	-2.160150e-09	-6.128537e+00	-1.435381e+02
7.800000e-07	-6.012459e-07	-2.017353e-09	-5.052852e+00	-1.344780e+02
7.900000e-07	-4.730232e-07	-1.868760e-09	-3.975272e+00	-1.247093e+02
8.000000e-07	-3.446473e-07	-1.707806e-09	-2.896405e+00	-1.141602e+02
8.100000e-07	-2.160424e-07	-1.531991e-09	-1.815614e+00	-1.027669e+02
8.200000e-07	-8.732620e-08	-1.345050e-09	-7.338868e-01	-9.048053e+01
8.300000e-07	4.136225e-08	-1.142845e-09	3.476071e-01	-7.727472e+01
8.400000e-07	1.700814e-07	-9.242653e-10	1.429359e+00	-6.315175e+01
8.500000e-07	2.987713e-07	-6.940321e-10	2.510865e+00	-4.814783e+01
8.600000e-07	4.272855e-07	-4.545728e-10	3.590894e+00	-3.233625e+01
8.700000e-07	5.556118e-07	-2.051190e-10	4.669345e+00	-1.582794e+01
8.800000e-07	6.837607e-07	5.542983e-11	5.746304e+00	1.230704e+00
8.900000e-07	8.116383e-07	3.202051e-10	6.820984e+00	1.866278e+01
9.000000e-07	9.391445e-07	5.846235e-10	7.892542e+00	3.626847e+01
9.100000e-07	1.066204e-06	8.495703e-10	8.960343e+00	5.383459e+01
9.200000e-07	1.192865e-06	1.114570e-09	1.002480e+01	7.114545e+01
9.300000e-07	1.319182e-06	1.372371e-09	1.108637e+01	8.799408e+01
9.400000e-07	1.445077e-06	1.618027e-09	1.214439e+01	1.041929e+02
9.500000e-07	1.570507e-06	1.851392e-09	1.319850e+01	1.195830e+02
9.600000e-07	1.695511e-06	2.070219e-09	1.424902e+01	1.340412e+02
9.700000e-07	1.820019e-06	2.271545e-09	1.529539e+01	1.474843e+02
9.800000e-07	1.943845e-06	2.455331e-09	1.633602e+01	1.598702e+02
9.900000e-07	2.066912e-06	2.624443e-09	1.737027e+01	1.711969e+02
1.000000e-06	2.189202e-06	2.778051e-09	1.839799e+01	1.814974e+02
1.010000e-06	2.310704e-06	2.919984e-09	1.941909e+01	1.908335e+02
1.020000e-06	2.431403e-06	3.049036e-09	2.043343e+01	1.992883e+02
1.030000e-06	2.551190e-06	3.165314e-09	2.144013e+01	2.069572e+02
1.040000e-06	2.669969e-06	3.271399e-09	2.243834e+01	2.139402e+02
1.050000e-06	2.787795e-06	3.371278e-09	2.342855e+01	2.203342e+02
1.060000e-06	2.904737e-06	3.464286e-09	2.441132e+01	2.262278e+02
1.070000e-06	3.020582e-06	3.547526e-09	2.538488e+01	2.316967e+02
1.080000e-06	3.135149e-06	3.622348e-09	2.634769e+01	2.368023e+02
1.090000e-06	3.248450e-06	3.691918e-09	2.729988e+01	2.415911e+02
1.100000e-06	3.360462e-06	3.761000e-09	2.824122e+01	2.460965e+02
1.110000e-06	3.471195e-06	3.823708e-09	2.917182e+01	2.503412e+02
1.120000e-06	3.580774e-06	3.880303e-09	3.009271e+01	2.543402e+02
1.130000e-06	3.689279e-06	3.934609e-09	3.100459e+01	2.581043e+02
1.140000e-06	3.796549e-06	3.989219e-09	3.190609e+01	2.616424e+02
1.150000e-06	3.902422e-06	4.039555e-09	3.279584e+01	2.649645e+02
1.160000e-06	4.006809e-06	4.086376e-09	3.367310e+01	2.680823e+02
1.170000e-06	4.109653e-06	4.130013e-09	3.453740e+01	2.710099e+02
1.180000e-06	4.211112e-06	4.168230e-09	3.539006e+01	2.737636e+02
1.190000e-06	4.311188e-06	4.203735e-09	3.623109e+01	2.763606e+02
1.200000e-06	4.409688e-06	4.239222e-09	3.705889e+01	2.788179e+02
1.210000e-06	4.506523e-06	4.274501e-09	3.787268e+01	2.811508e+02
1.220000e-06	4.601633e-06	4.306522e-09	3.867198e+01	2.833723e+02
1.230000e-06	4.695106e-06	4.336087e-09	3.945753e+01	2.854919e+02
1.240000e-06	4.787058e-06	4.365919e-09	4.023029e+01	2.875155e+02
1.250000e-06	4.877398e-06	4.394807e-09	4.098951e+01	2.894463e+02
1.260000e-06	4.965899e-06	4.419980e-09	4.173326e+01	2.912850e+02
1.270000e-06	5.052544e-06	4.443178e-09	4.246143e+01	2.930311e+02
1.280000e-06	5.137494e-06	4.465275e-09	4.317535e+01	2.946843e+02
1.290000e-06	5.220809e-06	4.486243e-09	4.387552e+01	2.962448e+02
1.300000e-06	5.302347e-06	4.506413e-09	4.456077e+01	2.977150e+02
1.310000e-06	5.381884e-06	4.526527e-09	4.522919e+01	2.990990e+02
1.320000e-06	5.459419e-06	4.546119e-09	4.588080e+01	3.004030e+02
1.330000e-06	5.535006e-06	4.564601e-09	4.651603e+01	3.016344e+02
1.340000e-06	5.608490e-06	4.584138e-09	4.713358e+01	3.028016e+02
1.350000e-06	5.679832e-06	4.602430e-09	4.773314e+01	3.039124e+02
1.360000e-06	5.749196e-06	4.617449e-09	4.831607e+01	3.049735e+02
1.370000e-06	5.816594e-06	4.632439e-09	4.888248e+01	3.059899e+02
1.380000e-06	5.881850e-06	4.648154e-09	4.943089e+01	3.069642e+02
1.390000e-06	5.944959e-06	4.663272e-09	4.996126e+01	3.078968e+02
1.400000e-06	6.006085e-06	4.675937e-09	5.047496e+01	3.087862e+02
1.410000e-06	6.065242e-06	4.688333e-09	5.097211e+01	3.096295e+02
1.420000e-06	6.122197e-06	4.700687e-09	5.145076e+01	3.104237e+02
1.430000e-06	6.176893e-06	4.712776e-09	5.191042e+01	3.111660e+02
1.440000e-06	6.229328e-06	4.724242e-09	5.235108e+01	3.118551e+02
1.450000e-06	6.279137e-06	4.736253e-09	5.276968e+01	3.124915e+02
1.460000e-06	6.326369e-06	4.749054e-09	5.316662e+01	3.130779e+02
1.470000e-06	6.371418e-06	4.758932e-09	5.354521e+01	3.136187e+02
1.480000e-06	6.414322e-06	4.767204e-09	5.390577e+01	3.141201e+02
1.490000e-06	6.454874e-06	4.775100e-09	5.424656e+01	3.145888e+02
1.500000e-06	6.493069e-06	4.782187e-09	5.456756e+01	3.150313e+02
1.510000e-06	6.529145e-06	4.787968e-09	5.487074e+01	3.154530e+02
1.520000e-06	6.563021e-06	4.794617e-09	5.515543e+01	3.158576e+02
1.530000e-06	6.594455e-06	4.801660e-09	5.541960e+01	3.162463e+02
1.540000e-06	6.623619e-06	4.807452e-09	5.566470e+01	3.166179e+02
1.550000e-06	6.650602e-06	4.813665e-09	5.589146e+01	3.169688e+02
1.560000e-06	6.675124e-06	4.821327e-09	5.609754e+01	3.172940e+02
1.570000e-06	6.697201e-06	4.828535e-09	5.628308e+01	3.175874e+02
1.580000e-06	6.717114e-06	4.833102e-09	5.645043e+01	3.178431e+02
1.590000e-06	6.734708e-06	4.837238e-09	5.659829e+01	3.180561e+02
1.600000e-06	6.749752e-06	4.840819e-09	5.672471e+01	3.182232e+02
1.610000e-06	6.762264e-06	4.843756e-09	5.682986e+01	3.183435e+02
1.620000e-06	6.772148e-06	4.845494e-09	5.691293e+01	3.184184e+02
1.630000e-06	6.779486e-06	4.847116e-09	5.697460e+01	3.184513e+02
1.640000e-06	6.784512e-06	4.849995e-09	5.701683e+01	3.184476e+02
1.650000e-06	6.787198e-06	4.852745e-09	5.703940e+01	3.184130e+02
1.660000e-06	6.787447e-06	4.856586e-09	5.704150e+01	3.183534e+02
1.670000e-06	6.785450e-06	4.851340e-09	5.702472e+01	3.182735e+02
1.680000e-06	6.781383e-06	4.847907e-09	5.699054e+01	3.181762e+02
1.690000e-06	6.774991e-06	4.847107e-09	5.693682e+01	3.180621e+02
1.700000e-06	6.766296e-06	4.847788e-09	5.686375e+01	3.179294e+02
1.710000e-06	6.755505e-06	4.846149e-09	5.677306e+01	3.177736e+02
1.720000e-06	6.742416e-06	4.846410e-09	5.666306e+01	3.175889e+02
1.730000e-06	6.726914e-06	4.868954e-09	5.653278e+01	3.173680e+02
1.740000e-06	6.709286e-06	4.836870e-09	5.638464e+01	3.171034e+02
1.750000e-06	6.689359e-06	4.754812e-09	5.621717e+01	3.167885e+02
1.760000e-06	6.666286e-06	4.787528e-09	5.602326e+01	3.164179e+02
1.770000e-06	6.640084e-06	4.828439e-09	5.580307e+01	3.159884e+02
1.780000e-06	6.611620e-06	4.818754e-09	5.556386e+01	3.154992e+02
1.790000e-06	6.581143e-06	4.895289e-09	5.530773e+01	3.149521e+02
1.800000e-06	6.548979e-06	4.819820e-09	5.503742e+01	3.143509e+02
1.810000e-06	6.515225e-06	4.672658e-09	5.475376e+01	3.137012e+02
1.820000e-06	6.479150e-06	4.838481e-09	5.445058e+01	3.130099e+02
1.830000e-06	6.440677e-06	4.774238e-09	5.412725e+01	3.122840e+02
1.840000e-06	6.400001e-06	4.707944e-09	5.378542e+01	3.115305e+02
1.850000e-06	6.357079e-06	4.773174e-09	5.342470e+01	3.107553e+02
1.860000e-06	6.312073e-06	4.635899e-09	5.304647e+01	3.099629e+02
1.870000e-06	6.264768e-06	4.761447e-09	5.264892e+01	3.091562e+02
1.880000e-06	6.215106e-06	4.724378e-09	5.223156e+01	3.083363e+02
1.890000e-06	6.163162e-06	4.645397e-09	5.179502e+01	3.075028e+02
1.900000e-06	6.108555e-06	4.692132e-09	5.133612e+01	3.066533e+02
1.910000e-06	6.051612e-06	4.592939e-09	5.085757e+01	3.057845e+02
1.920000e-06	5.992651e-06	4.710417e-09	5.036206e+01	3.048920e+02
1.930000e-06	5.931513e-06	4.668681e-09	4.984826e+01	3.039708e+02
1.940000e-06	5.868054e-06	4.561812e-09	4.931495e+01	3.030152e+02
1.950000e-06	5.802416e-06	4.593248e-09	4.876333e+01	3.020199e+02
1.960000e-06	5.734884e-06	4.587585e-09	4.819579e+01	3.009795e+02
1.970000e-06	5.665093e-06	4.637197e-09	4.760927e+01	2.998888e+02
1.980000e-06	5.593031e-06	4.505093e-09	4.700367e+01	2.987435e+02
1.990000e-06	5.519018e-06	4.537175e-09	4.638166e+01	2.975400e+02
2.000000e-06	5.443011e-06	4.546399e-09	4.574290e+01	2.962755e+02
2.010000e-06	5.364869e-06	4.482624e-09	4.508620e+01	2.949486e+02
2.020000e-06	5.284584e-06	4.512145e-09	4.441149e+01	2.935588e+02
2.030000e-06	5.202454e-06	4.435986e-09	4.372126e+01	2.921067e+02
2.040000e-06	5.118585e-06	4.440336e-09	4.301643e+01	2.905938e+02
2.050000e-06	5.032903e-06	4.406990e-09	4.229636e+01	2.890222e+02
2.060000e-06	4.945294e-06	4.426804e-09	4.156010e+01	2.873943e+02
2.070000e-06	4.855882e-06	4.377182e-09	4.080869e+01	2.857118e+02
2.080000e-06	4.764895e-06	4.307763e-09	4.004404e+01	2.839760e+02
2.090000e-06	4.672302e-06	4.321073e-09	3.926589e+01	2.821864e+02
2.100000e-06	4.577983e-06	4.298563e-09	3.847324e+01	2.803412e+02
2.110000e-06	4.481900e-06	4.271787e-09	3.766575e+01	2.784364e+02
2.120000e-06	4.384272e-06	4.200718e-09	3.684529e+01	2.764662e+02
2.130000e-06	4.285238e-06	4.196958e-09	3.601301e+01	2.744234e+02
2.140000e-06	4.184759e-06	4.172812e-09	3.516859e+01	2.722996e+02
2.150000e-06	4.082676e-06	4.136548e-09	3.431069e+01	2.700861e+02
2.160000e-06	3.978962e-06	4.095365e-09	3.343907e+01	2.677749e+02
2.170000e-06	3.873854e-06	4.060733e-09	3.255575e+01	2.653587e+02
2.180000e-06	3.767461e-06	4.032681e-09	3.166163e+01	2.628325e+02
2.190000e-06	3.659861e-06	3.983453e-09	3.075737e+01	2.601929e+02
2.200000e-06	3.551093e-06	3.946608e-09	2.984328e+01	2.574390e+02
2.210000e-06	3.441071e-06	3.895423e-09	2.891865e+01	2.545712e+02
2.220000e-06	3.329645e-06	3.850945e-09	2.798224e+01	2.515910e+02
2.230000e-06	3.216964e-06	3.803205e-09	2.703527e+01	2.485000e+02
2.240000e-06	3.103127e-06	3.763276e-09	2.607859e+01	2.452986e+02
2.250000e-06	2.988085e-06	3.705583e-09	2.511178e+01	2.419848e+02
2.260000e-06	2.871886e-06	3.649369e-09	2.413524e+01	2.385537e+02
2.270000e-06	2.754486e-06	3.603749e-09	2.314862e+01	2.349968e+02
2.280000e-06	2.635872e-06	3.554357e-09	2.215179e+01	2.313018e+02
2.290000e-06	2.516155e-06	3.489437e-09	2.114569e+01	2.274530e+02
2.300000e-06	2.395578e-06	3.419206e-09	2.013237e+01	2.234316e+02
2.310000e-06	2.274238e-06	3.362683e-09	1.911263e+01	2.192177e+02
2.320000e-06	2.152193e-06	3.296502e-09	1.808696e+01	2.147900e+02
2.330000e-06	2.029436e-06	3.219204e-09	1.705532e+01	2.101279e+02
2.340000e-06	1.906014e-06	3.144010e-09	1.601809e+01	2.052113e+02
2.350000e-06	1.781904e-06	3.074371e-09	1.497506e+01	2.000211e+02
2.360000e-06	1.657066e-06	2.993616e-09	1.392593e+01	1.945380e+02
2.370000e-06	1.531668e-06	2.905672e-09	1.287209e+01	1.887417e+02
2.380000e-06	1.405792e-06	2.813999e-09	1.181423e+01	1.826089e+02
2.390000e-06	1.279470e-06	2.713170e-09	1.075263e+01	1.761111e+02
2.400000e-06	1.152694e-06	2.605305e-09	9.687204e+00	1.692127e+02
2.410000e-06	1.025455e-06	2.494476e-09	8.617894e+00	1.618693e+02
2.420000e-06	8.977563e-07	2.376799e-09	7.544717e+00	1.540269e+02
2.430000e-06	7.697121e-07	2.245484e-09	6.468638e+00	1.456224e+02
2.440000e-06	6.414260e-07	2.106721e-09	5.390525e+00	1.365858e+02
2.450000e-06	5.129131e-07	1.962521e-09	4.310507e+00	1.268433e+02
2.460000e-06	3.842258e-07	1.805744e-09	3.229022e+00	1.163229e+02
2.470000e-06	2.553704e-07	1.632930e-09	2.146125e+00	1.049602e+02
2.480000e-06	1.263910e-07	1.447847e-09	1.062186e+00	9.270601e+01
2.490000e-06	-2.631151e-09	1.251498e-09	-2.211211e-02	7.953279e+01
2.500000e-06	-1.316363e-07	1.036728e-09	-1.106267e+00	6.544176e+01
2.510000e-06	-2.605862e-07	8.041917e-10	-2.189959e+00	5.046788e+01
2.520000e-06	-3.894166e-07	5.626049e-10	-3.272646e+00	3.468306e+01
2.530000e-06	-5.180836e-07	3.148751e-10	-4.353959e+00	1.819692e+01
2.540000e-06	-6.465486e-07	5.535655e-11	-5.433575e+00	1.154654e+00
2.550000e-06	-7.747000e-07	-2.133982e-10	-6.510555e+00	-1.626781e+01
2.560000e-06	-9.024795e-07	-4.830024e-10	-7.584411e+00	-3.387131e+01
2.570000e-06	-1.029822e-06	-7.524242e-10	-8.654596e+00	-5.144297e+01
2.580000e-06	-1.156755e-06	-1.020613e-09	-9.721336e+00	-6.876699e+01
2.590000e-06	-1.283314e-06	-1.282853e-09	-1.078493e+01	-8.563590e+01
2.600000e-06	-1.409458e-06	-1.535424e-09	-1.184505e+01	-1.018613e+02
2.610000e-06	-1.535168e-06	-1.774943e-09	-1.290151e+01	-1.172830e+02
2.620000e-06	-1.660264e-06	-1.996924e-09	-1.395281e+01	-1.317765e+02
2.630000e-06	-1.784645e-06	-2.200921e-09	-1.499810e+01	-1.452572e+02
2.640000e-06	-1.908291e-06	-2.390422e-09	-1.603722e+01	-1.576816e+02
2.650000e-06	-2.031199e-06	-2.565127e-09	-1.707014e+01	-1.690462e+02
2.660000e-06	-2.153455e-06	-2.721585e-09	-1.809757e+01	-1.793827e+02
2.670000e-06	-2.275059e-06	-2.861721e-09	-1.911953e+01	-1.887524e+02
2.680000e-06	-2.395896e-06	-2.991711e-09	-2.013503e+01	-1.972374e+02
2.690000e-06	-2.515772e-06	-3.113501e-09	-2.114247e+01	-2.049331e+02
2.700000e-06	-2.634677e-06	-3.224467e-09	-2.214175e+01	-2.119392e+02
2.710000e-06	-2.752621e-06	-3.323003e-09	-2.313294e+01	-2.183531e+02
2.720000e-06	-2.869390e-06	-3.412740e-09	-2.411427e+01	-2.242636e+02
2.730000e-06	-2.984883e-06	-3.498015e-09	-2.508486e+01	-2.297469e+02
2.740000e-06	-3.099160e-06	-3.578768e-09	-2.604525e+01	-2.348649e+02
2.750000e-06	-3.212179e-06	-3.652674e-09	-2.699506e+01	-2.396648e+02
2.760000e-06	-3.323930e-06	-3.720658e-09	-2.793421e+01	-2.441803e+02
2.770000e-06	-3.434391e-06	-3.786361e-09	-2.886252e+01	-2.484344e+02
2.780000e-06	-3.543640e-06	-3.849898e-09	-2.978064e+01	-2.524424e+02
2.790000e-06	-3.651770e-06	-3.908710e-09	-3.068936e+01	-2.562151e+02
2.800000e-06	-3.758736e-06	-3.962281e-09	-3.158831e+01	-2.597615e+02
2.810000e-06	-3.864425e-06	-4.013928e-09	-3.247651e+01	-2.630915e+02
2.820000e-06	-3.968625e-06	-4.064962e-09	-3.335220e+01	-2.662168e+02
2.830000e-06	-4.071313e-06	-4.112922e-09	-3.421519e+01	-2.691513e+02
2.840000e-06	-4.172519e-06	-4.157335e-09	-3.506573e+01	-2.719113e+02
2.850000e-06	-4.272241e-06	-4.199684e-09	-3.590379e+01	-2.745140e+02
2.860000e-06	-4.370544e-06	-4.239965e-09	-3.672992e+01	-2.769764e+02
2.870000e-06	-4.467419e-06	-4.278239e-09	-3.754405e+01	-2.793139e+02
2.880000e-06	-4.562735e-06	-4.313212e-09	-3.834509e+01	-2.815396e+02
2.890000e-06	-4.656396e-06	-4.347812e-09	-3.913222e+01	-2.836631e+02
2.900000e-06	-4.748378e-06	-4.382008e-09	-3.990522e+01	-2.856905e+02
2.910000e-06	-4.838739e-06	-4.413131e-09	-4.066462e+01	-2.876249e+02
2.920000e-06	-4.927450e-06	-4.442386e-09	-4.141014e+01	-2.894673e+02
2.930000e-06	-5.014367e-06	-4.470783e-09	-4.214059e+01	-2.912172e+02
2.940000e-06	-5.099417e-06	-4.498413e-09	-4.285535e+01	-2.928740e+02
