# Temperatura_=_20.0
# Concentracion g/m^3_=_9000.0
# C_Vs_to_Am_M_A/Vsm_=_65563218390.804596
# pendiente_HvsI_1/m_=_3716.3
# ordenada_HvsI_A/m_=_1297.0
# frecuencia_Hz_=_212892.83714494752

Tiempo_(s)	Campo_(V.s)	Magnetizacion_(V.s)	Campo_(kA/m)	Magnetizacion_(A/m)
0.000000e+00	-5.288751e-06	-3.976985e-09	-5.697228e+01	-2.619630e+02
1.000000e-08	-5.288093e-06	-3.976901e-09	-5.696519e+01	-2.619869e+02
2.000000e-08	-5.286219e-06	-3.972788e-09	-5.694500e+01	-2.619989e+02
3.000000e-08	-5.283282e-06	-3.969531e-09	-5.691336e+01	-2.619973e+02
4.000000e-08	-5.279594e-06	-3.969383e-09	-5.687363e+01	-2.619805e+02
5.000000e-08	-5.275186e-06	-3.970051e-09	-5.682614e+01	-2.619466e+02
6.000000e-08	-5.269898e-06	-3.969172e-09	-5.676918e+01	-2.618940e+02
7.000000e-08	-5.263687e-06	-3.969680e-09	-5.670228e+01	-2.618216e+02
8.000000e-08	-5.256657e-06	-3.981478e-09	-5.662655e+01	-2.617285e+02
9.000000e-08	-5.248751e-06	-3.966883e-09	-5.654137e+01	-2.616142e+02
1.000000e-07	-5.239617e-06	-3.955424e-09	-5.644298e+01	-2.614788e+02
1.100000e-07	-5.229125e-06	-3.950415e-09	-5.632996e+01	-2.613231e+02
1.200000e-07	-5.217578e-06	-3.992987e-09	-5.620558e+01	-2.611481e+02
1.300000e-07	-5.205168e-06	-4.001165e-09	-5.607189e+01	-2.609554e+02
1.400000e-07	-5.191979e-06	-3.897883e-09	-5.592981e+01	-2.607467e+02
1.500000e-07	-5.177992e-06	-3.895980e-09	-5.577914e+01	-2.605239e+02
1.600000e-07	-5.162961e-06	-4.004193e-09	-5.561722e+01	-2.602889e+02
1.700000e-07	-5.146665e-06	-3.918676e-09	-5.544167e+01	-2.600433e+02
1.800000e-07	-5.129259e-06	-3.919519e-09	-5.525417e+01	-2.597884e+02
1.900000e-07	-5.111268e-06	-3.990794e-09	-5.506037e+01	-2.595251e+02
2.000000e-07	-5.092699e-06	-3.850088e-09	-5.486034e+01	-2.592534e+02
2.100000e-07	-5.073149e-06	-3.929164e-09	-5.464973e+01	-2.589729e+02
2.200000e-07	-5.052697e-06	-4.051271e-09	-5.442941e+01	-2.586826e+02
2.300000e-07	-5.031575e-06	-3.912280e-09	-5.420188e+01	-2.583807e+02
2.400000e-07	-5.009596e-06	-3.863458e-09	-5.396512e+01	-2.580650e+02
2.500000e-07	-4.986698e-06	-4.017670e-09	-5.371845e+01	-2.577328e+02
2.600000e-07	-4.963036e-06	-3.983029e-09	-5.346355e+01	-2.573812e+02
2.700000e-07	-4.938455e-06	-3.924507e-09	-5.319877e+01	-2.570075e+02
2.800000e-07	-4.912854e-06	-3.940366e-09	-5.292298e+01	-2.566086e+02
2.900000e-07	-4.886268e-06	-3.906238e-09	-5.263659e+01	-2.561824e+02
3.000000e-07	-4.858675e-06	-3.996222e-09	-5.233935e+01	-2.557268e+02
3.100000e-07	-4.830230e-06	-3.951361e-09	-5.203292e+01	-2.552405e+02
3.200000e-07	-4.800992e-06	-3.837069e-09	-5.171796e+01	-2.547231e+02
3.300000e-07	-4.770926e-06	-3.930167e-09	-5.139408e+01	-2.541747e+02
3.400000e-07	-4.740124e-06	-3.938163e-09	-5.106227e+01	-2.535963e+02
3.500000e-07	-4.708547e-06	-3.843421e-09	-5.072212e+01	-2.529896e+02
3.600000e-07	-4.676144e-06	-3.897146e-09	-5.037306e+01	-2.523568e+02
3.700000e-07	-4.642832e-06	-3.883278e-09	-5.001421e+01	-2.517005e+02
3.800000e-07	-4.608533e-06	-3.797163e-09	-4.964473e+01	-2.510236e+02
3.900000e-07	-4.573206e-06	-3.871526e-09	-4.926417e+01	-2.503290e+02
4.000000e-07	-4.537028e-06	-3.898965e-09	-4.887445e+01	-2.496192e+02
4.100000e-07	-4.500240e-06	-3.771925e-09	-4.847816e+01	-2.488966e+02
4.200000e-07	-4.462671e-06	-3.771276e-09	-4.807345e+01	-2.481628e+02
4.300000e-07	-4.424207e-06	-3.878838e-09	-4.765910e+01	-2.474190e+02
4.400000e-07	-4.385040e-06	-3.815625e-09	-4.723719e+01	-2.466653e+02
4.500000e-07	-4.345370e-06	-3.726402e-09	-4.680985e+01	-2.459014e+02
4.600000e-07	-4.304977e-06	-3.756874e-09	-4.637472e+01	-2.451260e+02
4.700000e-07	-4.263590e-06	-3.786473e-09	-4.592888e+01	-2.443373e+02
4.800000e-07	-4.221208e-06	-3.763620e-09	-4.547233e+01	-2.435329e+02
4.900000e-07	-4.177961e-06	-3.706255e-09	-4.500646e+01	-2.427102e+02
5.000000e-07	-4.134063e-06	-3.689847e-09	-4.453357e+01	-2.418664e+02
5.100000e-07	-4.089638e-06	-3.712151e-09	-4.405501e+01	-2.409987e+02
5.200000e-07	-4.044539e-06	-3.701403e-09	-4.356919e+01	-2.401046e+02
5.300000e-07	-3.998630e-06	-3.668181e-09	-4.307464e+01	-2.391822e+02
5.400000e-07	-3.952048e-06	-3.643694e-09	-4.257284e+01	-2.382297e+02
5.500000e-07	-3.904948e-06	-3.627720e-09	-4.206546e+01	-2.372465e+02
5.600000e-07	-3.857187e-06	-3.619412e-09	-4.155096e+01	-2.362321e+02
5.700000e-07	-3.808601e-06	-3.625648e-09	-4.102758e+01	-2.351869e+02
5.800000e-07	-3.759047e-06	-3.595402e-09	-4.049377e+01	-2.341120e+02
5.900000e-07	-3.708511e-06	-3.535143e-09	-3.994938e+01	-2.330085e+02
6.000000e-07	-3.657184e-06	-3.548478e-09	-3.939646e+01	-2.318781e+02
6.100000e-07	-3.605071e-06	-3.571314e-09	-3.883509e+01	-2.307224e+02
6.200000e-07	-3.552285e-06	-3.518324e-09	-3.826645e+01	-2.295428e+02
6.300000e-07	-3.498875e-06	-3.471152e-09	-3.769110e+01	-2.283405e+02
6.400000e-07	-3.444775e-06	-3.479615e-09	-3.710832e+01	-2.271161e+02
6.500000e-07	-3.390063e-06	-3.483631e-09	-3.651894e+01	-2.258697e+02
6.600000e-07	-3.334873e-06	-3.444884e-09	-3.592442e+01	-2.246004e+02
6.700000e-07	-3.279274e-06	-3.408767e-09	-3.532549e+01	-2.233068e+02
6.800000e-07	-3.223132e-06	-3.391225e-09	-3.472070e+01	-2.219867e+02
6.900000e-07	-3.166179e-06	-3.373075e-09	-3.410719e+01	-2.206372e+02
7.000000e-07	-3.108407e-06	-3.355219e-09	-3.348485e+01	-2.192549e+02
7.100000e-07	-3.049904e-06	-3.328235e-09	-3.285463e+01	-2.178359e+02
7.200000e-07	-2.990837e-06	-3.297222e-09	-3.221834e+01	-2.163764e+02
7.300000e-07	-2.931399e-06	-3.274445e-09	-3.157805e+01	-2.148725e+02
7.400000e-07	-2.871404e-06	-3.258487e-09	-3.093176e+01	-2.133203e+02
7.500000e-07	-2.810828e-06	-3.237410e-09	-3.027922e+01	-2.117168e+02
7.600000e-07	-2.749870e-06	-3.200401e-09	-2.962256e+01	-2.100591e+02
7.700000e-07	-2.688509e-06	-3.167946e-09	-2.896156e+01	-2.083452e+02
7.800000e-07	-2.626669e-06	-3.149965e-09	-2.829540e+01	-2.065736e+02
7.900000e-07	-2.564361e-06	-3.127504e-09	-2.762420e+01	-2.047436e+02
8.000000e-07	-2.501609e-06	-3.092196e-09	-2.694821e+01	-2.028550e+02
8.100000e-07	-2.438421e-06	-3.057983e-09	-2.626752e+01	-2.009081e+02
8.200000e-07	-2.374932e-06	-3.038778e-09	-2.558360e+01	-1.989035e+02
8.300000e-07	-2.311146e-06	-3.009624e-09	-2.489647e+01	-1.968419e+02
8.400000e-07	-2.246985e-06	-2.963923e-09	-2.420531e+01	-1.947238e+02
8.500000e-07	-2.182459e-06	-2.928978e-09	-2.351021e+01	-1.925494e+02
8.600000e-07	-2.117602e-06	-2.900277e-09	-2.281155e+01	-1.903184e+02
8.700000e-07	-2.052306e-06	-2.864433e-09	-2.210816e+01	-1.880298e+02
8.800000e-07	-1.986411e-06	-2.821335e-09	-2.139831e+01	-1.856817e+02
8.900000e-07	-1.920016e-06	-2.783172e-09	-2.068309e+01	-1.832715e+02
9.000000e-07	-1.853332e-06	-2.749719e-09	-1.996474e+01	-1.807955e+02
9.100000e-07	-1.786396e-06	-2.711006e-09	-1.924368e+01	-1.782494e+02
9.200000e-07	-1.719144e-06	-2.669312e-09	-1.851922e+01	-1.756280e+02
9.300000e-07	-1.651634e-06	-2.624249e-09	-1.779198e+01	-1.729256e+02
9.400000e-07	-1.583972e-06	-2.579808e-09	-1.706310e+01	-1.701358e+02
9.500000e-07	-1.516148e-06	-2.538695e-09	-1.633247e+01	-1.672523e+02
9.600000e-07	-1.448051e-06	-2.491431e-09	-1.559891e+01	-1.642683e+02
9.700000e-07	-1.379677e-06	-2.437186e-09	-1.486237e+01	-1.611772e+02
9.800000e-07	-1.311031e-06	-2.383379e-09	-1.412288e+01	-1.579725e+02
9.900000e-07	-1.242184e-06	-2.337949e-09	-1.338124e+01	-1.546477e+02
1.000000e-06	-1.173191e-06	-2.291913e-09	-1.263803e+01	-1.511967e+02
1.010000e-06	-1.103935e-06	-2.232872e-09	-1.189197e+01	-1.476133e+02
1.020000e-06	-1.034393e-06	-2.170675e-09	-1.114284e+01	-1.438913e+02
1.030000e-06	-9.646741e-07	-2.114899e-09	-1.039181e+01	-1.400245e+02
1.040000e-06	-8.947974e-07	-2.061450e-09	-9.639071e+00	-1.360061e+02
1.050000e-06	-8.247335e-07	-1.995613e-09	-8.884318e+00	-1.318290e+02
1.060000e-06	-7.544851e-07	-1.919802e-09	-8.127577e+00	-1.274854e+02
1.070000e-06	-6.841220e-07	-1.847813e-09	-7.369601e+00	-1.229668e+02
1.080000e-06	-6.136078e-07	-1.778897e-09	-6.609998e+00	-1.182637e+02
1.090000e-06	-5.429437e-07	-1.704642e-09	-5.848780e+00	-1.133660e+02
1.100000e-06	-4.722386e-07	-1.622687e-09	-5.087119e+00	-1.082626e+02
1.110000e-06	-4.014186e-07	-1.538657e-09	-4.324221e+00	-1.029424e+02
1.120000e-06	-3.305139e-07	-1.455987e-09	-3.560412e+00	-9.739386e+01
1.130000e-06	-2.596171e-07	-1.371068e-09	-2.796686e+00	-9.160594e+01
1.140000e-06	-1.886598e-07	-1.280176e-09	-2.032309e+00	-8.556842e+01
1.150000e-06	-1.176539e-07	-1.179506e-09	-1.267409e+00	-7.927258e+01
1.160000e-06	-4.670141e-08	-1.074890e-09	-5.030839e-01	-7.271186e+01
1.170000e-06	2.419031e-08	-9.746626e-10	2.605865e-01	-6.588243e+01
1.180000e-06	9.507247e-08	-8.694689e-10	1.024154e+00	-5.878393e+01
1.190000e-06	1.659047e-07	-7.559729e-10	1.787183e+00	-5.141997e+01
1.200000e-06	2.366699e-07	-6.394225e-10	2.549491e+00	-4.379860e+01
1.210000e-06	3.074671e-07	-5.208937e-10	3.312143e+00	-3.593267e+01
1.220000e-06	3.782548e-07	-3.987977e-10	4.074693e+00	-2.783999e+01
1.230000e-06	4.489137e-07	-2.726173e-10	4.835855e+00	-1.954334e+01
1.240000e-06	5.194608e-07	-1.449547e-10	5.595813e+00	-1.107024e+01
1.250000e-06	5.899176e-07	-1.477015e-11	6.354799e+00	-2.452624e+00
1.260000e-06	6.602769e-07	1.173756e-10	7.112733e+00	6.273807e+00
1.270000e-06	7.305013e-07	2.505577e-10	7.869216e+00	1.507026e+01
1.280000e-06	8.006052e-07	3.881997e-10	8.624399e+00	2.389573e+01
1.290000e-06	8.705318e-07	5.234353e-10	9.377673e+00	3.270800e+01
1.300000e-06	9.403006e-07	6.590839e-10	1.012925e+01	4.146465e+01
1.310000e-06	1.009883e-06	7.933342e-10	1.087881e+01	5.012409e+01
1.320000e-06	1.079230e-06	9.235603e-10	1.162584e+01	5.864662e+01
1.330000e-06	1.148401e-06	1.050771e-09	1.237098e+01	6.699530e+01
1.340000e-06	1.217384e-06	1.175353e-09	1.311408e+01	7.513688e+01
1.350000e-06	1.286178e-06	1.296281e-09	1.385516e+01	8.304239e+01
1.360000e-06	1.354769e-06	1.410211e-09	1.459405e+01	9.068770e+01
1.370000e-06	1.423086e-06	1.520378e-09	1.532998e+01	9.805381e+01
1.380000e-06	1.491140e-06	1.624806e-09	1.606308e+01	1.051270e+02
1.390000e-06	1.559027e-06	1.723154e-09	1.679438e+01	1.118989e+02
1.400000e-06	1.626732e-06	1.817441e-09	1.752373e+01	1.183658e+02
1.410000e-06	1.694243e-06	1.909601e-09	1.825098e+01	1.245288e+02
1.420000e-06	1.761595e-06	1.998273e-09	1.897652e+01	1.303930e+02
1.430000e-06	1.828741e-06	2.082265e-09	1.969984e+01	1.359669e+02
1.440000e-06	1.895547e-06	2.161927e-09	2.041949e+01	1.412616e+02
1.450000e-06	1.961930e-06	2.239843e-09	2.113460e+01	1.462906e+02
1.460000e-06	2.027803e-06	2.313569e-09	2.184420e+01	1.510682e+02
1.470000e-06	2.093076e-06	2.382248e-09	2.254734e+01	1.556099e+02
1.480000e-06	2.157854e-06	2.446776e-09	2.324516e+01	1.599311e+02
1.490000e-06	2.222174e-06	2.509723e-09	2.393803e+01	1.640466e+02
1.500000e-06	2.286044e-06	2.569885e-09	2.462606e+01	1.679709e+02
1.510000e-06	2.349616e-06	2.626341e-09	2.531088e+01	1.717171e+02
1.520000e-06	2.412888e-06	2.679401e-09	2.599248e+01	1.752974e+02
1.530000e-06	2.475787e-06	2.729555e-09	2.667004e+01	1.787225e+02
1.540000e-06	2.538249e-06	2.779029e-09	2.734291e+01	1.820020e+02
1.550000e-06	2.600249e-06	2.824758e-09	2.801079e+01	1.851445e+02
1.560000e-06	2.661832e-06	2.865469e-09	2.867418e+01	1.881574e+02
1.570000e-06	2.722999e-06	2.905459e-09	2.933310e+01	1.910476e+02
1.580000e-06	2.783699e-06	2.946817e-09	2.998698e+01	1.938209e+02
1.590000e-06	2.843918e-06	2.987631e-09	3.063568e+01	1.964833e+02
1.600000e-06	2.903698e-06	3.025999e-09	3.127964e+01	1.990400e+02
1.610000e-06	2.963156e-06	3.061634e-09	3.192015e+01	2.014962e+02
1.620000e-06	3.022210e-06	3.097319e-09	3.255630e+01	2.038572e+02
1.630000e-06	3.080499e-06	3.132677e-09	3.318421e+01	2.061281e+02
1.640000e-06	3.137864e-06	3.164883e-09	3.380216e+01	2.083138e+02
1.650000e-06	3.194411e-06	3.193598e-09	3.441131e+01	2.104194e+02
1.660000e-06	3.250310e-06	3.221767e-09	3.501347e+01	2.124497e+02
1.670000e-06	3.305774e-06	3.249841e-09	3.561095e+01	2.144093e+02
1.680000e-06	3.360874e-06	3.276507e-09	3.620451e+01	2.163024e+02
1.690000e-06	3.415464e-06	3.303602e-09	3.679257e+01	2.181328e+02
1.700000e-06	3.469418e-06	3.330192e-09	3.737378e+01	2.199040e+02
1.710000e-06	3.522821e-06	3.355287e-09	3.794906e+01	2.216188e+02
1.720000e-06	3.575652e-06	3.379652e-09	3.851817e+01	2.232796e+02
1.730000e-06	3.627773e-06	3.404210e-09	3.907964e+01	2.248882e+02
1.740000e-06	3.679210e-06	3.428265e-09	3.963373e+01	2.264460e+02
1.750000e-06	3.729866e-06	3.450556e-09	4.017943e+01	2.279539e+02
1.760000e-06	3.779544e-06	3.470856e-09	4.071457e+01	2.294127e+02
1.770000e-06	3.828273e-06	3.490509e-09	4.123949e+01	2.308228e+02
1.780000e-06	3.876256e-06	3.511083e-09	4.175639e+01	2.321846e+02
1.790000e-06	3.923657e-06	3.530555e-09	4.226700e+01	2.334986e+02
1.800000e-06	3.970412e-06	3.549103e-09	4.277066e+01	2.347652e+02
1.810000e-06	4.016480e-06	3.567939e-09	4.326693e+01	2.359852e+02
1.820000e-06	4.061890e-06	3.588020e-09	4.375610e+01	2.371595e+02
1.830000e-06	4.106616e-06	3.608584e-09	4.423791e+01	2.382891e+02
1.840000e-06	4.150707e-06	3.626879e-09	4.471286e+01	2.393755e+02
1.850000e-06	4.194278e-06	3.642585e-09	4.518223e+01	2.404204e+02
1.860000e-06	4.237244e-06	3.658009e-09	4.564507e+01	2.414254e+02
1.870000e-06	4.279264e-06	3.674021e-09	4.609772e+01	2.423924e+02
1.880000e-06	4.320211e-06	3.689016e-09	4.653883e+01	2.433233e+02
1.890000e-06	4.360259e-06	3.702987e-09	4.697023e+01	2.442199e+02
1.900000e-06	4.399607e-06	3.715338e-09	4.739410e+01	2.450841e+02
1.910000e-06	4.438241e-06	3.728147e-09	4.781028e+01	2.459173e+02
1.920000e-06	4.476141e-06	3.743026e-09	4.821856e+01	2.467212e+02
1.930000e-06	4.513309e-06	3.756271e-09	4.861895e+01	2.474968e+02
1.940000e-06	4.549664e-06	3.767177e-09	4.901057e+01	2.482452e+02
1.950000e-06	4.585350e-06	3.778784e-09	4.939500e+01	2.489674e+02
1.960000e-06	4.620385e-06	3.790939e-09	4.977240e+01	2.496640e+02
1.970000e-06	4.654468e-06	3.800879e-09	5.013956e+01	2.503358e+02
1.980000e-06	4.687458e-06	3.809417e-09	5.049493e+01	2.509834e+02
1.990000e-06	4.719478e-06	3.818133e-09	5.083987e+01	2.516075e+02
2.000000e-06	4.750731e-06	3.827353e-09	5.117653e+01	2.522088e+02
2.010000e-06	4.781255e-06	3.837344e-09	5.150535e+01	2.527881e+02
2.020000e-06	4.810969e-06	3.847661e-09	5.182544e+01	2.533464e+02
2.030000e-06	4.839893e-06	3.858534e-09	5.213701e+01	2.538848e+02
2.040000e-06	4.868075e-06	3.869322e-09	5.244060e+01	2.544043e+02
2.050000e-06	4.895591e-06	3.877720e-09	5.273701e+01	2.549060e+02
2.060000e-06	4.922368e-06	3.885365e-09	5.302547e+01	2.553911e+02
2.070000e-06	4.948054e-06	3.894578e-09	5.330217e+01	2.558605e+02
2.080000e-06	4.972519e-06	3.902347e-09	5.356571e+01	2.563150e+02
2.090000e-06	4.996075e-06	3.908543e-09	5.381946e+01	2.567553e+02
2.100000e-06	5.018871e-06	3.916935e-09	5.406503e+01	2.571818e+02
2.110000e-06	5.040823e-06	3.924105e-09	5.430151e+01	2.575944e+02
2.120000e-06	5.061900e-06	3.928232e-09	5.452855e+01	2.579930e+02
2.130000e-06	5.082187e-06	3.933841e-09	5.474710e+01	2.583768e+02
2.140000e-06	5.101787e-06	3.940611e-09	5.495824e+01	2.587452e+02
2.150000e-06	5.120646e-06	3.946651e-09	5.516139e+01	2.590970e+02
2.160000e-06	5.138601e-06	3.950740e-09	5.535480e+01	2.594312e+02
2.170000e-06	5.155610e-06	3.954833e-09	5.553803e+01	2.597466e+02
2.180000e-06	5.171809e-06	3.961737e-09	5.571253e+01	2.600420e+02
2.190000e-06	5.187098e-06	3.967380e-09	5.587723e+01	2.603167e+02
2.200000e-06	5.201273e-06	3.971596e-09	5.602993e+01	2.605700e+02
2.210000e-06	5.214364e-06	3.978821e-09	5.617095e+01	2.608016e+02
2.220000e-06	5.226541e-06	3.985072e-09	5.630213e+01	2.610116e+02
2.230000e-06	5.237786e-06	3.989547e-09	5.642326e+01	2.612006e+02
2.240000e-06	5.247843e-06	3.991096e-09	5.653160e+01	2.613693e+02
2.250000e-06	5.256666e-06	3.991993e-09	5.662664e+01	2.615191e+02
2.260000e-06	5.264484e-06	3.994050e-09	5.671086e+01	2.616515e+02
2.270000e-06	5.271450e-06	3.997807e-09	5.678591e+01	2.617681e+02
2.280000e-06	5.277566e-06	3.999774e-09	5.685178e+01	2.618707e+02
2.290000e-06	5.282735e-06	4.000867e-09	5.690747e+01	2.619608e+02
2.300000e-06	5.287074e-06	4.005407e-09	5.695421e+01	2.620400e+02
2.310000e-06	5.290707e-06	4.010596e-09	5.699334e+01	2.621094e+02
2.320000e-06	5.293412e-06	4.014613e-09	5.702248e+01	2.621698e+02
2.330000e-06	5.294855e-06	4.013976e-09	5.703803e+01	2.622213e+02
2.340000e-06	5.295177e-06	4.015168e-09	5.704150e+01	2.622639e+02
2.350000e-06	5.294701e-06	4.016769e-09	5.703637e+01	2.622969e+02
2.360000e-06	5.293354e-06	4.015754e-09	5.702186e+01	2.623192e+02
2.370000e-06	5.291141e-06	4.016066e-09	5.699802e+01	2.623293e+02
2.380000e-06	5.288113e-06	4.014223e-09	5.696540e+01	2.623256e+02
2.390000e-06	5.284311e-06	4.013159e-09	5.692445e+01	2.623063e+02
2.400000e-06	5.279875e-06	4.013078e-09	5.687666e+01	2.622698e+02
2.410000e-06	5.274650e-06	4.012556e-09	5.682037e+01	2.622144e+02
2.420000e-06	5.268239e-06	4.000634e-09	5.675131e+01	2.621390e+02
2.430000e-06	5.260671e-06	3.999782e-09	5.666979e+01	2.620427e+02
2.440000e-06	5.252123e-06	4.030161e-09	5.657770e+01	2.619252e+02
2.450000e-06	5.242364e-06	4.021843e-09	5.647258e+01	2.617868e+02
2.460000e-06	5.231336e-06	3.992771e-09	5.635378e+01	2.616282e+02
2.470000e-06	5.219670e-06	3.947029e-09	5.622811e+01	2.614505e+02
2.480000e-06	5.207782e-06	4.023070e-09	5.610005e+01	2.612553e+02
2.490000e-06	5.194870e-06	4.086485e-09	5.596095e+01	2.610444e+02
2.500000e-06	5.180258e-06	3.921450e-09	5.580354e+01	2.608197e+02
2.510000e-06	5.164632e-06	4.009342e-09	5.563522e+01	2.605831e+02
2.520000e-06	5.148543e-06	4.032012e-09	5.546191e+01	2.603360e+02
2.530000e-06	5.131449e-06	3.890089e-09	5.527777e+01	2.600799e+02
2.540000e-06	5.113292e-06	4.029783e-09	5.508216e+01	2.598153e+02
2.550000e-06	5.094570e-06	4.057027e-09	5.488048e+01	2.595424e+02
2.560000e-06	5.075178e-06	3.860288e-09	5.467159e+01	2.592606e+02
2.570000e-06	5.054912e-06	3.939473e-09	5.445328e+01	2.589687e+02
2.580000e-06	5.033610e-06	4.094866e-09	5.422381e+01	2.586649e+02
2.590000e-06	5.011086e-06	3.881770e-09	5.398116e+01	2.583470e+02
2.600000e-06	4.987547e-06	3.882897e-09	5.372760e+01	2.580121e+02
2.610000e-06	4.963107e-06	4.014965e-09	5.346433e+01	2.576574e+02
2.620000e-06	4.937776e-06	3.902645e-09	5.319145e+01	2.572801e+02
2.630000e-06	4.911768e-06	3.914571e-09	5.291128e+01	2.568774e+02
2.640000e-06	4.884961e-06	3.902537e-09	5.262251e+01	2.564469e+02
2.650000e-06	4.857265e-06	3.852699e-09	5.232416e+01	2.559868e+02
2.660000e-06	4.828894e-06	3.966622e-09	5.201853e+01	2.554959e+02
2.670000e-06	4.799543e-06	3.862501e-09	5.170235e+01	2.549738e+02
2.680000e-06	4.768837e-06	3.798622e-09	5.137158e+01	2.544209e+02
2.690000e-06	4.737147e-06	3.932636e-09	5.103021e+01	2.538382e+02
2.700000e-06	4.704796e-06	3.812804e-09	5.068171e+01	2.532274e+02
2.710000e-06	4.671594e-06	3.790960e-09	5.032405e+01	2.525910e+02
2.720000e-06	4.637551e-06	3.901464e-09	4.995732e+01	2.519315e+02
2.730000e-06	4.602834e-06	3.783323e-09	4.958333e+01	2.512518e+02
2.740000e-06	4.567381e-06	3.747160e-09	4.920143e+01	2.505547e+02
2.750000e-06	4.531223e-06	3.834976e-09	4.881192e+01	2.498429e+02
2.760000e-06	4.494370e-06	3.829235e-09	4.841493e+01	2.491186e+02
2.770000e-06	4.456656e-06	3.726439e-09	4.800865e+01	2.483833e+02
2.780000e-06	4.417843e-06	3.688482e-09	4.759055e+01	2.476380e+02
2.790000e-06	4.378052e-06	3.798286e-09	4.716190e+01	2.468829e+02
2.800000e-06	4.337533e-06	3.778130e-09	4.672542e+01	2.461174e+02
2.810000e-06	4.296351e-06	3.671854e-09	4.628180e+01	2.453402e+02
2.820000e-06	4.254527e-06	3.679525e-09	4.583125e+01	2.445493e+02
2.830000e-06	4.211981e-06	3.718251e-09	4.537293e+01	2.437424e+02
2.840000e-06	4.168736e-06	3.722677e-09	4.490708e+01	2.429168e+02
2.850000e-06	4.124941e-06	3.652571e-09	4.443531e+01	2.420696e+02
2.860000e-06	4.080652e-06	3.636619e-09	4.395821e+01	2.411981e+02
2.870000e-06	4.035758e-06	3.662616e-09	4.347460e+01	2.403000e+02
2.880000e-06	3.990136e-06	3.613546e-09	4.298314e+01	2.393732e+02
2.890000e-06	3.943728e-06	3.622337e-09	4.248322e+01	2.384162e+02
2.900000e-06	3.896686e-06	3.615718e-09	4.197647e+01	2.374283e+02
2.910000e-06	3.849027e-06	3.559093e-09	4.146307e+01	2.364093e+02
2.920000e-06	3.800516e-06	3.557861e-09	4.094048e+01	2.353596e+02
2.930000e-06	3.751147e-06	3.581693e-09	4.040867e+01	2.342804e+02
2.940000e-06	3.701100e-06	3.562955e-09	3.986955e+01	2.331728e+02
2.950000e-06	3.650425e-06	3.489072e-09	3.932365e+01	2.320385e+02
