# Temperatura_=_20.0
# Concentracion g/m^3_=_9000.0
# C_Vs_to_Am_M_A/Vsm_=_65563218390.804596
# pendiente_HvsI_1/m_=_3716.3
# ordenada_HvsI_A/m_=_1297.0
# frecuencia_Hz_=_212887.24691158655

Tiempo_(s)	Campo_(V.s)	Magnetizacion_(V.s)	Campo_(kA/m)	Magnetizacion_(A/m)
0.000000e+00	-5.285657e-06	-4.013562e-09	-5.697360e+01	-2.629068e+02
1.000000e-08	-5.284888e-06	-4.013854e-09	-5.696531e+01	-2.628794e+02
2.000000e-08	-5.282847e-06	-4.014025e-09	-5.694331e+01	-2.628355e+02
3.000000e-08	-5.279758e-06	-4.010974e-09	-5.691002e+01	-2.627754e+02
4.000000e-08	-5.275914e-06	-4.005968e-09	-5.686858e+01	-2.626999e+02
5.000000e-08	-5.271310e-06	-4.004458e-09	-5.681895e+01	-2.626096e+02
6.000000e-08	-5.265910e-06	-4.004144e-09	-5.676075e+01	-2.625055e+02
7.000000e-08	-5.259653e-06	-3.997419e-09	-5.669330e+01	-2.623886e+02
8.000000e-08	-5.252477e-06	-3.993856e-09	-5.661596e+01	-2.622601e+02
9.000000e-08	-5.244455e-06	-4.017282e-09	-5.652948e+01	-2.621210e+02
1.000000e-07	-5.235164e-06	-4.056531e-09	-5.642934e+01	-2.619723e+02
1.100000e-07	-5.224374e-06	-4.040771e-09	-5.631303e+01	-2.618148e+02
1.200000e-07	-5.212590e-06	-3.951440e-09	-5.618602e+01	-2.616490e+02
1.300000e-07	-5.200076e-06	-3.888733e-09	-5.605113e+01	-2.614748e+02
1.400000e-07	-5.186723e-06	-3.990360e-09	-5.590720e+01	-2.612921e+02
1.500000e-07	-5.172524e-06	-4.081603e-09	-5.575415e+01	-2.611001e+02
1.600000e-07	-5.157423e-06	-3.966114e-09	-5.559138e+01	-2.608973e+02
1.700000e-07	-5.141007e-06	-3.915902e-09	-5.541443e+01	-2.606822e+02
1.800000e-07	-5.123411e-06	-3.939068e-09	-5.522477e+01	-2.604524e+02
1.900000e-07	-5.105311e-06	-3.955314e-09	-5.502966e+01	-2.602056e+02
2.000000e-07	-5.086645e-06	-4.028107e-09	-5.482846e+01	-2.599390e+02
2.100000e-07	-5.066950e-06	-3.987365e-09	-5.461617e+01	-2.596499e+02
2.200000e-07	-5.046379e-06	-3.831345e-09	-5.439445e+01	-2.593354e+02
2.300000e-07	-5.025182e-06	-3.890338e-09	-5.416596e+01	-2.589931e+02
2.400000e-07	-5.003086e-06	-4.070742e-09	-5.392779e+01	-2.586209e+02
2.500000e-07	-4.980065e-06	-3.974246e-09	-5.367965e+01	-2.582170e+02
2.600000e-07	-4.956310e-06	-3.836078e-09	-5.342360e+01	-2.577804e+02
2.700000e-07	-4.931680e-06	-3.894953e-09	-5.315811e+01	-2.573109e+02
2.800000e-07	-4.905939e-06	-3.987869e-09	-5.288066e+01	-2.568087e+02
2.900000e-07	-4.879052e-06	-3.963029e-09	-5.259084e+01	-2.562751e+02
3.000000e-07	-4.851280e-06	-3.879838e-09	-5.229149e+01	-2.557119e+02
3.100000e-07	-4.822788e-06	-3.864850e-09	-5.198438e+01	-2.551214e+02
3.200000e-07	-4.793432e-06	-3.890524e-09	-5.166795e+01	-2.545067e+02
3.300000e-07	-4.763157e-06	-3.905253e-09	-5.134162e+01	-2.538709e+02
3.400000e-07	-4.732169e-06	-3.914219e-09	-5.100761e+01	-2.532175e+02
3.500000e-07	-4.700547e-06	-3.854134e-09	-5.066676e+01	-2.525497e+02
3.600000e-07	-4.668174e-06	-3.777176e-09	-5.031781e+01	-2.518707e+02
3.700000e-07	-4.634936e-06	-3.854698e-09	-4.995954e+01	-2.511830e+02
3.800000e-07	-4.600537e-06	-3.919810e-09	-4.958876e+01	-2.504888e+02
3.900000e-07	-4.564988e-06	-3.804126e-09	-4.920558e+01	-2.497895e+02
4.000000e-07	-4.528739e-06	-3.729700e-09	-4.881485e+01	-2.490856e+02
4.100000e-07	-4.491912e-06	-3.820693e-09	-4.841790e+01	-2.483769e+02
4.200000e-07	-4.454263e-06	-3.856911e-09	-4.801208e+01	-2.476625e+02
4.300000e-07	-4.415648e-06	-3.768322e-09	-4.759586e+01	-2.469406e+02
4.400000e-07	-4.376342e-06	-3.725031e-09	-4.717218e+01	-2.462089e+02
4.500000e-07	-4.336664e-06	-3.755868e-09	-4.674450e+01	-2.454647e+02
4.600000e-07	-4.296297e-06	-3.767739e-09	-4.630938e+01	-2.447047e+02
4.700000e-07	-4.254812e-06	-3.739367e-09	-4.586222e+01	-2.439258e+02
4.800000e-07	-4.212275e-06	-3.706500e-09	-4.540372e+01	-2.431248e+02
4.900000e-07	-4.168945e-06	-3.684105e-09	-4.493666e+01	-2.422989e+02
5.000000e-07	-4.125022e-06	-3.685713e-09	-4.446322e+01	-2.414456e+02
5.100000e-07	-4.080505e-06	-3.695750e-09	-4.398338e+01	-2.405630e+02
5.200000e-07	-4.035345e-06	-3.666499e-09	-4.349661e+01	-2.396495e+02
5.300000e-07	-3.989479e-06	-3.620009e-09	-4.300222e+01	-2.387045e+02
5.400000e-07	-3.942855e-06	-3.615161e-09	-4.249967e+01	-2.377279e+02
5.500000e-07	-3.895621e-06	-3.634884e-09	-4.199053e+01	-2.367199e+02
5.600000e-07	-3.847806e-06	-3.615241e-09	-4.147514e+01	-2.356814e+02
5.700000e-07	-3.799117e-06	-3.561666e-09	-4.095032e+01	-2.346135e+02
5.800000e-07	-3.749387e-06	-3.541779e-09	-4.041429e+01	-2.335175e+02
5.900000e-07	-3.698704e-06	-3.558501e-09	-3.986799e+01	-2.323945e+02
6.000000e-07	-3.647186e-06	-3.547163e-09	-3.931267e+01	-2.312456e+02
6.100000e-07	-3.594954e-06	-3.498185e-09	-3.874967e+01	-2.300716e+02
6.200000e-07	-3.542099e-06	-3.473585e-09	-3.817995e+01	-2.288727e+02
6.300000e-07	-3.488599e-06	-3.482602e-09	-3.760328e+01	-2.276486e+02
6.400000e-07	-3.434446e-06	-3.468132e-09	-3.701957e+01	-2.263986e+02
6.500000e-07	-3.379665e-06	-3.429904e-09	-3.642909e+01	-2.251213e+02
6.600000e-07	-3.324377e-06	-3.405198e-09	-3.583315e+01	-2.238149e+02
6.700000e-07	-3.268695e-06	-3.389586e-09	-3.523295e+01	-2.224771e+02
6.800000e-07	-3.212596e-06	-3.373110e-09	-3.462827e+01	-2.211054e+02
6.900000e-07	-3.155770e-06	-3.351170e-09	-3.401574e+01	-2.196971e+02
7.000000e-07	-3.097906e-06	-3.317253e-09	-3.339204e+01	-2.182496e+02
7.100000e-07	-3.039169e-06	-3.285681e-09	-3.275892e+01	-2.167605e+02
7.200000e-07	-2.979928e-06	-3.271099e-09	-3.212037e+01	-2.152275e+02
7.300000e-07	-2.920344e-06	-3.257339e-09	-3.147811e+01	-2.136489e+02
7.400000e-07	-2.860295e-06	-3.221068e-09	-3.083085e+01	-2.120235e+02
7.500000e-07	-2.799716e-06	-3.184922e-09	-3.017788e+01	-2.103504e+02
7.600000e-07	-2.738673e-06	-3.169412e-09	-2.951990e+01	-2.086294e+02
7.700000e-07	-2.677245e-06	-3.150903e-09	-2.885778e+01	-2.068608e+02
7.800000e-07	-2.615394e-06	-3.113292e-09	-2.819109e+01	-2.050448e+02
7.900000e-07	-2.553069e-06	-3.073158e-09	-2.751929e+01	-2.031824e+02
8.000000e-07	-2.490301e-06	-3.051764e-09	-2.684272e+01	-2.012739e+02
8.100000e-07	-2.427124e-06	-3.034480e-09	-2.616174e+01	-1.993201e+02
8.200000e-07	-2.363600e-06	-2.999835e-09	-2.547703e+01	-1.973209e+02
8.300000e-07	-2.299771e-06	-2.956664e-09	-2.478902e+01	-1.952759e+02
8.400000e-07	-2.235626e-06	-2.923910e-09	-2.409760e+01	-1.931841e+02
8.500000e-07	-2.171222e-06	-2.900041e-09	-2.340340e+01	-1.910437e+02
8.600000e-07	-2.106547e-06	-2.867195e-09	-2.270627e+01	-1.888519e+02
8.700000e-07	-2.041326e-06	-2.823325e-09	-2.200326e+01	-1.866052e+02
8.800000e-07	-1.975448e-06	-2.781515e-09	-2.129317e+01	-1.842995e+02
8.900000e-07	-1.909044e-06	-2.748258e-09	-2.057741e+01	-1.819297e+02
9.000000e-07	-1.842280e-06	-2.717265e-09	-1.985776e+01	-1.794903e+02
9.100000e-07	-1.775250e-06	-2.675884e-09	-1.913526e+01	-1.769754e+02
9.200000e-07	-1.707944e-06	-2.627995e-09	-1.840977e+01	-1.743789e+02
9.300000e-07	-1.640394e-06	-2.588392e-09	-1.768166e+01	-1.716946e+02
9.400000e-07	-1.572710e-06	-2.553888e-09	-1.695209e+01	-1.689164e+02
9.500000e-07	-1.504848e-06	-2.508718e-09	-1.622061e+01	-1.660384e+02
9.600000e-07	-1.436697e-06	-2.448143e-09	-1.548602e+01	-1.630549e+02
9.700000e-07	-1.368300e-06	-2.393065e-09	-1.474878e+01	-1.599607e+02
9.800000e-07	-1.299751e-06	-2.350879e-09	-1.400990e+01	-1.567507e+02
9.900000e-07	-1.230973e-06	-2.305108e-09	-1.326854e+01	-1.534199e+02
1.000000e-06	-1.161923e-06	-2.249178e-09	-1.252426e+01	-1.499635e+02
1.010000e-06	-1.092625e-06	-2.188802e-09	-1.177730e+01	-1.463763e+02
1.020000e-06	-1.023062e-06	-2.134038e-09	-1.102748e+01	-1.426528e+02
1.030000e-06	-9.533450e-07	-2.079791e-09	-1.027602e+01	-1.387869e+02
1.040000e-06	-8.835475e-07	-2.018718e-09	-9.523676e+00	-1.347715e+02
1.050000e-06	-8.135507e-07	-1.950788e-09	-8.769187e+00	-1.305985e+02
1.060000e-06	-7.433253e-07	-1.877459e-09	-8.012234e+00	-1.262588e+02
1.070000e-06	-6.729288e-07	-1.806210e-09	-7.253436e+00	-1.217418e+02
1.080000e-06	-6.023916e-07	-1.735978e-09	-6.493122e+00	-1.170360e+02
1.090000e-06	-5.317862e-07	-1.657496e-09	-5.732073e+00	-1.121288e+02
1.100000e-06	-4.610867e-07	-1.572728e-09	-4.970010e+00	-1.070071e+02
1.110000e-06	-3.902883e-07	-1.490967e-09	-4.206881e+00	-1.016571e+02
1.120000e-06	-3.194615e-07	-1.410422e-09	-3.443446e+00	-9.606566e+01
1.130000e-06	-2.486124e-07	-1.321882e-09	-2.679770e+00	-9.022002e+01
1.140000e-06	-1.776833e-07	-1.222650e-09	-1.915232e+00	-8.410902e+01
1.150000e-06	-1.067207e-07	-1.121100e-09	-1.150333e+00	-7.772358e+01
1.160000e-06	-3.574392e-08	-1.022329e-09	-3.852804e-01	-7.105740e+01
1.170000e-06	3.524397e-08	-9.204482e-10	3.798914e-01	-6.410761e+01
1.180000e-06	1.061165e-07	-8.090543e-10	1.143819e+00	-5.687543e+01
1.190000e-06	1.769423e-07	-6.928899e-10	1.907245e+00	-4.936656e+01
1.200000e-06	2.477153e-07	-5.771985e-10	2.670100e+00	-4.159163e+01
1.210000e-06	3.184157e-07	-4.563169e-10	3.432173e+00	-3.356637e+01
1.220000e-06	3.891081e-07	-3.290696e-10	4.194160e+00	-2.531167e+01
1.230000e-06	4.597460e-07	-1.973370e-10	4.955559e+00	-1.685339e+01
1.240000e-06	5.303158e-07	-6.432584e-11	5.716224e+00	-8.222083e+00
1.250000e-06	6.007121e-07	6.773648e-11	6.475019e+00	5.475615e-01
1.260000e-06	6.709258e-07	2.003549e-10	7.231846e+00	9.417367e+00
1.270000e-06	7.410502e-07	3.355293e-10	7.987710e+00	1.834648e+01
1.280000e-06	8.110524e-07	4.735903e-10	8.742258e+00	2.729230e+01
1.290000e-06	8.808785e-07	6.117225e-10	9.494906e+00	3.621143e+01
1.300000e-06	9.505472e-07	7.492387e-10	1.024586e+01	4.506074e+01
1.310000e-06	1.020017e-06	8.854440e-10	1.099466e+01	5.379834e+01
1.320000e-06	1.089273e-06	1.017927e-09	1.174117e+01	6.238455e+01
1.330000e-06	1.158375e-06	1.146599e-09	1.248602e+01	7.078275e+01
1.340000e-06	1.227290e-06	1.270775e-09	1.322884e+01	7.896017e+01
1.350000e-06	1.296040e-06	1.388375e-09	1.396990e+01	8.688844e+01
1.360000e-06	1.364523e-06	1.501238e-09	1.470807e+01	9.454411e+01
1.370000e-06	1.432722e-06	1.610131e-09	1.544318e+01	1.019088e+02
1.380000e-06	1.500755e-06	1.714865e-09	1.617650e+01	1.089695e+02
1.390000e-06	1.568598e-06	1.815395e-09	1.690777e+01	1.157181e+02
1.400000e-06	1.636234e-06	1.911524e-09	1.763682e+01	1.221517e+02
1.410000e-06	1.703672e-06	2.003536e-09	1.836372e+01	1.282716e+02
1.420000e-06	1.770949e-06	2.091788e-09	1.908890e+01	1.340834e+02
1.430000e-06	1.837961e-06	2.175077e-09	1.981120e+01	1.395960e+02
1.440000e-06	1.904605e-06	2.252881e-09	2.052956e+01	1.448213e+02
1.450000e-06	1.970901e-06	2.326391e-09	2.124416e+01	1.497730e+02
1.460000e-06	2.036608e-06	2.396707e-09	2.195240e+01	1.544668e+02
1.470000e-06	2.101750e-06	2.464031e-09	2.265456e+01	1.589187e+02
1.480000e-06	2.166446e-06	2.528872e-09	2.335192e+01	1.631456e+02
1.490000e-06	2.230645e-06	2.591002e-09	2.404392e+01	1.671638e+02
1.500000e-06	2.294458e-06	2.648101e-09	2.473175e+01	1.709892e+02
1.510000e-06	2.357950e-06	2.703167e-09	2.541612e+01	1.746368e+02
1.520000e-06	2.421127e-06	2.757692e-09	2.609710e+01	1.781202e+02
1.530000e-06	2.483933e-06	2.807811e-09	2.677408e+01	1.814521e+02
1.540000e-06	2.546309e-06	2.854356e-09	2.744643e+01	1.846435e+02
1.550000e-06	2.608227e-06	2.897141e-09	2.811383e+01	1.877044e+02
1.560000e-06	2.669735e-06	2.938685e-09	2.877682e+01	1.906433e+02
1.570000e-06	2.730839e-06	2.979759e-09	2.943545e+01	1.934676e+02
1.580000e-06	2.791418e-06	3.019674e-09	3.008843e+01	1.961840e+02
1.590000e-06	2.851482e-06	3.058657e-09	3.073585e+01	1.987979e+02
1.600000e-06	2.911172e-06	3.096128e-09	3.137925e+01	2.013144e+02
1.610000e-06	2.970506e-06	3.132835e-09	3.201880e+01	2.037378e+02
1.620000e-06	3.029343e-06	3.168891e-09	3.265300e+01	2.060723e+02
1.630000e-06	3.087482e-06	3.204167e-09	3.327968e+01	2.083216e+02
1.640000e-06	3.144785e-06	3.234768e-09	3.389734e+01	2.104892e+02
1.650000e-06	3.201284e-06	3.262661e-09	3.450634e+01	2.125787e+02
1.660000e-06	3.257131e-06	3.292691e-09	3.510831e+01	2.145932e+02
1.670000e-06	3.312534e-06	3.322512e-09	3.570550e+01	2.165361e+02
1.680000e-06	3.367530e-06	3.349432e-09	3.629829e+01	2.184104e+02
1.690000e-06	3.422000e-06	3.374665e-09	3.688542e+01	2.202192e+02
1.700000e-06	3.475859e-06	3.400186e-09	3.746595e+01	2.219653e+02
1.710000e-06	3.529123e-06	3.426326e-09	3.804008e+01	2.236514e+02
1.720000e-06	3.581851e-06	3.450782e-09	3.860843e+01	2.252800e+02
1.730000e-06	3.633922e-06	3.473668e-09	3.916971e+01	2.268535e+02
1.740000e-06	3.685257e-06	3.496368e-09	3.972304e+01	2.283738e+02
1.750000e-06	3.735837e-06	3.518690e-09	4.026824e+01	2.298429e+02
1.760000e-06	3.785500e-06	3.539341e-09	4.080355e+01	2.312624e+02
1.770000e-06	3.834124e-06	3.558909e-09	4.132766e+01	2.326339e+02
1.780000e-06	3.881917e-06	3.578471e-09	4.184282e+01	2.339587e+02
1.790000e-06	3.929162e-06	3.597460e-09	4.235207e+01	2.352380e+02
1.800000e-06	3.975875e-06	3.616132e-09	4.285558e+01	2.364730e+02
1.810000e-06	4.021894e-06	3.634614e-09	4.335161e+01	2.376646e+02
1.820000e-06	4.067121e-06	3.653082e-09	4.383912e+01	2.388141e+02
1.830000e-06	4.111665e-06	3.671662e-09	4.431925e+01	2.399223e+02
1.840000e-06	4.155615e-06	3.689442e-09	4.479299e+01	2.409905e+02
1.850000e-06	4.199076e-06	3.704677e-09	4.526144e+01	2.420196e+02
1.860000e-06	4.241919e-06	3.718920e-09	4.572324e+01	2.430108e+02
1.870000e-06	4.283747e-06	3.734133e-09	4.617410e+01	2.439653e+02
1.880000e-06	4.324481e-06	3.748545e-09	4.661317e+01	2.448843e+02
1.890000e-06	4.364358e-06	3.761004e-09	4.704300e+01	2.457691e+02
1.900000e-06	4.403613e-06	3.772952e-09	4.746614e+01	2.466211e+02
1.910000e-06	4.442234e-06	3.785824e-09	4.788242e+01	2.474414e+02
1.920000e-06	4.480069e-06	3.798471e-09	4.829024e+01	2.482316e+02
1.930000e-06	4.517046e-06	3.811635e-09	4.868881e+01	2.489928e+02
1.940000e-06	4.553253e-06	3.824517e-09	4.907909e+01	2.497265e+02
1.950000e-06	4.588864e-06	3.835675e-09	4.946294e+01	2.504339e+02
1.960000e-06	4.623842e-06	3.846907e-09	4.983996e+01	2.511163e+02
1.970000e-06	4.657811e-06	3.857466e-09	5.020611e+01	2.517750e+02
1.980000e-06	4.690572e-06	3.867569e-09	5.055923e+01	2.524110e+02
1.990000e-06	4.722375e-06	3.878167e-09	5.090204e+01	2.530254e+02
2.000000e-06	4.753497e-06	3.886852e-09	5.123750e+01	2.536193e+02
2.010000e-06	4.783930e-06	3.895995e-09	5.156554e+01	2.541934e+02
2.020000e-06	4.813542e-06	3.905763e-09	5.188472e+01	2.547487e+02
2.030000e-06	4.842327e-06	3.914821e-09	5.219499e+01	2.552858e+02
2.040000e-06	4.870352e-06	3.924819e-09	5.249706e+01	2.558051e+02
2.050000e-06	4.897700e-06	3.934114e-09	5.279185e+01	2.563070e+02
2.060000e-06	4.924207e-06	3.942055e-09	5.307757e+01	2.567919e+02
2.070000e-06	4.949614e-06	3.949490e-09	5.335142e+01	2.572598e+02
2.080000e-06	4.973894e-06	3.957627e-09	5.361314e+01	2.577108e+02
2.090000e-06	4.997285e-06	3.965589e-09	5.386527e+01	2.581447e+02
2.100000e-06	5.019908e-06	3.973167e-09	5.410911e+01	2.585614e+02
2.110000e-06	5.041653e-06	3.978748e-09	5.434350e+01	2.589606e+02
2.120000e-06	5.062550e-06	3.983098e-09	5.456875e+01	2.593419e+02
2.130000e-06	5.082698e-06	3.989295e-09	5.478592e+01	2.597053e+02
2.140000e-06	5.102189e-06	3.995248e-09	5.499601e+01	2.600503e+02
2.150000e-06	5.120918e-06	4.001648e-09	5.519789e+01	2.603767e+02
2.160000e-06	5.138694e-06	4.007388e-09	5.538950e+01	2.606845e+02
2.170000e-06	5.155593e-06	4.013107e-09	5.557166e+01	2.609736e+02
2.180000e-06	5.171643e-06	4.020132e-09	5.574465e+01	2.612441e+02
2.190000e-06	5.186592e-06	4.025115e-09	5.590578e+01	2.614961e+02
2.200000e-06	5.200454e-06	4.028551e-09	5.605520e+01	2.617300e+02
2.210000e-06	5.213363e-06	4.033107e-09	5.619435e+01	2.619459e+02
2.220000e-06	5.225373e-06	4.037974e-09	5.632380e+01	2.621443e+02
2.230000e-06	5.236449e-06	4.040996e-09	5.644319e+01	2.623257e+02
2.240000e-06	5.246380e-06	4.042301e-09	5.655024e+01	2.624903e+02
2.250000e-06	5.255027e-06	4.045495e-09	5.664344e+01	2.626386e+02
2.260000e-06	5.262612e-06	4.049702e-09	5.672520e+01	2.627709e+02
2.270000e-06	5.269393e-06	4.052921e-09	5.679829e+01	2.628873e+02
2.280000e-06	5.275322e-06	4.055179e-09	5.686220e+01	2.629879e+02
2.290000e-06	5.280325e-06	4.057458e-09	5.691613e+01	2.630727e+02
2.300000e-06	5.284479e-06	4.060452e-09	5.696090e+01	2.631416e+02
2.310000e-06	5.287914e-06	4.062938e-09	5.699792e+01	2.631945e+02
2.320000e-06	5.290478e-06	4.065228e-09	5.702556e+01	2.632312e+02
2.330000e-06	5.291801e-06	4.066328e-09	5.703983e+01	2.632513e+02
2.340000e-06	5.291956e-06	4.068834e-09	5.704150e+01	2.632548e+02
2.350000e-06	5.291308e-06	4.071315e-09	5.703451e+01	2.632415e+02
2.360000e-06	5.289885e-06	4.071294e-09	5.701917e+01	2.632116e+02
2.370000e-06	5.287603e-06	4.068066e-09	5.699458e+01	2.631653e+02
2.380000e-06	5.284400e-06	4.066948e-09	5.696005e+01	2.631029e+02
2.390000e-06	5.280414e-06	4.069536e-09	5.691708e+01	2.630250e+02
2.400000e-06	5.275838e-06	4.071786e-09	5.686777e+01	2.629326e+02
2.410000e-06	5.270460e-06	4.075992e-09	5.680979e+01	2.628265e+02
2.420000e-06	5.263924e-06	4.081270e-09	5.673934e+01	2.627078e+02
2.430000e-06	5.256203e-06	4.070606e-09	5.665612e+01	2.625776e+02
2.440000e-06	5.247477e-06	4.015612e-09	5.656206e+01	2.624370e+02
2.450000e-06	5.237575e-06	3.998698e-09	5.645533e+01	2.622869e+02
2.460000e-06	5.226394e-06	4.056337e-09	5.633481e+01	2.621281e+02
2.470000e-06	5.214566e-06	4.153847e-09	5.620732e+01	2.619610e+02
2.480000e-06	5.202610e-06	4.097078e-09	5.607844e+01	2.617856e+02
2.490000e-06	5.189645e-06	3.968638e-09	5.593869e+01	2.616015e+02
2.500000e-06	5.174760e-06	4.037405e-09	5.577826e+01	2.614079e+02
2.510000e-06	5.158878e-06	4.107466e-09	5.560707e+01	2.612034e+02
2.520000e-06	5.142706e-06	4.074753e-09	5.543275e+01	2.609862e+02
2.530000e-06	5.125458e-06	4.073664e-09	5.524683e+01	2.607541e+02
2.540000e-06	5.107132e-06	4.016808e-09	5.504930e+01	2.605045e+02
2.550000e-06	5.088413e-06	3.938297e-09	5.484753e+01	2.602347e+02
2.560000e-06	5.069031e-06	4.061592e-09	5.463861e+01	2.599419e+02
2.570000e-06	5.048689e-06	4.073375e-09	5.441935e+01	2.596234e+02
2.580000e-06	5.027338e-06	3.878500e-09	5.418921e+01	2.592767e+02
2.590000e-06	5.004770e-06	3.907733e-09	5.394595e+01	2.588998e+02
2.600000e-06	4.981128e-06	4.036308e-09	5.369111e+01	2.584910e+02
2.610000e-06	4.956511e-06	3.920937e-09	5.342576e+01	2.580495e+02
2.620000e-06	4.930945e-06	3.804566e-09	5.315019e+01	2.575750e+02
2.630000e-06	4.904800e-06	3.849062e-09	5.286838e+01	2.570680e+02
2.640000e-06	4.877948e-06	3.872291e-09	5.257894e+01	2.565298e+02
2.650000e-06	4.850114e-06	3.866063e-09	5.227892e+01	2.559623e+02
2.660000e-06	4.821653e-06	3.839616e-09	5.197214e+01	2.553680e+02
2.670000e-06	4.792246e-06	3.818463e-09	5.165517e+01	2.547499e+02
2.680000e-06	4.761327e-06	3.796277e-09	5.132189e+01	2.541112e+02
2.690000e-06	4.729431e-06	3.773002e-09	5.097809e+01	2.534554e+02
2.700000e-06	4.697005e-06	3.860142e-09	5.062858e+01	2.527857e+02
2.710000e-06	4.663731e-06	3.821895e-09	5.026992e+01	2.521052e+02
2.720000e-06	4.629487e-06	3.669071e-09	4.990081e+01	2.514165e+02
2.730000e-06	4.594591e-06	3.753663e-09	4.952466e+01	2.507214e+02
2.740000e-06	4.559092e-06	3.843921e-09	4.914202e+01	2.500213e+02
2.750000e-06	4.522799e-06	3.742977e-09	4.875082e+01	2.493167e+02
2.760000e-06	4.485764e-06	3.665509e-09	4.835163e+01	2.486073e+02
2.770000e-06	4.447862e-06	3.705280e-09	4.794309e+01	2.478919e+02
2.780000e-06	4.408845e-06	3.761156e-09	4.752253e+01	2.471687e+02
2.790000e-06	4.368884e-06	3.700536e-09	4.709179e+01	2.464353e+02
2.800000e-06	4.328321e-06	3.648631e-09	4.665457e+01	2.456888e+02
2.810000e-06	4.287202e-06	3.677507e-09	4.621134e+01	2.449262e+02
2.820000e-06	4.245311e-06	3.662852e-09	4.575980e+01	2.441441e+02
2.830000e-06	4.202635e-06	3.649081e-09	4.529981e+01	2.433396e+02
2.840000e-06	4.159362e-06	3.640981e-09	4.483337e+01	2.425097e+02
2.850000e-06	4.115519e-06	3.618326e-09	4.436079e+01	2.416521e+02
2.860000e-06	4.071111e-06	3.597495e-09	4.388213e+01	2.407649e+02
2.870000e-06	4.026165e-06	3.590360e-09	4.339765e+01	2.398467e+02
2.880000e-06	3.980546e-06	3.605936e-09	4.290593e+01	2.388970e+02
2.890000e-06	3.934061e-06	3.560148e-09	4.240487e+01	2.379156e+02
2.900000e-06	3.886866e-06	3.519575e-09	4.189616e+01	2.369029e+02
2.910000e-06	3.839179e-06	3.547058e-09	4.138215e+01	2.358600e+02
2.920000e-06	3.790684e-06	3.547659e-09	4.085942e+01	2.347877e+02
2.930000e-06	3.741235e-06	3.505179e-09	4.032642e+01	2.336876e+02
2.940000e-06	3.691084e-06	3.470871e-09	3.978585e+01	2.325606e+02
2.950000e-06	3.640356e-06	3.483611e-09	3.923906e+01	2.314079e+02
