# Temperatura_=_20.0
# Concentracion g/m^3_=_9000.0
# C_Vs_to_Am_M_A/Vsm_=_65563218390.804596
# pendiente_HvsI_1/m_=_3716.3
# ordenada_HvsI_A/m_=_1297.0
# frecuencia_Hz_=_212891.73781447278

Tiempo_(s)	Campo_(V.s)	Magnetizacion_(V.s)	Campo_(kA/m)	Magnetizacion_(A/m)
0.000000e+00	-5.294202e-06	-3.917276e-09	-5.696950e+01	-2.586844e+02
1.000000e-08	-5.294103e-06	-3.917288e-09	-5.696844e+01	-2.586977e+02
2.000000e-08	-5.293034e-06	-3.916397e-09	-5.695693e+01	-2.587031e+02
3.000000e-08	-5.290739e-06	-3.916926e-09	-5.693224e+01	-2.587008e+02
4.000000e-08	-5.287454e-06	-3.917250e-09	-5.689689e+01	-2.586909e+02
5.000000e-08	-5.283428e-06	-3.915778e-09	-5.685356e+01	-2.586731e+02
6.000000e-08	-5.278651e-06	-3.914460e-09	-5.680216e+01	-2.586470e+02
7.000000e-08	-5.273016e-06	-3.911777e-09	-5.674153e+01	-2.586120e+02
8.000000e-08	-5.266529e-06	-3.911011e-09	-5.667172e+01	-2.585671e+02
9.000000e-08	-5.259139e-06	-3.912024e-09	-5.659219e+01	-2.585113e+02
1.000000e-07	-5.250727e-06	-3.922373e-09	-5.650168e+01	-2.584436e+02
1.100000e-07	-5.241124e-06	-3.941682e-09	-5.639834e+01	-2.583627e+02
1.200000e-07	-5.230184e-06	-3.934769e-09	-5.628062e+01	-2.582672e+02
1.300000e-07	-5.218207e-06	-3.900183e-09	-5.615173e+01	-2.581560e+02
1.400000e-07	-5.205446e-06	-3.854336e-09	-5.601442e+01	-2.580276e+02
1.500000e-07	-5.191851e-06	-3.879413e-09	-5.586813e+01	-2.578809e+02
1.600000e-07	-5.177373e-06	-3.960035e-09	-5.571233e+01	-2.577145e+02
1.700000e-07	-5.161887e-06	-3.901041e-09	-5.554570e+01	-2.575273e+02
1.800000e-07	-5.145166e-06	-3.849808e-09	-5.536577e+01	-2.573182e+02
1.900000e-07	-5.127442e-06	-3.873744e-09	-5.517504e+01	-2.570862e+02
2.000000e-07	-5.109168e-06	-3.869536e-09	-5.497840e+01	-2.568304e+02
2.100000e-07	-5.090199e-06	-3.913435e-09	-5.477428e+01	-2.565502e+02
2.200000e-07	-5.070259e-06	-3.949683e-09	-5.455971e+01	-2.562449e+02
2.300000e-07	-5.049495e-06	-3.872089e-09	-5.433627e+01	-2.559141e+02
2.400000e-07	-5.027992e-06	-3.866606e-09	-5.410488e+01	-2.555577e+02
2.500000e-07	-5.005581e-06	-3.998462e-09	-5.386373e+01	-2.551756e+02
2.600000e-07	-4.982268e-06	-3.964761e-09	-5.361286e+01	-2.547682e+02
2.700000e-07	-4.958181e-06	-3.858779e-09	-5.335367e+01	-2.543359e+02
2.800000e-07	-4.933221e-06	-3.850499e-09	-5.308508e+01	-2.538794e+02
2.900000e-07	-4.907184e-06	-3.888209e-09	-5.280491e+01	-2.533997e+02
3.000000e-07	-4.880104e-06	-3.942802e-09	-5.251350e+01	-2.528981e+02
3.100000e-07	-4.852146e-06	-3.900261e-09	-5.221265e+01	-2.523758e+02
3.200000e-07	-4.823328e-06	-3.798382e-09	-5.190255e+01	-2.518342e+02
3.300000e-07	-4.793623e-06	-3.835732e-09	-5.158290e+01	-2.512751e+02
3.400000e-07	-4.763102e-06	-3.899692e-09	-5.125447e+01	-2.506997e+02
3.500000e-07	-4.731897e-06	-3.856398e-09	-5.091868e+01	-2.501098e+02
3.600000e-07	-4.700027e-06	-3.823496e-09	-5.057574e+01	-2.495066e+02
3.700000e-07	-4.667311e-06	-3.789886e-09	-5.022370e+01	-2.488912e+02
3.800000e-07	-4.633612e-06	-3.781745e-09	-4.986106e+01	-2.482645e+02
3.900000e-07	-4.598845e-06	-3.852737e-09	-4.948695e+01	-2.476271e+02
4.000000e-07	-4.563129e-06	-3.841910e-09	-4.910261e+01	-2.469792e+02
4.100000e-07	-4.526725e-06	-3.728325e-09	-4.871089e+01	-2.463205e+02
4.200000e-07	-4.489620e-06	-3.734751e-09	-4.831161e+01	-2.456505e+02
4.300000e-07	-4.451642e-06	-3.827236e-09	-4.790294e+01	-2.449683e+02
4.400000e-07	-4.412804e-06	-3.795844e-09	-4.748501e+01	-2.442726e+02
4.500000e-07	-4.373338e-06	-3.707192e-09	-4.706032e+01	-2.435620e+02
4.600000e-07	-4.333313e-06	-3.702439e-09	-4.662963e+01	-2.428348e+02
4.700000e-07	-4.292482e-06	-3.734797e-09	-4.619026e+01	-2.420892e+02
4.800000e-07	-4.250636e-06	-3.734965e-09	-4.573996e+01	-2.413234e+02
4.900000e-07	-4.207844e-06	-3.697802e-09	-4.527949e+01	-2.405359e+02
5.000000e-07	-4.164253e-06	-3.655389e-09	-4.481042e+01	-2.397250e+02
5.100000e-07	-4.120034e-06	-3.653648e-09	-4.433459e+01	-2.388896e+02
5.200000e-07	-4.075244e-06	-3.672029e-09	-4.385262e+01	-2.380285e+02
5.300000e-07	-4.029728e-06	-3.658923e-09	-4.336283e+01	-2.371411e+02
5.400000e-07	-3.983414e-06	-3.618826e-09	-4.286446e+01	-2.362271e+02
5.500000e-07	-3.936431e-06	-3.590421e-09	-4.235889e+01	-2.352862e+02
5.600000e-07	-3.888943e-06	-3.595250e-09	-4.184788e+01	-2.343187e+02
5.700000e-07	-3.840808e-06	-3.606643e-09	-4.132991e+01	-2.333248e+02
5.800000e-07	-3.791768e-06	-3.574216e-09	-4.080220e+01	-2.323048e+02
5.900000e-07	-3.741745e-06	-3.523424e-09	-4.026392e+01	-2.312591e+02
6.000000e-07	-3.690866e-06	-3.521073e-09	-3.971643e+01	-2.301881e+02
6.100000e-07	-3.639190e-06	-3.534750e-09	-3.916036e+01	-2.290916e+02
6.200000e-07	-3.586698e-06	-3.502484e-09	-3.859550e+01	-2.279696e+02
6.300000e-07	-3.533535e-06	-3.462468e-09	-3.802344e+01	-2.268215e+02
6.400000e-07	-3.479786e-06	-3.457852e-09	-3.744505e+01	-2.256463e+02
6.500000e-07	-3.425421e-06	-3.451094e-09	-3.686005e+01	-2.244428e+02
6.600000e-07	-3.370442e-06	-3.421765e-09	-3.626843e+01	-2.232094e+02
6.700000e-07	-3.314975e-06	-3.395120e-09	-3.567157e+01	-2.219441e+02
6.800000e-07	-3.259119e-06	-3.374929e-09	-3.507051e+01	-2.206447e+02
6.900000e-07	-3.202701e-06	-3.353374e-09	-3.446341e+01	-2.193090e+02
7.000000e-07	-3.145426e-06	-3.332142e-09	-3.384709e+01	-2.179346e+02
7.100000e-07	-3.087194e-06	-3.308468e-09	-3.322048e+01	-2.165191e+02
7.200000e-07	-3.028248e-06	-3.282946e-09	-3.258617e+01	-2.150606e+02
7.300000e-07	-2.968799e-06	-3.265447e-09	-3.194646e+01	-2.135571e+02
7.400000e-07	-2.908946e-06	-3.250700e-09	-3.130240e+01	-2.120072e+02
7.500000e-07	-2.848667e-06	-3.221277e-09	-3.065375e+01	-2.104097e+02
7.600000e-07	-2.787883e-06	-3.185796e-09	-2.999967e+01	-2.087639e+02
7.700000e-07	-2.726661e-06	-3.164015e-09	-2.934087e+01	-2.070695e+02
7.800000e-07	-2.665025e-06	-3.146189e-09	-2.867763e+01	-2.053263e+02
7.900000e-07	-2.602955e-06	-3.111766e-09	-2.800971e+01	-2.035346e+02
8.000000e-07	-2.540413e-06	-3.069435e-09	-2.733671e+01	-2.016947e+02
8.100000e-07	-2.477417e-06	-3.045204e-09	-2.665882e+01	-1.998068e+02
8.200000e-07	-2.414090e-06	-3.033666e-09	-2.597739e+01	-1.978712e+02
8.300000e-07	-2.350479e-06	-3.003336e-09	-2.529288e+01	-1.958876e+02
8.400000e-07	-2.286502e-06	-2.954943e-09	-2.460444e+01	-1.938554e+02
8.500000e-07	-2.222203e-06	-2.916593e-09	-2.391253e+01	-1.917736e+02
8.600000e-07	-2.157604e-06	-2.893665e-09	-2.321740e+01	-1.896403e+02
8.700000e-07	-2.092573e-06	-2.865081e-09	-2.251762e+01	-1.874532e+02
8.800000e-07	-2.027039e-06	-2.821699e-09	-2.181243e+01	-1.852092e+02
8.900000e-07	-1.960839e-06	-2.776523e-09	-2.110006e+01	-1.829046e+02
9.000000e-07	-1.894099e-06	-2.742924e-09	-2.038189e+01	-1.805349e+02
9.100000e-07	-1.827148e-06	-2.716877e-09	-1.966146e+01	-1.780953e+02
9.200000e-07	-1.759989e-06	-2.680470e-09	-1.893878e+01	-1.755805e+02
9.300000e-07	-1.692564e-06	-2.631283e-09	-1.821324e+01	-1.729848e+02
9.400000e-07	-1.624908e-06	-2.583645e-09	-1.748520e+01	-1.703027e+02
9.500000e-07	-1.557063e-06	-2.545742e-09	-1.675514e+01	-1.675282e+02
9.600000e-07	-1.489054e-06	-2.506043e-09	-1.602331e+01	-1.646555e+02
9.700000e-07	-1.420841e-06	-2.451502e-09	-1.528930e+01	-1.616790e+02
9.800000e-07	-1.352371e-06	-2.394352e-09	-1.455250e+01	-1.585929e+02
9.900000e-07	-1.283605e-06	-2.349502e-09	-1.381253e+01	-1.553917e+02
1.000000e-06	-1.214585e-06	-2.308953e-09	-1.306982e+01	-1.520698e+02
1.010000e-06	-1.145361e-06	-2.257103e-09	-1.232492e+01	-1.486214e+02
1.020000e-06	-1.075854e-06	-2.195602e-09	-1.157698e+01	-1.450406e+02
1.030000e-06	-1.006138e-06	-2.136605e-09	-1.082678e+01	-1.413211e+02
1.040000e-06	-9.362574e-07	-2.082585e-09	-1.007482e+01	-1.374557e+02
1.050000e-06	-8.662343e-07	-2.024243e-09	-9.321317e+00	-1.334370e+02
1.060000e-06	-7.960426e-07	-1.956194e-09	-8.566003e+00	-1.292563e+02
1.070000e-06	-7.256058e-07	-1.882546e-09	-7.808051e+00	-1.249043e+02
1.080000e-06	-6.550185e-07	-1.811278e-09	-7.048480e+00	-1.203708e+02
1.090000e-06	-5.843293e-07	-1.744426e-09	-6.287812e+00	-1.156448e+02
1.100000e-06	-5.135203e-07	-1.669990e-09	-5.525855e+00	-1.107145e+02
1.110000e-06	-4.425923e-07	-1.585237e-09	-4.762618e+00	-1.055681e+02
1.120000e-06	-3.716151e-07	-1.500396e-09	-3.998851e+00	-1.001935e+02
1.130000e-06	-3.005777e-07	-1.418210e-09	-3.234437e+00	-9.457923e+01
1.140000e-06	-2.294638e-07	-1.331265e-09	-2.469199e+00	-8.871481e+01
1.150000e-06	-1.583644e-07	-1.233636e-09	-1.704117e+00	-8.259124e+01
1.160000e-06	-8.732054e-08	-1.130195e-09	-9.396331e-01	-7.620170e+01
1.170000e-06	-1.624268e-08	-1.029318e-09	-1.747831e-01	-6.954209e+01
1.180000e-06	5.491830e-08	-9.292645e-10	5.909612e-01	-6.261163e+01
1.190000e-06	1.260460e-07	-8.220157e-10	1.356348e+00	-5.541333e+01
1.200000e-06	1.970631e-07	-7.059235e-10	2.120544e+00	-4.795444e+01
1.210000e-06	2.680178e-07	-5.882443e-10	2.884068e+00	-4.024671e+01
1.220000e-06	3.388959e-07	-4.696274e-10	3.646769e+00	-3.230659e+01
1.230000e-06	4.096653e-07	-3.451332e-10	4.408299e+00	-2.415518e+01
1.240000e-06	4.803693e-07	-2.165046e-10	5.169126e+00	-1.581813e+01
1.250000e-06	5.509357e-07	-8.730907e-11	5.928473e+00	-7.325274e+00
1.260000e-06	6.214190e-07	4.079318e-11	6.686925e+00	1.289851e+00
1.270000e-06	6.918496e-07	1.700241e-10	7.444810e+00	9.990623e+00
1.280000e-06	7.620575e-07	3.028160e-10	8.200298e+00	1.873809e+01
1.290000e-06	8.320904e-07	4.368527e-10	8.953904e+00	2.749184e+01
1.300000e-06	9.019607e-07	5.702727e-10	9.705759e+00	3.621087e+01
1.310000e-06	9.716529e-07	7.011774e-10	1.045570e+01	4.485457e+01
1.320000e-06	1.041207e-06	8.332088e-10	1.120415e+01	5.338362e+01
1.330000e-06	1.110558e-06	9.642102e-10	1.195042e+01	6.176088e+01
1.340000e-06	1.179717e-06	1.091585e-09	1.269462e+01	6.995219e+01
1.350000e-06	1.248667e-06	1.213606e-09	1.343658e+01	7.792707e+01
1.360000e-06	1.317405e-06	1.329775e-09	1.417624e+01	8.565924e+01
1.370000e-06	1.385886e-06	1.442348e-09	1.491316e+01	9.312704e+01
1.380000e-06	1.454079e-06	1.548925e-09	1.564695e+01	1.003137e+02
1.390000e-06	1.522088e-06	1.649375e-09	1.637879e+01	1.072073e+02
1.400000e-06	1.589954e-06	1.745052e-09	1.710908e+01	1.138008e+02
1.410000e-06	1.657655e-06	1.840218e-09	1.783759e+01	1.200917e+02
1.420000e-06	1.725180e-06	1.932170e-09	1.856421e+01	1.260817e+02
1.430000e-06	1.792506e-06	2.017705e-09	1.928868e+01	1.317764e+02
1.440000e-06	1.859586e-06	2.098897e-09	2.001051e+01	1.371844e+02
1.450000e-06	1.926319e-06	2.178244e-09	2.072861e+01	1.423168e+02
1.460000e-06	1.992566e-06	2.254030e-09	2.144148e+01	1.471869e+02
1.470000e-06	2.058252e-06	2.323226e-09	2.214831e+01	1.518092e+02
1.480000e-06	2.123326e-06	2.387679e-09	2.284854e+01	1.561989e+02
1.490000e-06	2.187818e-06	2.451539e-09	2.354253e+01	1.603715e+02
1.500000e-06	2.251855e-06	2.514256e-09	2.423162e+01	1.643421e+02
1.510000e-06	2.315591e-06	2.571770e-09	2.491745e+01	1.681254e+02
1.520000e-06	2.379128e-06	2.625847e-09	2.560116e+01	1.717352e+02
1.530000e-06	2.442426e-06	2.679183e-09	2.628230e+01	1.751840e+02
1.540000e-06	2.505307e-06	2.731231e-09	2.695895e+01	1.784833e+02
1.550000e-06	2.567663e-06	2.779352e-09	2.762993e+01	1.816432e+02
1.560000e-06	2.629572e-06	2.821503e-09	2.829613e+01	1.846730e+02
1.570000e-06	2.691102e-06	2.860461e-09	2.895824e+01	1.875805e+02
1.580000e-06	2.752201e-06	2.899917e-09	2.961571e+01	1.903727e+02
1.590000e-06	2.812744e-06	2.941537e-09	3.026719e+01	1.930559e+02
1.600000e-06	2.872746e-06	2.980738e-09	3.091285e+01	1.956356e+02
1.610000e-06	2.932424e-06	3.015217e-09	3.155504e+01	1.981167e+02
1.620000e-06	2.991816e-06	3.049488e-09	3.219414e+01	2.005040e+02
1.630000e-06	3.050701e-06	3.085530e-09	3.282778e+01	2.028018e+02
1.640000e-06	3.108757e-06	3.119881e-09	3.345251e+01	2.050143e+02
1.650000e-06	3.165897e-06	3.150021e-09	3.406738e+01	2.071455e+02
1.660000e-06	3.222283e-06	3.178353e-09	3.467413e+01	2.091994e+02
1.670000e-06	3.278147e-06	3.207008e-09	3.527527e+01	2.111797e+02
1.680000e-06	3.333610e-06	3.235383e-09	3.587209e+01	2.130901e+02
1.690000e-06	3.388588e-06	3.262962e-09	3.646370e+01	2.149340e+02
1.700000e-06	3.442970e-06	3.288877e-09	3.704888e+01	2.167147e+02
1.710000e-06	3.496758e-06	3.313546e-09	3.762768e+01	2.184352e+02
1.720000e-06	3.550019e-06	3.338745e-09	3.820081e+01	2.200980e+02
1.730000e-06	3.602688e-06	3.363453e-09	3.876757e+01	2.217057e+02
1.740000e-06	3.654683e-06	3.387015e-09	3.932707e+01	2.232601e+02
1.750000e-06	3.705984e-06	3.410154e-09	3.987910e+01	2.247632e+02
1.760000e-06	3.756398e-06	3.432597e-09	4.042160e+01	2.262163e+02
1.770000e-06	3.805707e-06	3.454038e-09	4.095220e+01	2.276207e+02
1.780000e-06	3.854061e-06	3.474137e-09	4.147253e+01	2.289773e+02
1.790000e-06	3.901744e-06	3.492786e-09	4.198563e+01	2.302871e+02
1.800000e-06	3.948941e-06	3.511132e-09	4.249350e+01	2.315510e+02
1.810000e-06	3.995563e-06	3.530715e-09	4.299520e+01	2.327696e+02
1.820000e-06	4.041449e-06	3.549846e-09	4.348896e+01	2.339439e+02
1.830000e-06	4.086572e-06	3.568070e-09	4.397452e+01	2.350748e+02
1.840000e-06	4.130985e-06	3.586230e-09	4.445243e+01	2.361634e+02
1.850000e-06	4.174846e-06	3.603042e-09	4.492441e+01	2.372107e+02
1.860000e-06	4.218248e-06	3.618091e-09	4.539144e+01	2.382181e+02
1.870000e-06	4.260955e-06	3.632462e-09	4.585100e+01	2.391870e+02
1.880000e-06	4.302560e-06	3.646950e-09	4.629870e+01	2.401188e+02
1.890000e-06	4.343097e-06	3.660254e-09	4.673491e+01	2.410152e+02
1.900000e-06	4.382854e-06	3.672655e-09	4.716273e+01	2.418776e+02
1.910000e-06	4.421957e-06	3.685579e-09	4.758351e+01	2.427076e+02
1.920000e-06	4.460369e-06	3.698320e-09	4.799685e+01	2.435068e+02
1.930000e-06	4.498009e-06	3.710776e-09	4.840188e+01	2.442766e+02
1.940000e-06	4.534844e-06	3.723776e-09	4.879825e+01	2.450183e+02
1.950000e-06	4.570956e-06	3.735697e-09	4.918684e+01	2.457333e+02
1.960000e-06	4.606459e-06	3.745435e-09	4.956888e+01	2.464225e+02
1.970000e-06	4.641182e-06	3.754071e-09	4.994253e+01	2.470871e+02
1.980000e-06	4.674823e-06	3.763111e-09	5.030452e+01	2.477281e+02
1.990000e-06	4.707389e-06	3.772625e-09	5.065496e+01	2.483461e+02
2.000000e-06	4.739144e-06	3.780898e-09	5.099667e+01	2.489422e+02
2.010000e-06	4.770181e-06	3.788009e-09	5.133065e+01	2.495170e+02
2.020000e-06	4.800423e-06	3.795848e-09	5.165608e+01	2.500713e+02
2.030000e-06	4.829861e-06	3.805545e-09	5.197285e+01	2.506058e+02
2.040000e-06	4.858536e-06	3.815855e-09	5.228141e+01	2.511214e+02
2.050000e-06	4.886483e-06	3.825548e-09	5.258214e+01	2.516186e+02
2.060000e-06	4.913724e-06	3.833680e-09	5.287528e+01	2.520983e+02
2.070000e-06	4.940020e-06	3.841998e-09	5.315825e+01	2.525611e+02
2.080000e-06	4.965141e-06	3.850685e-09	5.342856e+01	2.530076e+02
2.090000e-06	4.989221e-06	3.857038e-09	5.368768e+01	2.534385e+02
2.100000e-06	5.012463e-06	3.863549e-09	5.393778e+01	2.538540e+02
2.110000e-06	5.034920e-06	3.871086e-09	5.417944e+01	2.542546e+02
2.120000e-06	5.056551e-06	3.877757e-09	5.441220e+01	2.546403e+02
2.130000e-06	5.077329e-06	3.884278e-09	5.463579e+01	2.550112e+02
2.140000e-06	5.097334e-06	3.891482e-09	5.485106e+01	2.553671e+02
2.150000e-06	5.116644e-06	3.898384e-09	5.505885e+01	2.557076e+02
2.160000e-06	5.135129e-06	3.904066e-09	5.525776e+01	2.560324e+02
2.170000e-06	5.152685e-06	3.907522e-09	5.544667e+01	2.563408e+02
2.180000e-06	5.169323e-06	3.911821e-09	5.562571e+01	2.566322e+02
2.190000e-06	5.185033e-06	3.918330e-09	5.579476e+01	2.569061e+02
2.200000e-06	5.199723e-06	3.924023e-09	5.595284e+01	2.571618e+02
2.210000e-06	5.213387e-06	3.930442e-09	5.609987e+01	2.573989e+02
2.220000e-06	5.226085e-06	3.937406e-09	5.623651e+01	2.576169e+02
2.230000e-06	5.237818e-06	3.944271e-09	5.636277e+01	2.578158e+02
2.240000e-06	5.248439e-06	3.950178e-09	5.647706e+01	2.579954e+02
2.250000e-06	5.257852e-06	3.953103e-09	5.657835e+01	2.581561e+02
2.260000e-06	5.266166e-06	3.955046e-09	5.666782e+01	2.582983e+02
2.270000e-06	5.273554e-06	3.958734e-09	5.674731e+01	2.584227e+02
2.280000e-06	5.280147e-06	3.961509e-09	5.681826e+01	2.585302e+02
2.290000e-06	5.285840e-06	3.963178e-09	5.687951e+01	2.586218e+02
2.300000e-06	5.290634e-06	3.965461e-09	5.693110e+01	2.586987e+02
2.310000e-06	5.294673e-06	3.969067e-09	5.697457e+01	2.587622e+02
2.320000e-06	5.297890e-06	3.973026e-09	5.700918e+01	2.588133e+02
2.330000e-06	5.299997e-06	3.975772e-09	5.703186e+01	2.588533e+02
2.340000e-06	5.300893e-06	3.977847e-09	5.704150e+01	2.588834e+02
2.350000e-06	5.300796e-06	3.979356e-09	5.704045e+01	2.589043e+02
2.360000e-06	5.299846e-06	3.980299e-09	5.703024e+01	2.589168e+02
2.370000e-06	5.298066e-06	3.979158e-09	5.701108e+01	2.589214e+02
2.380000e-06	5.295470e-06	3.976486e-09	5.698315e+01	2.589184e+02
2.390000e-06	5.292128e-06	3.976468e-09	5.694718e+01	2.589077e+02
2.400000e-06	5.288072e-06	3.978705e-09	5.690354e+01	2.588891e+02
2.410000e-06	5.283277e-06	3.981643e-09	5.685194e+01	2.588622e+02
2.420000e-06	5.277559e-06	3.983991e-09	5.679041e+01	2.588263e+02
2.430000e-06	5.270670e-06	3.979090e-09	5.671628e+01	2.587803e+02
2.440000e-06	5.262659e-06	3.975119e-09	5.663007e+01	2.587235e+02
2.450000e-06	5.253577e-06	3.942279e-09	5.653235e+01	2.586545e+02
2.460000e-06	5.243271e-06	3.936088e-09	5.642145e+01	2.585722e+02
2.470000e-06	5.231881e-06	3.964317e-09	5.629889e+01	2.584752e+02
2.480000e-06	5.219996e-06	4.018402e-09	5.617099e+01	2.583623e+02
2.490000e-06	5.207646e-06	4.013409e-09	5.603809e+01	2.582322e+02
2.500000e-06	5.194060e-06	3.920677e-09	5.589190e+01	2.580836e+02
2.510000e-06	5.178987e-06	3.946128e-09	5.572971e+01	2.579152e+02
2.520000e-06	5.163048e-06	4.006917e-09	5.555818e+01	2.577258e+02
2.530000e-06	5.146475e-06	3.970383e-09	5.537985e+01	2.575145e+02
2.540000e-06	5.128896e-06	3.972577e-09	5.519068e+01	2.572802e+02
2.550000e-06	5.110455e-06	3.954442e-09	5.499225e+01	2.570220e+02
2.560000e-06	5.091501e-06	3.856082e-09	5.478829e+01	2.567393e+02
2.570000e-06	5.071827e-06	3.907551e-09	5.457659e+01	2.564315e+02
2.580000e-06	5.051131e-06	3.959469e-09	5.435388e+01	2.560982e+02
2.590000e-06	5.029277e-06	3.825641e-09	5.411871e+01	2.557392e+02
2.600000e-06	5.006281e-06	3.803745e-09	5.387126e+01	2.553546e+02
2.610000e-06	4.982283e-06	3.921385e-09	5.361302e+01	2.549447e+02
2.620000e-06	4.957405e-06	3.887378e-09	5.334532e+01	2.545099e+02
2.630000e-06	4.931745e-06	3.827526e-09	5.306920e+01	2.540511e+02
2.640000e-06	4.905377e-06	3.826355e-09	5.278545e+01	2.535692e+02
2.650000e-06	4.878231e-06	3.796258e-09	5.249334e+01	2.530655e+02
2.660000e-06	4.850283e-06	3.873979e-09	5.219261e+01	2.525412e+02
2.670000e-06	4.821508e-06	3.874745e-09	5.188296e+01	2.519978e+02
2.680000e-06	4.791644e-06	3.758586e-09	5.156161e+01	2.514370e+02
2.690000e-06	4.760538e-06	3.777373e-09	5.122688e+01	2.508602e+02
2.700000e-06	4.728507e-06	3.785751e-09	5.088220e+01	2.502689e+02
2.710000e-06	4.695806e-06	3.798200e-09	5.053032e+01	2.496644e+02
2.720000e-06	4.662261e-06	3.820052e-09	5.016935e+01	2.490479e+02
2.730000e-06	4.627841e-06	3.707298e-09	4.979897e+01	2.484201e+02
2.740000e-06	4.592792e-06	3.697390e-09	4.942181e+01	2.477817e+02
2.750000e-06	4.557095e-06	3.795098e-09	4.903769e+01	2.471327e+02
2.760000e-06	4.520613e-06	3.778532e-09	4.864511e+01	2.464729e+02
2.770000e-06	4.483218e-06	3.693841e-09	4.824271e+01	2.458018e+02
2.780000e-06	4.444851e-06	3.656098e-09	4.782986e+01	2.451183e+02
2.790000e-06	4.405541e-06	3.715304e-09	4.740685e+01	2.444212e+02
2.800000e-06	4.365404e-06	3.733237e-09	4.697496e+01	2.437090e+02
2.810000e-06	4.324652e-06	3.670658e-09	4.653643e+01	2.429801e+02
2.820000e-06	4.283265e-06	3.648952e-09	4.609107e+01	2.422325e+02
2.830000e-06	4.241118e-06	3.644928e-09	4.563754e+01	2.414647e+02
2.840000e-06	4.198259e-06	3.657266e-09	4.517635e+01	2.406749e+02
2.850000e-06	4.154817e-06	3.648978e-09	4.470888e+01	2.398617e+02
2.860000e-06	4.110806e-06	3.614830e-09	4.423529e+01	2.390237e+02
2.870000e-06	4.066235e-06	3.600987e-09	4.375568e+01	2.381601e+02
2.880000e-06	4.021032e-06	3.579570e-09	4.326925e+01	2.372701e+02
2.890000e-06	3.975043e-06	3.591745e-09	4.277438e+01	2.363533e+02
2.900000e-06	3.928303e-06	3.584156e-09	4.227143e+01	2.354098e+02
2.910000e-06	3.880941e-06	3.533540e-09	4.176178e+01	2.344396e+02
2.920000e-06	3.832920e-06	3.526280e-09	4.124503e+01	2.334431e+02
2.930000e-06	3.784107e-06	3.534384e-09	4.071977e+01	2.324206e+02
2.940000e-06	3.734432e-06	3.519603e-09	4.018523e+01	2.313724e+02
2.950000e-06	3.684058e-06	3.482892e-09	3.964317e+01	2.302988e+02
