# Temperatura_=_20.0
# Concentracion g/m^3_=_9000.0
# C_Vs_to_Am_M_A/Vsm_=_65563218390.804596
# pendiente_HvsI_1/m_=_3716.3
# ordenada_HvsI_A/m_=_1297.0
# frecuencia_Hz_=_212892.1844667824

Tiempo_(s)	Campo_(V.s)	Magnetizacion_(V.s)	Campo_(kA/m)	Magnetizacion_(A/m)
0.000000e+00	-5.274264e-06	-3.940754e-09	-5.697320e+01	-2.584811e+02
1.000000e-08	-5.273626e-06	-3.942012e-09	-5.696630e+01	-2.584796e+02
2.000000e-08	-5.271828e-06	-3.938981e-09	-5.694689e+01	-2.584648e+02
3.000000e-08	-5.268942e-06	-3.937953e-09	-5.691571e+01	-2.584356e+02
4.000000e-08	-5.265270e-06	-3.939399e-09	-5.687605e+01	-2.583907e+02
5.000000e-08	-5.260848e-06	-3.940800e-09	-5.682828e+01	-2.583293e+02
6.000000e-08	-5.255584e-06	-3.940497e-09	-5.677141e+01	-2.582508e+02
7.000000e-08	-5.249419e-06	-3.945136e-09	-5.670482e+01	-2.581552e+02
8.000000e-08	-5.242391e-06	-3.957808e-09	-5.662891e+01	-2.580427e+02
9.000000e-08	-5.234468e-06	-3.926891e-09	-5.654332e+01	-2.579142e+02
1.000000e-07	-5.225363e-06	-3.901831e-09	-5.644497e+01	-2.577707e+02
1.100000e-07	-5.214971e-06	-3.901781e-09	-5.633271e+01	-2.576136e+02
1.200000e-07	-5.203498e-06	-3.986923e-09	-5.620878e+01	-2.574447e+02
1.300000e-07	-5.191146e-06	-4.003424e-09	-5.607535e+01	-2.572655e+02
1.400000e-07	-5.177878e-06	-3.837407e-09	-5.593203e+01	-2.570775e+02
1.500000e-07	-5.163700e-06	-3.830295e-09	-5.577888e+01	-2.568820e+02
1.600000e-07	-5.148640e-06	-4.003532e-09	-5.561620e+01	-2.566799e+02
1.700000e-07	-5.132465e-06	-3.898451e-09	-5.544148e+01	-2.564715e+02
1.800000e-07	-5.115179e-06	-3.891250e-09	-5.525475e+01	-2.562568e+02
1.900000e-07	-5.097165e-06	-3.969622e-09	-5.506015e+01	-2.560350e+02
2.000000e-07	-5.078535e-06	-3.767080e-09	-5.485891e+01	-2.558045e+02
2.100000e-07	-5.059062e-06	-3.893336e-09	-5.464856e+01	-2.555634e+02
2.200000e-07	-5.038733e-06	-4.057720e-09	-5.442897e+01	-2.553093e+02
2.300000e-07	-5.017651e-06	-3.832821e-09	-5.420124e+01	-2.550393e+02
2.400000e-07	-4.995615e-06	-3.749568e-09	-5.396320e+01	-2.547504e+02
2.500000e-07	-4.972624e-06	-3.993956e-09	-5.371485e+01	-2.544395e+02
2.600000e-07	-4.948896e-06	-3.979725e-09	-5.345854e+01	-2.541038e+02
2.700000e-07	-4.924389e-06	-3.856856e-09	-5.319381e+01	-2.537406e+02
2.800000e-07	-4.898896e-06	-3.846297e-09	-5.291843e+01	-2.533479e+02
2.900000e-07	-4.872276e-06	-3.846032e-09	-5.263089e+01	-2.529242e+02
3.000000e-07	-4.844696e-06	-3.973626e-09	-5.233296e+01	-2.524687e+02
3.100000e-07	-4.816272e-06	-3.880761e-09	-5.202592e+01	-2.519815e+02
3.200000e-07	-4.787030e-06	-3.766075e-09	-5.171005e+01	-2.514632e+02
3.300000e-07	-4.756982e-06	-3.888233e-09	-5.138546e+01	-2.509153e+02
3.400000e-07	-4.726178e-06	-3.855007e-09	-5.105271e+01	-2.503400e+02
3.500000e-07	-4.694596e-06	-3.794741e-09	-5.071157e+01	-2.497397e+02
3.600000e-07	-4.662200e-06	-3.890940e-09	-5.036161e+01	-2.491174e+02
3.700000e-07	-4.628968e-06	-3.794245e-09	-5.000264e+01	-2.484760e+02
3.800000e-07	-4.594748e-06	-3.697070e-09	-4.963300e+01	-2.478184e+02
3.900000e-07	-4.559507e-06	-3.860821e-09	-4.925232e+01	-2.471474e+02
4.000000e-07	-4.523479e-06	-3.867842e-09	-4.886313e+01	-2.464652e+02
4.100000e-07	-4.486842e-06	-3.663394e-09	-4.846737e+01	-2.457734e+02
4.200000e-07	-4.449392e-06	-3.691841e-09	-4.806284e+01	-2.450733e+02
4.300000e-07	-4.411025e-06	-3.852032e-09	-4.764839e+01	-2.443651e+02
4.400000e-07	-4.371875e-06	-3.752319e-09	-4.722549e+01	-2.436484e+02
4.500000e-07	-4.332101e-06	-3.639762e-09	-4.679584e+01	-2.429224e+02
4.600000e-07	-4.291663e-06	-3.696390e-09	-4.635903e+01	-2.421853e+02
4.700000e-07	-4.250400e-06	-3.735138e-09	-4.591330e+01	-2.414350e+02
4.800000e-07	-4.208181e-06	-3.703824e-09	-4.545725e+01	-2.406692e+02
4.900000e-07	-4.165030e-06	-3.644482e-09	-4.499113e+01	-2.398852e+02
5.000000e-07	-4.121198e-06	-3.632682e-09	-4.451765e+01	-2.390805e+02
5.100000e-07	-4.076801e-06	-3.647075e-09	-4.403806e+01	-2.382525e+02
5.200000e-07	-4.031725e-06	-3.637622e-09	-4.355115e+01	-2.373990e+02
5.300000e-07	-3.985899e-06	-3.615159e-09	-4.305614e+01	-2.365182e+02
5.400000e-07	-3.939395e-06	-3.575563e-09	-4.255380e+01	-2.356086e+02
5.500000e-07	-3.892266e-06	-3.549315e-09	-4.204470e+01	-2.346692e+02
5.600000e-07	-3.844454e-06	-3.561729e-09	-4.152822e+01	-2.336994e+02
5.700000e-07	-3.795891e-06	-3.582781e-09	-4.100365e+01	-2.326991e+02
5.800000e-07	-3.746467e-06	-3.534708e-09	-4.046976e+01	-2.316683e+02
5.900000e-07	-3.696103e-06	-3.460533e-09	-3.992573e+01	-2.306075e+02
6.000000e-07	-3.644926e-06	-3.495549e-09	-3.937291e+01	-2.295169e+02
6.100000e-07	-3.592971e-06	-3.525813e-09	-3.881168e+01	-2.283969e+02
6.200000e-07	-3.540239e-06	-3.452103e-09	-3.824206e+01	-2.272478e+02
6.300000e-07	-3.486893e-06	-3.400811e-09	-3.766581e+01	-2.260694e+02
6.400000e-07	-3.432952e-06	-3.425363e-09	-3.708314e+01	-2.248614e+02
6.500000e-07	-3.378413e-06	-3.433724e-09	-3.649400e+01	-2.236232e+02
6.600000e-07	-3.323329e-06	-3.382512e-09	-3.589897e+01	-2.223536e+02
6.700000e-07	-3.267740e-06	-3.348028e-09	-3.529850e+01	-2.210512e+02
6.800000e-07	-3.211617e-06	-3.339634e-09	-3.469225e+01	-2.197145e+02
6.900000e-07	-3.154852e-06	-3.321136e-09	-3.407907e+01	-2.183416e+02
7.000000e-07	-3.097356e-06	-3.304782e-09	-3.345799e+01	-2.169307e+02
7.100000e-07	-3.039075e-06	-3.276288e-09	-3.282843e+01	-2.154800e+02
7.200000e-07	-2.980167e-06	-3.238606e-09	-3.219210e+01	-2.139879e+02
7.300000e-07	-2.920773e-06	-3.216024e-09	-3.155052e+01	-2.124529e+02
7.400000e-07	-2.860868e-06	-3.209667e-09	-3.090343e+01	-2.108739e+02
7.500000e-07	-2.800492e-06	-3.188543e-09	-3.025123e+01	-2.092503e+02
7.600000e-07	-2.739686e-06	-3.139678e-09	-2.959440e+01	-2.075815e+02
7.700000e-07	-2.678393e-06	-3.110140e-09	-2.893230e+01	-2.058676e+02
7.800000e-07	-2.616631e-06	-3.102691e-09	-2.826514e+01	-2.041086e+02
7.900000e-07	-2.554463e-06	-3.076702e-09	-2.759360e+01	-2.023046e+02
8.000000e-07	-2.491907e-06	-3.030902e-09	-2.691786e+01	-2.004560e+02
8.100000e-07	-2.428985e-06	-2.998076e-09	-2.623817e+01	-1.985628e+02
8.200000e-07	-2.365714e-06	-2.989228e-09	-2.555471e+01	-1.966245e+02
8.300000e-07	-2.302071e-06	-2.959711e-09	-2.486724e+01	-1.946404e+02
8.400000e-07	-2.238037e-06	-2.910900e-09	-2.417553e+01	-1.926091e+02
8.500000e-07	-2.173672e-06	-2.880287e-09	-2.348025e+01	-1.905286e+02
8.600000e-07	-2.108980e-06	-2.856680e-09	-2.278144e+01	-1.883958e+02
8.700000e-07	-2.043851e-06	-2.823132e-09	-2.207791e+01	-1.862073e+02
8.800000e-07	-1.978199e-06	-2.779798e-09	-2.136873e+01	-1.839588e+02
8.900000e-07	-1.912092e-06	-2.740907e-09	-2.065463e+01	-1.816451e+02
9.000000e-07	-1.845623e-06	-2.709082e-09	-1.993663e+01	-1.792610e+02
9.100000e-07	-1.778786e-06	-2.675718e-09	-1.921465e+01	-1.768004e+02
9.200000e-07	-1.711597e-06	-2.638029e-09	-1.848886e+01	-1.742574e+02
9.300000e-07	-1.644118e-06	-2.590624e-09	-1.775995e+01	-1.716257e+02
9.400000e-07	-1.576455e-06	-2.544542e-09	-1.702905e+01	-1.688994e+02
9.500000e-07	-1.508687e-06	-2.508310e-09	-1.629701e+01	-1.660726e+02
9.600000e-07	-1.440764e-06	-2.463872e-09	-1.556329e+01	-1.631398e+02
9.700000e-07	-1.372628e-06	-2.407093e-09	-1.482728e+01	-1.600958e+02
9.800000e-07	-1.304314e-06	-2.351405e-09	-1.408935e+01	-1.569357e+02
9.900000e-07	-1.235807e-06	-2.310836e-09	-1.334932e+01	-1.536547e+02
1.000000e-06	-1.167013e-06	-2.269683e-09	-1.260620e+01	-1.502483e+02
1.010000e-06	-1.097853e-06	-2.207746e-09	-1.185913e+01	-1.467116e+02
1.020000e-06	-1.028392e-06	-2.142115e-09	-1.110880e+01	-1.430396e+02
1.030000e-06	-9.587655e-07	-2.087676e-09	-1.035669e+01	-1.392266e+02
1.040000e-06	-8.889863e-07	-2.038037e-09	-9.602932e+00	-1.352663e+02
1.050000e-06	-8.190792e-07	-1.973107e-09	-8.847787e+00	-1.311512e+02
1.060000e-06	-7.490416e-07	-1.896196e-09	-8.091233e+00	-1.268729e+02
1.070000e-06	-6.788773e-07	-1.824086e-09	-7.333310e+00	-1.224217e+02
1.080000e-06	-6.085747e-07	-1.757290e-09	-6.573893e+00	-1.177868e+02
1.090000e-06	-5.381176e-07	-1.686382e-09	-5.812808e+00	-1.129565e+02
1.100000e-06	-4.676107e-07	-1.603797e-09	-5.051184e+00	-1.079182e+02
1.110000e-06	-3.970635e-07	-1.516752e-09	-4.289126e+00	-1.026588e+02
1.120000e-06	-3.264872e-07	-1.434810e-09	-3.526752e+00	-9.716547e+01
1.130000e-06	-2.558503e-07	-1.353945e-09	-2.763724e+00	-9.142588e+01
1.140000e-06	-1.851166e-07	-1.264714e-09	-1.999650e+00	-8.542886e+01
1.150000e-06	-1.143103e-07	-1.162124e-09	-1.234793e+00	-7.916518e+01
1.160000e-06	-4.349439e-08	-1.056688e-09	-4.698313e-01	-7.262814e+01
1.170000e-06	2.731327e-08	-9.578406e-10	2.950411e-01	-6.581424e+01
1.180000e-06	9.809429e-08	-8.526517e-10	1.059626e+00	-5.872380e+01
1.190000e-06	1.687971e-07	-7.367797e-10	1.823365e+00	-5.136148e+01
1.200000e-06	2.394275e-07	-6.172870e-10	2.586323e+00	-4.373663e+01
1.210000e-06	3.099586e-07	-5.004812e-10	3.348208e+00	-3.586356e+01
1.220000e-06	3.804349e-07	-3.832969e-10	4.109502e+00	-2.776162e+01
1.230000e-06	4.509040e-07	-2.582876e-10	4.870717e+00	-1.945509e+01
1.240000e-06	5.212924e-07	-1.281951e-10	5.631060e+00	-1.097290e+01
1.250000e-06	5.915419e-07	4.455835e-12	6.389903e+00	-2.348151e+00
1.260000e-06	6.616528e-07	1.373034e-10	7.147249e+00	6.382472e+00
1.270000e-06	7.315882e-07	2.713263e-10	7.902699e+00	1.517949e+01
1.280000e-06	8.013815e-07	4.094155e-10	8.656614e+00	2.400151e+01
1.290000e-06	8.710364e-07	5.434113e-10	9.409034e+00	3.280616e+01
1.300000e-06	9.405226e-07	6.792484e-10	1.015963e+01	4.155107e+01
1.310000e-06	1.009864e-06	8.129513e-10	1.090866e+01	5.019489e+01
1.320000e-06	1.079035e-06	9.428391e-10	1.165586e+01	5.869823e+01
1.330000e-06	1.148017e-06	1.070646e-09	1.240101e+01	6.702451e+01
1.340000e-06	1.216790e-06	1.195422e-09	1.314390e+01	7.514074e+01
1.350000e-06	1.285317e-06	1.315938e-09	1.388414e+01	8.301814e+01
1.360000e-06	1.353648e-06	1.428087e-09	1.462226e+01	9.063259e+01
1.370000e-06	1.421778e-06	1.538745e-09	1.535820e+01	9.796494e+01
1.380000e-06	1.489697e-06	1.644157e-09	1.609188e+01	1.050012e+02
1.390000e-06	1.557442e-06	1.741964e-09	1.682366e+01	1.117322e+02
1.400000e-06	1.624989e-06	1.835988e-09	1.755332e+01	1.181540e+02
1.410000e-06	1.692366e-06	1.928183e-09	1.828113e+01	1.242667e+02
1.420000e-06	1.759556e-06	2.015466e-09	1.900693e+01	1.300750e+02
1.430000e-06	1.826501e-06	2.096774e-09	1.973007e+01	1.355866e+02
1.440000e-06	1.893124e-06	2.175607e-09	2.044975e+01	1.408124e+02
1.450000e-06	1.959293e-06	2.252993e-09	2.116451e+01	1.457655e+02
1.460000e-06	2.024939e-06	2.322795e-09	2.187362e+01	1.504607e+02
1.470000e-06	2.089992e-06	2.388138e-09	2.257633e+01	1.549138e+02
1.480000e-06	2.154472e-06	2.451842e-09	2.327285e+01	1.591410e+02
1.490000e-06	2.218524e-06	2.513496e-09	2.396474e+01	1.631587e+02
1.500000e-06	2.282218e-06	2.572031e-09	2.465278e+01	1.669826e+02
1.510000e-06	2.345661e-06	2.627777e-09	2.533810e+01	1.706277e+02
1.520000e-06	2.408862e-06	2.680577e-09	2.602080e+01	1.741082e+02
1.530000e-06	2.471645e-06	2.730983e-09	2.669899e+01	1.774369e+02
1.540000e-06	2.533958e-06	2.781891e-09	2.737210e+01	1.806252e+02
1.550000e-06	2.595863e-06	2.827703e-09	2.804080e+01	1.836835e+02
1.560000e-06	2.657333e-06	2.867036e-09	2.870481e+01	1.866208e+02
1.570000e-06	2.718321e-06	2.906444e-09	2.936362e+01	1.894450e+02
1.580000e-06	2.778837e-06	2.947157e-09	3.001732e+01	1.921628e+02
1.590000e-06	2.838885e-06	2.987897e-09	3.066596e+01	1.947801e+02
1.600000e-06	2.898517e-06	3.025134e-09	3.131011e+01	1.973019e+02
1.610000e-06	2.957776e-06	3.057991e-09	3.195024e+01	1.997328e+02
1.620000e-06	3.016571e-06	3.092969e-09	3.258535e+01	2.020765e+02
1.630000e-06	3.074725e-06	3.128558e-09	3.321353e+01	2.043366e+02
1.640000e-06	3.131979e-06	3.159964e-09	3.383200e+01	2.065164e+02
1.650000e-06	3.188349e-06	3.187340e-09	3.444091e+01	2.086187e+02
1.660000e-06	3.244132e-06	3.215871e-09	3.504348e+01	2.106464e+02
1.670000e-06	3.299553e-06	3.246008e-09	3.564215e+01	2.126022e+02
1.680000e-06	3.354591e-06	3.273806e-09	3.623668e+01	2.144885e+02
1.690000e-06	3.409018e-06	3.301268e-09	3.682460e+01	2.163078e+02
1.700000e-06	3.462810e-06	3.327472e-09	3.740567e+01	2.180626e+02
1.710000e-06	3.516017e-06	3.352919e-09	3.798041e+01	2.197552e+02
1.720000e-06	3.568664e-06	3.378731e-09	3.854911e+01	2.213877e+02
1.730000e-06	3.620668e-06	3.402297e-09	3.911086e+01	2.229624e+02
1.740000e-06	3.671959e-06	3.422635e-09	3.966492e+01	2.244815e+02
1.750000e-06	3.722473e-06	3.443006e-09	4.021058e+01	2.259468e+02
1.760000e-06	3.772002e-06	3.465336e-09	4.074559e+01	2.273604e+02
1.770000e-06	3.820540e-06	3.486992e-09	4.126991e+01	2.287242e+02
1.780000e-06	3.868323e-06	3.506168e-09	4.178607e+01	2.300400e+02
1.790000e-06	3.915562e-06	3.523846e-09	4.229635e+01	2.313095e+02
1.800000e-06	3.962193e-06	3.542251e-09	4.280006e+01	2.325345e+02
1.810000e-06	4.008147e-06	3.561334e-09	4.329646e+01	2.337165e+02
1.820000e-06	4.053430e-06	3.579627e-09	4.378562e+01	2.348571e+02
1.830000e-06	4.097987e-06	3.596173e-09	4.426692e+01	2.359575e+02
1.840000e-06	4.141893e-06	3.612900e-09	4.474120e+01	2.370193e+02
1.850000e-06	4.185346e-06	3.630710e-09	4.521059e+01	2.380435e+02
1.860000e-06	4.228212e-06	3.647434e-09	4.567363e+01	2.390313e+02
1.870000e-06	4.270059e-06	3.661003e-09	4.612566e+01	2.399837e+02
1.880000e-06	4.310802e-06	3.675171e-09	4.656577e+01	2.409017e+02
1.890000e-06	4.350726e-06	3.691967e-09	4.699704e+01	2.417862e+02
1.900000e-06	4.389998e-06	3.705923e-09	4.742126e+01	2.426380e+02
1.910000e-06	4.428579e-06	3.716906e-09	4.783802e+01	2.434581e+02
1.920000e-06	4.466379e-06	3.728390e-09	4.824633e+01	2.442473e+02
1.930000e-06	4.503353e-06	3.742111e-09	4.864574e+01	2.450065e+02
1.940000e-06	4.539579e-06	3.755306e-09	4.903705e+01	2.457367e+02
1.950000e-06	4.575191e-06	3.765205e-09	4.942174e+01	2.464391e+02
1.960000e-06	4.610175e-06	3.775259e-09	4.979964e+01	2.471150e+02
1.970000e-06	4.644171e-06	3.786158e-09	5.016687e+01	2.477655e+02
1.980000e-06	4.676969e-06	3.797273e-09	5.052115e+01	2.483921e+02
1.990000e-06	4.708832e-06	3.808603e-09	5.086534e+01	2.489962e+02
2.000000e-06	4.739976e-06	3.817008e-09	5.120176e+01	2.495794e+02
2.010000e-06	4.770410e-06	3.824763e-09	5.153051e+01	2.501431e+02
2.020000e-06	4.800073e-06	3.834409e-09	5.185093e+01	2.506887e+02
2.030000e-06	4.828887e-06	3.844296e-09	5.216218e+01	2.512173e+02
2.040000e-06	4.856953e-06	3.852477e-09	5.246535e+01	2.517301e+02
2.050000e-06	4.884359e-06	3.858598e-09	5.276141e+01	2.522277e+02
2.060000e-06	4.910922e-06	3.866628e-09	5.304833e+01	2.527106e+02
2.070000e-06	4.936343e-06	3.876220e-09	5.332294e+01	2.531790e+02
2.080000e-06	4.960637e-06	3.882860e-09	5.358536e+01	2.536326e+02
2.090000e-06	4.984001e-06	3.888404e-09	5.383775e+01	2.540709e+02
2.100000e-06	5.006604e-06	3.896668e-09	5.408190e+01	2.544932e+02
2.110000e-06	5.028487e-06	3.904377e-09	5.431829e+01	2.548982e+02
2.120000e-06	5.049495e-06	3.909958e-09	5.454522e+01	2.552848e+02
2.130000e-06	5.069711e-06	3.915664e-09	5.476360e+01	2.556517e+02
2.140000e-06	5.089279e-06	3.921372e-09	5.497497e+01	2.559976e+02
2.150000e-06	5.108133e-06	3.927212e-09	5.517864e+01	2.563214e+02
2.160000e-06	5.126081e-06	3.932321e-09	5.537251e+01	2.566221e+02
2.170000e-06	5.143018e-06	3.936945e-09	5.555547e+01	2.568989e+02
2.180000e-06	5.159018e-06	3.942737e-09	5.572829e+01	2.571517e+02
2.190000e-06	5.174044e-06	3.947155e-09	5.589061e+01	2.573806e+02
2.200000e-06	5.188054e-06	3.949660e-09	5.604195e+01	2.575860e+02
2.210000e-06	5.201099e-06	3.953995e-09	5.618287e+01	2.577688e+02
2.220000e-06	5.213236e-06	3.959036e-09	5.631397e+01	2.579305e+02
2.230000e-06	5.224351e-06	3.963844e-09	5.643403e+01	2.580727e+02
2.240000e-06	5.234262e-06	3.966248e-09	5.654109e+01	2.581970e+02
2.250000e-06	5.243016e-06	3.967244e-09	5.663566e+01	2.583055e+02
2.260000e-06	5.250744e-06	3.968460e-09	5.671913e+01	2.584000e+02
2.270000e-06	5.257575e-06	3.970717e-09	5.679292e+01	2.584825e+02
2.280000e-06	5.263596e-06	3.971802e-09	5.685796e+01	2.585543e+02
2.290000e-06	5.268724e-06	3.971236e-09	5.691336e+01	2.586167e+02
2.300000e-06	5.272957e-06	3.973202e-09	5.695908e+01	2.586706e+02
2.310000e-06	5.276416e-06	3.976613e-09	5.699645e+01	2.587163e+02
2.320000e-06	5.278946e-06	3.979905e-09	5.702377e+01	2.587539e+02
2.330000e-06	5.280312e-06	3.979949e-09	5.703853e+01	2.587827e+02
2.340000e-06	5.280587e-06	3.981275e-09	5.704150e+01	2.588019e+02
2.350000e-06	5.279955e-06	3.981506e-09	5.703467e+01	2.588105e+02
2.360000e-06	5.278520e-06	3.981228e-09	5.701917e+01	2.588071e+02
2.370000e-06	5.276287e-06	3.981603e-09	5.699506e+01	2.587903e+02
2.380000e-06	5.273210e-06	3.979122e-09	5.696182e+01	2.587588e+02
2.390000e-06	5.269371e-06	3.978207e-09	5.692034e+01	2.587115e+02
2.400000e-06	5.264870e-06	3.979330e-09	5.687173e+01	2.586476e+02
2.410000e-06	5.259511e-06	3.978463e-09	5.681384e+01	2.585665e+02
2.420000e-06	5.253081e-06	3.957144e-09	5.674438e+01	2.584683e+02
2.430000e-06	5.245627e-06	3.961189e-09	5.666386e+01	2.583534e+02
2.440000e-06	5.237117e-06	4.012604e-09	5.657194e+01	2.582225e+02
2.450000e-06	5.227361e-06	4.002802e-09	5.646655e+01	2.580769e+02
2.460000e-06	5.216413e-06	3.942530e-09	5.634829e+01	2.579180e+02
2.470000e-06	5.204731e-06	3.865833e-09	5.622209e+01	2.577474e+02
2.480000e-06	5.192650e-06	4.007484e-09	5.609160e+01	2.575668e+02
2.490000e-06	5.179602e-06	4.116349e-09	5.595065e+01	2.573776e+02
2.500000e-06	5.165026e-06	3.871620e-09	5.579319e+01	2.571811e+02
2.510000e-06	5.149408e-06	3.983130e-09	5.562449e+01	2.569781e+02
2.520000e-06	5.133190e-06	4.001931e-09	5.544931e+01	2.567688e+02
2.530000e-06	5.116070e-06	3.824719e-09	5.526438e+01	2.565531e+02
2.540000e-06	5.097978e-06	4.041037e-09	5.506894e+01	2.563301e+02
2.550000e-06	5.079211e-06	4.035944e-09	5.486622e+01	2.560981e+02
2.560000e-06	5.059764e-06	3.727624e-09	5.465615e+01	2.558553e+02
2.570000e-06	5.039476e-06	3.865637e-09	5.443699e+01	2.555990e+02
2.580000e-06	5.018235e-06	4.104948e-09	5.420754e+01	2.553263e+02
2.590000e-06	4.995891e-06	3.796832e-09	5.396618e+01	2.550344e+02
2.600000e-06	4.972445e-06	3.784480e-09	5.371292e+01	2.547200e+02
2.610000e-06	4.947998e-06	3.969580e-09	5.344883e+01	2.543803e+02
2.620000e-06	4.922689e-06	3.837993e-09	5.317545e+01	2.540128e+02
2.630000e-06	4.896659e-06	3.830644e-09	5.289427e+01	2.536155e+02
2.640000e-06	4.869876e-06	3.793166e-09	5.260495e+01	2.531871e+02
2.650000e-06	4.842270e-06	3.775447e-09	5.230675e+01	2.527268e+02
2.660000e-06	4.813849e-06	3.899424e-09	5.199975e+01	2.522349e+02
2.670000e-06	4.784437e-06	3.746716e-09	5.168203e+01	2.517121e+02
2.680000e-06	4.753816e-06	3.741589e-09	5.135126e+01	2.511600e+02
2.690000e-06	4.722207e-06	3.871557e-09	5.100982e+01	2.505807e+02
2.700000e-06	4.689856e-06	3.669340e-09	5.066036e+01	2.499770e+02
2.710000e-06	4.656696e-06	3.739098e-09	5.030216e+01	2.493516e+02
2.720000e-06	4.622703e-06	3.891736e-09	4.993496e+01	2.487076e+02
2.730000e-06	4.588012e-06	3.670499e-09	4.956022e+01	2.480479e+02
2.740000e-06	4.552652e-06	3.642654e-09	4.917826e+01	2.473750e+02
2.750000e-06	4.516600e-06	3.801190e-09	4.878882e+01	2.466913e+02
2.760000e-06	4.479759e-06	3.789785e-09	4.839087e+01	2.459983e+02
2.770000e-06	4.442092e-06	3.630597e-09	4.798398e+01	2.452969e+02
2.780000e-06	4.403477e-06	3.607114e-09	4.756686e+01	2.445875e+02
2.790000e-06	4.363798e-06	3.772805e-09	4.713824e+01	2.438695e+02
2.800000e-06	4.323338e-06	3.715596e-09	4.670119e+01	2.431419e+02
2.810000e-06	4.282342e-06	3.586393e-09	4.625835e+01	2.424030e+02
2.820000e-06	4.240686e-06	3.627361e-09	4.580837e+01	2.416506e+02
2.830000e-06	4.198187e-06	3.668106e-09	4.534930e+01	2.408822e+02
2.840000e-06	4.154989e-06	3.654600e-09	4.488267e+01	2.400953e+02
2.850000e-06	4.111289e-06	3.583780e-09	4.441062e+01	2.392873e+02
2.860000e-06	4.066999e-06	3.591566e-09	4.393219e+01	2.384556e+02
2.870000e-06	4.022097e-06	3.606874e-09	4.344715e+01	2.375982e+02
2.880000e-06	3.976588e-06	3.546237e-09	4.295555e+01	2.367131e+02
2.890000e-06	3.930314e-06	3.585329e-09	4.245570e+01	2.357991e+02
2.900000e-06	3.883301e-06	3.571334e-09	4.194786e+01	2.348552e+02
2.910000e-06	3.835661e-06	3.493783e-09	4.143325e+01	2.338808e+02
2.920000e-06	3.787289e-06	3.507347e-09	4.091073e+01	2.328759e+02
2.930000e-06	3.738117e-06	3.550266e-09	4.037957e+01	2.318407e+02
2.940000e-06	3.688188e-06	3.514467e-09	3.984023e+01	2.307753e+02
2.950000e-06	3.637599e-06	3.417828e-09	3.929376e+01	2.296803e+02
