# Temperatura_=_20.0
# Concentracion g/m^3_=_9000.0
# C_Vs_to_Am_M_A/Vsm_=_65563218390.804596
# pendiente_HvsI_1/m_=_3716.3
# ordenada_HvsI_A/m_=_1297.0
# frecuencia_Hz_=_212890.2918988388

Tiempo_(s)	Campo_(V.s)	Magnetizacion_(V.s)	Campo_(kA/m)	Magnetizacion_(A/m)
0.000000e+00	-5.287533e-06	-5.534294e-11	-5.697439e+01	-3.289896e+00
1.000000e-08	-5.286839e-06	-5.719385e-11	-5.696691e+01	-3.278436e+00
2.000000e-08	-5.284808e-06	-5.856087e-11	-5.694504e+01	-3.281536e+00
3.000000e-08	-5.281663e-06	-5.665847e-11	-5.691115e+01	-3.300143e+00
4.000000e-08	-5.277833e-06	-5.381390e-11	-5.686987e+01	-3.333998e+00
5.000000e-08	-5.273266e-06	-5.293976e-11	-5.682066e+01	-3.381527e+00
6.000000e-08	-5.267850e-06	-4.947283e-11	-5.676231e+01	-3.439816e+00
7.000000e-08	-5.261514e-06	-3.507609e-11	-5.669404e+01	-3.504676e+00
8.000000e-08	-5.254328e-06	-3.616118e-11	-5.661661e+01	-3.570792e+00
9.000000e-08	-5.246274e-06	-8.248161e-11	-5.652982e+01	-3.631961e+00
1.000000e-07	-5.236919e-06	-1.112198e-10	-5.642901e+01	-3.681399e+00
1.100000e-07	-5.226204e-06	-6.519310e-11	-5.631356e+01	-3.712104e+00
1.200000e-07	-5.214557e-06	7.422336e-11	-5.618807e+01	-3.717250e+00
1.300000e-07	-5.202070e-06	3.602153e-11	-5.605351e+01	-3.690588e+00
1.400000e-07	-5.188649e-06	-1.722172e-10	-5.590889e+01	-3.626837e+00
1.500000e-07	-5.174398e-06	-7.124672e-11	-5.575533e+01	-3.522024e+00
1.600000e-07	-5.159244e-06	1.117836e-11	-5.559205e+01	-3.373770e+00
1.700000e-07	-5.142750e-06	-4.393170e-11	-5.541432e+01	-3.181481e+00
1.800000e-07	-5.125097e-06	1.210726e-11	-5.522411e+01	-2.946450e+00
1.900000e-07	-5.107025e-06	-2.142142e-11	-5.502938e+01	-2.671854e+00
2.000000e-07	-5.088367e-06	-1.481923e-10	-5.482834e+01	-2.362635e+00
2.100000e-07	-5.068618e-06	1.978361e-11	-5.461554e+01	-2.025291e+00
2.200000e-07	-5.048047e-06	1.723508e-10	-5.439388e+01	-1.667572e+00
2.300000e-07	-5.026836e-06	-9.255519e-11	-5.416532e+01	-1.298108e+00
2.400000e-07	-5.004656e-06	-1.456819e-10	-5.392633e+01	-9.259873e-01
2.500000e-07	-4.981573e-06	4.180240e-11	-5.367761e+01	-5.603072e-01
2.600000e-07	-4.957784e-06	1.015412e-10	-5.342127e+01	-2.097367e-01
2.700000e-07	-4.933046e-06	1.576312e-11	-5.315472e+01	1.178983e-01
2.800000e-07	-4.907219e-06	-6.058044e-11	-5.287642e+01	4.159730e-01
2.900000e-07	-4.880279e-06	-3.942891e-12	-5.258613e+01	6.793473e-01
3.000000e-07	-4.852483e-06	5.728073e-11	-5.228663e+01	9.045604e-01
3.100000e-07	-4.823985e-06	2.522766e-11	-5.197956e+01	1.089925e+00
3.200000e-07	-4.794544e-06	2.785312e-11	-5.166232e+01	1.235520e+00
3.300000e-07	-4.764190e-06	1.679669e-11	-5.133525e+01	1.343083e+00
3.400000e-07	-4.733170e-06	-5.642643e-11	-5.100101e+01	1.415816e+00
3.500000e-07	-4.701463e-06	5.066634e-11	-5.065936e+01	1.458115e+00
3.600000e-07	-4.668916e-06	1.347472e-10	-5.030866e+01	1.475245e+00
3.700000e-07	-4.635515e-06	-3.353600e-11	-4.994875e+01	1.472987e+00
3.800000e-07	-4.601073e-06	-8.186000e-11	-4.957763e+01	1.457273e+00
3.900000e-07	-4.565611e-06	9.962657e-11	-4.919551e+01	1.433840e+00
4.000000e-07	-4.529463e-06	1.009401e-10	-4.880601e+01	1.407916e+00
4.100000e-07	-4.492685e-06	-3.885921e-11	-4.840972e+01	1.383963e+00
4.200000e-07	-4.454967e-06	-1.916264e-11	-4.800331e+01	1.365495e+00
4.300000e-07	-4.416273e-06	5.837192e-11	-4.758636e+01	1.354959e+00
4.400000e-07	-4.376990e-06	4.409846e-11	-4.716308e+01	1.353711e+00
4.500000e-07	-4.337306e-06	1.114527e-11	-4.673548e+01	1.362060e+00
4.600000e-07	-4.296879e-06	1.582687e-11	-4.629986e+01	1.379378e+00
4.700000e-07	-4.255347e-06	1.198682e-11	-4.585235e+01	1.404278e+00
4.800000e-07	-4.212766e-06	1.971778e-11	-4.539353e+01	1.434821e+00
4.900000e-07	-4.169335e-06	4.739688e-11	-4.492555e+01	1.468746e+00
5.000000e-07	-4.125298e-06	3.443374e-11	-4.445105e+01	1.503716e+00
5.100000e-07	-4.080748e-06	2.998349e-12	-4.397100e+01	1.537529e+00
5.200000e-07	-4.035564e-06	1.514427e-11	-4.348414e+01	1.568322e+00
5.300000e-07	-3.989592e-06	5.441317e-11	-4.298877e+01	1.594710e+00
5.400000e-07	-3.942869e-06	4.660617e-11	-4.248532e+01	1.615890e+00
5.500000e-07	-3.895630e-06	1.638184e-12	-4.197632e+01	1.631677e+00
5.600000e-07	-3.847816e-06	1.046310e-11	-4.146111e+01	1.642492e+00
5.700000e-07	-3.799085e-06	5.201214e-11	-4.093602e+01	1.649295e+00
5.800000e-07	-3.749246e-06	4.572264e-11	-4.039899e+01	1.653470e+00
5.900000e-07	-3.698486e-06	1.185768e-11	-3.985205e+01	1.656689e+00
6.000000e-07	-3.647000e-06	1.673011e-11	-3.929727e+01	1.660747e+00
6.100000e-07	-3.594735e-06	4.404609e-11	-3.873410e+01	1.667398e+00
6.200000e-07	-3.541771e-06	3.403099e-11	-3.816340e+01	1.678203e+00
6.300000e-07	-3.488264e-06	1.909076e-11	-3.758685e+01	1.694397e+00
6.400000e-07	-3.434173e-06	2.677288e-11	-3.700402e+01	1.716787e+00
6.500000e-07	-3.379399e-06	2.814368e-11	-3.641381e+01	1.745700e+00
6.600000e-07	-3.324060e-06	2.904205e-11	-3.581752e+01	1.780959e+00
6.700000e-07	-3.268370e-06	3.314595e-11	-3.521744e+01	1.821922e+00
6.800000e-07	-3.212242e-06	2.972461e-11	-3.461265e+01	1.867539e+00
6.900000e-07	-3.155285e-06	2.308029e-11	-3.399893e+01	1.916459e+00
7.000000e-07	-3.097325e-06	3.120186e-11	-3.337440e+01	1.967152e+00
7.100000e-07	-3.038633e-06	4.239916e-11	-3.274197e+01	2.018040e+00
7.200000e-07	-2.979453e-06	2.939877e-11	-3.210429e+01	2.067635e+00
7.300000e-07	-2.919866e-06	2.183812e-11	-3.146223e+01	2.114661e+00
7.400000e-07	-2.859856e-06	3.726649e-11	-3.081561e+01	2.158150e+00
7.500000e-07	-2.799298e-06	4.449134e-11	-3.016309e+01	2.197516e+00
7.600000e-07	-2.738271e-06	3.326586e-11	-2.950551e+01	2.232586e+00
7.700000e-07	-2.676883e-06	2.660651e-11	-2.884404e+01	2.263599e+00
7.800000e-07	-2.615057e-06	4.047751e-11	-2.817785e+01	2.291160e+00
7.900000e-07	-2.552649e-06	4.677781e-11	-2.750538e+01	2.316171e+00
8.000000e-07	-2.489774e-06	3.337448e-11	-2.682789e+01	2.339729e+00
8.100000e-07	-2.426581e-06	2.781248e-11	-2.614697e+01	2.363014e+00
8.200000e-07	-2.363070e-06	3.528141e-11	-2.546263e+01	2.387161e+00
8.300000e-07	-2.299263e-06	4.534475e-11	-2.477509e+01	2.413150e+00
8.400000e-07	-2.235130e-06	4.570785e-11	-2.408404e+01	2.441700e+00
8.500000e-07	-2.170782e-06	3.975632e-11	-2.339068e+01	2.473193e+00
8.600000e-07	-2.106065e-06	4.074043e-11	-2.269334e+01	2.507628e+00
8.700000e-07	-2.040733e-06	4.730445e-11	-2.198938e+01	2.544607e+00
8.800000e-07	-1.974808e-06	5.600349e-11	-2.127902e+01	2.583363e+00
8.900000e-07	-1.908419e-06	5.196714e-11	-2.056365e+01	2.622818e+00
9.000000e-07	-1.841666e-06	4.058786e-11	-1.984438e+01	2.661669e+00
9.100000e-07	-1.774575e-06	4.337473e-11	-1.912145e+01	2.698501e+00
9.200000e-07	-1.707223e-06	5.463692e-11	-1.839573e+01	2.731907e+00
9.300000e-07	-1.639618e-06	5.668099e-11	-1.766727e+01	2.760616e+00
9.400000e-07	-1.571831e-06	4.476207e-11	-1.693684e+01	2.783606e+00
9.500000e-07	-1.503924e-06	4.224128e-11	-1.620514e+01	2.800202e+00
9.600000e-07	-1.435818e-06	5.617098e-11	-1.547127e+01	2.810152e+00
9.700000e-07	-1.367458e-06	6.249778e-11	-1.473467e+01	2.813659e+00
9.800000e-07	-1.298833e-06	5.627381e-11	-1.399522e+01	2.811384e+00
9.900000e-07	-1.230008e-06	4.747701e-11	-1.325362e+01	2.804414e+00
1.000000e-06	-1.160903e-06	4.840461e-11	-1.250900e+01	2.794185e+00
1.010000e-06	-1.091463e-06	5.391219e-11	-1.176077e+01	2.782390e+00
1.020000e-06	-1.021801e-06	5.264480e-11	-1.101014e+01	2.770852e+00
1.030000e-06	-9.519971e-07	4.682800e-11	-1.025799e+01	2.761391e+00
1.040000e-06	-8.820381e-07	4.226005e-11	-9.504166e+00	2.755695e+00
1.050000e-06	-8.118736e-07	4.958799e-11	-8.748127e+00	2.755190e+00
1.060000e-06	-7.415576e-07	5.842861e-11	-7.990455e+00	2.760936e+00
1.070000e-06	-6.711185e-07	5.732668e-11	-7.231457e+00	2.773553e+00
1.080000e-06	-6.005650e-07	5.215949e-11	-6.471227e+00	2.793170e+00
1.090000e-06	-5.298838e-07	5.291455e-11	-5.709621e+00	2.819426e+00
1.100000e-06	-4.590387e-07	6.086926e-11	-4.946248e+00	2.851498e+00
1.110000e-06	-3.881184e-07	6.256665e-11	-4.182066e+00	2.888169e+00
1.120000e-06	-3.171925e-07	5.615654e-11	-3.417822e+00	2.927923e+00
1.130000e-06	-2.462742e-07	5.380463e-11	-2.653662e+00	2.969066e+00
1.140000e-06	-1.753722e-07	5.846489e-11	-1.889676e+00	3.009856e+00
1.150000e-06	-1.043599e-07	6.358094e-11	-1.124502e+00	3.048634e+00
1.160000e-06	-3.333332e-08	6.369833e-11	-3.591743e-01	3.083950e+00
1.170000e-06	3.757894e-08	6.125069e-11	4.049218e-01	3.114664e+00
1.180000e-06	1.085065e-07	6.154213e-11	1.169182e+00	3.140029e+00
1.190000e-06	1.794853e-07	6.397036e-11	1.933996e+00	3.159730e+00
1.200000e-06	2.504429e-07	6.348626e-11	2.698581e+00	3.173898e+00
1.210000e-06	3.213092e-07	5.859508e-11	3.462181e+00	3.183073e+00
1.220000e-06	3.920507e-07	5.338856e-11	4.224437e+00	3.188149e+00
1.230000e-06	4.626834e-07	5.196665e-11	4.985520e+00	3.190279e+00
1.240000e-06	5.332097e-07	5.337164e-11	5.745458e+00	3.190762e+00
1.250000e-06	6.036369e-07	5.481978e-11	6.504328e+00	3.190921e+00
1.260000e-06	6.739491e-07	5.684189e-11	7.261958e+00	3.191983e+00
1.270000e-06	7.441021e-07	5.993103e-11	8.017872e+00	3.194960e+00
1.280000e-06	8.141099e-07	6.353278e-11	8.772223e+00	3.200559e+00
1.290000e-06	8.839879e-07	6.408718e-11	9.525174e+00	3.209115e+00
1.300000e-06	9.537371e-07	6.396513e-11	1.027674e+01	3.220561e+00
1.310000e-06	1.023358e-06	6.128574e-11	1.102692e+01	3.234430e+00
1.320000e-06	1.092798e-06	5.839950e-11	1.177516e+01	3.249898e+00
1.330000e-06	1.162030e-06	5.666964e-11	1.252114e+01	3.265855e+00
1.340000e-06	1.231066e-06	5.701035e-11	1.326502e+01	3.281010e+00
1.350000e-06	1.299890e-06	5.853850e-11	1.400661e+01	3.294011e+00
1.360000e-06	1.368466e-06	5.941730e-11	1.474554e+01	3.303570e+00
1.370000e-06	1.436786e-06	6.161083e-11	1.548170e+01	3.308593e+00
1.380000e-06	1.504843e-06	6.259307e-11	1.621504e+01	3.308292e+00
1.390000e-06	1.572667e-06	6.334070e-11	1.694585e+01	3.302277e+00
1.400000e-06	1.640304e-06	6.304995e-11	1.767465e+01	3.290612e+00
1.410000e-06	1.707776e-06	6.327761e-11	1.840169e+01	3.273840e+00
1.420000e-06	1.775087e-06	6.321158e-11	1.912697e+01	3.252965e+00
1.430000e-06	1.842172e-06	6.218967e-11	1.984983e+01	3.229393e+00
1.440000e-06	1.908939e-06	6.159719e-11	2.056926e+01	3.204842e+00
1.450000e-06	1.975256e-06	6.252228e-11	2.128384e+01	3.181218e+00
1.460000e-06	2.041050e-06	6.368462e-11	2.199279e+01	3.160476e+00
1.470000e-06	2.106320e-06	6.347536e-11	2.269609e+01	3.144470e+00
1.480000e-06	2.171008e-06	6.394970e-11	2.339311e+01	3.134802e+00
1.490000e-06	2.235170e-06	6.665125e-11	2.408448e+01	3.132697e+00
1.500000e-06	2.298964e-06	6.838366e-11	2.477187e+01	3.138887e+00
1.510000e-06	2.362462e-06	6.919575e-11	2.545608e+01	3.153548e+00
1.520000e-06	2.425694e-06	6.938936e-11	2.613741e+01	3.176263e+00
1.530000e-06	2.488548e-06	6.943367e-11	2.681468e+01	3.206039e+00
1.540000e-06	2.550959e-06	7.160636e-11	2.748717e+01	3.241364e+00
1.550000e-06	2.612955e-06	7.267790e-11	2.815519e+01	3.280303e+00
1.560000e-06	2.674489e-06	7.321874e-11	2.881824e+01	3.320633e+00
1.570000e-06	2.735602e-06	7.485128e-11	2.947675e+01	3.360000e+00
1.580000e-06	2.796255e-06	7.758052e-11	3.013029e+01	3.396085e+00
1.590000e-06	2.856361e-06	8.198111e-11	3.077795e+01	3.426775e+00
1.600000e-06	2.916023e-06	8.301853e-11	3.142083e+01	3.450320e+00
1.610000e-06	2.975357e-06	8.108607e-11	3.206016e+01	3.465462e+00
1.620000e-06	3.034305e-06	8.116574e-11	3.269534e+01	3.471533e+00
1.630000e-06	3.092604e-06	8.278715e-11	3.332352e+01	3.468510e+00
1.640000e-06	3.150004e-06	8.192795e-11	3.394203e+01	3.457020e+00
1.650000e-06	3.206524e-06	8.121066e-11	3.455104e+01	3.438298e+00
1.660000e-06	3.262425e-06	8.272589e-11	3.515338e+01	3.414104e+00
1.670000e-06	3.317927e-06	8.466681e-11	3.575143e+01	3.386597e+00
1.680000e-06	3.372924e-06	8.664340e-11	3.634404e+01	3.358177e+00
1.690000e-06	3.427293e-06	8.785702e-11	3.692988e+01	3.331318e+00
1.700000e-06	3.481102e-06	8.765561e-11	3.750968e+01	3.308388e+00
1.710000e-06	3.534426e-06	8.637404e-11	3.808426e+01	3.291477e+00
1.720000e-06	3.587141e-06	8.600995e-11	3.865228e+01	3.282251e+00
1.730000e-06	3.639160e-06	8.521664e-11	3.921279e+01	3.281835e+00
1.740000e-06	3.690463e-06	8.557062e-11	3.976559e+01	3.290733e+00
1.750000e-06	3.740980e-06	8.630030e-11	4.030993e+01	3.308802e+00
1.760000e-06	3.790583e-06	8.693155e-11	4.084441e+01	3.335265e+00
1.770000e-06	3.839174e-06	8.928023e-11	4.136799e+01	3.368778e+00
1.780000e-06	3.886983e-06	8.935821e-11	4.188314e+01	3.407530e+00
1.790000e-06	3.934259e-06	8.754546e-11	4.239255e+01	3.449386e+00
1.800000e-06	3.980936e-06	8.807088e-11	4.289551e+01	3.492041e+00
1.810000e-06	4.026901e-06	8.976760e-11	4.339080e+01	3.533191e+00
1.820000e-06	4.072157e-06	8.987180e-11	4.387844e+01	3.570698e+00
1.830000e-06	4.116715e-06	8.962786e-11	4.435856e+01	3.602737e+00
1.840000e-06	4.160656e-06	9.062516e-11	4.483203e+01	3.627918e+00
1.850000e-06	4.204142e-06	9.153179e-11	4.530060e+01	3.645376e+00
1.860000e-06	4.246996e-06	9.153103e-11	4.576237e+01	3.654806e+00
1.870000e-06	4.288750e-06	9.165984e-11	4.621228e+01	3.656468e+00
1.880000e-06	4.329377e-06	9.201352e-11	4.665004e+01	3.651138e+00
1.890000e-06	4.369163e-06	9.256763e-11	4.707874e+01	3.640029e+00
1.900000e-06	4.408335e-06	9.148075e-11	4.750083e+01	3.624665e+00
1.910000e-06	4.446881e-06	8.888376e-11	4.791617e+01	3.606756e+00
1.920000e-06	4.484647e-06	8.723769e-11	4.832311e+01	3.588041e+00
1.930000e-06	4.521576e-06	8.714998e-11	4.872103e+01	3.570147e+00
1.940000e-06	4.557680e-06	8.618878e-11	4.911006e+01	3.554460e+00
1.950000e-06	4.593167e-06	8.410369e-11	4.949244e+01	3.542016e+00
1.960000e-06	4.628123e-06	8.392603e-11	4.986909e+01	3.533434e+00
1.970000e-06	4.662011e-06	8.384360e-11	5.023425e+01	3.528880e+00
1.980000e-06	4.694610e-06	8.423987e-11	5.058551e+01	3.528077e+00
1.990000e-06	4.726365e-06	8.595076e-11	5.092768e+01	3.530354e+00
2.000000e-06	4.757460e-06	8.581946e-11	5.126273e+01	3.534730e+00
2.010000e-06	4.787778e-06	8.395300e-11	5.158942e+01	3.540020e+00
2.020000e-06	4.817272e-06	8.326815e-11	5.190723e+01	3.544973e+00
2.030000e-06	4.845927e-06	8.471974e-11	5.221598e+01	3.548397e+00
2.040000e-06	4.873836e-06	8.639344e-11	5.251672e+01	3.549288e+00
2.050000e-06	4.901160e-06	8.693474e-11	5.281114e+01	3.546942e+00
2.060000e-06	4.927698e-06	8.756651e-11	5.309709e+01	3.541032e+00
2.070000e-06	4.953062e-06	8.845783e-11	5.337039e+01	3.531654e+00
2.080000e-06	4.977301e-06	8.876059e-11	5.363157e+01	3.519330e+00
2.090000e-06	5.000705e-06	8.988700e-11	5.388376e+01	3.504970e+00
2.100000e-06	5.023263e-06	9.121478e-11	5.412682e+01	3.489795e+00
2.110000e-06	5.044953e-06	9.088752e-11	5.436054e+01	3.475223e+00
2.120000e-06	5.065795e-06	8.960569e-11	5.458512e+01	3.462741e+00
2.130000e-06	5.085854e-06	8.954477e-11	5.480125e+01	3.453753e+00
2.140000e-06	5.105351e-06	9.036813e-11	5.501134e+01	3.449434e+00
2.150000e-06	5.124103e-06	9.018930e-11	5.521339e+01	3.450601e+00
2.160000e-06	5.141850e-06	8.923096e-11	5.540463e+01	3.457606e+00
2.170000e-06	5.158698e-06	9.010679e-11	5.558617e+01	3.470268e+00
2.180000e-06	5.174618e-06	9.361092e-11	5.575771e+01	3.487849e+00
2.190000e-06	5.189483e-06	9.467431e-11	5.591788e+01	3.509081e+00
2.200000e-06	5.203339e-06	9.296435e-11	5.606719e+01	3.532243e+00
2.210000e-06	5.216269e-06	9.319676e-11	5.620651e+01	3.555279e+00
2.220000e-06	5.228267e-06	9.368314e-11	5.633578e+01	3.575962e+00
2.230000e-06	5.239266e-06	9.414605e-11	5.645430e+01	3.592073e+00
2.240000e-06	5.248955e-06	9.375228e-11	5.655871e+01	3.601602e+00
2.250000e-06	5.257343e-06	9.212538e-11	5.664909e+01	3.602937e+00
2.260000e-06	5.264865e-06	9.106786e-11	5.673014e+01	3.595037e+00
2.270000e-06	5.271615e-06	9.189464e-11	5.680287e+01	3.577564e+00
2.280000e-06	5.277516e-06	9.182563e-11	5.686646e+01	3.550969e+00
2.290000e-06	5.282488e-06	8.842903e-11	5.692003e+01	3.516521e+00
2.300000e-06	5.286625e-06	8.737409e-11	5.696461e+01	3.476258e+00
2.310000e-06	5.290067e-06	8.928719e-11	5.700170e+01	3.432887e+00
2.320000e-06	5.292505e-06	9.088170e-11	5.702797e+01	3.389613e+00
2.330000e-06	5.293668e-06	9.023824e-11	5.704050e+01	3.349915e+00
2.340000e-06	5.293761e-06	8.900983e-11	5.704150e+01	3.317281e+00
2.350000e-06	5.293055e-06	9.094319e-11	5.703390e+01	3.294931e+00
2.360000e-06	5.291496e-06	9.091076e-11	5.701709e+01	3.285523e+00
2.370000e-06	5.289072e-06	8.842493e-11	5.699098e+01	3.290888e+00
2.380000e-06	5.285816e-06	8.727111e-11	5.695590e+01	3.311801e+00
2.390000e-06	5.281836e-06	8.838018e-11	5.691301e+01	3.347811e+00
2.400000e-06	5.277286e-06	9.229450e-11	5.686399e+01	3.397143e+00
2.410000e-06	5.271856e-06	1.044060e-10	5.680547e+01	3.456685e+00
2.420000e-06	5.265164e-06	1.266722e-10	5.673336e+01	3.522068e+00
2.430000e-06	5.257384e-06	7.614140e-11	5.664953e+01	3.587826e+00
2.440000e-06	5.248690e-06	2.693904e-11	5.655585e+01	3.647648e+00
2.450000e-06	5.238705e-06	3.408709e-11	5.644827e+01	3.694694e+00
2.460000e-06	5.227356e-06	1.824925e-10	5.632597e+01	3.721962e+00
2.470000e-06	5.215522e-06	2.144552e-10	5.619846e+01	3.722686e+00
2.480000e-06	5.203676e-06	7.017788e-12	5.607082e+01	3.690740e+00
2.490000e-06	5.190597e-06	2.960358e-11	5.592989e+01	3.621018e+00
2.500000e-06	5.175537e-06	1.747653e-10	5.576761e+01	3.509770e+00
2.510000e-06	5.159670e-06	9.629494e-11	5.559664e+01	3.354874e+00
2.520000e-06	5.143525e-06	1.195280e-10	5.542268e+01	3.156015e+00
2.530000e-06	5.126174e-06	2.164905e-10	5.523572e+01	2.914774e+00
2.540000e-06	5.107782e-06	-1.060189e-11	5.503754e+01	2.634599e+00
2.550000e-06	5.089047e-06	7.217071e-13	5.483566e+01	2.320683e+00
2.560000e-06	5.069559e-06	1.981816e-10	5.462568e+01	1.979733e+00
2.570000e-06	5.049162e-06	-4.215810e-11	5.440589e+01	1.619658e+00
2.580000e-06	5.027773e-06	-2.060990e-10	5.417542e+01	1.249182e+00
2.590000e-06	5.005060e-06	5.027007e-11	5.393068e+01	8.774233e-01
2.600000e-06	4.981297e-06	6.460990e-11	5.367463e+01	5.134441e-01
2.610000e-06	4.956667e-06	-1.104453e-10	5.340923e+01	1.658115e-01
2.620000e-06	4.931168e-06	-7.440767e-11	5.313448e+01	-1.578074e-01
2.630000e-06	4.905027e-06	-6.137337e-11	5.285281e+01	-4.509944e-01
2.640000e-06	4.878042e-06	-4.171654e-11	5.256204e+01	-7.088514e-01
2.650000e-06	4.850118e-06	-5.130092e-11	5.226115e+01	-9.281801e-01
2.660000e-06	4.821693e-06	-5.625196e-11	5.195486e+01	-1.107561e+00
2.670000e-06	4.792288e-06	-1.450952e-11	5.163802e+01	-1.247331e+00
2.680000e-06	4.761296e-06	-1.637385e-10	5.130407e+01	-1.349463e+00
2.690000e-06	4.729364e-06	-9.252079e-11	5.095999e+01	-1.417354e+00
2.700000e-06	4.696851e-06	9.356864e-11	5.060966e+01	-1.455554e+00
2.710000e-06	4.663453e-06	-1.216876e-10	5.024978e+01	-1.469428e+00
2.720000e-06	4.629197e-06	-2.017728e-10	4.988067e+01	-1.464804e+00
2.730000e-06	4.594285e-06	-1.666250e-11	4.950449e+01	-1.447605e+00
2.740000e-06	4.558770e-06	1.112324e-11	4.912181e+01	-1.423510e+00
2.750000e-06	4.522541e-06	-9.666342e-11	4.873142e+01	-1.397648e+00
2.760000e-06	4.485528e-06	-1.473645e-10	4.833260e+01	-1.374348e+00
2.770000e-06	4.447585e-06	-4.429372e-11	4.792376e+01	-1.356969e+00
2.780000e-06	4.408461e-06	-3.394046e-11	4.750219e+01	-1.347796e+00
2.790000e-06	4.368397e-06	-1.025136e-10	4.707049e+01	-1.348021e+00
2.800000e-06	4.327827e-06	-6.318961e-11	4.663334e+01	-1.357805e+00
2.810000e-06	4.286705e-06	-7.281271e-11	4.619025e+01	-1.376394e+00
2.820000e-06	4.244819e-06	-9.018571e-11	4.573891e+01	-1.402304e+00
2.830000e-06	4.202159e-06	-7.064214e-11	4.527923e+01	-1.433532e+00
2.840000e-06	4.158834e-06	-4.732873e-11	4.481240e+01	-1.467791e+00
2.850000e-06	4.114934e-06	-5.826509e-11	4.433936e+01	-1.502750e+00
2.860000e-06	4.070538e-06	-1.125815e-10	4.386099e+01	-1.536248e+00
2.870000e-06	4.025587e-06	-5.621952e-11	4.337663e+01	-1.566484e+00
2.880000e-06	3.979832e-06	-2.532272e-11	4.288361e+01	-1.592156e+00
2.890000e-06	3.933167e-06	-8.354031e-11	4.238078e+01	-1.612553e+00
2.900000e-06	3.885864e-06	-8.618375e-11	4.187108e+01	-1.627582e+00
2.910000e-06	3.838074e-06	-5.280190e-11	4.135614e+01	-1.637752e+00
2.920000e-06	3.789470e-06	-3.890713e-11	4.083242e+01	-1.644092e+00
2.930000e-06	3.739930e-06	-8.356466e-11	4.029862e+01	-1.648042e+00
2.940000e-06	3.689748e-06	-8.210847e-11	3.975789e+01	-1.651300e+00
2.950000e-06	3.638993e-06	-4.727180e-11	3.921100e+01	-1.655667e+00
2.960000e-06	3.587533e-06	-7.604135e-11	3.865650e+01	-1.662878e+00
2.970000e-06	3.535370e-06	-7.956936e-11	3.809443e+01	-1.674452e+00
