# Temperatura_=_20.0
# Concentracion g/m^3_=_9000.0
# C_Vs_to_Am_M_A/Vsm_=_65563218390.804596
# pendiente_HvsI_1/m_=_3716.3
# ordenada_HvsI_A/m_=_1297.0
# frecuencia_Hz_=_212889.5053289275

Tiempo_(s)	Campo_(V.s)	Magnetizacion_(V.s)	Campo_(kA/m)	Magnetizacion_(A/m)
0.000000e+00	-5.292875e-06	-4.026399e-09	-5.696539e+01	-2.641491e+02
1.000000e-08	-5.292312e-06	-4.025178e-09	-5.695934e+01	-2.641335e+02
2.000000e-08	-5.290527e-06	-4.023315e-09	-5.694013e+01	-2.641026e+02
3.000000e-08	-5.287561e-06	-4.022853e-09	-5.690820e+01	-2.640575e+02
4.000000e-08	-5.283840e-06	-4.021511e-09	-5.686815e+01	-2.639994e+02
5.000000e-08	-5.279404e-06	-4.021094e-09	-5.682041e+01	-2.639295e+02
6.000000e-08	-5.274113e-06	-4.021806e-09	-5.676347e+01	-2.638490e+02
7.000000e-08	-5.267994e-06	-4.018724e-09	-5.669761e+01	-2.637588e+02
8.000000e-08	-5.260985e-06	-4.017106e-09	-5.662217e+01	-2.636598e+02
9.000000e-08	-5.253081e-06	-4.028284e-09	-5.653710e+01	-2.635524e+02
1.000000e-07	-5.244032e-06	-4.062035e-09	-5.643971e+01	-2.634366e+02
1.100000e-07	-5.233518e-06	-4.059432e-09	-5.632656e+01	-2.633122e+02
1.200000e-07	-5.221918e-06	-4.003513e-09	-5.620171e+01	-2.631782e+02
1.300000e-07	-5.209569e-06	-3.917498e-09	-5.606880e+01	-2.630335e+02
1.400000e-07	-5.196374e-06	-3.968828e-09	-5.592678e+01	-2.628764e+02
1.500000e-07	-5.182250e-06	-4.089740e-09	-5.577477e+01	-2.627046e+02
1.600000e-07	-5.167185e-06	-4.006686e-09	-5.561263e+01	-2.625157e+02
1.700000e-07	-5.150915e-06	-3.944286e-09	-5.543753e+01	-2.623072e+02
1.800000e-07	-5.133455e-06	-3.967057e-09	-5.524961e+01	-2.620762e+02
1.900000e-07	-5.115399e-06	-3.961491e-09	-5.505528e+01	-2.618200e+02
2.000000e-07	-5.096798e-06	-4.007080e-09	-5.485508e+01	-2.615360e+02
2.100000e-07	-5.077219e-06	-4.048104e-09	-5.464436e+01	-2.612218e+02
2.200000e-07	-5.056721e-06	-3.911179e-09	-5.442375e+01	-2.608755e+02
2.300000e-07	-5.035547e-06	-3.888111e-09	-5.419586e+01	-2.604959e+02
2.400000e-07	-5.013557e-06	-4.083789e-09	-5.395919e+01	-2.600820e+02
2.500000e-07	-4.990622e-06	-4.051599e-09	-5.371235e+01	-2.596338e+02
2.600000e-07	-4.966902e-06	-3.908323e-09	-5.345706e+01	-2.591519e+02
2.700000e-07	-4.942372e-06	-3.917022e-09	-5.319305e+01	-2.586376e+02
2.800000e-07	-4.916778e-06	-3.983479e-09	-5.291759e+01	-2.580928e+02
2.900000e-07	-4.890038e-06	-4.000087e-09	-5.262980e+01	-2.575200e+02
3.000000e-07	-4.862348e-06	-3.961285e-09	-5.233178e+01	-2.569220e+02
3.100000e-07	-4.833917e-06	-3.885381e-09	-5.202578e+01	-2.563021e+02
3.200000e-07	-4.804650e-06	-3.883515e-09	-5.171079e+01	-2.556637e+02
3.300000e-07	-4.774475e-06	-3.948088e-09	-5.138603e+01	-2.550101e+02
3.400000e-07	-4.743565e-06	-3.949757e-09	-5.105335e+01	-2.543444e+02
3.500000e-07	-4.712007e-06	-3.887339e-09	-5.071371e+01	-2.536695e+02
3.600000e-07	-4.679676e-06	-3.825057e-09	-5.036575e+01	-2.529876e+02
3.700000e-07	-4.646472e-06	-3.856363e-09	-5.000838e+01	-2.523005e+02
3.800000e-07	-4.612191e-06	-3.926376e-09	-4.963943e+01	-2.516091e+02
3.900000e-07	-4.576790e-06	-3.879569e-09	-4.925841e+01	-2.509136e+02
4.000000e-07	-4.540578e-06	-3.777520e-09	-4.886868e+01	-2.502138e+02
4.100000e-07	-4.503765e-06	-3.804343e-09	-4.847247e+01	-2.495082e+02
4.200000e-07	-4.466221e-06	-3.876674e-09	-4.806840e+01	-2.487952e+02
4.300000e-07	-4.427704e-06	-3.839955e-09	-4.765385e+01	-2.480723e+02
4.400000e-07	-4.388473e-06	-3.759741e-09	-4.723163e+01	-2.473370e+02
4.500000e-07	-4.348844e-06	-3.752858e-09	-4.680511e+01	-2.465861e+02
4.600000e-07	-4.308602e-06	-3.788917e-09	-4.637200e+01	-2.458168e+02
4.700000e-07	-4.267281e-06	-3.789896e-09	-4.592728e+01	-2.450260e+02
4.800000e-07	-4.224830e-06	-3.749217e-09	-4.547039e+01	-2.442112e+02
4.900000e-07	-4.181577e-06	-3.698792e-09	-4.500488e+01	-2.433699e+02
5.000000e-07	-4.137671e-06	-3.702363e-09	-4.453233e+01	-2.425004e+02
5.100000e-07	-4.093114e-06	-3.734193e-09	-4.405278e+01	-2.416013e+02
5.200000e-07	-4.047922e-06	-3.704596e-09	-4.356639e+01	-2.406719e+02
5.300000e-07	-4.002005e-06	-3.644147e-09	-4.307221e+01	-2.397118e+02
5.400000e-07	-3.955340e-06	-3.625942e-09	-4.256997e+01	-2.387215e+02
5.500000e-07	-3.908101e-06	-3.645800e-09	-4.206154e+01	-2.377015e+02
5.600000e-07	-3.860342e-06	-3.648136e-09	-4.154753e+01	-2.366527e+02
5.700000e-07	-3.811776e-06	-3.602300e-09	-4.102483e+01	-2.355763e+02
5.800000e-07	-3.762133e-06	-3.556876e-09	-4.049055e+01	-2.344733e+02
5.900000e-07	-3.711474e-06	-3.559265e-09	-3.994532e+01	-2.333447e+02
6.000000e-07	-3.659969e-06	-3.576914e-09	-3.939099e+01	-2.321912e+02
6.100000e-07	-3.607713e-06	-3.543468e-09	-3.882857e+01	-2.310131e+02
6.200000e-07	-3.554758e-06	-3.490214e-09	-3.825864e+01	-2.298105e+02
6.300000e-07	-3.501216e-06	-3.485267e-09	-3.768238e+01	-2.285826e+02
6.400000e-07	-3.447082e-06	-3.491029e-09	-3.709975e+01	-2.273285e+02
6.500000e-07	-3.392309e-06	-3.467121e-09	-3.651026e+01	-2.260466e+02
6.600000e-07	-3.337008e-06	-3.427756e-09	-3.591506e+01	-2.247352e+02
6.700000e-07	-3.281308e-06	-3.396889e-09	-3.531559e+01	-2.233919e+02
6.800000e-07	-3.225167e-06	-3.386464e-09	-3.471136e+01	-2.220146e+02
6.900000e-07	-3.168344e-06	-3.376280e-09	-3.409980e+01	-2.206007e+02
7.000000e-07	-3.110529e-06	-3.345735e-09	-3.347756e+01	-2.191480e+02
7.100000e-07	-3.051839e-06	-3.305598e-09	-3.284590e+01	-2.176544e+02
7.200000e-07	-2.992603e-06	-3.284785e-09	-3.220836e+01	-2.161181e+02
7.300000e-07	-2.932962e-06	-3.278490e-09	-3.156646e+01	-2.145376e+02
7.400000e-07	-2.872936e-06	-3.251594e-09	-3.092042e+01	-2.129120e+02
7.500000e-07	-2.812363e-06	-3.210126e-09	-3.026849e+01	-2.112408e+02
7.600000e-07	-2.751293e-06	-3.180724e-09	-2.961122e+01	-2.095236e+02
7.700000e-07	-2.689857e-06	-3.162774e-09	-2.895000e+01	-2.077606e+02
7.800000e-07	-2.627971e-06	-3.138200e-09	-2.828394e+01	-2.059521e+02
7.900000e-07	-2.565626e-06	-3.098811e-09	-2.761295e+01	-2.040984e+02
8.000000e-07	-2.502799e-06	-3.065880e-09	-2.693677e+01	-2.021998e+02
8.100000e-07	-2.439557e-06	-3.046337e-09	-2.625611e+01	-2.002563e+02
8.200000e-07	-2.376026e-06	-3.022301e-09	-2.557235e+01	-1.982676e+02
8.300000e-07	-2.312187e-06	-2.982711e-09	-2.488527e+01	-1.962326e+02
8.400000e-07	-2.248021e-06	-2.939640e-09	-2.419467e+01	-1.941499e+02
8.500000e-07	-2.183515e-06	-2.910690e-09	-2.350043e+01	-1.920172e+02
8.600000e-07	-2.118654e-06	-2.882782e-09	-2.280235e+01	-1.898314e+02
8.700000e-07	-2.053367e-06	-2.843883e-09	-2.209968e+01	-1.875889e+02
8.800000e-07	-1.987397e-06	-2.800528e-09	-2.138967e+01	-1.852853e+02
8.900000e-07	-1.920817e-06	-2.763431e-09	-2.067310e+01	-1.829157e+02
9.000000e-07	-1.854010e-06	-2.735765e-09	-1.995407e+01	-1.804747e+02
9.100000e-07	-1.786992e-06	-2.699726e-09	-1.923277e+01	-1.779567e+02
9.200000e-07	-1.719691e-06	-2.650374e-09	-1.850845e+01	-1.753560e+02
9.300000e-07	-1.652136e-06	-2.605209e-09	-1.778137e+01	-1.726667e+02
9.400000e-07	-1.584426e-06	-2.568348e-09	-1.705263e+01	-1.698833e+02
9.500000e-07	-1.516559e-06	-2.528010e-09	-1.632220e+01	-1.670003e+02
9.600000e-07	-1.448485e-06	-2.472093e-09	-1.558954e+01	-1.640125e+02
9.700000e-07	-1.380135e-06	-2.414463e-09	-1.485392e+01	-1.609152e+02
9.800000e-07	-1.311548e-06	-2.370440e-09	-1.411574e+01	-1.577037e+02
9.900000e-07	-1.242743e-06	-2.329735e-09	-1.337522e+01	-1.543732e+02
1.000000e-06	-1.173649e-06	-2.279143e-09	-1.263158e+01	-1.509193e+02
1.010000e-06	-1.104326e-06	-2.216620e-09	-1.188548e+01	-1.473370e+02
1.020000e-06	-1.034793e-06	-2.157395e-09	-1.113713e+01	-1.436208e+02
1.030000e-06	-9.650400e-07	-2.106173e-09	-1.038639e+01	-1.397646e+02
1.040000e-06	-8.951352e-07	-2.049991e-09	-9.634032e+00	-1.357615e+02
1.050000e-06	-8.251003e-07	-1.980895e-09	-8.880270e+00	-1.316033e+02
1.060000e-06	-7.548695e-07	-1.905727e-09	-8.124401e+00	-1.272808e+02
1.070000e-06	-6.844506e-07	-1.836816e-09	-7.366506e+00	-1.227834e+02
1.080000e-06	-6.138357e-07	-1.770033e-09	-6.606502e+00	-1.180996e+02
1.090000e-06	-5.430842e-07	-1.692387e-09	-5.845028e+00	-1.132166e+02
1.100000e-06	-4.723132e-07	-1.606669e-09	-5.083344e+00	-1.081211e+02
1.110000e-06	-4.014806e-07	-1.522690e-09	-4.320997e+00	-1.027995e+02
1.120000e-06	-3.305555e-07	-1.442642e-09	-3.557655e+00	-9.723821e+01
1.130000e-06	-2.595939e-07	-1.358616e-09	-2.793919e+00	-9.142443e+01
1.140000e-06	-1.886539e-07	-1.262311e-09	-2.030417e+00	-8.534670e+01
1.150000e-06	-1.177038e-07	-1.159675e-09	-1.266805e+00	-7.899562e+01
1.160000e-06	-4.671627e-08	-1.059012e-09	-5.027912e-01	-7.236444e+01
1.170000e-06	2.430040e-08	-9.597293e-10	2.615368e-01	-6.544982e+01
1.180000e-06	9.538411e-08	-8.510302e-10	1.026586e+00	-5.825235e+01
1.190000e-06	1.663773e-07	-7.333269e-10	1.790662e+00	-5.077705e+01
1.200000e-06	2.372801e-07	-6.159163e-10	2.553764e+00	-4.303383e+01
1.210000e-06	3.081742e-07	-4.956787e-10	3.316772e+00	-3.503761e+01
1.220000e-06	3.789921e-07	-3.723872e-10	4.078961e+00	-2.680848e+01
1.230000e-06	4.496860e-07	-2.443159e-10	4.839815e+00	-1.837151e+01
1.240000e-06	5.202679e-07	-1.104610e-10	5.599465e+00	-9.756523e+00
1.250000e-06	5.907552e-07	2.286721e-11	6.358095e+00	-9.975558e-01
1.260000e-06	6.611514e-07	1.554225e-10	7.115745e+00	7.867736e+00
1.270000e-06	7.313856e-07	2.920885e-10	7.871652e+00	1.679887e+01
1.280000e-06	8.014726e-07	4.341861e-10	8.625974e+00	2.575345e+01
1.290000e-06	8.714704e-07	5.732405e-10	9.379336e+00	3.468811e+01
1.300000e-06	9.412944e-07	7.066028e-10	1.013083e+01	4.355953e+01
1.310000e-06	1.010910e-06	8.390315e-10	1.088008e+01	5.232548e+01
1.320000e-06	1.080331e-06	9.710432e-10	1.162723e+01	6.094576e+01
1.330000e-06	1.149545e-06	1.101726e-09	1.237216e+01	6.938312e+01
1.340000e-06	1.218516e-06	1.228574e-09	1.311447e+01	7.760402e+01
1.350000e-06	1.287303e-06	1.349612e-09	1.385480e+01	8.557931e+01
1.360000e-06	1.355899e-06	1.467021e-09	1.459307e+01	9.328467e+01
1.370000e-06	1.424249e-06	1.579602e-09	1.532870e+01	1.007010e+02
1.380000e-06	1.492341e-06	1.685310e-09	1.606156e+01	1.078143e+02
1.390000e-06	1.560192e-06	1.784401e-09	1.679181e+01	1.146161e+02
1.400000e-06	1.627874e-06	1.878513e-09	1.752024e+01	1.211027e+02
1.410000e-06	1.695377e-06	1.970849e-09	1.824676e+01	1.272751e+02
1.420000e-06	1.762717e-06	2.059295e-09	1.897152e+01	1.331386e+02
1.430000e-06	1.829832e-06	2.143996e-09	1.969386e+01	1.387018e+02
1.440000e-06	1.896639e-06	2.224166e-09	2.041288e+01	1.439765e+02
1.450000e-06	1.963119e-06	2.300762e-09	2.112838e+01	1.489766e+02
1.460000e-06	2.029053e-06	2.375444e-09	2.183799e+01	1.537175e+02
1.470000e-06	2.094428e-06	2.443414e-09	2.254160e+01	1.582156e+02
1.480000e-06	2.159268e-06	2.507374e-09	2.323946e+01	1.624876e+02
1.490000e-06	2.223535e-06	2.570974e-09	2.393115e+01	1.665499e+02
1.500000e-06	2.287412e-06	2.629243e-09	2.461863e+01	1.704184e+02
1.510000e-06	2.351020e-06	2.683351e-09	2.530322e+01	1.741078e+02
1.520000e-06	2.414357e-06	2.736968e-09	2.598490e+01	1.776317e+02
1.530000e-06	2.477319e-06	2.790725e-09	2.666253e+01	1.810023e+02
1.540000e-06	2.539855e-06	2.842718e-09	2.733559e+01	1.842306e+02
1.550000e-06	2.602006e-06	2.886944e-09	2.800449e+01	1.873260e+02
1.560000e-06	2.663738e-06	2.927722e-09	2.866889e+01	1.902969e+02
1.570000e-06	2.725023e-06	2.968731e-09	2.932848e+01	1.931504e+02
1.580000e-06	2.785864e-06	3.009579e-09	2.998329e+01	1.958928e+02
1.590000e-06	2.846210e-06	3.048719e-09	3.063277e+01	1.985298e+02
1.600000e-06	2.906042e-06	3.083501e-09	3.127673e+01	2.010664e+02
1.610000e-06	2.965508e-06	3.117408e-09	3.191674e+01	2.035073e+02
1.620000e-06	3.024622e-06	3.152593e-09	3.255297e+01	2.058570e+02
1.630000e-06	3.083083e-06	3.186680e-09	3.318216e+01	2.081199e+02
1.640000e-06	3.140626e-06	3.218679e-09	3.380148e+01	2.103003e+02
1.650000e-06	3.197284e-06	3.248885e-09	3.441127e+01	2.124026e+02
1.660000e-06	3.253282e-06	3.278646e-09	3.501396e+01	2.144309e+02
1.670000e-06	3.308801e-06	3.306709e-09	3.561149e+01	2.163895e+02
1.680000e-06	3.363905e-06	3.332608e-09	3.620455e+01	2.182823e+02
1.690000e-06	3.418530e-06	3.360138e-09	3.679246e+01	2.201130e+02
1.700000e-06	3.472522e-06	3.385575e-09	3.737355e+01	2.218852e+02
1.710000e-06	3.525949e-06	3.408804e-09	3.794858e+01	2.236018e+02
1.720000e-06	3.578844e-06	3.431960e-09	3.851787e+01	2.252654e+02
1.730000e-06	3.631091e-06	3.455606e-09	3.908018e+01	2.268780e+02
1.740000e-06	3.682668e-06	3.478830e-09	3.963529e+01	2.284414e+02
1.750000e-06	3.733428e-06	3.500781e-09	4.018160e+01	2.299564e+02
1.760000e-06	3.783270e-06	3.523447e-09	4.071804e+01	2.314238e+02
1.770000e-06	3.832150e-06	3.545711e-09	4.124411e+01	2.328439e+02
1.780000e-06	3.880170e-06	3.565978e-09	4.176093e+01	2.342166e+02
1.790000e-06	3.927591e-06	3.584186e-09	4.227131e+01	2.355418e+02
1.800000e-06	3.974445e-06	3.603144e-09	4.277558e+01	2.368192e+02
1.810000e-06	4.020654e-06	3.622127e-09	4.327292e+01	2.380488e+02
1.820000e-06	4.066139e-06	3.640763e-09	4.376246e+01	2.392305e+02
1.830000e-06	4.110865e-06	3.659682e-09	4.424382e+01	2.403646e+02
1.840000e-06	4.154929e-06	3.677088e-09	4.471807e+01	2.414518e+02
1.850000e-06	4.198551e-06	3.692008e-09	4.518756e+01	2.424931e+02
1.860000e-06	4.241679e-06	3.706075e-09	4.565173e+01	2.434901e+02
1.870000e-06	4.283883e-06	3.721059e-09	4.610596e+01	2.444445e+02
1.880000e-06	4.324871e-06	3.736405e-09	4.654710e+01	2.453586e+02
1.890000e-06	4.364847e-06	3.750240e-09	4.697734e+01	2.462351e+02
1.900000e-06	4.404159e-06	3.762035e-09	4.740045e+01	2.470766e+02
1.910000e-06	4.442869e-06	3.774846e-09	4.781708e+01	2.478861e+02
1.920000e-06	4.480879e-06	3.788228e-09	4.822615e+01	2.486665e+02
1.930000e-06	4.518103e-06	3.801504e-09	4.862679e+01	2.494207e+02
1.940000e-06	4.554524e-06	3.813709e-09	4.901878e+01	2.501513e+02
1.950000e-06	4.590251e-06	3.823474e-09	4.940330e+01	2.508608e+02
1.960000e-06	4.625395e-06	3.835037e-09	4.978154e+01	2.515513e+02
1.970000e-06	4.659571e-06	3.846668e-09	5.014936e+01	2.522242e+02
1.980000e-06	4.692485e-06	3.856408e-09	5.050360e+01	2.528809e+02
1.990000e-06	4.724471e-06	3.865454e-09	5.084785e+01	2.535221e+02
2.000000e-06	4.755806e-06	3.874299e-09	5.118510e+01	2.541482e+02
2.010000e-06	4.786359e-06	3.884639e-09	5.151394e+01	2.547589e+02
2.020000e-06	4.816116e-06	3.895139e-09	5.183420e+01	2.553540e+02
2.030000e-06	4.845085e-06	3.904027e-09	5.214598e+01	2.559328e+02
2.040000e-06	4.873252e-06	3.912782e-09	5.244914e+01	2.564943e+02
2.050000e-06	4.900781e-06	3.922041e-09	5.274542e+01	2.570377e+02
2.060000e-06	4.927609e-06	3.931437e-09	5.303416e+01	2.575619e+02
2.070000e-06	4.953273e-06	3.941687e-09	5.331037e+01	2.580660e+02
2.080000e-06	4.977705e-06	3.950168e-09	5.357333e+01	2.585494e+02
2.090000e-06	5.001290e-06	3.956776e-09	5.382716e+01	2.590113e+02
2.100000e-06	5.024048e-06	3.965151e-09	5.407210e+01	2.594514e+02
2.110000e-06	5.045931e-06	3.972641e-09	5.430762e+01	2.598695e+02
2.120000e-06	5.066982e-06	3.977660e-09	5.453418e+01	2.602659e+02
2.130000e-06	5.087241e-06	3.983765e-09	5.475222e+01	2.606409e+02
2.140000e-06	5.106848e-06	3.990631e-09	5.496324e+01	2.609949e+02
2.150000e-06	5.125820e-06	3.997372e-09	5.516743e+01	2.613288e+02
2.160000e-06	5.143914e-06	4.002664e-09	5.536218e+01	2.616433e+02
2.170000e-06	5.161005e-06	4.007630e-09	5.554612e+01	2.619393e+02
2.180000e-06	5.177159e-06	4.014566e-09	5.571999e+01	2.622178e+02
2.190000e-06	5.192290e-06	4.020095e-09	5.588283e+01	2.624794e+02
2.200000e-06	5.206355e-06	4.023613e-09	5.603421e+01	2.627248e+02
2.210000e-06	5.219506e-06	4.028906e-09	5.617574e+01	2.629546e+02
2.220000e-06	5.231772e-06	4.034043e-09	5.630776e+01	2.631691e+02
2.230000e-06	5.243074e-06	4.038354e-09	5.642940e+01	2.633685e+02
2.240000e-06	5.253152e-06	4.041449e-09	5.653787e+01	2.635528e+02
2.250000e-06	5.261857e-06	4.043794e-09	5.663156e+01	2.637216e+02
2.260000e-06	5.269578e-06	4.045781e-09	5.671466e+01	2.638748e+02
2.270000e-06	5.276542e-06	4.048036e-09	5.678961e+01	2.640119e+02
2.280000e-06	5.282634e-06	4.050273e-09	5.685517e+01	2.641323e+02
2.290000e-06	5.287823e-06	4.051730e-09	5.691102e+01	2.642357e+02
2.300000e-06	5.292137e-06	4.054201e-09	5.695745e+01	2.643215e+02
2.310000e-06	5.295703e-06	4.056520e-09	5.699583e+01	2.643896e+02
2.320000e-06	5.298350e-06	4.059326e-09	5.702432e+01	2.644399e+02
2.330000e-06	5.299727e-06	4.061258e-09	5.703914e+01	2.644723e+02
2.340000e-06	5.299946e-06	4.063150e-09	5.704150e+01	2.644873e+02
2.350000e-06	5.299363e-06	4.065913e-09	5.703522e+01	2.644855e+02
2.360000e-06	5.298053e-06	4.066938e-09	5.702113e+01	2.644675e+02
2.370000e-06	5.295922e-06	4.063578e-09	5.699819e+01	2.644344e+02
2.380000e-06	5.292912e-06	4.059997e-09	5.696579e+01	2.643873e+02
2.390000e-06	5.289079e-06	4.061543e-09	5.692453e+01	2.643273e+02
2.400000e-06	5.284579e-06	4.064935e-09	5.687611e+01	2.642558e+02
2.410000e-06	5.279318e-06	4.066232e-09	5.681948e+01	2.641738e+02
2.420000e-06	5.272867e-06	4.066049e-09	5.675006e+01	2.640822e+02
2.430000e-06	5.265209e-06	4.064882e-09	5.666763e+01	2.639819e+02
2.440000e-06	5.256659e-06	4.021926e-09	5.657561e+01	2.638733e+02
2.450000e-06	5.246968e-06	3.995134e-09	5.647131e+01	2.637562e+02
2.460000e-06	5.235891e-06	4.019588e-09	5.635209e+01	2.636304e+02
2.470000e-06	5.224082e-06	4.119355e-09	5.622499e+01	2.634950e+02
2.480000e-06	5.212121e-06	4.119040e-09	5.609626e+01	2.633485e+02
2.490000e-06	5.199244e-06	3.993669e-09	5.595767e+01	2.631893e+02
2.500000e-06	5.184510e-06	4.012372e-09	5.579910e+01	2.630151e+02
2.510000e-06	5.168694e-06	4.104466e-09	5.562888e+01	2.628235e+02
2.520000e-06	5.152610e-06	4.059182e-09	5.545577e+01	2.626117e+02
2.530000e-06	5.135523e-06	4.069771e-09	5.527187e+01	2.623771e+02
2.540000e-06	5.117265e-06	4.082301e-09	5.507536e+01	2.621169e+02
2.550000e-06	5.098545e-06	3.938155e-09	5.487389e+01	2.618285e+02
2.560000e-06	5.079214e-06	4.021710e-09	5.466583e+01	2.615096e+02
2.570000e-06	5.058915e-06	4.134231e-09	5.444737e+01	2.611584e+02
2.580000e-06	5.037629e-06	3.956625e-09	5.421826e+01	2.607736e+02
2.590000e-06	5.015090e-06	3.880629e-09	5.397569e+01	2.603546e+02
2.600000e-06	4.991427e-06	4.031691e-09	5.372101e+01	2.599013e+02
2.610000e-06	4.966932e-06	3.975740e-09	5.345738e+01	2.594145e+02
2.620000e-06	4.941501e-06	3.850764e-09	5.318367e+01	2.588955e+02
2.630000e-06	4.915347e-06	3.884571e-09	5.290219e+01	2.583463e+02
2.640000e-06	4.888540e-06	3.867701e-09	5.261368e+01	2.577695e+02
2.650000e-06	4.860825e-06	3.894373e-09	5.231539e+01	2.571680e+02
2.660000e-06	4.832439e-06	3.908009e-09	5.200987e+01	2.565451e+02
2.670000e-06	4.803185e-06	3.832177e-09	5.169503e+01	2.559042e+02
2.680000e-06	4.772459e-06	3.821761e-09	5.136433e+01	2.552486e+02
2.690000e-06	4.740643e-06	3.814680e-09	5.102191e+01	2.545814e+02
2.700000e-06	4.708290e-06	3.866846e-09	5.067370e+01	2.539052e+02
2.710000e-06	4.675097e-06	3.874637e-09	5.031646e+01	2.532225e+02
2.720000e-06	4.640900e-06	3.735049e-09	4.994841e+01	2.525346e+02
2.730000e-06	4.606043e-06	3.751669e-09	4.957326e+01	2.518426e+02
2.740000e-06	4.570626e-06	3.849713e-09	4.919207e+01	2.511466e+02
2.750000e-06	4.534469e-06	3.808775e-09	4.880293e+01	2.504459e+02
2.760000e-06	4.497564e-06	3.719360e-09	4.840574e+01	2.497394e+02
2.770000e-06	4.459764e-06	3.698144e-09	4.799890e+01	2.490251e+02
2.780000e-06	4.420807e-06	3.768349e-09	4.757963e+01	2.483005e+02
2.790000e-06	4.380876e-06	3.766007e-09	4.714987e+01	2.475630e+02
2.800000e-06	4.340299e-06	3.697345e-09	4.671314e+01	2.468096e+02
2.810000e-06	4.299172e-06	3.684585e-09	4.627051e+01	2.460372e+02
2.820000e-06	4.257379e-06	3.680713e-09	4.582071e+01	2.452430e+02
2.830000e-06	4.214805e-06	3.699605e-09	4.536250e+01	2.444243e+02
2.840000e-06	4.171507e-06	3.687166e-09	4.489650e+01	2.435789e+02
2.850000e-06	4.127635e-06	3.637613e-09	4.442432e+01	2.427050e+02
2.860000e-06	4.083295e-06	3.624198e-09	4.394710e+01	2.418014e+02
2.870000e-06	4.038455e-06	3.627905e-09	4.346450e+01	2.408674e+02
2.880000e-06	3.992880e-06	3.641925e-09	4.297399e+01	2.399028e+02
2.890000e-06	3.946432e-06	3.607578e-09	4.247408e+01	2.389080e+02
2.900000e-06	3.899307e-06	3.557695e-09	4.196690e+01	2.378836e+02
2.910000e-06	3.851650e-06	3.565278e-09	4.145398e+01	2.368306e+02
2.920000e-06	3.803211e-06	3.580597e-09	4.093265e+01	2.357501e+02
2.930000e-06	3.753791e-06	3.560497e-09	4.040077e+01	2.346432e+02
2.940000e-06	3.703645e-06	3.505875e-09	3.986105e+01	2.335108e+02
2.950000e-06	3.652927e-06	3.494456e-09	3.931520e+01	2.323536e+02
