# Temperatura_=_20.0
# Concentracion g/m^3_=_12600.0
# C_Vs_to_Am_M_A/Vsm_=_65563218390.804596
# pendiente_HvsI_1/m_=_3716.3
# ordenada_HvsI_A/m_=_1297.0
# frecuencia_Hz_=_213244.66533049836

Tiempo_(s)	Campo_(V.s)	Magnetizacion_(V.s)	Campo_(kA/m)	Magnetizacion_(A/m)
0.000000e+00	-8.145002e-06	-5.383725e-09	-5.702581e+01	-3.514330e+02
1.000000e-08	-8.144007e-06	-5.384371e-09	-5.701884e+01	-3.513375e+02
2.000000e-08	-8.141348e-06	-5.387084e-09	-5.700022e+01	-3.512103e+02
3.000000e-08	-8.137364e-06	-5.388065e-09	-5.697233e+01	-3.510569e+02
4.000000e-08	-8.132216e-06	-5.386719e-09	-5.693628e+01	-3.508835e+02
5.000000e-08	-8.125825e-06	-5.380506e-09	-5.689154e+01	-3.506968e+02
6.000000e-08	-8.118198e-06	-5.372267e-09	-5.683815e+01	-3.505031e+02
7.000000e-08	-8.109110e-06	-5.362678e-09	-5.677451e+01	-3.503085e+02
8.000000e-08	-8.098305e-06	-5.332280e-09	-5.669887e+01	-3.501183e+02
9.000000e-08	-8.085816e-06	-5.377388e-09	-5.661143e+01	-3.499368e+02
1.000000e-07	-8.071353e-06	-5.439420e-09	-5.651016e+01	-3.497667e+02
1.100000e-07	-8.054923e-06	-5.407093e-09	-5.639513e+01	-3.496095e+02
1.200000e-07	-8.036962e-06	-5.383219e-09	-5.626938e+01	-3.494647e+02
1.300000e-07	-8.017825e-06	-5.305742e-09	-5.613540e+01	-3.493303e+02
1.400000e-07	-7.997760e-06	-5.222881e-09	-5.599492e+01	-3.492028e+02
1.500000e-07	-7.976608e-06	-5.441931e-09	-5.584683e+01	-3.490772e+02
1.600000e-07	-7.954182e-06	-5.417854e-09	-5.568981e+01	-3.489472e+02
1.700000e-07	-7.930648e-06	-5.260742e-09	-5.552504e+01	-3.488058e+02
1.800000e-07	-7.905563e-06	-5.356087e-09	-5.534942e+01	-3.486456e+02
1.900000e-07	-7.878705e-06	-5.231967e-09	-5.516138e+01	-3.484587e+02
2.000000e-07	-7.850698e-06	-5.284499e-09	-5.496529e+01	-3.482377e+02
2.100000e-07	-7.821512e-06	-5.466308e-09	-5.476095e+01	-3.479758e+02
2.200000e-07	-7.790931e-06	-5.250984e-09	-5.454684e+01	-3.476668e+02
2.300000e-07	-7.758915e-06	-5.157356e-09	-5.432268e+01	-3.473059e+02
2.400000e-07	-7.725280e-06	-5.309430e-09	-5.408719e+01	-3.468894e+02
2.500000e-07	-7.690256e-06	-5.330257e-09	-5.384198e+01	-3.464148e+02
2.600000e-07	-7.653974e-06	-5.305293e-09	-5.358796e+01	-3.458811e+02
2.700000e-07	-7.616182e-06	-5.184954e-09	-5.332337e+01	-3.452885e+02
2.800000e-07	-7.577037e-06	-5.153961e-09	-5.304930e+01	-3.446383e+02
2.900000e-07	-7.536722e-06	-5.235960e-09	-5.276704e+01	-3.439324e+02
3.000000e-07	-7.494987e-06	-5.258465e-09	-5.247484e+01	-3.431738e+02
3.100000e-07	-7.451702e-06	-5.216009e-09	-5.217179e+01	-3.423655e+02
3.200000e-07	-7.406976e-06	-5.127226e-09	-5.185865e+01	-3.415107e+02
3.300000e-07	-7.360980e-06	-5.127827e-09	-5.153661e+01	-3.406127e+02
3.400000e-07	-7.313733e-06	-5.148913e-09	-5.120582e+01	-3.396741e+02
3.500000e-07	-7.265031e-06	-5.165502e-09	-5.086485e+01	-3.386974e+02
3.600000e-07	-7.214616e-06	-5.157466e-09	-5.051187e+01	-3.376842e+02
3.700000e-07	-7.162509e-06	-5.054669e-09	-5.014706e+01	-3.366357e+02
3.800000e-07	-7.109060e-06	-5.027413e-09	-4.977284e+01	-3.355523e+02
3.900000e-07	-7.054565e-06	-5.078974e-09	-4.939130e+01	-3.344339e+02
4.000000e-07	-6.998996e-06	-5.101879e-09	-4.900225e+01	-3.332802e+02
4.100000e-07	-6.942036e-06	-5.050148e-09	-4.860345e+01	-3.320901e+02
4.200000e-07	-6.883589e-06	-4.961016e-09	-4.819424e+01	-3.308626e+02
4.300000e-07	-6.823888e-06	-4.962896e-09	-4.777626e+01	-3.295967e+02
4.400000e-07	-6.763057e-06	-5.011572e-09	-4.735036e+01	-3.282915e+02
4.500000e-07	-6.701047e-06	-5.009349e-09	-4.691621e+01	-3.269461e+02
4.600000e-07	-6.637963e-06	-4.925392e-09	-4.647454e+01	-3.255601e+02
4.700000e-07	-6.573805e-06	-4.856828e-09	-4.602535e+01	-3.241334e+02
4.800000e-07	-6.508373e-06	-4.875783e-09	-4.556724e+01	-3.226663e+02
4.900000e-07	-6.441580e-06	-4.914424e-09	-4.509960e+01	-3.211593e+02
5.000000e-07	-6.373642e-06	-4.886372e-09	-4.462394e+01	-3.196131e+02
5.100000e-07	-6.304670e-06	-4.794630e-09	-4.414105e+01	-3.180287e+02
5.200000e-07	-6.234648e-06	-4.751612e-09	-4.365080e+01	-3.164070e+02
5.300000e-07	-6.163621e-06	-4.786465e-09	-4.315351e+01	-3.147490e+02
5.400000e-07	-6.091461e-06	-4.806839e-09	-4.264830e+01	-3.130552e+02
5.500000e-07	-6.018041e-06	-4.741614e-09	-4.213426e+01	-3.113261e+02
5.600000e-07	-5.943329e-06	-4.660265e-09	-4.161118e+01	-3.095617e+02
5.700000e-07	-5.867390e-06	-4.643046e-09	-4.107950e+01	-3.077616e+02
5.800000e-07	-5.790212e-06	-4.658053e-09	-4.053916e+01	-3.059251e+02
5.900000e-07	-5.711885e-06	-4.641621e-09	-3.999076e+01	-3.040510e+02
6.000000e-07	-5.632448e-06	-4.583025e-09	-3.943460e+01	-3.021380e+02
6.100000e-07	-5.551821e-06	-4.532624e-09	-3.887010e+01	-3.001842e+02
6.200000e-07	-5.470165e-06	-4.511763e-09	-3.829841e+01	-2.981879e+02
6.300000e-07	-5.387696e-06	-4.506379e-09	-3.772101e+01	-2.961471e+02
6.400000e-07	-5.304402e-06	-4.483040e-09	-3.713785e+01	-2.940601e+02
6.500000e-07	-5.220291e-06	-4.434155e-09	-3.654895e+01	-2.919251e+02
6.600000e-07	-5.135365e-06	-4.383827e-09	-3.595436e+01	-2.897408e+02
6.700000e-07	-5.049576e-06	-4.347380e-09	-3.535372e+01	-2.875058e+02
6.800000e-07	-4.963033e-06	-4.330748e-09	-3.474781e+01	-2.852193e+02
6.900000e-07	-4.875657e-06	-4.310546e-09	-3.413606e+01	-2.828805e+02
7.000000e-07	-4.787289e-06	-4.266449e-09	-3.351737e+01	-2.804891e+02
7.100000e-07	-4.698066e-06	-4.207578e-09	-3.289269e+01	-2.780446e+02
7.200000e-07	-4.607996e-06	-4.167181e-09	-3.226208e+01	-2.755468e+02
7.300000e-07	-4.516991e-06	-4.157291e-09	-3.162492e+01	-2.729953e+02
7.400000e-07	-4.425185e-06	-4.134368e-09	-3.098216e+01	-2.703897e+02
7.500000e-07	-4.332653e-06	-4.070580e-09	-3.033431e+01	-2.677294e+02
7.600000e-07	-4.239405e-06	-3.999619e-09	-2.968145e+01	-2.650134e+02
7.700000e-07	-4.145460e-06	-3.963476e-09	-2.902371e+01	-2.622404e+02
7.800000e-07	-4.050895e-06	-3.955185e-09	-2.836163e+01	-2.594091e+02
7.900000e-07	-3.955645e-06	-3.920536e-09	-2.769476e+01	-2.565175e+02
8.000000e-07	-3.859581e-06	-3.843572e-09	-2.702218e+01	-2.535637e+02
8.100000e-07	-3.762759e-06	-3.774084e-09	-2.634430e+01	-2.505455e+02
8.200000e-07	-3.665294e-06	-3.749049e-09	-2.566191e+01	-2.474606e+02
8.300000e-07	-3.567183e-06	-3.737937e-09	-2.497501e+01	-2.443070e+02
8.400000e-07	-3.468348e-06	-3.682959e-09	-2.428303e+01	-2.410827e+02
8.500000e-07	-3.368776e-06	-3.593004e-09	-2.358589e+01	-2.377859e+02
8.600000e-07	-3.268551e-06	-3.529671e-09	-2.288419e+01	-2.344151e+02
8.700000e-07	-3.167833e-06	-3.509109e-09	-2.217903e+01	-2.309694e+02
8.800000e-07	-3.066649e-06	-3.479866e-09	-2.147061e+01	-2.274479e+02
8.900000e-07	-2.965003e-06	-3.402387e-09	-2.075895e+01	-2.238503e+02
9.000000e-07	-2.862904e-06	-3.312926e-09	-2.004412e+01	-2.201764e+02
9.100000e-07	-2.760254e-06	-3.262092e-09	-1.932544e+01	-2.164263e+02
9.200000e-07	-2.657052e-06	-3.236955e-09	-1.860288e+01	-2.126000e+02
9.300000e-07	-2.553319e-06	-3.188879e-09	-1.787662e+01	-2.086975e+02
9.400000e-07	-2.449129e-06	-3.103593e-09	-1.714715e+01	-2.047186e+02
9.500000e-07	-2.344531e-06	-3.023604e-09	-1.641483e+01	-2.006627e+02
9.600000e-07	-2.239480e-06	-2.975511e-09	-1.567933e+01	-1.965288e+02
9.700000e-07	-2.134043e-06	-2.931492e-09	-1.494113e+01	-1.923154e+02
9.800000e-07	-2.028237e-06	-2.860651e-09	-1.420034e+01	-1.880205e+02
9.900000e-07	-1.922041e-06	-2.769938e-09	-1.345684e+01	-1.836416e+02
1.000000e-06	-1.815466e-06	-2.693462e-09	-1.271067e+01	-1.791758e+02
1.010000e-06	-1.708495e-06	-2.638978e-09	-1.196173e+01	-1.746199e+02
1.020000e-06	-1.601189e-06	-2.581914e-09	-1.121044e+01	-1.699705e+02
1.030000e-06	-1.493607e-06	-2.504597e-09	-1.045723e+01	-1.652243e+02
1.040000e-06	-1.385743e-06	-2.416691e-09	-9.702034e+00	-1.603781e+02
1.050000e-06	-1.277658e-06	-2.339849e-09	-8.945299e+00	-1.554293e+02
1.060000e-06	-1.169370e-06	-2.274083e-09	-8.187142e+00	-1.503754e+02
1.070000e-06	-1.060860e-06	-2.202032e-09	-7.427426e+00	-1.452149e+02
1.080000e-06	-9.521721e-07	-2.114580e-09	-6.666466e+00	-1.399468e+02
1.090000e-06	-8.433613e-07	-2.023145e-09	-5.904646e+00	-1.345707e+02
1.100000e-06	-7.344654e-07	-1.940507e-09	-5.142231e+00	-1.290869e+02
1.110000e-06	-6.254794e-07	-1.864957e-09	-4.379185e+00	-1.234959e+02
1.120000e-06	-5.164397e-07	-1.785479e-09	-3.615762e+00	-1.177988e+02
1.130000e-06	-4.072755e-07	-1.694205e-09	-2.851468e+00	-1.119963e+02
1.140000e-06	-2.980240e-07	-1.597132e-09	-2.086563e+00	-1.060889e+02
1.150000e-06	-1.887836e-07	-1.506378e-09	-1.321735e+00	-1.000765e+02
1.160000e-06	-7.951643e-08	-1.419472e-09	-5.567204e-01	-9.395823e+01
1.170000e-06	2.974630e-08	-1.325494e-09	2.082635e-01	-8.773195e+01
1.180000e-06	1.390148e-07	-1.223122e-09	9.732875e-01	-8.139442e+01
1.190000e-06	2.482549e-07	-1.120544e-09	1.738113e+00	-7.494104e+01
1.200000e-06	3.574701e-07	-1.023687e-09	2.502764e+00	-6.836599e+01
1.210000e-06	4.666710e-07	-9.260659e-10	3.267315e+00	-6.166235e+01
1.220000e-06	5.757805e-07	-8.232721e-10	4.031226e+00	-5.482239e+01
1.230000e-06	6.848178e-07	-7.147760e-10	4.794632e+00	-4.783798e+01
1.240000e-06	7.937695e-07	-6.039648e-10	5.557438e+00	-4.070112e+01
1.250000e-06	9.025824e-07	-4.953815e-10	6.319273e+00	-3.340446e+01
1.260000e-06	1.011219e-06	-3.847856e-10	7.079871e+00	-2.594199e+01
1.270000e-06	1.119684e-06	-2.699603e-10	7.839275e+00	-1.830968e+01
1.280000e-06	1.227962e-06	-1.478076e-10	8.597363e+00	-1.050609e+01
1.290000e-06	1.336054e-06	-2.385382e-11	9.354147e+00	-2.532951e+00
1.300000e-06	1.443859e-06	9.793943e-11	1.010892e+01	5.604337e+00
1.310000e-06	1.551356e-06	2.196842e-10	1.086155e+01	1.389639e+01
1.320000e-06	1.658655e-06	3.473185e-10	1.161278e+01	2.232965e+01
1.330000e-06	1.765640e-06	4.818442e-10	1.236182e+01	3.088635e+01
1.340000e-06	1.872221e-06	6.167626e-10	1.310803e+01	3.954474e+01
1.350000e-06	1.978397e-06	7.504865e-10	1.385140e+01	4.827941e+01
1.360000e-06	2.084177e-06	8.817912e-10	1.459200e+01	5.706183e+01
1.370000e-06	2.189569e-06	1.013188e-09	1.532988e+01	6.586111e+01
1.380000e-06	2.294568e-06	1.151115e-09	1.606502e+01	7.464472e+01
1.390000e-06	2.399169e-06	1.290774e-09	1.679736e+01	8.337949e+01
1.400000e-06	2.503383e-06	1.423942e-09	1.752700e+01	9.203250e+01
1.410000e-06	2.607108e-06	1.550713e-09	1.825321e+01	1.005720e+02
1.420000e-06	2.710238e-06	1.678336e-09	1.897526e+01	1.089685e+02
1.430000e-06	2.812826e-06	1.810097e-09	1.969351e+01	1.171952e+02
1.440000e-06	2.914919e-06	1.934212e-09	2.040830e+01	1.252290e+02
1.450000e-06	3.016545e-06	2.047282e-09	2.111981e+01	1.330509e+02
1.460000e-06	3.117686e-06	2.156325e-09	2.182793e+01	1.406462e+02
1.470000e-06	3.218353e-06	2.269693e-09	2.253274e+01	1.480048e+02
1.480000e-06	3.318515e-06	2.383118e-09	2.323400e+01	1.551212e+02
1.490000e-06	3.418100e-06	2.487657e-09	2.393123e+01	1.619940e+02
1.500000e-06	3.517034e-06	2.582843e-09	2.462390e+01	1.686256e+02
1.510000e-06	3.615161e-06	2.677540e-09	2.531092e+01	1.750219e+02
1.520000e-06	3.712520e-06	2.775538e-09	2.599256e+01	1.811912e+02
1.530000e-06	3.809276e-06	2.870668e-09	2.666998e+01	1.871441e+02
1.540000e-06	3.905415e-06	2.956574e-09	2.734308e+01	1.928921e+02
1.550000e-06	4.000716e-06	3.037049e-09	2.801031e+01	1.984478e+02
1.560000e-06	4.095210e-06	3.117107e-09	2.867190e+01	2.038233e+02
1.570000e-06	4.189075e-06	3.198541e-09	2.932908e+01	2.090304e+02
1.580000e-06	4.282290e-06	3.279255e-09	2.998170e+01	2.140798e+02
1.590000e-06	4.374789e-06	3.352683e-09	3.062932e+01	2.189811e+02
1.600000e-06	4.466565e-06	3.421102e-09	3.127188e+01	2.237422e+02
1.610000e-06	4.557610e-06	3.489589e-09	3.190931e+01	2.283695e+02
1.620000e-06	4.647760e-06	3.559830e-09	3.254048e+01	2.328683e+02
1.630000e-06	4.736955e-06	3.628391e-09	3.316496e+01	2.372422e+02
1.640000e-06	4.825330e-06	3.689985e-09	3.378370e+01	2.414940e+02
1.650000e-06	4.912805e-06	3.747340e-09	3.439615e+01	2.456256e+02
1.660000e-06	4.999353e-06	3.805835e-09	3.500210e+01	2.496387e+02
1.670000e-06	5.085096e-06	3.867270e-09	3.560241e+01	2.535345e+02
1.680000e-06	5.169997e-06	3.927153e-09	3.619683e+01	2.573146e+02
1.690000e-06	5.254104e-06	3.979663e-09	3.678569e+01	2.609805e+02
1.700000e-06	5.337364e-06	4.030344e-09	3.736862e+01	2.645346e+02
1.710000e-06	5.419596e-06	4.082954e-09	3.794436e+01	2.679795e+02
1.720000e-06	5.500857e-06	4.135864e-09	3.851329e+01	2.713184e+02
1.730000e-06	5.581167e-06	4.183788e-09	3.907557e+01	2.745550e+02
1.740000e-06	5.660433e-06	4.225849e-09	3.963053e+01	2.776933e+02
1.750000e-06	5.738737e-06	4.269511e-09	4.017876e+01	2.807373e+02
1.760000e-06	5.816016e-06	4.315249e-09	4.071982e+01	2.836913e+02
1.770000e-06	5.892186e-06	4.358201e-09	4.125311e+01	2.865592e+02
1.780000e-06	5.967248e-06	4.396807e-09	4.177865e+01	2.893445e+02
1.790000e-06	6.041118e-06	4.435545e-09	4.229583e+01	2.920503e+02
1.800000e-06	6.113788e-06	4.475863e-09	4.280462e+01	2.946791e+02
1.810000e-06	6.185276e-06	4.513642e-09	4.330512e+01	2.972326e+02
1.820000e-06	6.255658e-06	4.547789e-09	4.379790e+01	2.997119e+02
1.830000e-06	6.324983e-06	4.579268e-09	4.428326e+01	3.021177e+02
1.840000e-06	6.393283e-06	4.611636e-09	4.476145e+01	3.044501e+02
1.850000e-06	6.460517e-06	4.646303e-09	4.523218e+01	3.067089e+02
1.860000e-06	6.526450e-06	4.677176e-09	4.569380e+01	3.088937e+02
1.870000e-06	6.591122e-06	4.705194e-09	4.614659e+01	3.110042e+02
1.880000e-06	6.654624e-06	4.734373e-09	4.659119e+01	3.130403e+02
1.890000e-06	6.716998e-06	4.764275e-09	4.702789e+01	3.150023e+02
1.900000e-06	6.778285e-06	4.792926e-09	4.745698e+01	3.168908e+02
1.910000e-06	6.838523e-06	4.818325e-09	4.787872e+01	3.187071e+02
1.920000e-06	6.897739e-06	4.844002e-09	4.829331e+01	3.204529e+02
1.930000e-06	6.955630e-06	4.869071e-09	4.869862e+01	3.221307e+02
1.940000e-06	7.012043e-06	4.892596e-09	4.909359e+01	3.237430e+02
1.950000e-06	7.067142e-06	4.915580e-09	4.947936e+01	3.252929e+02
1.960000e-06	7.121058e-06	4.937491e-09	4.985684e+01	3.267835e+02
1.970000e-06	7.173717e-06	4.959085e-09	5.022552e+01	3.282180e+02
1.980000e-06	7.224932e-06	4.979737e-09	5.058410e+01	3.295994e+02
1.990000e-06	7.274499e-06	4.998788e-09	5.093113e+01	3.309304e+02
2.000000e-06	7.322487e-06	5.017658e-09	5.126711e+01	3.322130e+02
2.010000e-06	7.369177e-06	5.037768e-09	5.159401e+01	3.334489e+02
2.020000e-06	7.414623e-06	5.057563e-09	5.191219e+01	3.346393e+02
2.030000e-06	7.458883e-06	5.074566e-09	5.222207e+01	3.357846e+02
2.040000e-06	7.501912e-06	5.089860e-09	5.252332e+01	3.368850e+02
2.050000e-06	7.543480e-06	5.106112e-09	5.281435e+01	3.379400e+02
2.060000e-06	7.583587e-06	5.121578e-09	5.309516e+01	3.389491e+02
2.070000e-06	7.622352e-06	5.134706e-09	5.336657e+01	3.399116e+02
2.080000e-06	7.659821e-06	5.145701e-09	5.362889e+01	3.408271e+02
2.090000e-06	7.696127e-06	5.158204e-09	5.388309e+01	3.416951e+02
2.100000e-06	7.731215e-06	5.173164e-09	5.412875e+01	3.425158e+02
2.110000e-06	7.764768e-06	5.186005e-09	5.436366e+01	3.432897e+02
2.120000e-06	7.796832e-06	5.196544e-09	5.458816e+01	3.440180e+02
2.130000e-06	7.827667e-06	5.207028e-09	5.480404e+01	3.447023e+02
2.140000e-06	7.857229e-06	5.217789e-09	5.501102e+01	3.453448e+02
2.150000e-06	7.885493e-06	5.228470e-09	5.520890e+01	3.459480e+02
2.160000e-06	7.912403e-06	5.236999e-09	5.539731e+01	3.465148e+02
2.170000e-06	7.937711e-06	5.244852e-09	5.557450e+01	3.470480e+02
2.180000e-06	7.961442e-06	5.253839e-09	5.574065e+01	3.475503e+02
2.190000e-06	7.983775e-06	5.265403e-09	5.589700e+01	3.480239e+02
2.200000e-06	8.004762e-06	5.277235e-09	5.604394e+01	3.484709e+02
2.210000e-06	8.024587e-06	5.284693e-09	5.618274e+01	3.488923e+02
2.220000e-06	8.043157e-06	5.291406e-09	5.631275e+01	3.492885e+02
2.230000e-06	8.060177e-06	5.299807e-09	5.643192e+01	3.496592e+02
2.240000e-06	8.075645e-06	5.306136e-09	5.654022e+01	3.500030e+02
2.250000e-06	8.089610e-06	5.308158e-09	5.663799e+01	3.503182e+02
2.260000e-06	8.102132e-06	5.308424e-09	5.672566e+01	3.506021e+02
2.270000e-06	8.113044e-06	5.310510e-09	5.680206e+01	3.508522e+02
2.280000e-06	8.122145e-06	5.315264e-09	5.686578e+01	3.510654e+02
2.290000e-06	8.129689e-06	5.320688e-09	5.691859e+01	3.512391e+02
2.300000e-06	8.135907e-06	5.324593e-09	5.696213e+01	3.513711e+02
2.310000e-06	8.140782e-06	5.327274e-09	5.699626e+01	3.514599e+02
2.320000e-06	8.144480e-06	5.329949e-09	5.702215e+01	3.515050e+02
2.330000e-06	8.146701e-06	5.331295e-09	5.703770e+01	3.515069e+02
2.340000e-06	8.147244e-06	5.334086e-09	5.704150e+01	3.514674e+02
2.350000e-06	8.146406e-06	5.335845e-09	5.703563e+01	3.513896e+02
2.360000e-06	8.144250e-06	5.329161e-09	5.702054e+01	3.512775e+02
2.370000e-06	8.140872e-06	5.325657e-09	5.699689e+01	3.511365e+02
2.380000e-06	8.136352e-06	5.325189e-09	5.696524e+01	3.509723e+02
2.390000e-06	8.130360e-06	5.325941e-09	5.692329e+01	3.507914e+02
2.400000e-06	8.122827e-06	5.327139e-09	5.687055e+01	3.506004e+02
2.410000e-06	8.114019e-06	5.331705e-09	5.680888e+01	3.504055e+02
2.420000e-06	8.103996e-06	5.380560e-09	5.673871e+01	3.502126e+02
2.430000e-06	8.092724e-06	5.301117e-09	5.665979e+01	3.500263e+02
2.440000e-06	8.079509e-06	5.225366e-09	5.656727e+01	3.498502e+02
2.450000e-06	8.063868e-06	5.247686e-09	5.645776e+01	3.496865e+02
2.460000e-06	8.046327e-06	5.249894e-09	5.633495e+01	3.495356e+02
2.470000e-06	8.027535e-06	5.430836e-09	5.620338e+01	3.493964e+02
2.480000e-06	8.008051e-06	5.365656e-09	5.606697e+01	3.492660e+02
2.490000e-06	7.987731e-06	5.119494e-09	5.592470e+01	3.491401e+02
2.500000e-06	7.965541e-06	5.303845e-09	5.576934e+01	3.490131e+02
2.510000e-06	7.941708e-06	5.279874e-09	5.560248e+01	3.488784e+02
2.520000e-06	7.916864e-06	5.286661e-09	5.542854e+01	3.487285e+02
2.530000e-06	7.890545e-06	5.515160e-09	5.524427e+01	3.485559e+02
2.540000e-06	7.862867e-06	5.236813e-09	5.505049e+01	3.483529e+02
2.550000e-06	7.833960e-06	5.215808e-09	5.484810e+01	3.481123e+02
2.560000e-06	7.803428e-06	5.497100e-09	5.463433e+01	3.478275e+02
2.570000e-06	7.771413e-06	5.323720e-09	5.441019e+01	3.474931e+02
2.580000e-06	7.737928e-06	5.256568e-09	5.417575e+01	3.471048e+02
2.590000e-06	7.703077e-06	5.215668e-09	5.393175e+01	3.466595e+02
2.600000e-06	7.667254e-06	5.205097e-09	5.368094e+01	3.461554e+02
2.610000e-06	7.630095e-06	5.412366e-09	5.342078e+01	3.455922e+02
2.620000e-06	7.591250e-06	5.268871e-09	5.314881e+01	3.449705e+02
2.630000e-06	7.550914e-06	5.273324e-09	5.286640e+01	3.442921e+02
2.640000e-06	7.509289e-06	5.303000e-09	5.257498e+01	3.435595e+02
2.650000e-06	7.466419e-06	5.202525e-09	5.227483e+01	3.427756e+02
2.660000e-06	7.422347e-06	5.295772e-09	5.196626e+01	3.419437e+02
2.670000e-06	7.377174e-06	5.249897e-09	5.164999e+01	3.410669e+02
2.680000e-06	7.330578e-06	5.255709e-09	5.132376e+01	3.401483e+02
2.690000e-06	7.282450e-06	5.161051e-09	5.098680e+01	3.391904e+02
2.700000e-06	7.233061e-06	5.105774e-09	5.064101e+01	3.381953e+02
2.710000e-06	7.182371e-06	5.278613e-09	5.028611e+01	3.371643e+02
2.720000e-06	7.130283e-06	5.207319e-09	4.992143e+01	3.360983e+02
2.730000e-06	7.076539e-06	5.138371e-09	4.954515e+01	3.349975e+02
2.740000e-06	7.021226e-06	5.057556e-09	4.915789e+01	3.338615e+02
2.750000e-06	6.964748e-06	5.087056e-09	4.876246e+01	3.326897e+02
2.760000e-06	6.907102e-06	5.180175e-09	4.835887e+01	3.314811e+02
2.770000e-06	6.848278e-06	5.073497e-09	4.794702e+01	3.302345e+02
2.780000e-06	6.788320e-06	5.018339e-09	4.752723e+01	3.289491e+02
2.790000e-06	6.727259e-06	4.972392e-09	4.709973e+01	3.276238e+02
2.800000e-06	6.664893e-06	5.024874e-09	4.666308e+01	3.262582e+02
2.810000e-06	6.601110e-06	5.040443e-09	4.621652e+01	3.248519e+02
2.820000e-06	6.536153e-06	4.961589e-09	4.576173e+01	3.234049e+02
2.830000e-06	6.470054e-06	4.896990e-09	4.529895e+01	3.219178e+02
2.840000e-06	6.402861e-06	4.873666e-09	4.482851e+01	3.203910e+02
2.850000e-06	6.334570e-06	4.934042e-09	4.435038e+01	3.188256e+02
2.860000e-06	6.265091e-06	4.896874e-09	4.386394e+01	3.172225e+02
2.870000e-06	6.194346e-06	4.820404e-09	4.336863e+01	3.155825e+02
2.880000e-06	6.122372e-06	4.769894e-09	4.286472e+01	3.139065e+02
2.890000e-06	6.049410e-06	4.782442e-09	4.235388e+01	3.121950e+02
2.900000e-06	5.975424e-06	4.794815e-09	4.183589e+01	3.104483e+02
2.910000e-06	5.900294e-06	4.748515e-09	4.130988e+01	3.086661e+02
2.920000e-06	5.823928e-06	4.700997e-09	4.077521e+01	3.068480e+02
2.930000e-06	5.746337e-06	4.648959e-09	4.023197e+01	3.049928e+02
2.940000e-06	5.667549e-06	4.634690e-09	3.968035e+01	3.030995e+02
