# Temperatura_=_20.0
# Concentracion g/m^3_=_12600.0
# C_Vs_to_Am_M_A/Vsm_=_65563218390.804596
# pendiente_HvsI_1/m_=_3716.3
# ordenada_HvsI_A/m_=_1297.0
# frecuencia_Hz_=_213245.56896152682

Tiempo_(s)	Campo_(V.s)	Magnetizacion_(V.s)	Campo_(kA/m)	Magnetizacion_(A/m)
0.000000e+00	-8.125166e-06	-5.360488e-09	-5.702736e+01	-3.524693e+02
1.000000e-08	-8.124456e-06	-5.358585e-09	-5.702237e+01	-3.523401e+02
2.000000e-08	-8.122162e-06	-5.361093e-09	-5.700627e+01	-3.521993e+02
3.000000e-08	-8.118507e-06	-5.360018e-09	-5.698062e+01	-3.520554e+02
4.000000e-08	-8.113634e-06	-5.357129e-09	-5.694642e+01	-3.519155e+02
5.000000e-08	-8.107424e-06	-5.350817e-09	-5.690283e+01	-3.517849e+02
6.000000e-08	-8.099992e-06	-5.341227e-09	-5.685067e+01	-3.516665e+02
7.000000e-08	-8.091196e-06	-5.331253e-09	-5.678894e+01	-3.515610e+02
8.000000e-08	-8.080688e-06	-5.299243e-09	-5.671518e+01	-3.514657e+02
9.000000e-08	-8.068525e-06	-5.325204e-09	-5.662982e+01	-3.513755e+02
1.000000e-07	-8.054505e-06	-5.405655e-09	-5.653141e+01	-3.512826e+02
1.100000e-07	-8.038425e-06	-5.394808e-09	-5.641855e+01	-3.511771e+02
1.200000e-07	-8.020661e-06	-5.360696e-09	-5.629388e+01	-3.510473e+02
1.300000e-07	-8.001671e-06	-5.296199e-09	-5.616059e+01	-3.508805e+02
1.400000e-07	-7.981753e-06	-5.160376e-09	-5.602080e+01	-3.506638e+02
1.500000e-07	-7.960857e-06	-5.337488e-09	-5.587414e+01	-3.503849e+02
1.600000e-07	-7.938685e-06	-5.430148e-09	-5.571852e+01	-3.500329e+02
1.700000e-07	-7.915341e-06	-5.220727e-09	-5.555468e+01	-3.495986e+02
1.800000e-07	-7.890575e-06	-5.280817e-09	-5.538085e+01	-3.490757e+02
1.900000e-07	-7.864085e-06	-5.233757e-09	-5.519493e+01	-3.484609e+02
2.000000e-07	-7.836348e-06	-5.189841e-09	-5.500026e+01	-3.477541e+02
2.100000e-07	-7.807447e-06	-5.416114e-09	-5.479741e+01	-3.469586e+02
2.200000e-07	-7.777099e-06	-5.272504e-09	-5.458441e+01	-3.460808e+02
2.300000e-07	-7.745350e-06	-5.081261e-09	-5.436157e+01	-3.451298e+02
2.400000e-07	-7.712106e-06	-5.228926e-09	-5.412825e+01	-3.441171e+02
2.500000e-07	-7.677420e-06	-5.292019e-09	-5.388481e+01	-3.430558e+02
2.600000e-07	-7.641494e-06	-5.280925e-09	-5.363266e+01	-3.419596e+02
2.700000e-07	-7.604102e-06	-5.163706e-09	-5.337021e+01	-3.408424e+02
2.800000e-07	-7.565337e-06	-5.079196e-09	-5.309813e+01	-3.397170e+02
2.900000e-07	-7.525424e-06	-5.180599e-09	-5.281800e+01	-3.385950e+02
3.000000e-07	-7.484096e-06	-5.239498e-09	-5.252794e+01	-3.374855e+02
3.100000e-07	-7.441212e-06	-5.192356e-09	-5.222695e+01	-3.363950e+02
3.200000e-07	-7.396847e-06	-5.069708e-09	-5.191557e+01	-3.353272e+02
3.300000e-07	-7.351143e-06	-5.059522e-09	-5.159479e+01	-3.342825e+02
3.400000e-07	-7.304280e-06	-5.125199e-09	-5.126588e+01	-3.332584e+02
3.500000e-07	-7.256022e-06	-5.141789e-09	-5.092718e+01	-3.322498e+02
3.600000e-07	-7.206025e-06	-5.117645e-09	-5.057626e+01	-3.312492e+02
3.700000e-07	-7.154283e-06	-5.006679e-09	-5.021311e+01	-3.302476e+02
3.800000e-07	-7.101158e-06	-4.982656e-09	-4.984024e+01	-3.292348e+02
3.900000e-07	-7.046936e-06	-5.060091e-09	-4.945968e+01	-3.282004e+02
4.000000e-07	-6.991659e-06	-5.063190e-09	-4.907171e+01	-3.271344e+02
4.100000e-07	-6.935063e-06	-4.985895e-09	-4.867449e+01	-3.260275e+02
4.200000e-07	-6.876955e-06	-4.904429e-09	-4.826665e+01	-3.248723e+02
4.300000e-07	-6.817566e-06	-4.930431e-09	-4.784983e+01	-3.236631e+02
4.400000e-07	-6.757073e-06	-4.977526e-09	-4.742525e+01	-3.223963e+02
4.500000e-07	-6.695468e-06	-4.943219e-09	-4.699286e+01	-3.210708e+02
4.600000e-07	-6.632801e-06	-4.855012e-09	-4.655303e+01	-3.196872e+02
4.700000e-07	-6.569073e-06	-4.811223e-09	-4.610575e+01	-3.182484e+02
4.800000e-07	-6.504044e-06	-4.850471e-09	-4.564933e+01	-3.167584e+02
4.900000e-07	-6.437621e-06	-4.864242e-09	-4.518314e+01	-3.152226e+02
5.000000e-07	-6.370027e-06	-4.813046e-09	-4.470872e+01	-3.136468e+02
5.100000e-07	-6.301356e-06	-4.738006e-09	-4.422675e+01	-3.120366e+02
5.200000e-07	-6.231608e-06	-4.717699e-09	-4.373721e+01	-3.103972e+02
5.300000e-07	-6.160859e-06	-4.746481e-09	-4.324065e+01	-3.087330e+02
5.400000e-07	-6.089075e-06	-4.737877e-09	-4.273683e+01	-3.070467e+02
5.500000e-07	-6.016132e-06	-4.670150e-09	-4.222487e+01	-3.053397e+02
5.600000e-07	-5.941872e-06	-4.612917e-09	-4.170367e+01	-3.036118e+02
5.700000e-07	-5.866334e-06	-4.612368e-09	-4.117350e+01	-3.018611e+02
5.800000e-07	-5.789654e-06	-4.611988e-09	-4.063531e+01	-3.000841e+02
5.900000e-07	-5.711782e-06	-4.569906e-09	-4.008876e+01	-2.982764e+02
6.000000e-07	-5.632710e-06	-4.519835e-09	-3.953378e+01	-2.964327e+02
6.100000e-07	-5.552506e-06	-4.493199e-09	-3.897087e+01	-2.945472e+02
6.200000e-07	-5.471276e-06	-4.474695e-09	-3.840074e+01	-2.926144e+02
6.300000e-07	-5.389172e-06	-4.446179e-09	-3.782449e+01	-2.906289e+02
6.400000e-07	-5.306208e-06	-4.408362e-09	-3.724220e+01	-2.885864e+02
6.500000e-07	-5.222382e-06	-4.374093e-09	-3.665385e+01	-2.864836e+02
6.600000e-07	-5.137739e-06	-4.344150e-09	-3.605978e+01	-2.843183e+02
6.700000e-07	-5.052304e-06	-4.305197e-09	-3.546014e+01	-2.820897e+02
6.800000e-07	-4.966169e-06	-4.269192e-09	-3.485560e+01	-2.797985e+02
6.900000e-07	-4.879286e-06	-4.243124e-09	-3.424579e+01	-2.774461e+02
7.000000e-07	-4.791443e-06	-4.213880e-09	-3.362926e+01	-2.750352e+02
7.100000e-07	-4.702668e-06	-4.168007e-09	-3.300618e+01	-2.725687e+02
7.200000e-07	-4.613061e-06	-4.118411e-09	-3.237727e+01	-2.700500e+02
7.300000e-07	-4.522524e-06	-4.089209e-09	-3.174183e+01	-2.674821e+02
7.400000e-07	-4.431097e-06	-4.064547e-09	-3.110014e+01	-2.648678e+02
7.500000e-07	-4.338927e-06	-4.018684e-09	-3.045323e+01	-2.622087e+02
7.600000e-07	-4.245984e-06	-3.957889e-09	-2.980089e+01	-2.595058e+02
7.700000e-07	-4.152377e-06	-3.909969e-09	-2.914391e+01	-2.567587e+02
7.800000e-07	-4.058199e-06	-3.884863e-09	-2.848291e+01	-2.539659e+02
7.900000e-07	-3.963320e-06	-3.855385e-09	-2.781699e+01	-2.511248e+02
8.000000e-07	-3.867648e-06	-3.800284e-09	-2.714551e+01	-2.482318e+02
8.100000e-07	-3.771240e-06	-3.735554e-09	-2.646886e+01	-2.452827e+02
8.200000e-07	-3.674167e-06	-3.690653e-09	-2.578754e+01	-2.422727e+02
8.300000e-07	-3.576434e-06	-3.664442e-09	-2.510159e+01	-2.391971e+02
8.400000e-07	-3.477981e-06	-3.622905e-09	-2.441059e+01	-2.360512e+02
8.500000e-07	-3.378809e-06	-3.554471e-09	-2.371454e+01	-2.328310e+02
8.600000e-07	-3.278963e-06	-3.485939e-09	-2.301376e+01	-2.295332e+02
8.700000e-07	-3.178514e-06	-3.442919e-09	-2.230874e+01	-2.261553e+02
8.800000e-07	-3.077605e-06	-3.412344e-09	-2.160050e+01	-2.226961e+02
8.900000e-07	-2.976262e-06	-3.358471e-09	-2.088922e+01	-2.191549e+02
9.000000e-07	-2.874478e-06	-3.280959e-09	-2.017484e+01	-2.155323e+02
9.100000e-07	-2.772191e-06	-3.213495e-09	-1.945692e+01	-2.118294e+02
9.200000e-07	-2.669393e-06	-3.171678e-09	-1.873542e+01	-2.080479e+02
9.300000e-07	-2.566071e-06	-3.130822e-09	-1.801025e+01	-2.041894e+02
9.400000e-07	-2.462162e-06	-3.063334e-09	-1.728095e+01	-2.002555e+02
9.500000e-07	-2.357758e-06	-2.981849e-09	-1.654818e+01	-1.962474e+02
9.600000e-07	-2.252927e-06	-2.917626e-09	-1.581241e+01	-1.921655e+02
9.700000e-07	-2.147742e-06	-2.872163e-09	-1.507416e+01	-1.880095e+02
9.800000e-07	-2.042317e-06	-2.816413e-09	-1.433422e+01	-1.837778e+02
9.900000e-07	-1.936610e-06	-2.735336e-09	-1.359231e+01	-1.794681e+02
1.000000e-06	-1.830485e-06	-2.651206e-09	-1.284745e+01	-1.750769e+02
1.010000e-06	-1.723917e-06	-2.586158e-09	-1.209950e+01	-1.706003e+02
1.020000e-06	-1.616968e-06	-2.530732e-09	-1.134886e+01	-1.660334e+02
1.030000e-06	-1.509763e-06	-2.460928e-09	-1.059643e+01	-1.613715e+02
1.040000e-06	-1.402298e-06	-2.376145e-09	-9.842180e+00	-1.566097e+02
1.050000e-06	-1.294486e-06	-2.296753e-09	-9.085493e+00	-1.517437e+02
1.060000e-06	-1.186400e-06	-2.230373e-09	-8.326875e+00	-1.467697e+02
1.070000e-06	-1.078139e-06	-2.163584e-09	-7.567036e+00	-1.416849e+02
1.080000e-06	-9.697206e-07	-2.080924e-09	-6.806089e+00	-1.364877e+02
1.090000e-06	-8.611446e-07	-1.988520e-09	-6.044036e+00	-1.311773e+02
1.100000e-06	-7.524315e-07	-1.900217e-09	-5.281022e+00	-1.257543e+02
1.110000e-06	-6.436167e-07	-1.821806e-09	-4.517293e+00	-1.202197e+02
1.120000e-06	-5.347330e-07	-1.745120e-09	-3.753081e+00	-1.145754e+02
1.130000e-06	-4.257656e-07	-1.657785e-09	-2.988282e+00	-1.088235e+02
1.140000e-06	-3.167312e-07	-1.561662e-09	-2.223012e+00	-1.029656e+02
1.150000e-06	-2.076987e-07	-1.469314e-09	-1.457756e+00	-9.700307e+01
1.160000e-06	-9.868353e-08	-1.383818e-09	-6.926210e-01	-9.093599e+01
1.170000e-06	1.035636e-08	-1.295381e-09	7.268721e-02	-8.476318e+01
1.180000e-06	1.194245e-07	-1.194972e-09	8.381936e-01	-7.848183e+01
1.190000e-06	2.284729e-07	-1.086851e-09	1.603562e+00	-7.208740e+01
1.200000e-06	3.374718e-07	-9.833439e-10	2.368583e+00	-6.557363e+01
1.210000e-06	4.464380e-07	-8.872113e-10	3.133374e+00	-5.893275e+01
1.220000e-06	5.553598e-07	-7.893645e-10	3.897853e+00	-5.215582e+01
1.230000e-06	6.642168e-07	-6.806622e-10	4.661878e+00	-4.523322e+01
1.240000e-06	7.730134e-07	-5.674675e-10	5.425478e+00	-3.815531e+01
1.250000e-06	8.816838e-07	-4.604874e-10	6.188193e+00	-3.091314e+01
1.260000e-06	9.901700e-07	-3.570521e-10	6.949615e+00	-2.349925e+01
1.270000e-06	1.098527e-06	-2.445972e-10	7.710131e+00	-1.590843e+01
1.280000e-06	1.206732e-06	-1.177646e-10	8.469582e+00	-8.138530e+00
1.290000e-06	1.314663e-06	1.122319e-11	9.227102e+00	-1.910465e-01
1.300000e-06	1.422255e-06	1.330188e-10	9.982252e+00	7.928297e+00
1.310000e-06	1.529520e-06	2.527735e-10	1.073510e+01	1.620924e+01
1.320000e-06	1.636438e-06	3.797984e-10	1.148551e+01	2.463682e+01
1.330000e-06	1.742971e-06	5.138838e-10	1.223323e+01	3.319148e+01
1.340000e-06	1.849138e-06	6.466857e-10	1.297838e+01	4.184938e+01
1.350000e-06	1.955002e-06	7.770561e-10	1.372140e+01	5.058289e+01
1.360000e-06	2.060544e-06	9.096842e-10	1.446215e+01	5.936133e+01
1.370000e-06	2.165731e-06	1.044282e-09	1.520042e+01	6.815184e+01
1.380000e-06	2.270554e-06	1.181008e-09	1.593613e+01	7.692032e+01
1.390000e-06	2.374974e-06	1.318033e-09	1.666901e+01	8.563256e+01
1.400000e-06	2.478966e-06	1.451067e-09	1.739889e+01	9.425517e+01
1.410000e-06	2.582446e-06	1.579441e-09	1.812517e+01	1.027567e+02
1.420000e-06	2.685424e-06	1.707179e-09	1.884794e+01	1.111083e+02
1.430000e-06	2.787894e-06	1.835878e-09	1.956713e+01	1.192849e+02
1.440000e-06	2.889834e-06	1.958643e-09	2.028262e+01	1.272653e+02
1.450000e-06	2.991276e-06	2.073847e-09	2.099459e+01	1.350328e+02
1.460000e-06	3.092316e-06	2.185217e-09	2.170375e+01	1.425753e+02
1.470000e-06	3.192948e-06	2.297529e-09	2.241005e+01	1.498853e+02
1.480000e-06	3.292943e-06	2.409392e-09	2.311187e+01	1.569593e+02
1.490000e-06	3.392272e-06	2.514524e-09	2.380903e+01	1.637981e+02
1.500000e-06	3.490893e-06	2.610685e-09	2.450121e+01	1.704055e+02
1.510000e-06	3.588768e-06	2.704382e-09	2.518816e+01	1.767881e+02
1.520000e-06	3.686044e-06	2.800718e-09	2.587090e+01	1.829544e+02
1.530000e-06	3.782740e-06	2.895645e-09	2.654957e+01	1.889142e+02
1.540000e-06	3.878701e-06	2.982849e-09	2.722308e+01	1.946780e+02
1.550000e-06	3.973956e-06	3.063326e-09	2.789164e+01	2.002561e+02
1.560000e-06	4.068511e-06	3.142184e-09	2.855528e+01	2.056587e+02
1.570000e-06	4.162300e-06	3.223976e-09	2.921355e+01	2.108950e+02
1.580000e-06	4.255380e-06	3.306167e-09	2.986685e+01	2.159731e+02
1.590000e-06	4.347818e-06	3.380633e-09	3.051563e+01	2.209000e+02
1.600000e-06	4.439592e-06	3.449155e-09	3.115975e+01	2.256817e+02
1.610000e-06	4.530464e-06	3.519126e-09	3.179755e+01	2.303230e+02
1.620000e-06	4.620341e-06	3.591534e-09	3.242837e+01	2.348280e+02
1.630000e-06	4.709399e-06	3.659594e-09	3.305342e+01	2.392000e+02
1.640000e-06	4.797695e-06	3.721659e-09	3.367314e+01	2.434421e+02
1.650000e-06	4.885093e-06	3.781348e-09	3.428656e+01	2.475572e+02
1.660000e-06	4.971533e-06	3.842140e-09	3.489325e+01	2.515482e+02
1.670000e-06	5.057155e-06	3.903666e-09	3.549419e+01	2.554184e+02
1.680000e-06	5.142035e-06	3.961634e-09	3.608993e+01	2.591711e+02
1.690000e-06	5.226125e-06	4.015055e-09	3.668013e+01	2.628103e+02
1.700000e-06	5.309324e-06	4.067417e-09	3.726407e+01	2.663400e+02
1.710000e-06	5.391547e-06	4.122675e-09	3.784115e+01	2.697645e+02
1.720000e-06	5.472819e-06	4.176540e-09	3.841157e+01	2.730881e+02
1.730000e-06	5.553099e-06	4.223875e-09	3.897503e+01	2.763148e+02
1.740000e-06	5.632325e-06	4.268158e-09	3.953109e+01	2.794487e+02
1.750000e-06	5.710540e-06	4.312194e-09	4.008004e+01	2.824931e+02
1.760000e-06	5.787766e-06	4.356140e-09	4.062206e+01	2.854508e+02
1.770000e-06	5.863970e-06	4.399192e-09	4.115691e+01	2.883239e+02
1.780000e-06	5.939033e-06	4.438926e-09	4.168374e+01	2.911140e+02
1.790000e-06	6.012833e-06	4.476547e-09	4.220172e+01	2.938219e+02
1.800000e-06	6.085459e-06	4.515014e-09	4.271146e+01	2.964479e+02
1.810000e-06	6.156981e-06	4.553246e-09	4.321343e+01	2.989921e+02
1.820000e-06	6.227391e-06	4.589427e-09	4.370762e+01	3.014541e+02
1.830000e-06	6.296731e-06	4.623342e-09	4.419429e+01	3.038339e+02
1.840000e-06	6.365087e-06	4.655658e-09	4.467405e+01	3.061314e+02
1.850000e-06	6.432418e-06	4.687365e-09	4.514662e+01	3.083471e+02
1.860000e-06	6.498471e-06	4.718596e-09	4.561022e+01	3.104821e+02
1.870000e-06	6.563264e-06	4.748044e-09	4.606498e+01	3.125379e+02
1.880000e-06	6.626853e-06	4.776020e-09	4.651129e+01	3.145168e+02
1.890000e-06	6.689255e-06	4.803776e-09	4.694926e+01	3.164220e+02
1.900000e-06	6.750619e-06	4.832577e-09	4.737995e+01	3.182569e+02
1.910000e-06	6.810951e-06	4.861065e-09	4.780339e+01	3.200253e+02
1.920000e-06	6.870162e-06	4.886601e-09	4.821898e+01	3.217314e+02
1.930000e-06	6.928068e-06	4.910036e-09	4.862539e+01	3.233791e+02
1.940000e-06	6.984584e-06	4.933003e-09	4.902206e+01	3.249721e+02
1.950000e-06	7.039833e-06	4.957125e-09	4.940983e+01	3.265137e+02
1.960000e-06	7.093919e-06	4.981464e-09	4.978944e+01	3.280064e+02
1.970000e-06	7.146704e-06	5.002860e-09	5.015991e+01	3.294517e+02
1.980000e-06	7.197905e-06	5.022410e-09	5.051927e+01	3.308505e+02
1.990000e-06	7.247506e-06	5.041478e-09	5.086741e+01	3.322027e+02
2.000000e-06	7.295662e-06	5.060670e-09	5.120539e+01	3.335074e+02
2.010000e-06	7.342508e-06	5.080209e-09	5.153419e+01	3.347632e+02
2.020000e-06	7.388112e-06	5.099396e-09	5.185426e+01	3.359682e+02
2.030000e-06	7.432509e-06	5.117053e-09	5.216587e+01	3.371204e+02
2.040000e-06	7.475704e-06	5.133555e-09	5.246904e+01	3.382180e+02
2.050000e-06	7.517477e-06	5.150011e-09	5.276222e+01	3.392598e+02
2.060000e-06	7.557746e-06	5.165903e-09	5.304486e+01	3.402450e+02
2.070000e-06	7.596679e-06	5.179986e-09	5.331811e+01	3.411740e+02
2.080000e-06	7.634371e-06	5.192144e-09	5.358266e+01	3.420480e+02
2.090000e-06	7.670861e-06	5.205311e-09	5.383877e+01	3.428694e+02
2.100000e-06	7.706081e-06	5.219885e-09	5.408596e+01	3.436416e+02
2.110000e-06	7.739838e-06	5.233702e-09	5.432289e+01	3.443688e+02
2.120000e-06	7.772101e-06	5.245851e-09	5.454933e+01	3.450559e+02
2.130000e-06	7.803043e-06	5.256703e-09	5.476650e+01	3.457078e+02
2.140000e-06	7.832687e-06	5.267375e-09	5.497456e+01	3.463298e+02
2.150000e-06	7.861072e-06	5.277795e-09	5.517378e+01	3.469264e+02
2.160000e-06	7.888141e-06	5.286801e-09	5.536377e+01	3.475016e+02
2.170000e-06	7.913596e-06	5.295548e-09	5.554243e+01	3.480582e+02
2.180000e-06	7.937512e-06	5.305304e-09	5.571029e+01	3.485976e+02
2.190000e-06	7.960079e-06	5.316823e-09	5.586867e+01	3.491197e+02
2.200000e-06	7.981321e-06	5.328423e-09	5.601777e+01	3.496232e+02
2.210000e-06	8.001345e-06	5.337399e-09	5.615831e+01	3.501049e+02
2.220000e-06	8.020039e-06	5.344738e-09	5.628951e+01	3.505608e+02
2.230000e-06	8.037174e-06	5.352215e-09	5.640977e+01	3.509857e+02
2.240000e-06	8.052830e-06	5.359219e-09	5.651966e+01	3.513740e+02
2.250000e-06	8.067072e-06	5.363568e-09	5.661962e+01	3.517201e+02
2.260000e-06	8.079847e-06	5.365693e-09	5.670928e+01	3.520187e+02
2.270000e-06	8.091092e-06	5.368033e-09	5.678820e+01	3.522655e+02
2.280000e-06	8.100579e-06	5.372885e-09	5.685479e+01	3.524577e+02
2.290000e-06	8.108418e-06	5.379212e-09	5.690981e+01	3.525938e+02
2.300000e-06	8.114917e-06	5.384581e-09	5.695542e+01	3.526747e+02
2.310000e-06	8.120074e-06	5.389220e-09	5.699162e+01	3.527029e+02
2.320000e-06	8.123890e-06	5.392996e-09	5.701840e+01	3.526832e+02
2.330000e-06	8.126306e-06	5.395115e-09	5.703536e+01	3.526219e+02
2.340000e-06	8.127181e-06	5.397645e-09	5.704150e+01	3.525268e+02
2.350000e-06	8.126595e-06	5.400428e-09	5.703739e+01	3.524067e+02
2.360000e-06	8.124684e-06	5.394954e-09	5.702397e+01	3.522706e+02
2.370000e-06	8.121503e-06	5.390553e-09	5.700165e+01	3.521273e+02
2.380000e-06	8.117168e-06	5.390840e-09	5.697122e+01	3.519846e+02
2.390000e-06	8.111452e-06	5.392841e-09	5.693111e+01	3.518488e+02
2.400000e-06	8.104140e-06	5.395571e-09	5.687979e+01	3.517241e+02
2.410000e-06	8.095499e-06	5.400607e-09	5.681914e+01	3.516122e+02
2.420000e-06	8.085700e-06	5.448122e-09	5.675036e+01	3.515123e+02
2.430000e-06	8.074673e-06	5.387790e-09	5.667297e+01	3.514204e+02
2.440000e-06	8.061866e-06	5.278382e-09	5.658308e+01	3.513300e+02
2.450000e-06	8.046733e-06	5.288949e-09	5.647687e+01	3.512322e+02
2.460000e-06	8.029579e-06	5.293611e-09	5.635647e+01	3.511160e+02
2.470000e-06	8.011005e-06	5.462351e-09	5.622610e+01	3.509693e+02
2.480000e-06	7.991588e-06	5.501778e-09	5.608983e+01	3.507792e+02
2.490000e-06	7.971497e-06	5.202159e-09	5.594882e+01	3.505329e+02
2.500000e-06	7.949800e-06	5.346318e-09	5.579653e+01	3.502187e+02
2.510000e-06	7.926325e-06	5.439452e-09	5.563177e+01	3.498265e+02
2.520000e-06	7.901797e-06	5.339867e-09	5.545962e+01	3.493485e+02
2.530000e-06	7.875876e-06	5.586914e-09	5.527769e+01	3.487799e+02
2.540000e-06	7.848470e-06	5.385551e-09	5.508533e+01	3.481189e+02
2.550000e-06	7.819872e-06	5.189886e-09	5.488462e+01	3.473671e+02
2.560000e-06	7.789766e-06	5.500966e-09	5.467331e+01	3.465295e+02
2.570000e-06	7.758183e-06	5.365709e-09	5.445164e+01	3.456137e+02
2.580000e-06	7.725152e-06	5.168452e-09	5.421981e+01	3.446304e+02
2.590000e-06	7.690619e-06	5.154424e-09	5.397744e+01	3.435917e+02
2.600000e-06	7.654987e-06	5.113248e-09	5.372735e+01	3.425112e+02
2.610000e-06	7.618098e-06	5.344256e-09	5.346845e+01	3.414028e+02
2.620000e-06	7.579589e-06	5.234748e-09	5.319817e+01	3.402800e+02
2.630000e-06	7.539582e-06	5.074016e-09	5.291737e+01	3.391550e+02
2.640000e-06	7.498261e-06	5.113406e-09	5.262736e+01	3.380382e+02
2.650000e-06	7.455709e-06	5.068802e-09	5.232870e+01	3.369376e+02
2.660000e-06	7.412004e-06	5.205037e-09	5.202195e+01	3.358582e+02
2.670000e-06	7.367178e-06	5.136358e-09	5.170734e+01	3.348020e+02
2.680000e-06	7.320950e-06	5.040620e-09	5.138288e+01	3.337681e+02
2.690000e-06	7.273190e-06	5.021871e-09	5.104767e+01	3.327526e+02
2.700000e-06	7.224115e-06	4.982295e-09	5.070323e+01	3.317490e+02
2.710000e-06	7.173775e-06	5.162378e-09	5.034992e+01	3.307492e+02
2.720000e-06	7.122124e-06	5.064300e-09	4.998740e+01	3.297433e+02
2.730000e-06	7.068894e-06	4.922775e-09	4.961380e+01	3.287210e+02
2.740000e-06	7.014046e-06	4.930184e-09	4.922884e+01	3.276720e+02
2.750000e-06	6.957952e-06	4.982106e-09	4.883514e+01	3.265865e+02
2.760000e-06	6.900685e-06	5.058012e-09	4.843320e+01	3.254563e+02
2.770000e-06	6.842208e-06	4.898772e-09	4.802278e+01	3.242747e+02
2.780000e-06	6.782669e-06	4.837731e-09	4.760490e+01	3.230370e+02
2.790000e-06	6.722060e-06	4.870969e-09	4.717950e+01	3.217409e+02
2.800000e-06	6.660122e-06	4.915196e-09	4.674478e+01	3.203861e+02
2.810000e-06	6.596786e-06	4.896913e-09	4.630026e+01	3.189745e+02
2.820000e-06	6.532216e-06	4.783916e-09	4.584707e+01	3.175095e+02
2.830000e-06	6.466510e-06	4.763686e-09	4.538590e+01	3.159959e+02
2.840000e-06	6.399686e-06	4.774565e-09	4.491689e+01	3.144393e+02
2.850000e-06	6.331782e-06	4.813560e-09	4.444030e+01	3.128456e+02
2.860000e-06	6.262712e-06	4.754431e-09	4.395552e+01	3.112202e+02
2.870000e-06	6.192394e-06	4.673241e-09	4.346199e+01	3.095680e+02
2.880000e-06	6.120854e-06	4.663460e-09	4.295987e+01	3.078924e+02
2.890000e-06	6.048178e-06	4.679723e-09	4.244979e+01	3.061958e+02
2.900000e-06	5.974418e-06	4.667086e-09	4.193210e+01	3.044785e+02
2.910000e-06	5.899618e-06	4.599377e-09	4.140711e+01	3.027395e+02
2.920000e-06	5.823696e-06	4.574645e-09	4.087424e+01	3.009761e+02
2.930000e-06	5.746510e-06	4.552830e-09	4.033250e+01	2.991844e+02
2.940000e-06	5.668138e-06	4.526312e-09	3.978244e+01	2.973594e+02
