# Temperatura_=_20.0
# Concentracion g/m^3_=_12600.0
# C_Vs_to_Am_M_A/Vsm_=_65563218390.804596
# pendiente_HvsI_1/m_=_3716.3
# ordenada_HvsI_A/m_=_1297.0
# frecuencia_Hz_=_213244.7574886179

Tiempo_(s)	Campo_(V.s)	Magnetizacion_(V.s)	Campo_(kA/m)	Magnetizacion_(A/m)
0.000000e+00	-8.068655e-06	-5.389357e-09	-5.702404e+01	-3.483140e+02
1.000000e-08	-8.067616e-06	-5.386214e-09	-5.701669e+01	-3.482457e+02
2.000000e-08	-8.064950e-06	-5.385684e-09	-5.699785e+01	-3.481205e+02
3.000000e-08	-8.060926e-06	-5.386442e-09	-5.696941e+01	-3.479421e+02
4.000000e-08	-8.055712e-06	-5.385315e-09	-5.693257e+01	-3.477170e+02
5.000000e-08	-8.049238e-06	-5.381333e-09	-5.688681e+01	-3.474539e+02
6.000000e-08	-8.041502e-06	-5.374855e-09	-5.683214e+01	-3.471641e+02
7.000000e-08	-8.032327e-06	-5.373375e-09	-5.676729e+01	-3.468600e+02
8.000000e-08	-8.021484e-06	-5.354802e-09	-5.669067e+01	-3.465554e+02
9.000000e-08	-8.008983e-06	-5.352894e-09	-5.660232e+01	-3.462642e+02
1.000000e-07	-7.994600e-06	-5.388136e-09	-5.650066e+01	-3.459998e+02
1.100000e-07	-7.978186e-06	-5.382640e-09	-5.638466e+01	-3.457742e+02
1.200000e-07	-7.960187e-06	-5.364900e-09	-5.625746e+01	-3.455972e+02
1.300000e-07	-7.941036e-06	-5.358142e-09	-5.612211e+01	-3.454760e+02
1.400000e-07	-7.920965e-06	-5.274611e-09	-5.598026e+01	-3.454143e+02
1.500000e-07	-7.899887e-06	-5.341597e-09	-5.583129e+01	-3.454121e+02
1.600000e-07	-7.877569e-06	-5.399125e-09	-5.567356e+01	-3.454656e+02
1.700000e-07	-7.854048e-06	-5.294727e-09	-5.550734e+01	-3.455672e+02
1.800000e-07	-7.828980e-06	-5.326772e-09	-5.533017e+01	-3.457058e+02
1.900000e-07	-7.802195e-06	-5.295698e-09	-5.514087e+01	-3.458672e+02
2.000000e-07	-7.774218e-06	-5.245928e-09	-5.494315e+01	-3.460350e+02
2.100000e-07	-7.745109e-06	-5.354325e-09	-5.473742e+01	-3.461909e+02
2.200000e-07	-7.714534e-06	-5.293529e-09	-5.452134e+01	-3.463162e+02
2.300000e-07	-7.682561e-06	-5.190317e-09	-5.429537e+01	-3.463923e+02
2.400000e-07	-7.649209e-06	-5.266605e-09	-5.405966e+01	-3.464016e+02
2.500000e-07	-7.614471e-06	-5.285483e-09	-5.381416e+01	-3.463286e+02
2.600000e-07	-7.578376e-06	-5.276343e-09	-5.355906e+01	-3.461603e+02
2.700000e-07	-7.540877e-06	-5.212930e-09	-5.329404e+01	-3.458870e+02
2.800000e-07	-7.502080e-06	-5.160058e-09	-5.301985e+01	-3.455025e+02
2.900000e-07	-7.462101e-06	-5.215755e-09	-5.273731e+01	-3.450042e+02
3.000000e-07	-7.420821e-06	-5.240597e-09	-5.244557e+01	-3.443933e+02
3.100000e-07	-7.377962e-06	-5.204644e-09	-5.214267e+01	-3.436743e+02
3.200000e-07	-7.333577e-06	-5.124543e-09	-5.182898e+01	-3.428547e+02
3.300000e-07	-7.287904e-06	-5.108638e-09	-5.150619e+01	-3.419442e+02
3.400000e-07	-7.240971e-06	-5.148851e-09	-5.117450e+01	-3.409543e+02
3.500000e-07	-7.192717e-06	-5.146847e-09	-5.083347e+01	-3.398974e+02
3.600000e-07	-7.142853e-06	-5.111320e-09	-5.048107e+01	-3.387860e+02
3.700000e-07	-7.091235e-06	-5.045051e-09	-5.011627e+01	-3.376319e+02
3.800000e-07	-7.038222e-06	-5.040159e-09	-4.974160e+01	-3.364459e+02
3.900000e-07	-6.984091e-06	-5.081058e-09	-4.935904e+01	-3.352368e+02
4.000000e-07	-6.928760e-06	-5.056477e-09	-4.896800e+01	-3.340114e+02
4.100000e-07	-6.872213e-06	-5.001370e-09	-4.856836e+01	-3.327740e+02
4.200000e-07	-6.814415e-06	-4.966919e-09	-4.815988e+01	-3.315267e+02
4.300000e-07	-6.755216e-06	-4.991575e-09	-4.774150e+01	-3.302688e+02
4.400000e-07	-6.694806e-06	-5.001191e-09	-4.731456e+01	-3.289981e+02
4.500000e-07	-6.633315e-06	-4.946761e-09	-4.687998e+01	-3.277102e+02
4.600000e-07	-6.570708e-06	-4.891214e-09	-4.643752e+01	-3.263997e+02
4.700000e-07	-6.507036e-06	-4.884376e-09	-4.598752e+01	-3.250604e+02
4.800000e-07	-6.442317e-06	-4.906864e-09	-4.553013e+01	-3.236859e+02
4.900000e-07	-6.376281e-06	-4.882333e-09	-4.506343e+01	-3.222700e+02
5.000000e-07	-6.308814e-06	-4.824583e-09	-4.458662e+01	-3.208073e+02
5.100000e-07	-6.240306e-06	-4.789530e-09	-4.410245e+01	-3.192933e+02
5.200000e-07	-6.170868e-06	-4.791013e-09	-4.361171e+01	-3.177251e+02
5.300000e-07	-6.100323e-06	-4.791967e-09	-4.311314e+01	-3.161009e+02
5.400000e-07	-6.028682e-06	-4.753545e-09	-4.260683e+01	-3.144207e+02
5.500000e-07	-5.956058e-06	-4.702483e-09	-4.209357e+01	-3.126855e+02
5.600000e-07	-5.882179e-06	-4.679938e-09	-4.157144e+01	-3.108976e+02
5.700000e-07	-5.806860e-06	-4.675078e-09	-4.103913e+01	-3.090603e+02
5.800000e-07	-5.730344e-06	-4.647721e-09	-4.049837e+01	-3.071771e+02
5.900000e-07	-5.652794e-06	-4.597524e-09	-3.995030e+01	-3.052520e+02
6.000000e-07	-5.574222e-06	-4.562813e-09	-3.939500e+01	-3.032886e+02
6.100000e-07	-5.494463e-06	-4.552945e-09	-3.883131e+01	-3.012901e+02
6.200000e-07	-5.413540e-06	-4.534207e-09	-3.825940e+01	-2.992587e+02
6.300000e-07	-5.331700e-06	-4.493786e-09	-3.768101e+01	-2.971958e+02
6.400000e-07	-5.248958e-06	-4.451551e-09	-3.709625e+01	-2.951016e+02
6.500000e-07	-5.165319e-06	-4.426277e-09	-3.650513e+01	-2.929753e+02
6.600000e-07	-5.080947e-06	-4.408268e-09	-3.590885e+01	-2.908147e+02
6.700000e-07	-4.995905e-06	-4.372844e-09	-3.530783e+01	-2.886170e+02
6.800000e-07	-4.910064e-06	-4.326820e-09	-3.470116e+01	-2.863784e+02
6.900000e-07	-4.823318e-06	-4.287575e-09	-3.408809e+01	-2.840946e+02
7.000000e-07	-4.735748e-06	-4.262017e-09	-3.346920e+01	-2.817612e+02
7.100000e-07	-4.647493e-06	-4.234718e-09	-3.284548e+01	-2.793738e+02
7.200000e-07	-4.558480e-06	-4.190860e-09	-3.221639e+01	-2.769280e+02
7.300000e-07	-4.468486e-06	-4.146762e-09	-3.158037e+01	-2.744203e+02
7.400000e-07	-4.377467e-06	-4.112212e-09	-3.093711e+01	-2.718477e+02
7.500000e-07	-4.285617e-06	-4.080500e-09	-3.028797e+01	-2.692079e+02
7.600000e-07	-4.193155e-06	-4.037795e-09	-2.963451e+01	-2.664995e+02
7.700000e-07	-4.100061e-06	-3.984253e-09	-2.897658e+01	-2.637221e+02
7.800000e-07	-4.006266e-06	-3.941076e-09	-2.831370e+01	-2.608758e+02
7.900000e-07	-3.911783e-06	-3.907456e-09	-2.764595e+01	-2.579614e+02
8.000000e-07	-3.816527e-06	-3.866129e-09	-2.697274e+01	-2.549802e+02
8.100000e-07	-3.720578e-06	-3.809938e-09	-2.629464e+01	-2.519337e+02
8.200000e-07	-3.624143e-06	-3.755106e-09	-2.561310e+01	-2.488236e+02
8.300000e-07	-3.527167e-06	-3.717609e-09	-2.492774e+01	-2.456513e+02
8.400000e-07	-3.429359e-06	-3.679697e-09	-2.423650e+01	-2.424180e+02
8.500000e-07	-3.330576e-06	-3.621631e-09	-2.353836e+01	-2.391246e+02
8.600000e-07	-3.231048e-06	-3.555442e-09	-2.283496e+01	-2.357711e+02
8.700000e-07	-3.131043e-06	-3.504968e-09	-2.212819e+01	-2.323574e+02
8.800000e-07	-3.030693e-06	-3.465062e-09	-2.141898e+01	-2.288823e+02
8.900000e-07	-2.930007e-06	-3.409842e-09	-2.070740e+01	-2.253443e+02
9.000000e-07	-2.828821e-06	-3.338582e-09	-1.999228e+01	-2.217414e+02
9.100000e-07	-2.727041e-06	-3.275717e-09	-1.927296e+01	-2.180709e+02
9.200000e-07	-2.624703e-06	-3.230236e-09	-1.854971e+01	-2.143301e+02
9.300000e-07	-2.521818e-06	-3.182665e-09	-1.782258e+01	-2.105158e+02
9.400000e-07	-2.418437e-06	-3.117696e-09	-1.709195e+01	-2.066249e+02
9.500000e-07	-2.314677e-06	-3.047633e-09	-1.635864e+01	-2.026541e+02
9.600000e-07	-2.210608e-06	-2.988703e-09	-1.562315e+01	-1.986006e+02
9.700000e-07	-2.106327e-06	-2.935496e-09	-1.488615e+01	-1.944613e+02
9.800000e-07	-2.001812e-06	-2.870586e-09	-1.414751e+01	-1.902336e+02
9.900000e-07	-1.897019e-06	-2.792063e-09	-1.340690e+01	-1.859153e+02
1.000000e-06	-1.791856e-06	-2.717403e-09	-1.266368e+01	-1.815041e+02
1.010000e-06	-1.686211e-06	-2.653719e-09	-1.191705e+01	-1.769983e+02
1.020000e-06	-1.580105e-06	-2.589880e-09	-1.116716e+01	-1.723964e+02
1.030000e-06	-1.473587e-06	-2.517006e-09	-1.041436e+01	-1.676972e+02
1.040000e-06	-1.366639e-06	-2.439256e-09	-9.658520e+00	-1.628995e+02
1.050000e-06	-1.259327e-06	-2.365472e-09	-8.900106e+00	-1.580025e+02
1.060000e-06	-1.151752e-06	-2.295182e-09	-8.139836e+00	-1.530054e+02
1.070000e-06	-1.043945e-06	-2.220287e-09	-7.377928e+00	-1.479076e+02
1.080000e-06	-9.360074e-07	-2.137351e-09	-6.615095e+00	-1.427084e+02
1.090000e-06	-8.279817e-07	-2.052693e-09	-5.851640e+00	-1.374073e+02
1.100000e-06	-7.198666e-07	-1.969563e-09	-5.087552e+00	-1.320035e+02
1.110000e-06	-6.116787e-07	-1.888746e-09	-4.322950e+00	-1.264962e+02
1.120000e-06	-5.034426e-07	-1.807443e-09	-3.558007e+00	-1.208844e+02
1.130000e-06	-3.951578e-07	-1.720668e-09	-2.792720e+00	-1.151670e+02
1.140000e-06	-2.868354e-07	-1.629751e-09	-2.027167e+00	-1.093423e+02
1.150000e-06	-1.785165e-07	-1.542329e-09	-1.261639e+00	-1.034083e+02
1.160000e-06	-7.019799e-08	-1.456135e-09	-4.961140e-01	-9.736254e+01
1.170000e-06	3.812640e-08	-1.363423e-09	2.694527e-01	-9.120201e+01
1.180000e-06	1.464548e-07	-1.264321e-09	1.035048e+00	-8.492313e+01
1.190000e-06	2.547652e-07	-1.165671e-09	1.800516e+00	-7.852174e+01
1.200000e-06	3.630378e-07	-1.069958e-09	2.565717e+00	-7.199321e+01
1.210000e-06	4.712710e-07	-9.702843e-10	3.330639e+00	-6.533249e+01
1.220000e-06	5.794699e-07	-8.642797e-10	4.095319e+00	-5.853429e+01
1.230000e-06	6.876263e-07	-7.552329e-10	4.859698e+00	-5.159333e+01
1.240000e-06	7.957380e-07	-6.486448e-10	5.623762e+00	-4.450460e+01
1.250000e-06	9.037982e-07	-5.433492e-10	6.387461e+00	-3.726375e+01
1.260000e-06	1.011768e-06	-4.342971e-10	7.150521e+00	-2.986744e+01
1.270000e-06	1.119572e-06	-3.201735e-10	7.912412e+00	-2.231382e+01
1.280000e-06	1.227143e-06	-2.025452e-10	8.672655e+00	-1.460290e+01
1.290000e-06	1.334441e-06	-8.333868e-11	9.430966e+00	-6.737063e+00
1.300000e-06	1.441417e-06	3.773584e-11	1.018700e+01	1.278631e+00
1.310000e-06	1.547919e-06	1.617110e-10	1.093969e+01	9.436065e+00
1.320000e-06	1.653869e-06	2.882379e-10	1.168847e+01	1.772385e+01
1.330000e-06	1.759348e-06	4.158017e-10	1.243393e+01	2.612721e+01
1.340000e-06	1.864389e-06	5.445932e-10	1.317630e+01	3.462799e+01
1.350000e-06	1.969078e-06	6.764383e-10	1.391617e+01	4.320478e+01
1.360000e-06	2.073535e-06	8.082978e-10	1.465441e+01	5.183327e+01
1.370000e-06	2.177803e-06	9.375778e-10	1.539131e+01	6.048667e+01
1.380000e-06	2.281798e-06	1.068885e-09	1.612627e+01	6.913625e+01
1.390000e-06	2.385368e-06	1.202078e-09	1.685824e+01	7.775211e+01
1.400000e-06	2.488447e-06	1.333765e-09	1.758674e+01	8.630390e+01
1.410000e-06	2.591011e-06	1.462549e-09	1.831159e+01	9.476164e+01
1.420000e-06	2.693110e-06	1.588781e-09	1.903316e+01	1.030966e+02
1.430000e-06	2.794763e-06	1.713278e-09	1.975158e+01	1.112820e+02
1.440000e-06	2.895863e-06	1.833729e-09	2.046609e+01	1.192940e+02
1.450000e-06	2.996471e-06	1.948900e-09	2.117712e+01	1.271120e+02
1.460000e-06	3.096743e-06	2.062005e-09	2.188578e+01	1.347192e+02
1.470000e-06	3.196689e-06	2.173667e-09	2.259213e+01	1.421033e+02
1.480000e-06	3.296073e-06	2.281538e-09	2.329452e+01	1.492561e+02
1.490000e-06	3.394671e-06	2.385667e-09	2.399134e+01	1.561738e+02
1.500000e-06	3.492347e-06	2.487234e-09	2.468165e+01	1.628567e+02
1.510000e-06	3.589200e-06	2.586936e-09	2.536615e+01	1.693088e+02
1.520000e-06	3.685521e-06	2.682448e-09	2.604688e+01	1.755372e+02
1.530000e-06	3.781378e-06	2.773512e-09	2.672433e+01	1.815514e+02
1.540000e-06	3.876564e-06	2.861082e-09	2.739705e+01	1.873631e+02
1.550000e-06	3.970914e-06	2.944450e-09	2.806385e+01	1.929846e+02
1.560000e-06	4.064542e-06	3.024627e-09	2.872556e+01	1.984287e+02
1.570000e-06	4.157533e-06	3.105395e-09	2.938276e+01	2.037080e+02
1.580000e-06	4.249914e-06	3.186910e-09	3.003565e+01	2.088340e+02
1.590000e-06	4.341719e-06	3.264974e-09	3.068447e+01	2.138168e+02
1.600000e-06	4.432731e-06	3.338352e-09	3.132768e+01	2.186649e+02
1.610000e-06	4.522623e-06	3.409788e-09	3.196298e+01	2.233847e+02
1.620000e-06	4.611463e-06	3.479800e-09	3.259084e+01	2.279810e+02
1.630000e-06	4.699596e-06	3.547831e-09	3.321371e+01	2.324566e+02
1.640000e-06	4.787021e-06	3.613059e-09	3.383157e+01	2.368127e+02
1.650000e-06	4.873538e-06	3.673788e-09	3.444302e+01	2.410496e+02
1.660000e-06	4.959201e-06	3.733140e-09	3.504843e+01	2.451667e+02
1.670000e-06	5.044100e-06	3.793468e-09	3.564844e+01	2.491630e+02
1.680000e-06	5.128221e-06	3.852156e-09	3.624295e+01	2.530375e+02
1.690000e-06	5.211517e-06	3.907367e-09	3.683164e+01	2.567900e+02
1.700000e-06	5.293869e-06	3.960116e-09	3.741365e+01	2.604209e+02
1.710000e-06	5.375303e-06	4.013568e-09	3.798916e+01	2.639315e+02
1.720000e-06	5.455879e-06	4.066421e-09	3.855863e+01	2.673245e+02
1.730000e-06	5.535427e-06	4.115420e-09	3.912082e+01	2.706036e+02
1.740000e-06	5.613847e-06	4.160555e-09	3.967504e+01	2.737736e+02
1.750000e-06	5.691221e-06	4.203485e-09	4.022187e+01	2.768399e+02
1.760000e-06	5.767647e-06	4.248196e-09	4.076200e+01	2.798088e+02
1.770000e-06	5.843049e-06	4.293484e-09	4.129490e+01	2.826865e+02
1.780000e-06	5.917159e-06	4.335312e-09	4.181865e+01	2.854793e+02
1.790000e-06	5.990019e-06	4.374872e-09	4.233358e+01	2.881926e+02
1.800000e-06	6.061810e-06	4.413648e-09	4.284095e+01	2.908315e+02
1.810000e-06	6.132495e-06	4.450830e-09	4.334051e+01	2.933996e+02
1.820000e-06	6.202118e-06	4.485844e-09	4.383256e+01	2.958996e+02
1.830000e-06	6.270776e-06	4.518186e-09	4.431779e+01	2.983328e+02
1.840000e-06	6.338439e-06	4.549985e-09	4.479599e+01	3.006992e+02
1.850000e-06	6.404935e-06	4.582084e-09	4.526594e+01	3.029977e+02
1.860000e-06	6.470107e-06	4.612704e-09	4.572654e+01	3.052265e+02
1.870000e-06	6.534125e-06	4.642094e-09	4.617897e+01	3.073831e+02
1.880000e-06	6.597067e-06	4.670625e-09	4.662380e+01	3.094649e+02
1.890000e-06	6.658866e-06	4.697527e-09	4.706056e+01	3.114692e+02
1.900000e-06	6.719584e-06	4.723163e-09	4.748968e+01	3.133940e+02
1.910000e-06	6.779253e-06	4.748714e-09	4.791138e+01	3.152382e+02
1.920000e-06	6.837722e-06	4.773712e-09	4.832460e+01	3.170015e+02
1.930000e-06	6.894759e-06	4.797290e-09	4.872770e+01	3.186848e+02
1.940000e-06	6.950483e-06	4.820757e-09	4.912152e+01	3.202904e+02
1.950000e-06	7.005065e-06	4.844106e-09	4.950727e+01	3.218218e+02
1.960000e-06	7.058429e-06	4.864256e-09	4.988442e+01	3.232834e+02
1.970000e-06	7.110448e-06	4.882645e-09	5.025205e+01	3.246805e+02
1.980000e-06	7.160904e-06	4.902178e-09	5.060864e+01	3.260189e+02
1.990000e-06	7.209703e-06	4.920344e-09	5.095352e+01	3.273045e+02
2.000000e-06	7.257095e-06	4.938287e-09	5.128846e+01	3.285431e+02
2.010000e-06	7.303254e-06	4.957347e-09	5.161468e+01	3.297398e+02
2.020000e-06	7.348178e-06	4.976430e-09	5.193218e+01	3.308989e+02
2.030000e-06	7.391948e-06	4.993417e-09	5.224151e+01	3.320235e+02
2.040000e-06	7.434433e-06	5.007640e-09	5.254177e+01	3.331155e+02
2.050000e-06	7.475374e-06	5.021212e-09	5.283111e+01	3.341755e+02
2.060000e-06	7.514983e-06	5.036181e-09	5.311104e+01	3.352028e+02
2.070000e-06	7.553427e-06	5.051760e-09	5.338274e+01	3.361956e+02
2.080000e-06	7.590573e-06	5.064753e-09	5.364527e+01	3.371511e+02
2.090000e-06	7.626504e-06	5.076723e-09	5.389920e+01	3.380664e+02
2.100000e-06	7.661180e-06	5.089376e-09	5.414426e+01	3.389379e+02
2.110000e-06	7.694302e-06	5.101064e-09	5.437835e+01	3.397626e+02
2.120000e-06	7.725985e-06	5.110458e-09	5.460227e+01	3.405380e+02
2.130000e-06	7.756439e-06	5.118151e-09	5.481750e+01	3.412623e+02
2.140000e-06	7.785635e-06	5.126136e-09	5.502384e+01	3.419350e+02
2.150000e-06	7.813616e-06	5.135602e-09	5.522159e+01	3.425569e+02
2.160000e-06	7.840192e-06	5.146256e-09	5.540941e+01	3.431299e+02
2.170000e-06	7.865119e-06	5.155896e-09	5.558558e+01	3.436572e+02
2.180000e-06	7.888503e-06	5.164816e-09	5.575084e+01	3.441431e+02
2.190000e-06	7.910536e-06	5.176950e-09	5.590656e+01	3.445925e+02
2.200000e-06	7.931300e-06	5.189467e-09	5.605330e+01	3.450106e+02
2.210000e-06	7.950872e-06	5.196926e-09	5.619163e+01	3.454025e+02
2.220000e-06	7.969120e-06	5.201400e-09	5.632059e+01	3.457728e+02
2.230000e-06	7.985904e-06	5.206384e-09	5.643920e+01	3.461254e+02
2.240000e-06	8.001180e-06	5.211115e-09	5.654717e+01	3.464625e+02
2.250000e-06	8.014934e-06	5.213991e-09	5.664438e+01	3.467850e+02
2.260000e-06	8.027262e-06	5.215019e-09	5.673150e+01	3.470923e+02
2.270000e-06	8.037928e-06	5.216380e-09	5.680688e+01	3.473818e+02
2.280000e-06	8.046806e-06	5.220210e-09	5.686963e+01	3.476496e+02
2.290000e-06	8.054280e-06	5.226749e-09	5.692244e+01	3.478904e+02
2.300000e-06	8.060501e-06	5.233025e-09	5.696641e+01	3.480981e+02
2.310000e-06	8.065334e-06	5.236510e-09	5.700057e+01	3.482662e+02
2.320000e-06	8.068856e-06	5.238430e-09	5.702546e+01	3.483885e+02
2.330000e-06	8.070818e-06	5.239291e-09	5.703933e+01	3.484595e+02
2.340000e-06	8.071126e-06	5.239688e-09	5.704150e+01	3.484750e+02
2.350000e-06	8.070127e-06	5.240662e-09	5.703444e+01	3.484328e+02
2.360000e-06	8.067918e-06	5.236724e-09	5.701883e+01	3.483329e+02
2.370000e-06	8.064523e-06	5.233377e-09	5.699483e+01	3.481778e+02
2.380000e-06	8.059909e-06	5.232142e-09	5.696223e+01	3.479727e+02
2.390000e-06	8.053780e-06	5.232439e-09	5.691891e+01	3.477255e+02
2.400000e-06	8.046095e-06	5.233006e-09	5.686460e+01	3.474462e+02
2.410000e-06	8.037205e-06	5.226277e-09	5.680177e+01	3.471469e+02
2.420000e-06	8.027146e-06	5.258668e-09	5.673068e+01	3.468408e+02
2.430000e-06	8.015751e-06	5.247412e-09	5.665015e+01	3.465419e+02
2.440000e-06	8.002492e-06	5.195176e-09	5.655644e+01	3.462638e+02
2.450000e-06	7.986953e-06	5.204494e-09	5.644662e+01	3.460194e+02
2.460000e-06	7.969503e-06	5.176736e-09	5.632330e+01	3.458195e+02
2.470000e-06	7.950814e-06	5.239264e-09	5.619121e+01	3.456725e+02
2.480000e-06	7.931431e-06	5.285114e-09	5.605422e+01	3.455838e+02
2.490000e-06	7.911152e-06	5.102055e-09	5.591091e+01	3.455550e+02
2.500000e-06	7.889046e-06	5.157698e-09	5.575468e+01	3.455842e+02
2.510000e-06	7.865342e-06	5.208583e-09	5.558716e+01	3.456653e+02
2.520000e-06	7.840677e-06	5.135241e-09	5.541284e+01	3.457888e+02
2.530000e-06	7.814530e-06	5.316372e-09	5.522804e+01	3.459419e+02
2.540000e-06	7.786931e-06	5.286596e-09	5.503300e+01	3.461090e+02
2.550000e-06	7.758207e-06	5.195287e-09	5.482999e+01	3.462725e+02
2.560000e-06	7.728002e-06	5.394445e-09	5.461653e+01	3.464139e+02
2.570000e-06	7.696228e-06	5.374893e-09	5.439196e+01	3.465144e+02
2.580000e-06	7.662964e-06	5.304791e-09	5.415687e+01	3.465558e+02
2.590000e-06	7.628370e-06	5.320382e-09	5.391239e+01	3.465216e+02
2.600000e-06	7.592729e-06	5.272211e-09	5.366050e+01	3.463976e+02
2.610000e-06	7.555757e-06	5.416588e-09	5.339921e+01	3.461726e+02
2.620000e-06	7.517141e-06	5.385517e-09	5.312629e+01	3.458386e+02
2.630000e-06	7.477058e-06	5.282513e-09	5.284301e+01	3.453916e+02
2.640000e-06	7.435720e-06	5.331882e-09	5.255086e+01	3.448310e+02
2.650000e-06	7.393226e-06	5.305053e-09	5.225055e+01	3.441599e+02
2.660000e-06	7.349571e-06	5.360320e-09	5.194202e+01	3.433844e+02
2.670000e-06	7.304716e-06	5.314659e-09	5.162501e+01	3.425135e+02
2.680000e-06	7.258512e-06	5.229337e-09	5.129847e+01	3.415578e+02
2.690000e-06	7.210895e-06	5.239877e-09	5.096195e+01	3.405295e+02
2.700000e-06	7.161977e-06	5.214778e-09	5.061622e+01	3.394411e+02
2.710000e-06	7.111687e-06	5.286307e-09	5.026080e+01	3.383048e+02
2.720000e-06	7.060006e-06	5.216387e-09	4.989556e+01	3.371319e+02
2.730000e-06	7.006802e-06	5.141151e-09	4.951955e+01	3.359323e+02
2.740000e-06	6.952022e-06	5.179697e-09	4.913240e+01	3.347135e+02
2.750000e-06	6.896002e-06	5.175770e-09	4.873648e+01	3.334811e+02
2.760000e-06	6.838813e-06	5.177329e-09	4.833231e+01	3.322382e+02
2.770000e-06	6.780406e-06	5.081810e-09	4.791953e+01	3.309852e+02
2.780000e-06	6.720873e-06	5.066126e-09	4.749878e+01	3.297207e+02
2.790000e-06	6.660260e-06	5.102111e-09	4.707041e+01	3.284411e+02
2.800000e-06	6.598383e-06	5.078292e-09	4.663311e+01	3.271416e+02
2.810000e-06	6.535065e-06	5.033243e-09	4.618562e+01	3.258160e+02
2.820000e-06	6.470564e-06	4.975940e-09	4.572976e+01	3.244582e+02
2.830000e-06	6.405017e-06	4.990157e-09	4.526652e+01	3.230616e+02
2.840000e-06	6.338351e-06	4.983429e-09	4.479537e+01	3.216206e+02
2.850000e-06	6.270607e-06	4.955298e-09	4.431660e+01	3.201301e+02
2.860000e-06	6.201831e-06	4.909887e-09	4.383053e+01	3.185866e+02
2.870000e-06	6.131801e-06	4.875265e-09	4.333560e+01	3.169877e+02
2.880000e-06	6.060399e-06	4.872248e-09	4.283098e+01	3.153326e+02
2.890000e-06	5.987908e-06	4.847199e-09	4.231866e+01	3.136219e+02
2.900000e-06	5.914461e-06	4.813543e-09	4.179959e+01	3.118574e+02
2.910000e-06	5.839973e-06	4.773205e-09	4.127315e+01	3.100419e+02
2.920000e-06	5.764367e-06	4.760205e-09	4.073882e+01	3.081789e+02
2.930000e-06	5.687641e-06	4.734841e-09	4.019657e+01	3.062722e+02
2.940000e-06	5.609687e-06	4.692111e-09	3.964564e+01	3.043256e+02
