# Temperatura_=_20.0
# Concentracion g/m^3_=_12600.0
# C_Vs_to_Am_M_A/Vsm_=_65563218390.804596
# pendiente_HvsI_1/m_=_3716.3
# ordenada_HvsI_A/m_=_1297.0
# frecuencia_Hz_=_213242.83069543962

Tiempo_(s)	Campo_(V.s)	Magnetizacion_(V.s)	Campo_(kA/m)	Magnetizacion_(A/m)
0.000000e+00	-8.211324e-06	-5.862292e-09	-5.702178e+01	-3.819855e+02
1.000000e-08	-8.209929e-06	-5.864061e-09	-5.701209e+01	-3.818315e+02
2.000000e-08	-8.206944e-06	-5.862123e-09	-5.699137e+01	-3.816385e+02
3.000000e-08	-8.202614e-06	-5.857265e-09	-5.696129e+01	-3.814151e+02
4.000000e-08	-8.197083e-06	-5.852396e-09	-5.692288e+01	-3.811704e+02
5.000000e-08	-8.190269e-06	-5.847402e-09	-5.687557e+01	-3.809141e+02
6.000000e-08	-8.182199e-06	-5.840206e-09	-5.681953e+01	-3.806555e+02
7.000000e-08	-8.172659e-06	-5.824413e-09	-5.675328e+01	-3.804027e+02
8.000000e-08	-8.161339e-06	-5.812237e-09	-5.667467e+01	-3.801624e+02
9.000000e-08	-8.148185e-06	-5.859705e-09	-5.658333e+01	-3.799391e+02
1.000000e-07	-8.133003e-06	-5.874041e-09	-5.647790e+01	-3.797349e+02
1.100000e-07	-8.115983e-06	-5.842597e-09	-5.635971e+01	-3.795489e+02
1.200000e-07	-8.097522e-06	-5.823996e-09	-5.623150e+01	-3.793778e+02
1.300000e-07	-8.077878e-06	-5.745979e-09	-5.609509e+01	-3.792152e+02
1.400000e-07	-8.057272e-06	-5.778745e-09	-5.595200e+01	-3.790524e+02
1.500000e-07	-8.035553e-06	-5.908853e-09	-5.580117e+01	-3.788788e+02
1.600000e-07	-8.012555e-06	-5.783434e-09	-5.564147e+01	-3.786823e+02
1.700000e-07	-7.988332e-06	-5.755865e-09	-5.547326e+01	-3.784500e+02
1.800000e-07	-7.962464e-06	-5.789592e-09	-5.529362e+01	-3.781691e+02
1.900000e-07	-7.934993e-06	-5.683435e-09	-5.510286e+01	-3.778276e+02
2.000000e-07	-7.906379e-06	-5.808273e-09	-5.490415e+01	-3.774148e+02
2.100000e-07	-7.876357e-06	-5.823300e-09	-5.469567e+01	-3.769222e+02
2.200000e-07	-7.844964e-06	-5.661056e-09	-5.447767e+01	-3.763437e+02
2.300000e-07	-7.812278e-06	-5.675905e-09	-5.425069e+01	-3.756761e+02
2.400000e-07	-7.778034e-06	-5.717098e-09	-5.401289e+01	-3.749195e+02
2.500000e-07	-7.742392e-06	-5.736735e-09	-5.376538e+01	-3.740766e+02
2.600000e-07	-7.705375e-06	-5.718046e-09	-5.350832e+01	-3.731530e+02
2.700000e-07	-7.666880e-06	-5.623048e-09	-5.324100e+01	-3.721569e+02
2.800000e-07	-7.627168e-06	-5.621297e-09	-5.296523e+01	-3.710980e+02
2.900000e-07	-7.586252e-06	-5.640749e-09	-5.268110e+01	-3.699874e+02
3.000000e-07	-7.543799e-06	-5.647387e-09	-5.238629e+01	-3.688365e+02
3.100000e-07	-7.499802e-06	-5.623104e-09	-5.208076e+01	-3.676567e+02
3.200000e-07	-7.454389e-06	-5.577351e-09	-5.176541e+01	-3.664584e+02
3.300000e-07	-7.407637e-06	-5.547386e-09	-5.144075e+01	-3.652503e+02
3.400000e-07	-7.359597e-06	-5.527875e-09	-5.110714e+01	-3.640393e+02
3.500000e-07	-7.310028e-06	-5.570792e-09	-5.076292e+01	-3.628300e+02
3.600000e-07	-7.258662e-06	-5.559540e-09	-5.040622e+01	-3.616241e+02
3.700000e-07	-7.205649e-06	-5.468643e-09	-5.003809e+01	-3.604212e+02
3.800000e-07	-7.151413e-06	-5.428894e-09	-4.966145e+01	-3.592182e+02
3.900000e-07	-7.096074e-06	-5.458477e-09	-4.927717e+01	-3.580100e+02
4.000000e-07	-7.039545e-06	-5.506470e-09	-4.888461e+01	-3.567898e+02
4.100000e-07	-6.981627e-06	-5.457110e-09	-4.848241e+01	-3.555500e+02
4.200000e-07	-6.922274e-06	-5.358127e-09	-4.807025e+01	-3.542819e+02
4.300000e-07	-6.861729e-06	-5.337772e-09	-4.764980e+01	-3.529773e+02
4.400000e-07	-6.800051e-06	-5.391965e-09	-4.722150e+01	-3.516283e+02
4.500000e-07	-6.737261e-06	-5.406393e-09	-4.678547e+01	-3.502282e+02
4.600000e-07	-6.673411e-06	-5.312724e-09	-4.634207e+01	-3.487719e+02
4.700000e-07	-6.608351e-06	-5.229643e-09	-4.589028e+01	-3.472556e+02
4.800000e-07	-6.541934e-06	-5.240554e-09	-4.542906e+01	-3.456776e+02
4.900000e-07	-6.474242e-06	-5.295403e-09	-4.495899e+01	-3.440380e+02
5.000000e-07	-6.405428e-06	-5.267255e-09	-4.448112e+01	-3.423386e+02
5.100000e-07	-6.335521e-06	-5.163142e-09	-4.399567e+01	-3.405823e+02
5.200000e-07	-6.264612e-06	-5.113053e-09	-4.350326e+01	-3.387732e+02
5.300000e-07	-6.192712e-06	-5.144484e-09	-4.300396e+01	-3.369162e+02
5.400000e-07	-6.119664e-06	-5.163675e-09	-4.249669e+01	-3.350159e+02
5.500000e-07	-6.045328e-06	-5.098296e-09	-4.198049e+01	-3.330770e+02
5.600000e-07	-5.969632e-06	-5.017124e-09	-4.145483e+01	-3.311033e+02
5.700000e-07	-5.892705e-06	-4.992198e-09	-4.092062e+01	-3.290978e+02
5.800000e-07	-5.814658e-06	-5.002851e-09	-4.037864e+01	-3.270621e+02
5.900000e-07	-5.735398e-06	-4.993494e-09	-3.982824e+01	-3.249964e+02
6.000000e-07	-5.654889e-06	-4.937070e-09	-3.926916e+01	-3.228996e+02
6.100000e-07	-5.573250e-06	-4.873833e-09	-3.870224e+01	-3.207695e+02
6.200000e-07	-5.490684e-06	-4.842353e-09	-3.812888e+01	-3.186025e+02
6.300000e-07	-5.407345e-06	-4.836429e-09	-3.755015e+01	-3.163942e+02
6.400000e-07	-5.323217e-06	-4.817497e-09	-3.696594e+01	-3.141400e+02
6.500000e-07	-5.238295e-06	-4.764371e-09	-3.637621e+01	-3.118347e+02
6.600000e-07	-5.152528e-06	-4.698293e-09	-3.578062e+01	-3.094736e+02
6.700000e-07	-5.065877e-06	-4.655800e-09	-3.517889e+01	-3.070523e+02
6.800000e-07	-4.978409e-06	-4.646911e-09	-3.457150e+01	-3.045673e+02
6.900000e-07	-4.890103e-06	-4.630344e-09	-3.395827e+01	-3.020157e+02
7.000000e-07	-4.800797e-06	-4.571621e-09	-3.333810e+01	-2.993960e+02
7.100000e-07	-4.710519e-06	-4.500575e-09	-3.271119e+01	-2.967075e+02
7.200000e-07	-4.619473e-06	-4.465428e-09	-3.207894e+01	-2.939505e+02
7.300000e-07	-4.527623e-06	-4.458154e-09	-3.144111e+01	-2.911261e+02
7.400000e-07	-4.434956e-06	-4.420876e-09	-3.079760e+01	-2.882362e+02
7.500000e-07	-4.341552e-06	-4.338920e-09	-3.014897e+01	-2.852826e+02
7.600000e-07	-4.247373e-06	-4.268402e-09	-2.949497e+01	-2.822676e+02
7.700000e-07	-4.152501e-06	-4.242640e-09	-2.883615e+01	-2.791930e+02
7.800000e-07	-4.057045e-06	-4.229935e-09	-2.817328e+01	-2.760604e+02
7.900000e-07	-3.960894e-06	-4.176936e-09	-2.750558e+01	-2.728707e+02
8.000000e-07	-3.863807e-06	-4.093879e-09	-2.683138e+01	-2.696238e+02
8.100000e-07	-3.765780e-06	-4.034183e-09	-2.615065e+01	-2.663191e+02
8.200000e-07	-3.667122e-06	-4.005844e-09	-2.546554e+01	-2.629550e+02
8.300000e-07	-3.567909e-06	-3.971799e-09	-2.477658e+01	-2.595291e+02
8.400000e-07	-3.468080e-06	-3.902991e-09	-2.408334e+01	-2.560386e+02
8.500000e-07	-3.367580e-06	-3.822083e-09	-2.338544e+01	-2.524800e+02
8.600000e-07	-3.266406e-06	-3.765557e-09	-2.268286e+01	-2.488499e+02
8.700000e-07	-3.164663e-06	-3.729691e-09	-2.197633e+01	-2.451444e+02
8.800000e-07	-3.062425e-06	-3.684870e-09	-2.126636e+01	-2.413602e+02
8.900000e-07	-2.959780e-06	-3.612936e-09	-2.055355e+01	-2.374941e+02
9.000000e-07	-2.856707e-06	-3.532186e-09	-1.983779e+01	-2.335436e+02
9.100000e-07	-2.753163e-06	-3.471228e-09	-1.911875e+01	-2.295065e+02
9.200000e-07	-2.649073e-06	-3.425418e-09	-1.839592e+01	-2.253812e+02
9.300000e-07	-2.544395e-06	-3.371777e-09	-1.766901e+01	-2.211668e+02
9.400000e-07	-2.439224e-06	-3.292987e-09	-1.693867e+01	-2.168626e+02
9.500000e-07	-2.333509e-06	-3.206234e-09	-1.620455e+01	-2.124682e+02
9.600000e-07	-2.227234e-06	-3.140471e-09	-1.546655e+01	-2.079835e+02
9.700000e-07	-2.120546e-06	-3.090123e-09	-1.472568e+01	-2.034083e+02
9.800000e-07	-2.013582e-06	-3.028037e-09	-1.398289e+01	-1.987420e+02
9.900000e-07	-1.906382e-06	-2.937814e-09	-1.323846e+01	-1.939838e+02
1.000000e-06	-1.798853e-06	-2.847225e-09	-1.249175e+01	-1.891327e+02
1.010000e-06	-1.690970e-06	-2.783304e-09	-1.174258e+01	-1.841869e+02
1.020000e-06	-1.582752e-06	-2.727164e-09	-1.099108e+01	-1.791443e+02
1.030000e-06	-1.474263e-06	-2.647956e-09	-1.023770e+01	-1.740026e+02
1.040000e-06	-1.365550e-06	-2.546732e-09	-9.482770e+00	-1.687590e+02
1.050000e-06	-1.256604e-06	-2.458175e-09	-8.726216e+00	-1.634107e+02
1.060000e-06	-1.147455e-06	-2.391854e-09	-7.968256e+00	-1.579550e+02
1.070000e-06	-1.038122e-06	-2.319907e-09	-7.209017e+00	-1.523896e+02
1.080000e-06	-9.286659e-07	-2.223557e-09	-6.448921e+00	-1.467124e+02
1.090000e-06	-8.190495e-07	-2.118311e-09	-5.687714e+00	-1.409219e+02
1.100000e-06	-7.092834e-07	-2.028134e-09	-4.925466e+00	-1.350173e+02
1.110000e-06	-5.994379e-07	-1.950984e-09	-4.162668e+00	-1.289985e+02
1.120000e-06	-4.894891e-07	-1.864657e-09	-3.399152e+00	-1.228658e+02
1.130000e-06	-3.794872e-07	-1.762478e-09	-2.635267e+00	-1.166200e+02
1.140000e-06	-2.694258e-07	-1.658701e-09	-1.870969e+00	-1.102621e+02
1.150000e-06	-1.592845e-07	-1.564782e-09	-1.106117e+00	-1.037932e+02
1.160000e-06	-4.913507e-08	-1.472602e-09	-3.412080e-01	-9.721398e+01
1.170000e-06	6.104072e-08	-1.371151e-09	4.238842e-01	-9.052475e+01
1.180000e-06	1.712627e-07	-1.263064e-09	1.189297e+00	-8.372487e+01
1.190000e-06	2.814695e-07	-1.153632e-09	1.954604e+00	-7.681276e+01
1.200000e-06	3.915500e-07	-1.047998e-09	2.719035e+00	-6.978569e+01
1.210000e-06	5.014953e-07	-9.435411e-10	3.482527e+00	-6.263976e+01
1.220000e-06	6.113984e-07	-8.334993e-10	4.245725e+00	-5.537004e+01
1.230000e-06	7.211921e-07	-7.147759e-10	5.008164e+00	-4.797071e+01
1.240000e-06	8.308506e-07	-5.922796e-10	5.769664e+00	-4.043545e+01
1.250000e-06	9.403923e-07	-4.775336e-10	6.530353e+00	-3.275787e+01
1.260000e-06	1.049784e-06	-3.676473e-10	7.289999e+00	-2.493203e+01
1.270000e-06	1.159045e-06	-2.495984e-10	8.048742e+00	-1.695309e+01
1.280000e-06	1.268140e-06	-1.175497e-10	8.806323e+00	-8.817888e+00
1.290000e-06	1.376998e-06	1.746988e-11	9.562264e+00	-5.256370e-01
1.300000e-06	1.485534e-06	1.426888e-10	1.031597e+01	7.921549e+00
1.310000e-06	1.593776e-06	2.637600e-10	1.106764e+01	1.651814e+01
1.320000e-06	1.701742e-06	3.969842e-10	1.181738e+01	2.525483e+01
1.330000e-06	1.809305e-06	5.434310e-10	1.256433e+01	3.411834e+01
1.340000e-06	1.916529e-06	6.866671e-10	1.330893e+01	4.309136e+01
1.350000e-06	2.023528e-06	8.191327e-10	1.405195e+01	5.215277e+01
1.360000e-06	2.130269e-06	9.532655e-10	1.479320e+01	6.127793e+01
1.370000e-06	2.236724e-06	1.097959e-09	1.553245e+01	7.043928e+01
1.380000e-06	2.342828e-06	1.245032e-09	1.626927e+01	7.960698e+01
1.390000e-06	2.448401e-06	1.382664e-09	1.700240e+01	8.874976e+01
1.400000e-06	2.553316e-06	1.513610e-09	1.773095e+01	9.783582e+01
1.410000e-06	2.657536e-06	1.651052e-09	1.845469e+01	1.068338e+02
1.420000e-06	2.761131e-06	1.792684e-09	1.917409e+01	1.157135e+02
1.430000e-06	2.864288e-06	1.930192e-09	1.989044e+01	1.244472e+02
1.440000e-06	2.967094e-06	2.058901e-09	2.060435e+01	1.330099e+02
1.450000e-06	3.069479e-06	2.182723e-09	2.131534e+01	1.413803e+02
1.460000e-06	3.171317e-06	2.307032e-09	2.202253e+01	1.495412e+02
1.470000e-06	3.272576e-06	2.431551e-09	2.272570e+01	1.574794e+02
1.480000e-06	3.373302e-06	2.550334e-09	2.342517e+01	1.651864e+02
1.490000e-06	3.473425e-06	2.661005e-09	2.412045e+01	1.726576e+02
1.500000e-06	3.572891e-06	2.767097e-09	2.481118e+01	1.798924e+02
1.510000e-06	3.671817e-06	2.872158e-09	2.549814e+01	1.868938e+02
1.520000e-06	3.770178e-06	2.977824e-09	2.618119e+01	1.936673e+02
1.530000e-06	3.867699e-06	3.081098e-09	2.685841e+01	2.002209e+02
1.540000e-06	3.964274e-06	3.176224e-09	2.752905e+01	2.065640e+02
1.550000e-06	4.060055e-06	3.264047e-09	2.819418e+01	2.127067e+02
1.560000e-06	4.155176e-06	3.352362e-09	2.885473e+01	2.186596e+02
1.570000e-06	4.249654e-06	3.445460e-09	2.951081e+01	2.244328e+02
1.580000e-06	4.343419e-06	3.536372e-09	3.016194e+01	2.300355e+02
1.590000e-06	4.436462e-06	3.615993e-09	3.080806e+01	2.354762e+02
1.600000e-06	4.528752e-06	3.691145e-09	3.144895e+01	2.407619e+02
1.610000e-06	4.620239e-06	3.771358e-09	3.208426e+01	2.458985e+02
1.620000e-06	4.711030e-06	3.852139e-09	3.271473e+01	2.508906e+02
1.630000e-06	4.800963e-06	3.924303e-09	3.333926e+01	2.557418e+02
1.640000e-06	4.889761e-06	3.988445e-09	3.395590e+01	2.604550e+02
1.650000e-06	4.977506e-06	4.053620e-09	3.456522e+01	2.650326e+02
1.660000e-06	5.064432e-06	4.124478e-09	3.516886e+01	2.694768e+02
1.670000e-06	5.150595e-06	4.193217e-09	3.576720e+01	2.737899e+02
1.680000e-06	5.235946e-06	4.253861e-09	3.635990e+01	2.779744e+02
1.690000e-06	5.320408e-06	4.311671e-09	3.694643e+01	2.820332e+02
1.700000e-06	5.403990e-06	4.372808e-09	3.752685e+01	2.859701e+02
1.710000e-06	5.486800e-06	4.434691e-09	3.810191e+01	2.897891e+02
1.720000e-06	5.568616e-06	4.490410e-09	3.867006e+01	2.934948e+02
1.730000e-06	5.649261e-06	4.540974e-09	3.923008e+01	2.970919e+02
1.740000e-06	5.728932e-06	4.590214e-09	3.978334e+01	3.005855e+02
1.750000e-06	5.807693e-06	4.641290e-09	4.033028e+01	3.039804e+02
1.760000e-06	5.885324e-06	4.694098e-09	4.086937e+01	3.072810e+02
1.770000e-06	5.961786e-06	4.742585e-09	4.140035e+01	3.104911e+02
1.780000e-06	6.037154e-06	4.785451e-09	4.192372e+01	3.136139e+02
1.790000e-06	6.111384e-06	4.829414e-09	4.243919e+01	3.166515e+02
1.800000e-06	6.184322e-06	4.874734e-09	4.294570e+01	3.196051e+02
1.810000e-06	6.255988e-06	4.917673e-09	4.344337e+01	3.224749e+02
1.820000e-06	6.326582e-06	4.955677e-09	4.393359e+01	3.252605e+02
1.830000e-06	6.396137e-06	4.990939e-09	4.441660e+01	3.279606e+02
1.840000e-06	6.464570e-06	5.027759e-09	4.489182e+01	3.305737e+02
1.850000e-06	6.531935e-06	5.065500e-09	4.535962e+01	3.330982e+02
1.860000e-06	6.598234e-06	5.101020e-09	4.582002e+01	3.355324e+02
1.870000e-06	6.663173e-06	5.133826e-09	4.627098e+01	3.378753e+02
1.880000e-06	6.726870e-06	5.166858e-09	4.671331e+01	3.401265e+02
1.890000e-06	6.789497e-06	5.200108e-09	4.714821e+01	3.422865e+02
1.900000e-06	6.851017e-06	5.232110e-09	4.757542e+01	3.443568e+02
1.910000e-06	6.911423e-06	5.260709e-09	4.799490e+01	3.463400e+02
1.920000e-06	6.970681e-06	5.286018e-09	4.840640e+01	3.482395e+02
1.930000e-06	7.028654e-06	5.310079e-09	4.880898e+01	3.500599e+02
1.940000e-06	7.085172e-06	5.334899e-09	4.920145e+01	3.518061e+02
1.950000e-06	7.140386e-06	5.360655e-09	4.958488e+01	3.534836e+02
1.960000e-06	7.194419e-06	5.385319e-09	4.996010e+01	3.550978e+02
1.970000e-06	7.247103e-06	5.407358e-09	5.032595e+01	3.566541e+02
1.980000e-06	7.298256e-06	5.429316e-09	5.068117e+01	3.581572e+02
1.990000e-06	7.347822e-06	5.452041e-09	5.102537e+01	3.596109e+02
2.000000e-06	7.395870e-06	5.474903e-09	5.135903e+01	3.610184e+02
2.010000e-06	7.442596e-06	5.497142e-09	5.168351e+01	3.623814e+02
2.020000e-06	7.488142e-06	5.515220e-09	5.199980e+01	3.637007e+02
2.030000e-06	7.532471e-06	5.529879e-09	5.230763e+01	3.649759e+02
2.040000e-06	7.575435e-06	5.545579e-09	5.260599e+01	3.662058e+02
2.050000e-06	7.616910e-06	5.564073e-09	5.289400e+01	3.673884e+02
2.060000e-06	7.656950e-06	5.582239e-09	5.317205e+01	3.685213e+02
2.070000e-06	7.695706e-06	5.596534e-09	5.344118e+01	3.696022e+02
2.080000e-06	7.733208e-06	5.610191e-09	5.370161e+01	3.706288e+02
2.090000e-06	7.769436e-06	5.626899e-09	5.395318e+01	3.715993e+02
2.100000e-06	7.804347e-06	5.643595e-09	5.419561e+01	3.725130e+02
2.110000e-06	7.837805e-06	5.656318e-09	5.442796e+01	3.733699e+02
2.120000e-06	7.869825e-06	5.665712e-09	5.465031e+01	3.741712e+02
2.130000e-06	7.900560e-06	5.675876e-09	5.486375e+01	3.749191e+02
2.140000e-06	7.929972e-06	5.686728e-09	5.506799e+01	3.756168e+02
2.150000e-06	7.958088e-06	5.697251e-09	5.526324e+01	3.762682e+02
2.160000e-06	7.984776e-06	5.706522e-09	5.544856e+01	3.768778e+02
2.170000e-06	8.009802e-06	5.715847e-09	5.562235e+01	3.774504e+02
2.180000e-06	8.033312e-06	5.727669e-09	5.578561e+01	3.779902e+02
2.190000e-06	8.055479e-06	5.740012e-09	5.593955e+01	3.785012e+02
2.200000e-06	8.076368e-06	5.751074e-09	5.608461e+01	3.789865e+02
2.210000e-06	8.095976e-06	5.758475e-09	5.622077e+01	3.794479e+02
2.220000e-06	8.114145e-06	5.762277e-09	5.634694e+01	3.798859e+02
2.230000e-06	8.130853e-06	5.766878e-09	5.646297e+01	3.802996e+02
2.240000e-06	8.146098e-06	5.771781e-09	5.656883e+01	3.806870e+02
2.250000e-06	8.159786e-06	5.774032e-09	5.666388e+01	3.810444e+02
2.260000e-06	8.171994e-06	5.773902e-09	5.674866e+01	3.813675e+02
2.270000e-06	8.182536e-06	5.776344e-09	5.682187e+01	3.816514e+02
2.280000e-06	8.191331e-06	5.783540e-09	5.688294e+01	3.818910e+02
2.290000e-06	8.198635e-06	5.791545e-09	5.693366e+01	3.820815e+02
2.300000e-06	8.204553e-06	5.796564e-09	5.697476e+01	3.822190e+02
2.310000e-06	8.209144e-06	5.797421e-09	5.700664e+01	3.823006e+02
2.320000e-06	8.212416e-06	5.796736e-09	5.702936e+01	3.823253e+02
2.330000e-06	8.214062e-06	5.796135e-09	5.704079e+01	3.822937e+02
2.340000e-06	8.214164e-06	5.796765e-09	5.704150e+01	3.822086e+02
2.350000e-06	8.213010e-06	5.794851e-09	5.703348e+01	3.820746e+02
2.360000e-06	8.210490e-06	5.788919e-09	5.701598e+01	3.818981e+02
2.370000e-06	8.206748e-06	5.788823e-09	5.699000e+01	3.816872e+02
2.380000e-06	8.201674e-06	5.793106e-09	5.695476e+01	3.814508e+02
2.390000e-06	8.194972e-06	5.795894e-09	5.690822e+01	3.811985e+02
2.400000e-06	8.186878e-06	5.797786e-09	5.685202e+01	3.809398e+02
2.410000e-06	8.177620e-06	5.805778e-09	5.678772e+01	3.806834e+02
2.420000e-06	8.167119e-06	5.817178e-09	5.671481e+01	3.804368e+02
2.430000e-06	8.155118e-06	5.756963e-09	5.663147e+01	3.802054e+02
2.440000e-06	8.141038e-06	5.738475e-09	5.653369e+01	3.799924e+02
2.450000e-06	8.124684e-06	5.740479e-09	5.642013e+01	3.797985e+02
2.460000e-06	8.106595e-06	5.766408e-09	5.629451e+01	3.796213e+02
2.470000e-06	8.087406e-06	5.838965e-09	5.616126e+01	3.794557e+02
2.480000e-06	8.067572e-06	5.678072e-09	5.602352e+01	3.792942e+02
2.490000e-06	8.046521e-06	5.640710e-09	5.587734e+01	3.791268e+02
2.500000e-06	8.023624e-06	5.749080e-09	5.571834e+01	3.789421e+02
2.510000e-06	7.999506e-06	5.699178e-09	5.555086e+01	3.787275e+02
2.520000e-06	7.974287e-06	5.842319e-09	5.537573e+01	3.784700e+02
2.530000e-06	7.947479e-06	5.861284e-09	5.518956e+01	3.781571e+02
2.540000e-06	7.919254e-06	5.684050e-09	5.499356e+01	3.777776e+02
2.550000e-06	7.889596e-06	5.864145e-09	5.478761e+01	3.773217e+02
2.560000e-06	7.858422e-06	5.925378e-09	5.457113e+01	3.767824e+02
2.570000e-06	7.825847e-06	5.778403e-09	5.434491e+01	3.761550e+02
2.580000e-06	7.791760e-06	5.756013e-09	5.410820e+01	3.754383e+02
2.590000e-06	7.756449e-06	5.637201e-09	5.386299e+01	3.746336e+02
2.600000e-06	7.719982e-06	5.715479e-09	5.360976e+01	3.737454e+02
2.610000e-06	7.681838e-06	5.771090e-09	5.334487e+01	3.727808e+02
2.620000e-06	7.642105e-06	5.656766e-09	5.306896e+01	3.717488e+02
2.630000e-06	7.601054e-06	5.716311e-09	5.278389e+01	3.706600e+02
2.640000e-06	7.558790e-06	5.614875e-09	5.249039e+01	3.695257e+02
2.650000e-06	7.515345e-06	5.554709e-09	5.218870e+01	3.683576e+02
2.660000e-06	7.470618e-06	5.604180e-09	5.187810e+01	3.671663e+02
2.670000e-06	7.424589e-06	5.628576e-09	5.155847e+01	3.659616e+02
2.680000e-06	7.377055e-06	5.644775e-09	5.122837e+01	3.647512e+02
2.690000e-06	7.328101e-06	5.458908e-09	5.088842e+01	3.635407e+02
2.700000e-06	7.277879e-06	5.478481e-09	5.053967e+01	3.623331e+02
2.710000e-06	7.226351e-06	5.603388e-09	5.018185e+01	3.611291e+02
2.720000e-06	7.173345e-06	5.577440e-09	4.981376e+01	3.599265e+02
2.730000e-06	7.118627e-06	5.492581e-09	4.943378e+01	3.587214e+02
2.740000e-06	7.062535e-06	5.354881e-09	4.904426e+01	3.575075e+02
2.750000e-06	7.005328e-06	5.444221e-09	4.864700e+01	3.562775e+02
2.760000e-06	6.946922e-06	5.511214e-09	4.824141e+01	3.550231e+02
2.770000e-06	6.887350e-06	5.436319e-09	4.782773e+01	3.537359e+02
2.780000e-06	6.826553e-06	5.335343e-09	4.740553e+01	3.524077e+02
2.790000e-06	6.764426e-06	5.285876e-09	4.697411e+01	3.510313e+02
2.800000e-06	6.700936e-06	5.385378e-09	4.653321e+01	3.496008e+02
2.810000e-06	6.636228e-06	5.387315e-09	4.608386e+01	3.481118e+02
2.820000e-06	6.570404e-06	5.302594e-09	4.562676e+01	3.465616e+02
2.830000e-06	6.503495e-06	5.207047e-09	4.516213e+01	3.449496e+02
2.840000e-06	6.435492e-06	5.215453e-09	4.468989e+01	3.432767e+02
2.850000e-06	6.366265e-06	5.266201e-09	4.420916e+01	3.415455e+02
2.860000e-06	6.295693e-06	5.215255e-09	4.371909e+01	3.397596e+02
2.870000e-06	6.223846e-06	5.140723e-09	4.322016e+01	3.379235e+02
2.880000e-06	6.150934e-06	5.088348e-09	4.271384e+01	3.360420e+02
2.890000e-06	6.077013e-06	5.105257e-09	4.220052e+01	3.341199e+02
2.900000e-06	6.002057e-06	5.103744e-09	4.167999e+01	3.321614e+02
2.910000e-06	5.925869e-06	5.071732e-09	4.115093e+01	3.301699e+02
2.920000e-06	5.848324e-06	5.015236e-09	4.061243e+01	3.281476e+02
2.930000e-06	5.769604e-06	4.953986e-09	4.006577e+01	3.260954e+02
2.940000e-06	5.689784e-06	4.936508e-09	3.951149e+01	3.240128e+02
