# Temperatura_=_20.0
# Concentracion g/m^3_=_12600.0
# C_Vs_to_Am_M_A/Vsm_=_65563218390.804596
# pendiente_HvsI_1/m_=_3716.3
# ordenada_HvsI_A/m_=_1297.0
# frecuencia_Hz_=_213243.71881351576

Tiempo_(s)	Campo_(V.s)	Magnetizacion_(V.s)	Campo_(kA/m)	Magnetizacion_(A/m)
0.000000e+00	-8.170632e-06	-5.825196e-09	-5.702896e+01	-3.800419e+02
1.000000e-08	-8.169761e-06	-5.826382e-09	-5.702288e+01	-3.799884e+02
2.000000e-08	-8.167253e-06	-5.829291e-09	-5.700538e+01	-3.798814e+02
3.000000e-08	-8.163312e-06	-5.826263e-09	-5.697787e+01	-3.797223e+02
4.000000e-08	-8.158242e-06	-5.821914e-09	-5.694248e+01	-3.795145e+02
5.000000e-08	-8.151876e-06	-5.815398e-09	-5.689805e+01	-3.792631e+02
6.000000e-08	-8.144221e-06	-5.807337e-09	-5.684462e+01	-3.789749e+02
7.000000e-08	-8.135207e-06	-5.799329e-09	-5.678171e+01	-3.786581e+02
8.000000e-08	-8.124493e-06	-5.771927e-09	-5.670692e+01	-3.783219e+02
9.000000e-08	-8.112012e-06	-5.798177e-09	-5.661981e+01	-3.779755e+02
1.000000e-07	-8.097621e-06	-5.869954e-09	-5.651936e+01	-3.776286e+02
1.100000e-07	-8.081262e-06	-5.854802e-09	-5.640518e+01	-3.772897e+02
1.200000e-07	-8.063346e-06	-5.818659e-09	-5.628014e+01	-3.769663e+02
1.300000e-07	-8.044219e-06	-5.757681e-09	-5.614663e+01	-3.766645e+02
1.400000e-07	-8.024127e-06	-5.646957e-09	-5.600640e+01	-3.763878e+02
1.500000e-07	-8.003010e-06	-5.820989e-09	-5.585900e+01	-3.761378e+02
1.600000e-07	-7.980545e-06	-5.889257e-09	-5.570221e+01	-3.759136e+02
1.700000e-07	-7.956885e-06	-5.698929e-09	-5.553707e+01	-3.757115e+02
1.800000e-07	-7.931818e-06	-5.766658e-09	-5.536210e+01	-3.755258e+02
1.900000e-07	-7.905012e-06	-5.728922e-09	-5.517500e+01	-3.753487e+02
2.000000e-07	-7.876950e-06	-5.697841e-09	-5.497914e+01	-3.751705e+02
2.100000e-07	-7.847699e-06	-5.870372e-09	-5.477497e+01	-3.749805e+02
2.200000e-07	-7.816991e-06	-5.706136e-09	-5.456064e+01	-3.747673e+02
2.300000e-07	-7.784924e-06	-5.568370e-09	-5.433682e+01	-3.745194e+02
2.400000e-07	-7.751390e-06	-5.735689e-09	-5.410276e+01	-3.742256e+02
2.500000e-07	-7.716349e-06	-5.782105e-09	-5.385819e+01	-3.738759e+02
2.600000e-07	-7.679908e-06	-5.738839e-09	-5.360383e+01	-3.734615e+02
2.700000e-07	-7.642037e-06	-5.592186e-09	-5.333951e+01	-3.729756e+02
2.800000e-07	-7.602915e-06	-5.530693e-09	-5.306644e+01	-3.724131e+02
2.900000e-07	-7.562623e-06	-5.681979e-09	-5.278521e+01	-3.717713e+02
3.000000e-07	-7.520829e-06	-5.756190e-09	-5.249350e+01	-3.710494e+02
3.100000e-07	-7.477447e-06	-5.654651e-09	-5.219070e+01	-3.702486e+02
3.200000e-07	-7.432629e-06	-5.484864e-09	-5.187789e+01	-3.693720e+02
3.300000e-07	-7.386489e-06	-5.509360e-09	-5.155584e+01	-3.684239e+02
3.400000e-07	-7.339190e-06	-5.638265e-09	-5.122570e+01	-3.674098e+02
3.500000e-07	-7.290589e-06	-5.644599e-09	-5.088648e+01	-3.663355e+02
3.600000e-07	-7.240214e-06	-5.526021e-09	-5.053488e+01	-3.652075e+02
3.700000e-07	-7.188033e-06	-5.388344e-09	-5.017067e+01	-3.640315e+02
3.800000e-07	-7.134515e-06	-5.461804e-09	-4.979713e+01	-3.628131e+02
3.900000e-07	-7.079886e-06	-5.595091e-09	-4.941583e+01	-3.615569e+02
4.000000e-07	-7.024113e-06	-5.519512e-09	-4.902655e+01	-3.602663e+02
4.100000e-07	-6.966993e-06	-5.357544e-09	-4.862787e+01	-3.589438e+02
4.200000e-07	-6.908359e-06	-5.327230e-09	-4.821861e+01	-3.575904e+02
4.300000e-07	-6.848489e-06	-5.462188e-09	-4.780074e+01	-3.562063e+02
4.400000e-07	-6.787543e-06	-5.499343e-09	-4.737535e+01	-3.547904e+02
4.500000e-07	-6.725431e-06	-5.347557e-09	-4.694182e+01	-3.533409e+02
4.600000e-07	-6.662248e-06	-5.218368e-09	-4.650082e+01	-3.518556e+02
4.700000e-07	-6.597954e-06	-5.274546e-09	-4.605207e+01	-3.503318e+02
4.800000e-07	-6.532351e-06	-5.392665e-09	-4.559417e+01	-3.487667e+02
4.900000e-07	-6.465356e-06	-5.340637e-09	-4.512656e+01	-3.471577e+02
5.000000e-07	-6.397221e-06	-5.183809e-09	-4.465100e+01	-3.455027e+02
5.100000e-07	-6.328085e-06	-5.122322e-09	-4.416845e+01	-3.438000e+02
5.200000e-07	-6.257851e-06	-5.199939e-09	-4.367823e+01	-3.420485e+02
5.300000e-07	-6.186637e-06	-5.251553e-09	-4.318118e+01	-3.402477e+02
5.400000e-07	-6.114340e-06	-5.156922e-09	-4.267656e+01	-3.383979e+02
5.500000e-07	-6.040689e-06	-5.030422e-09	-4.216250e+01	-3.364997e+02
5.600000e-07	-5.965722e-06	-5.022607e-09	-4.163925e+01	-3.345544e+02
5.700000e-07	-5.889583e-06	-5.090970e-09	-4.110781e+01	-3.325632e+02
5.800000e-07	-5.812314e-06	-5.076352e-09	-4.056850e+01	-3.305276e+02
5.900000e-07	-5.733847e-06	-4.965391e-09	-4.002081e+01	-3.284491e+02
6.000000e-07	-5.654188e-06	-4.892836e-09	-3.946481e+01	-3.263288e+02
6.100000e-07	-5.573460e-06	-4.912358e-09	-3.890135e+01	-3.241675e+02
6.200000e-07	-5.491708e-06	-4.933707e-09	-3.833074e+01	-3.219654e+02
6.300000e-07	-5.408991e-06	-4.881131e-09	-3.775340e+01	-3.197224e+02
6.400000e-07	-5.325441e-06	-4.790042e-09	-3.717025e+01	-3.174376e+02
6.500000e-07	-5.241118e-06	-4.744804e-09	-3.658169e+01	-3.151097e+02
6.600000e-07	-5.155988e-06	-4.752915e-09	-3.598750e+01	-3.127369e+02
6.700000e-07	-5.070037e-06	-4.743078e-09	-3.538759e+01	-3.103170e+02
6.800000e-07	-4.983272e-06	-4.682769e-09	-3.478199e+01	-3.078474e+02
6.900000e-07	-4.895700e-06	-4.609732e-09	-3.417076e+01	-3.053254e+02
7.000000e-07	-4.807273e-06	-4.578046e-09	-3.355356e+01	-3.027484e+02
7.100000e-07	-4.717904e-06	-4.571012e-09	-3.292979e+01	-3.001137e+02
7.200000e-07	-4.627564e-06	-4.536878e-09	-3.229924e+01	-2.974188e+02
7.300000e-07	-4.536302e-06	-4.473190e-09	-3.166225e+01	-2.946614e+02
7.400000e-07	-4.444248e-06	-4.412916e-09	-3.101974e+01	-2.918397e+02
7.500000e-07	-4.351473e-06	-4.377248e-09	-3.037219e+01	-2.889518e+02
7.600000e-07	-4.257967e-06	-4.347803e-09	-2.971954e+01	-2.859966e+02
7.700000e-07	-4.163782e-06	-4.300201e-09	-2.906215e+01	-2.829729e+02
7.800000e-07	-4.068985e-06	-4.241551e-09	-2.840049e+01	-2.798801e+02
7.900000e-07	-3.973523e-06	-4.193197e-09	-2.773419e+01	-2.767176e+02
8.000000e-07	-3.877266e-06	-4.154551e-09	-2.706235e+01	-2.734849e+02
8.100000e-07	-3.780176e-06	-4.105581e-09	-2.638468e+01	-2.701816e+02
8.200000e-07	-3.682330e-06	-4.046216e-09	-2.570174e+01	-2.668074e+02
8.300000e-07	-3.583786e-06	-3.993919e-09	-2.501393e+01	-2.633620e+02
8.400000e-07	-3.484584e-06	-3.944866e-09	-2.432152e+01	-2.598449e+02
8.500000e-07	-3.384751e-06	-3.885079e-09	-2.362472e+01	-2.562556e+02
8.600000e-07	-3.284363e-06	-3.819992e-09	-2.292403e+01	-2.525935e+02
8.700000e-07	-3.183368e-06	-3.768005e-09	-2.221911e+01	-2.488581e+02
8.800000e-07	-3.081776e-06	-3.722636e-09	-2.151002e+01	-2.450483e+02
8.900000e-07	-2.979753e-06	-3.661067e-09	-2.079793e+01	-2.411635e+02
9.000000e-07	-2.877257e-06	-3.586754e-09	-2.008253e+01	-2.372027e+02
9.100000e-07	-2.774265e-06	-3.523025e-09	-1.936368e+01	-2.331649e+02
9.200000e-07	-2.670812e-06	-3.476455e-09	-1.864160e+01	-2.290489e+02
9.300000e-07	-2.566914e-06	-3.421092e-09	-1.791642e+01	-2.248537e+02
9.400000e-07	-2.462528e-06	-3.341002e-09	-1.718783e+01	-2.205778e+02
9.500000e-07	-2.357621e-06	-3.258682e-09	-1.645560e+01	-2.162200e+02
9.600000e-07	-2.252201e-06	-3.198256e-09	-1.571980e+01	-2.117786e+02
9.700000e-07	-2.146256e-06	-3.145664e-09	-1.498033e+01	-2.072518e+02
9.800000e-07	-2.039904e-06	-3.070636e-09	-1.423802e+01	-2.026378e+02
9.900000e-07	-1.933211e-06	-2.978190e-09	-1.349333e+01	-1.979344e+02
1.000000e-06	-1.826170e-06	-2.900428e-09	-1.274621e+01	-1.931391e+02
1.010000e-06	-1.718822e-06	-2.842958e-09	-1.199695e+01	-1.882496e+02
1.020000e-06	-1.611224e-06	-2.779328e-09	-1.124594e+01	-1.832633e+02
1.030000e-06	-1.503417e-06	-2.691888e-09	-1.049347e+01	-1.781774e+02
1.040000e-06	-1.395380e-06	-2.599322e-09	-9.739401e+00	-1.729893e+02
1.050000e-06	-1.287095e-06	-2.524489e-09	-8.983601e+00	-1.676964e+02
1.060000e-06	-1.178607e-06	-2.458607e-09	-8.226381e+00	-1.622966e+02
1.070000e-06	-1.069935e-06	-2.378565e-09	-7.467881e+00	-1.567876e+02
1.080000e-06	-9.610362e-07	-2.279524e-09	-6.707792e+00	-1.511677e+02
1.090000e-06	-8.519170e-07	-2.183096e-09	-5.946167e+00	-1.454355e+02
1.100000e-06	-7.426528e-07	-2.100586e-09	-5.183531e+00	-1.395900e+02
1.110000e-06	-6.332985e-07	-2.020804e-09	-4.420265e+00	-1.336304e+02
1.120000e-06	-5.238598e-07	-1.928006e-09	-3.656410e+00	-1.275564e+02
1.130000e-06	-4.143568e-07	-1.824269e-09	-2.892107e+00	-1.213675e+02
1.140000e-06	-3.047629e-07	-1.726433e-09	-2.127168e+00	-1.150636e+02
1.150000e-06	-1.951312e-07	-1.638076e-09	-1.361967e+00	-1.086441e+02
1.160000e-06	-8.547769e-08	-1.545582e-09	-5.966129e-01	-1.021084e+02
1.170000e-06	2.422899e-08	-1.439813e-09	1.691123e-01	-9.545505e+01
1.180000e-06	1.339139e-07	-1.329156e-09	9.346853e-01	-8.868230e+01
1.190000e-06	2.435690e-07	-1.225545e-09	1.700051e+00	-8.178753e+01
1.200000e-06	3.531649e-07	-1.127670e-09	2.465003e+00	-7.476736e+01
1.210000e-06	4.626699e-07	-1.022217e-09	3.229320e+00	-6.761768e+01
1.220000e-06	5.721520e-07	-9.041363e-10	3.993478e+00	-6.033372e+01
1.230000e-06	6.815900e-07	-7.829694e-10	4.757327e+00	-5.291029e+01
1.240000e-06	7.909181e-07	-6.697251e-10	5.520410e+00	-4.534204e+01
1.250000e-06	9.000735e-07	-5.591098e-10	6.282287e+00	-3.762381e+01
1.260000e-06	1.009013e-06	-4.410432e-10	7.042661e+00	-2.975109e+01
1.270000e-06	1.117774e-06	-3.148795e-10	7.801783e+00	-2.172049e+01
1.280000e-06	1.226299e-06	-1.884389e-10	8.559259e+00	-1.353028e+01
1.290000e-06	1.334561e-06	-6.682531e-11	9.314904e+00	-5.180854e+00
1.300000e-06	1.442629e-06	5.635439e-11	1.006919e+01	3.324754e+00
1.310000e-06	1.550443e-06	1.882075e-10	1.082171e+01	1.198046e+01
1.320000e-06	1.657959e-06	3.271279e-10	1.157214e+01	2.077682e+01
1.330000e-06	1.765259e-06	4.644367e-10	1.232107e+01	2.970080e+01
1.340000e-06	1.872332e-06	5.981183e-10	1.306841e+01	3.873574e+01
1.350000e-06	1.979096e-06	7.360955e-10	1.381359e+01	4.786143e+01
1.360000e-06	2.085496e-06	8.809863e-10	1.455624e+01	5.705438e+01
1.370000e-06	2.191403e-06	1.027170e-09	1.529544e+01	6.628819e+01
1.380000e-06	2.296767e-06	1.169903e-09	1.603086e+01	7.553417e+01
1.390000e-06	2.401601e-06	1.308167e-09	1.676257e+01	8.476197e+01
1.400000e-06	2.505910e-06	1.447105e-09	1.749063e+01	9.394039e+01
1.410000e-06	2.609685e-06	1.589120e-09	1.821495e+01	1.030382e+02
1.420000e-06	2.713038e-06	1.730381e-09	1.893633e+01	1.120250e+02
1.430000e-06	2.816006e-06	1.865431e-09	1.965502e+01	1.208720e+02
1.440000e-06	2.918518e-06	1.994290e-09	2.037052e+01	1.295530e+02
1.450000e-06	3.020560e-06	2.121151e-09	2.108275e+01	1.380449e+02
1.460000e-06	3.122057e-06	2.249427e-09	2.179118e+01	1.463281e+02
1.470000e-06	3.223018e-06	2.376554e-09	2.249586e+01	1.543873e+02
1.480000e-06	3.323356e-06	2.494837e-09	2.319619e+01	1.622113e+02
1.490000e-06	3.423073e-06	2.603458e-09	2.389219e+01	1.697933e+02
1.500000e-06	3.522272e-06	2.712095e-09	2.458457e+01	1.771304e+02
1.510000e-06	3.620955e-06	2.823642e-09	2.527336e+01	1.842239e+02
1.520000e-06	3.718973e-06	2.930707e-09	2.595750e+01	1.910782e+02
1.530000e-06	3.816106e-06	3.028871e-09	2.663546e+01	1.977004e+02
1.540000e-06	3.912425e-06	3.123528e-09	2.730775e+01	2.041001e+02
1.550000e-06	4.008033e-06	3.218677e-09	2.797506e+01	2.102881e+02
1.560000e-06	4.102936e-06	3.312367e-09	2.863747e+01	2.162760e+02
1.570000e-06	4.197180e-06	3.403095e-09	2.929526e+01	2.220755e+02
1.580000e-06	4.290719e-06	3.486965e-09	2.994814e+01	2.276981e+02
1.590000e-06	4.383557e-06	3.566444e-09	3.059613e+01	2.331542e+02
1.600000e-06	4.475668e-06	3.646386e-09	3.123904e+01	2.384530e+02
1.610000e-06	4.567022e-06	3.726122e-09	3.187667e+01	2.436024e+02
1.620000e-06	4.657619e-06	3.801480e-09	3.250902e+01	2.486086e+02
1.630000e-06	4.747256e-06	3.871344e-09	3.313466e+01	2.534765e+02
1.640000e-06	4.835775e-06	3.941453e-09	3.375250e+01	2.582096e+02
1.650000e-06	4.923386e-06	4.013099e-09	3.436400e+01	2.628104e+02
1.660000e-06	5.010205e-06	4.083453e-09	3.496997e+01	2.672806e+02
1.670000e-06	5.096208e-06	4.147955e-09	3.557026e+01	2.716214e+02
1.680000e-06	5.181383e-06	4.207827e-09	3.616476e+01	2.758341e+02
1.690000e-06	5.265707e-06	4.267414e-09	3.675332e+01	2.799201e+02
1.700000e-06	5.349291e-06	4.327592e-09	3.733671e+01	2.838811e+02
1.710000e-06	5.432097e-06	4.387320e-09	3.791467e+01	2.877197e+02
1.720000e-06	5.513836e-06	4.442233e-09	3.848520e+01	2.914388e+02
1.730000e-06	5.594410e-06	4.494222e-09	3.904758e+01	2.950424e+02
1.740000e-06	5.673948e-06	4.547615e-09	3.960274e+01	2.985349e+02
1.750000e-06	5.752481e-06	4.601557e-09	4.015088e+01	3.019211e+02
1.760000e-06	5.830038e-06	4.652675e-09	4.069221e+01	3.052062e+02
1.770000e-06	5.906581e-06	4.698217e-09	4.122646e+01	3.083951e+02
1.780000e-06	5.982014e-06	4.740576e-09	4.175296e+01	3.114926e+02
1.790000e-06	6.056280e-06	4.784937e-09	4.227132e+01	3.145029e+02
1.800000e-06	6.129210e-06	4.829355e-09	4.278035e+01	3.174294e+02
1.810000e-06	6.200901e-06	4.869915e-09	4.328074e+01	3.202747e+02
1.820000e-06	6.271598e-06	4.906968e-09	4.377418e+01	3.230402e+02
1.830000e-06	6.341226e-06	4.943768e-09	4.426017e+01	3.257265e+02
1.840000e-06	6.409705e-06	4.982432e-09	4.473813e+01	3.283331e+02
1.850000e-06	6.477154e-06	5.021055e-09	4.520891e+01	3.308588e+02
1.860000e-06	6.543533e-06	5.055324e-09	4.567222e+01	3.333018e+02
1.870000e-06	6.608582e-06	5.086927e-09	4.612624e+01	3.356602e+02
1.880000e-06	6.672326e-06	5.120426e-09	4.657117e+01	3.379319e+02
1.890000e-06	6.734937e-06	5.154185e-09	4.700818e+01	3.401153e+02
1.900000e-06	6.796487e-06	5.183915e-09	4.743778e+01	3.422094e+02
1.910000e-06	6.857007e-06	5.209638e-09	4.786019e+01	3.442138e+02
1.920000e-06	6.916458e-06	5.235226e-09	4.827514e+01	3.461296e+02
1.930000e-06	6.974611e-06	5.261885e-09	4.868104e+01	3.479586e+02
1.940000e-06	7.031271e-06	5.288157e-09	4.907651e+01	3.497039e+02
1.950000e-06	7.086569e-06	5.312213e-09	4.946248e+01	3.513696e+02
1.960000e-06	7.140668e-06	5.335349e-09	4.984007e+01	3.529608e+02
1.970000e-06	7.193517e-06	5.358614e-09	5.020895e+01	3.544830e+02
1.980000e-06	7.244895e-06	5.381712e-09	5.056755e+01	3.559423e+02
1.990000e-06	7.294596e-06	5.403137e-09	5.091445e+01	3.573446e+02
2.000000e-06	7.342745e-06	5.423439e-09	5.125052e+01	3.586957e+02
2.010000e-06	7.389570e-06	5.443901e-09	5.157734e+01	3.600006e+02
2.020000e-06	7.435206e-06	5.463186e-09	5.189588e+01	3.612634e+02
2.030000e-06	7.479687e-06	5.480165e-09	5.220634e+01	3.624874e+02
2.040000e-06	7.522949e-06	5.496046e-09	5.250830e+01	3.636744e+02
2.050000e-06	7.564752e-06	5.512543e-09	5.280007e+01	3.648250e+02
2.060000e-06	7.605025e-06	5.531214e-09	5.308117e+01	3.659386e+02
2.070000e-06	7.644026e-06	5.548695e-09	5.335339e+01	3.670137e+02
2.080000e-06	7.681800e-06	5.562777e-09	5.361704e+01	3.680479e+02
2.090000e-06	7.718310e-06	5.576710e-09	5.387187e+01	3.690383e+02
2.100000e-06	7.753550e-06	5.591463e-09	5.411783e+01	3.699818e+02
2.110000e-06	7.787304e-06	5.605244e-09	5.435343e+01	3.708755e+02
2.120000e-06	7.819550e-06	5.615850e-09	5.457850e+01	3.717169e+02
2.130000e-06	7.850488e-06	5.626059e-09	5.479444e+01	3.725042e+02
2.140000e-06	7.880075e-06	5.638008e-09	5.500095e+01	3.732369e+02
2.150000e-06	7.908409e-06	5.649315e-09	5.519871e+01	3.739152e+02
2.160000e-06	7.935414e-06	5.659773e-09	5.538720e+01	3.745406e+02
2.170000e-06	7.960785e-06	5.669999e-09	5.556428e+01	3.751158e+02
2.180000e-06	7.984633e-06	5.680196e-09	5.573074e+01	3.756443e+02
2.190000e-06	8.007138e-06	5.691037e-09	5.588781e+01	3.761305e+02
2.200000e-06	8.028314e-06	5.701251e-09	5.603562e+01	3.765788e+02
2.210000e-06	8.048298e-06	5.709015e-09	5.617511e+01	3.769942e+02
2.220000e-06	8.066985e-06	5.714342e-09	5.630554e+01	3.773810e+02
2.230000e-06	8.084090e-06	5.719945e-09	5.642492e+01	3.777431e+02
2.240000e-06	8.099695e-06	5.726152e-09	5.653384e+01	3.780832e+02
2.250000e-06	8.113860e-06	5.731937e-09	5.663271e+01	3.784032e+02
2.260000e-06	8.126549e-06	5.735413e-09	5.672128e+01	3.787032e+02
2.270000e-06	8.137622e-06	5.737899e-09	5.679857e+01	3.789823e+02
2.280000e-06	8.146852e-06	5.742242e-09	5.686299e+01	3.792381e+02
2.290000e-06	8.154531e-06	5.747495e-09	5.691659e+01	3.794672e+02
2.300000e-06	8.160922e-06	5.751503e-09	5.696119e+01	3.796651e+02
2.310000e-06	8.165914e-06	5.754866e-09	5.699603e+01	3.798270e+02
2.320000e-06	8.169623e-06	5.757999e-09	5.702192e+01	3.799479e+02
2.330000e-06	8.171835e-06	5.760280e-09	5.703736e+01	3.800230e+02
2.340000e-06	8.172428e-06	5.762928e-09	5.704150e+01	3.800486e+02
2.350000e-06	8.171699e-06	5.765601e-09	5.703641e+01	3.800219e+02
2.360000e-06	8.169701e-06	5.760658e-09	5.702247e+01	3.799416e+02
2.370000e-06	8.166397e-06	5.755172e-09	5.699940e+01	3.798082e+02
2.380000e-06	8.161856e-06	5.752969e-09	5.696771e+01	3.796242e+02
2.390000e-06	8.155863e-06	5.753919e-09	5.692588e+01	3.793938e+02
2.400000e-06	8.148327e-06	5.755894e-09	5.687328e+01	3.791231e+02
2.410000e-06	8.139561e-06	5.757829e-09	5.681210e+01	3.788196e+02
2.420000e-06	8.129595e-06	5.795437e-09	5.674254e+01	3.784919e+02
2.430000e-06	8.118282e-06	5.736634e-09	5.666357e+01	3.781494e+02
2.440000e-06	8.105039e-06	5.647970e-09	5.657114e+01	3.778016e+02
2.450000e-06	8.089480e-06	5.671076e-09	5.646254e+01	3.774576e+02
2.460000e-06	8.071984e-06	5.678796e-09	5.634042e+01	3.771257e+02
2.470000e-06	8.053139e-06	5.826026e-09	5.620889e+01	3.768124e+02
2.480000e-06	8.033589e-06	5.827202e-09	5.607244e+01	3.765228e+02
2.490000e-06	8.013281e-06	5.538162e-09	5.593070e+01	3.762595e+02
2.500000e-06	7.991205e-06	5.671936e-09	5.577661e+01	3.760226e+02
2.510000e-06	7.967476e-06	5.706311e-09	5.561099e+01	3.758101e+02
2.520000e-06	7.942736e-06	5.589271e-09	5.543831e+01	3.756171e+02
2.530000e-06	7.916503e-06	5.816124e-09	5.525521e+01	3.754368e+02
2.540000e-06	7.888820e-06	5.655504e-09	5.506199e+01	3.752604e+02
2.550000e-06	7.859853e-06	5.568056e-09	5.485980e+01	3.750777e+02
2.560000e-06	7.829303e-06	5.902675e-09	5.464657e+01	3.748776e+02
2.570000e-06	7.797369e-06	5.783089e-09	5.442368e+01	3.746484e+02
2.580000e-06	7.763987e-06	5.625152e-09	5.419069e+01	3.743789e+02
2.590000e-06	7.729109e-06	5.620319e-09	5.394724e+01	3.740583e+02
2.600000e-06	7.693171e-06	5.638567e-09	5.369641e+01	3.736773e+02
2.610000e-06	7.655940e-06	5.904923e-09	5.343654e+01	3.732278e+02
2.620000e-06	7.617014e-06	5.759504e-09	5.316485e+01	3.727041e+02
2.630000e-06	7.576593e-06	5.555829e-09	5.288272e+01	3.721022e+02
2.640000e-06	7.534896e-06	5.613167e-09	5.259169e+01	3.714203e+02
2.650000e-06	7.492044e-06	5.694862e-09	5.229259e+01	3.706587e+02
2.660000e-06	7.448030e-06	5.881155e-09	5.198538e+01	3.698196e+02
2.670000e-06	7.402751e-06	5.695589e-09	5.166935e+01	3.689066e+02
2.680000e-06	7.355971e-06	5.485053e-09	5.134284e+01	3.679248e+02
2.690000e-06	7.307700e-06	5.539933e-09	5.100592e+01	3.668798e+02
2.700000e-06	7.258210e-06	5.665572e-09	5.066048e+01	3.657779e+02
2.710000e-06	7.207419e-06	5.798147e-09	5.030598e+01	3.646251e+02
2.720000e-06	7.155199e-06	5.519613e-09	4.994150e+01	3.634273e+02
2.730000e-06	7.101368e-06	5.374180e-09	4.956577e+01	3.621895e+02
2.740000e-06	7.045962e-06	5.544764e-09	4.917905e+01	3.609157e+02
2.750000e-06	6.989399e-06	5.661964e-09	4.878425e+01	3.596089e+02
2.760000e-06	6.931650e-06	5.594984e-09	4.838118e+01	3.582709e+02
2.770000e-06	6.872645e-06	5.321661e-09	4.796934e+01	3.569022e+02
2.780000e-06	6.812576e-06	5.349454e-09	4.755008e+01	3.555024e+02
2.790000e-06	6.751408e-06	5.524100e-09	4.712314e+01	3.540700e+02
2.800000e-06	6.688882e-06	5.539330e-09	4.668672e+01	3.526029e+02
2.810000e-06	6.624991e-06	5.372098e-09	4.624078e+01	3.510987e+02
2.820000e-06	6.559938e-06	5.222529e-09	4.578672e+01	3.495546e+02
2.830000e-06	6.493735e-06	5.312211e-09	4.532464e+01	3.479678e+02
2.840000e-06	6.426423e-06	5.395674e-09	4.485482e+01	3.463361e+02
2.850000e-06	6.358000e-06	5.361068e-09	4.437725e+01	3.446574e+02
2.860000e-06	6.288332e-06	5.207334e-09	4.389098e+01	3.429304e+02
2.870000e-06	6.217330e-06	5.145570e-09	4.339540e+01	3.411542e+02
2.880000e-06	6.145160e-06	5.217844e-09	4.289168e+01	3.393289e+02
2.890000e-06	6.071991e-06	5.246865e-09	4.238097e+01	3.374548e+02
2.900000e-06	5.997794e-06	5.169625e-09	4.186310e+01	3.355329e+02
2.910000e-06	5.922437e-06	5.056230e-09	4.133712e+01	3.335644e+02
2.920000e-06	5.845834e-06	5.056143e-09	4.080246e+01	3.315509e+02
2.930000e-06	5.767937e-06	5.081453e-09	4.025876e+01	3.294937e+02
2.940000e-06	5.688738e-06	5.054140e-09	3.970596e+01	3.273941e+02
