# Temperatura_=_20.0
# Concentracion g/m^3_=_12600.0
# C_Vs_to_Am_M_A/Vsm_=_65563218390.804596
# pendiente_HvsI_1/m_=_3716.3
# ordenada_HvsI_A/m_=_1297.0
# frecuencia_Hz_=_213244.000479804

Tiempo_(s)	Campo_(V.s)	Magnetizacion_(V.s)	Campo_(kA/m)	Magnetizacion_(A/m)
0.000000e+00	-8.104027e-06	-5.513500e-09	-5.702789e+01	-3.609592e+02
1.000000e-08	-8.102849e-06	-5.512236e-09	-5.701960e+01	-3.608582e+02
2.000000e-08	-8.100108e-06	-5.512073e-09	-5.700031e+01	-3.607477e+02
3.000000e-08	-8.095978e-06	-5.510242e-09	-5.697125e+01	-3.606343e+02
4.000000e-08	-8.090616e-06	-5.507315e-09	-5.693351e+01	-3.605231e+02
5.000000e-08	-8.084028e-06	-5.502416e-09	-5.688715e+01	-3.604179e+02
6.000000e-08	-8.076284e-06	-5.496354e-09	-5.683266e+01	-3.603206e+02
7.000000e-08	-8.067152e-06	-5.490091e-09	-5.676840e+01	-3.602307e+02
8.000000e-08	-8.056247e-06	-5.470241e-09	-5.669166e+01	-3.601459e+02
9.000000e-08	-8.043542e-06	-5.491364e-09	-5.660226e+01	-3.600616e+02
1.000000e-07	-8.028900e-06	-5.529301e-09	-5.649922e+01	-3.599717e+02
1.100000e-07	-8.012271e-06	-5.514330e-09	-5.638220e+01	-3.598683e+02
1.200000e-07	-7.994043e-06	-5.499375e-09	-5.625393e+01	-3.597426e+02
1.300000e-07	-7.974729e-06	-5.444584e-09	-5.611802e+01	-3.595854e+02
1.400000e-07	-7.954605e-06	-5.382074e-09	-5.597641e+01	-3.593875e+02
1.500000e-07	-7.933438e-06	-5.513522e-09	-5.582746e+01	-3.591404e+02
1.600000e-07	-7.910935e-06	-5.505909e-09	-5.566910e+01	-3.588365e+02
1.700000e-07	-7.887256e-06	-5.418564e-09	-5.550247e+01	-3.584700e+02
1.800000e-07	-7.862004e-06	-5.466725e-09	-5.532478e+01	-3.580371e+02
1.900000e-07	-7.834977e-06	-5.380912e-09	-5.513459e+01	-3.575359e+02
2.000000e-07	-7.806815e-06	-5.418751e-09	-5.493641e+01	-3.569671e+02
2.100000e-07	-7.777504e-06	-5.531080e-09	-5.473015e+01	-3.563333e+02
2.200000e-07	-7.746737e-06	-5.383353e-09	-5.451364e+01	-3.556390e+02
2.300000e-07	-7.714619e-06	-5.318456e-09	-5.428763e+01	-3.548907e+02
2.400000e-07	-7.681026e-06	-5.409462e-09	-5.405124e+01	-3.540956e+02
2.500000e-07	-7.645990e-06	-5.410525e-09	-5.380469e+01	-3.532620e+02
2.600000e-07	-7.609681e-06	-5.406092e-09	-5.354918e+01	-3.523979e+02
2.700000e-07	-7.571910e-06	-5.325186e-09	-5.328339e+01	-3.515112e+02
2.800000e-07	-7.532788e-06	-5.294700e-09	-5.300809e+01	-3.506088e+02
2.900000e-07	-7.492502e-06	-5.350094e-09	-5.272459e+01	-3.496961e+02
3.000000e-07	-7.450829e-06	-5.355444e-09	-5.243134e+01	-3.487770e+02
3.100000e-07	-7.407587e-06	-5.334268e-09	-5.212705e+01	-3.478533e+02
3.200000e-07	-7.362895e-06	-5.275684e-09	-5.181256e+01	-3.469249e+02
3.300000e-07	-7.316872e-06	-5.252183e-09	-5.148869e+01	-3.459899e+02
3.400000e-07	-7.269690e-06	-5.258094e-09	-5.115667e+01	-3.450446e+02
3.500000e-07	-7.221238e-06	-5.274771e-09	-5.081572e+01	-3.440839e+02
3.600000e-07	-7.171036e-06	-5.272730e-09	-5.046245e+01	-3.431017e+02
3.700000e-07	-7.119045e-06	-5.190726e-09	-5.009659e+01	-3.420915e+02
3.800000e-07	-7.065692e-06	-5.156833e-09	-4.972114e+01	-3.410466e+02
3.900000e-07	-7.011193e-06	-5.186509e-09	-4.933763e+01	-3.399607e+02
4.000000e-07	-6.955573e-06	-5.198589e-09	-4.894624e+01	-3.388285e+02
4.100000e-07	-6.898721e-06	-5.161259e-09	-4.854617e+01	-3.376458e+02
4.200000e-07	-6.840439e-06	-5.086147e-09	-4.813604e+01	-3.364096e+02
4.300000e-07	-6.780838e-06	-5.078116e-09	-4.771663e+01	-3.351189e+02
4.400000e-07	-6.720111e-06	-5.106807e-09	-4.728930e+01	-3.337739e+02
4.500000e-07	-6.658259e-06	-5.100018e-09	-4.685405e+01	-3.323763e+02
4.600000e-07	-6.595299e-06	-5.039696e-09	-4.641099e+01	-3.309291e+02
4.700000e-07	-6.531331e-06	-4.983446e-09	-4.596086e+01	-3.294363e+02
4.800000e-07	-6.466165e-06	-4.988333e-09	-4.550228e+01	-3.279023e+02
4.900000e-07	-6.399569e-06	-5.007756e-09	-4.503365e+01	-3.263315e+02
5.000000e-07	-6.331746e-06	-4.984338e-09	-4.455638e+01	-3.247283e+02
5.100000e-07	-6.262943e-06	-4.912729e-09	-4.407221e+01	-3.230963e+02
5.200000e-07	-6.193116e-06	-4.868749e-09	-4.358084e+01	-3.214382e+02
5.300000e-07	-6.122202e-06	-4.881727e-09	-4.308182e+01	-3.197555e+02
5.400000e-07	-6.050330e-06	-4.891490e-09	-4.257606e+01	-3.180483e+02
5.500000e-07	-5.977386e-06	-4.847830e-09	-4.206275e+01	-3.163154e+02
5.600000e-07	-5.903071e-06	-4.784303e-09	-4.153980e+01	-3.145544e+02
5.700000e-07	-5.827394e-06	-4.754829e-09	-4.100726e+01	-3.127616e+02
5.800000e-07	-5.750509e-06	-4.752093e-09	-4.046623e+01	-3.109328e+02
5.900000e-07	-5.672487e-06	-4.736961e-09	-3.991719e+01	-3.090630e+02
6.000000e-07	-5.593305e-06	-4.690851e-09	-3.935999e+01	-3.071473e+02
6.100000e-07	-5.512944e-06	-4.639162e-09	-3.879449e+01	-3.051807e+02
6.200000e-07	-5.431553e-06	-4.608354e-09	-3.822174e+01	-3.031592e+02
6.300000e-07	-5.349276e-06	-4.597039e-09	-3.764275e+01	-3.010791e+02
6.400000e-07	-5.266205e-06	-4.575101e-09	-3.705819e+01	-2.989381e+02
6.500000e-07	-5.182362e-06	-4.532684e-09	-3.646819e+01	-2.967350e+02
6.600000e-07	-5.097755e-06	-4.488204e-09	-3.587281e+01	-2.944696e+02
6.700000e-07	-5.012322e-06	-4.451523e-09	-3.527161e+01	-2.921429e+02
6.800000e-07	-4.926043e-06	-4.427353e-09	-3.466448e+01	-2.897569e+02
6.900000e-07	-4.839018e-06	-4.398619e-09	-3.405208e+01	-2.873141e+02
7.000000e-07	-4.751159e-06	-4.357737e-09	-3.343382e+01	-2.848174e+02
7.100000e-07	-4.662426e-06	-4.311251e-09	-3.280941e+01	-2.822700e+02
7.200000e-07	-4.572768e-06	-4.268159e-09	-3.217849e+01	-2.796743e+02
7.300000e-07	-4.482141e-06	-4.237652e-09	-3.154074e+01	-2.770327e+02
7.400000e-07	-4.390641e-06	-4.205284e-09	-3.089686e+01	-2.743463e+02
7.500000e-07	-4.298419e-06	-4.160289e-09	-3.024789e+01	-2.716154e+02
7.600000e-07	-4.205557e-06	-4.106090e-09	-2.959443e+01	-2.688390e+02
7.700000e-07	-4.112040e-06	-4.055775e-09	-2.893635e+01	-2.660153e+02
7.800000e-07	-4.017846e-06	-4.023800e-09	-2.827351e+01	-2.631409e+02
7.900000e-07	-3.922950e-06	-3.992966e-09	-2.760572e+01	-2.602121e+02
8.000000e-07	-3.827291e-06	-3.941167e-09	-2.693258e+01	-2.572243e+02
8.100000e-07	-3.730884e-06	-3.874523e-09	-2.625416e+01	-2.541724e+02
8.200000e-07	-3.633841e-06	-3.820185e-09	-2.557127e+01	-2.510517e+02
8.300000e-07	-3.536144e-06	-3.790044e-09	-2.488378e+01	-2.478574e+02
8.400000e-07	-3.437713e-06	-3.752093e-09	-2.419112e+01	-2.445855e+02
8.500000e-07	-3.338551e-06	-3.685674e-09	-2.349332e+01	-2.412328e+02
8.600000e-07	-3.238666e-06	-3.612717e-09	-2.279043e+01	-2.377971e+02
8.700000e-07	-3.138267e-06	-3.564710e-09	-2.208393e+01	-2.342773e+02
8.800000e-07	-3.037487e-06	-3.533533e-09	-2.137474e+01	-2.306734e+02
8.900000e-07	-2.936241e-06	-3.478017e-09	-2.066227e+01	-2.269862e+02
9.000000e-07	-2.834503e-06	-3.394576e-09	-1.994634e+01	-2.232175e+02
9.100000e-07	-2.732228e-06	-3.321668e-09	-1.922664e+01	-2.193694e+02
9.200000e-07	-2.629483e-06	-3.278453e-09	-1.850362e+01	-2.154445e+02
9.300000e-07	-2.526328e-06	-3.236720e-09	-1.777772e+01	-2.114451e+02
9.400000e-07	-2.422692e-06	-3.165363e-09	-1.704844e+01	-2.073731e+02
9.500000e-07	-2.318579e-06	-3.079858e-09	-1.631580e+01	-2.032298e+02
9.600000e-07	-2.214051e-06	-3.015458e-09	-1.558024e+01	-1.990155e+02
9.700000e-07	-2.109182e-06	-2.969051e-09	-1.484228e+01	-1.947294e+02
9.800000e-07	-2.003992e-06	-2.908120e-09	-1.410205e+01	-1.903696e+02
9.900000e-07	-1.898389e-06	-2.823941e-09	-1.335893e+01	-1.859331e+02
1.000000e-06	-1.792368e-06	-2.742721e-09	-1.261286e+01	-1.814159e+02
1.010000e-06	-1.685958e-06	-2.679959e-09	-1.186405e+01	-1.768131e+02
1.020000e-06	-1.579251e-06	-2.617602e-09	-1.111316e+01	-1.721196e+02
1.030000e-06	-1.472245e-06	-2.538103e-09	-1.036016e+01	-1.673298e+02
1.040000e-06	-1.364883e-06	-2.450019e-09	-9.604657e+00	-1.624386e+02
1.050000e-06	-1.257238e-06	-2.371635e-09	-8.847157e+00	-1.574410e+02
1.060000e-06	-1.149389e-06	-2.303076e-09	-8.088230e+00	-1.523332e+02
1.070000e-06	-1.041362e-06	-2.228939e-09	-7.328047e+00	-1.471122e+02
1.080000e-06	-9.331418e-07	-2.143793e-09	-6.566502e+00	-1.417760e+02
1.090000e-06	-8.247815e-07	-2.055817e-09	-5.803972e+00	-1.363240e+02
1.100000e-06	-7.163245e-07	-1.970965e-09	-5.040762e+00	-1.307566e+02
1.110000e-06	-6.077764e-07	-1.889718e-09	-4.276911e+00	-1.250751e+02
1.120000e-06	-4.991610e-07	-1.805559e-09	-3.512587e+00	-1.192814e+02
1.130000e-06	-3.905030e-07	-1.715594e-09	-2.747962e+00	-1.133778e+02
1.140000e-06	-2.817989e-07	-1.621426e-09	-1.983013e+00	-1.073662e+02
1.150000e-06	-1.730397e-07	-1.529765e-09	-1.217677e+00	-1.012483e+02
1.160000e-06	-6.426085e-08	-1.439965e-09	-4.522024e-01	-9.502467e+01
1.170000e-06	4.453014e-08	-1.345193e-09	3.133578e-01	-8.869477e+01
1.180000e-06	1.533620e-07	-1.243645e-09	1.079206e+00	-8.225654e+01
1.190000e-06	2.622103e-07	-1.138635e-09	1.845169e+00	-7.570633e+01
1.200000e-06	3.710058e-07	-1.036313e-09	2.610761e+00	-6.903892e+01
1.210000e-06	4.796916e-07	-9.345779e-10	3.375581e+00	-6.224770e+01
1.220000e-06	5.883241e-07	-8.310342e-10	4.140026e+00	-5.532495e+01
1.230000e-06	6.968919e-07	-7.245469e-10	4.904015e+00	-4.826229e+01
1.240000e-06	8.053385e-07	-6.149877e-10	5.667152e+00	-4.105131e+01
1.250000e-06	9.136661e-07	-5.030893e-10	6.429452e+00	-3.368414e+01
1.260000e-06	1.021829e-06	-3.885908e-10	7.190590e+00	-2.615421e+01
1.270000e-06	1.129796e-06	-2.698625e-10	7.950354e+00	-1.845692e+01
1.280000e-06	1.237580e-06	-1.465612e-10	8.708828e+00	-1.059037e+01
1.290000e-06	1.345178e-06	-2.255694e-11	9.465989e+00	-2.555885e+00
1.300000e-06	1.452500e-06	1.023066e-10	1.022122e+01	5.641459e+00
1.310000e-06	1.559443e-06	2.288132e-10	1.097377e+01	1.399254e+01
1.320000e-06	1.665981e-06	3.572192e-10	1.172348e+01	2.248405e+01
1.330000e-06	1.772190e-06	4.881146e-10	1.247087e+01	3.109854e+01
1.340000e-06	1.878074e-06	6.211496e-10	1.321597e+01	3.981468e+01
1.350000e-06	1.983574e-06	7.557381e-10	1.395837e+01	4.860768e+01
1.360000e-06	2.088719e-06	8.894322e-10	1.469828e+01	5.744991e+01
1.370000e-06	2.193538e-06	1.022739e-09	1.543589e+01	6.631162e+01
1.380000e-06	2.297898e-06	1.158524e-09	1.617027e+01	7.516180e+01
1.390000e-06	2.401753e-06	1.296413e-09	1.690109e+01	8.396907e+01
1.400000e-06	2.505154e-06	1.430252e-09	1.762872e+01	9.270257e+01
1.410000e-06	2.608031e-06	1.560450e-09	1.835266e+01	1.013328e+02
1.420000e-06	2.710451e-06	1.691270e-09	1.907339e+01	1.098325e+02
1.430000e-06	2.812450e-06	1.821195e-09	1.979116e+01	1.181773e+02
1.440000e-06	2.914005e-06	1.946717e-09	2.050580e+01	1.263461e+02
1.450000e-06	3.015069e-06	2.066379e-09	2.121698e+01	1.343215e+02
1.460000e-06	3.115645e-06	2.184792e-09	2.192473e+01	1.420902e+02
1.470000e-06	3.215797e-06	2.303431e-09	2.262950e+01	1.496426e+02
1.480000e-06	3.315427e-06	2.416270e-09	2.333060e+01	1.569732e+02
1.490000e-06	3.414389e-06	2.522265e-09	2.402699e+01	1.640796e+02
1.500000e-06	3.512642e-06	2.624955e-09	2.471840e+01	1.709628e+02
1.510000e-06	3.610162e-06	2.726388e-09	2.540464e+01	1.776261e+02
1.520000e-06	3.706919e-06	2.824655e-09	2.608552e+01	1.840750e+02
1.530000e-06	3.802945e-06	2.918090e-09	2.676126e+01	1.903163e+02
1.540000e-06	3.898262e-06	3.007880e-09	2.743200e+01	1.963581e+02
1.550000e-06	3.992902e-06	3.095975e-09	2.809798e+01	2.022084e+02
1.560000e-06	4.086932e-06	3.182913e-09	2.875966e+01	2.078757e+02
1.570000e-06	4.180338e-06	3.267785e-09	2.941696e+01	2.133681e+02
1.580000e-06	4.273073e-06	3.351248e-09	3.006954e+01	2.186928e+02
1.590000e-06	4.365106e-06	3.431407e-09	3.071717e+01	2.238569e+02
1.600000e-06	4.456438e-06	3.507967e-09	3.135987e+01	2.288663e+02
1.610000e-06	4.546854e-06	3.582543e-09	3.199612e+01	2.337263e+02
1.620000e-06	4.636259e-06	3.654500e-09	3.262527e+01	2.384418e+02
1.630000e-06	4.724761e-06	3.723074e-09	3.324805e+01	2.430170e+02
1.640000e-06	4.812387e-06	3.788002e-09	3.386468e+01	2.474558e+02
1.650000e-06	4.899234e-06	3.850397e-09	3.447582e+01	2.517619e+02
1.660000e-06	4.985257e-06	3.913672e-09	3.508116e+01	2.559389e+02
1.670000e-06	5.070412e-06	3.976675e-09	3.568040e+01	2.599904e+02
1.680000e-06	5.154802e-06	4.036102e-09	3.627425e+01	2.639201e+02
1.690000e-06	5.238465e-06	4.092638e-09	3.686298e+01	2.677319e+02
1.700000e-06	5.321229e-06	4.148160e-09	3.744539e+01	2.714297e+02
1.710000e-06	5.403005e-06	4.205095e-09	3.802085e+01	2.750173e+02
1.720000e-06	5.483796e-06	4.258695e-09	3.858937e+01	2.784986e+02
1.730000e-06	5.563554e-06	4.306610e-09	3.915062e+01	2.818772e+02
1.740000e-06	5.642286e-06	4.352310e-09	3.970466e+01	2.851566e+02
1.750000e-06	5.720020e-06	4.399732e-09	4.025167e+01	2.883398e+02
1.760000e-06	5.796742e-06	4.448460e-09	4.079157e+01	2.914293e+02
1.770000e-06	5.872469e-06	4.492985e-09	4.132445e+01	2.944273e+02
1.780000e-06	5.947014e-06	4.534302e-09	4.184903e+01	2.973356e+02
1.790000e-06	6.020194e-06	4.575498e-09	4.236399e+01	3.001554e+02
1.800000e-06	6.092150e-06	4.616280e-09	4.287035e+01	3.028877e+02
1.810000e-06	6.163059e-06	4.655219e-09	4.336933e+01	3.055332e+02
1.820000e-06	6.232944e-06	4.689643e-09	4.386111e+01	3.080926e+02
1.830000e-06	6.301810e-06	4.723165e-09	4.434572e+01	3.105665e+02
1.840000e-06	6.369731e-06	4.758269e-09	4.482368e+01	3.129558e+02
1.850000e-06	6.436525e-06	4.793362e-09	4.529370e+01	3.152616e+02
1.860000e-06	6.501991e-06	4.825828e-09	4.575439e+01	3.174853e+02
1.870000e-06	6.566196e-06	4.855162e-09	4.620620e+01	3.196290e+02
1.880000e-06	6.629267e-06	4.886213e-09	4.665003e+01	3.216948e+02
1.890000e-06	6.691254e-06	4.916144e-09	4.708623e+01	3.236855e+02
1.900000e-06	6.752144e-06	4.943749e-09	4.751471e+01	3.256039e+02
1.910000e-06	6.812050e-06	4.969231e-09	4.793627e+01	3.274532e+02
1.920000e-06	6.870786e-06	4.994080e-09	4.834959e+01	3.292366e+02
1.930000e-06	6.928029e-06	5.019179e-09	4.875241e+01	3.309571e+02
1.940000e-06	6.983909e-06	5.043969e-09	4.914564e+01	3.326175e+02
1.950000e-06	7.038623e-06	5.068250e-09	4.953066e+01	3.342201e+02
1.960000e-06	7.092187e-06	5.091182e-09	4.990759e+01	3.357670e+02
1.970000e-06	7.144435e-06	5.113251e-09	5.027526e+01	3.372594e+02
1.980000e-06	7.195041e-06	5.136545e-09	5.063137e+01	3.386984e+02
1.990000e-06	7.243988e-06	5.158899e-09	5.097581e+01	3.400841e+02
2.000000e-06	7.291556e-06	5.179793e-09	5.131054e+01	3.414166e+02
2.010000e-06	7.337870e-06	5.200815e-09	5.163645e+01	3.426955e+02
2.020000e-06	7.382918e-06	5.219055e-09	5.195346e+01	3.439205e+02
2.030000e-06	7.426811e-06	5.235541e-09	5.226233e+01	3.450911e+02
2.040000e-06	7.469395e-06	5.251064e-09	5.256200e+01	3.462073e+02
2.050000e-06	7.510452e-06	5.265885e-09	5.285091e+01	3.472694e+02
2.060000e-06	7.550196e-06	5.282153e-09	5.313059e+01	3.482782e+02
2.070000e-06	7.588723e-06	5.298721e-09	5.340171e+01	3.492353e+02
2.080000e-06	7.625979e-06	5.314115e-09	5.366388e+01	3.501426e+02
2.090000e-06	7.662060e-06	5.329244e-09	5.391778e+01	3.510031e+02
2.100000e-06	7.696782e-06	5.345355e-09	5.416212e+01	3.518198e+02
2.110000e-06	7.729926e-06	5.359437e-09	5.439534e+01	3.525966e+02
2.120000e-06	7.761670e-06	5.369648e-09	5.461872e+01	3.533370e+02
2.130000e-06	7.792155e-06	5.379859e-09	5.483325e+01	3.540448e+02
2.140000e-06	7.821354e-06	5.387978e-09	5.503873e+01	3.547233e+02
2.150000e-06	7.849309e-06	5.394537e-09	5.523544e+01	3.553751e+02
2.160000e-06	7.875802e-06	5.402831e-09	5.542188e+01	3.560023e+02
2.170000e-06	7.900652e-06	5.412622e-09	5.559674e+01	3.566058e+02
2.180000e-06	7.924071e-06	5.424416e-09	5.576154e+01	3.571854e+02
2.190000e-06	7.946165e-06	5.437622e-09	5.591701e+01	3.577399e+02
2.200000e-06	7.966963e-06	5.451149e-09	5.606337e+01	3.582669e+02
2.210000e-06	7.986576e-06	5.460752e-09	5.620139e+01	3.587634e+02
2.220000e-06	8.004790e-06	5.467311e-09	5.632956e+01	3.592254e+02
2.230000e-06	8.021450e-06	5.474293e-09	5.644680e+01	3.596488e+02
2.240000e-06	8.036607e-06	5.479173e-09	5.655345e+01	3.600294e+02
2.250000e-06	8.050245e-06	5.482566e-09	5.664943e+01	3.603632e+02
2.260000e-06	8.062479e-06	5.483786e-09	5.673552e+01	3.606470e+02
2.270000e-06	8.073094e-06	5.486316e-09	5.681021e+01	3.608787e+02
2.280000e-06	8.081939e-06	5.492671e-09	5.687245e+01	3.610575e+02
2.290000e-06	8.089330e-06	5.499583e-09	5.692446e+01	3.611839e+02
2.300000e-06	8.095436e-06	5.504715e-09	5.696743e+01	3.612601e+02
2.310000e-06	8.100221e-06	5.508592e-09	5.700110e+01	3.612899e+02
2.320000e-06	8.103734e-06	5.512430e-09	5.702583e+01	3.612784e+02
2.330000e-06	8.105677e-06	5.514888e-09	5.703950e+01	3.612321e+02
2.340000e-06	8.105961e-06	5.516231e-09	5.704150e+01	3.611579e+02
2.350000e-06	8.104939e-06	5.514804e-09	5.703431e+01	3.610635e+02
2.360000e-06	8.102686e-06	5.509803e-09	5.701845e+01	3.609564e+02
2.370000e-06	8.099237e-06	5.511024e-09	5.699418e+01	3.608435e+02
2.380000e-06	8.094561e-06	5.511995e-09	5.696128e+01	3.607307e+02
2.390000e-06	8.088296e-06	5.509829e-09	5.691719e+01	3.606225e+02
2.400000e-06	8.080539e-06	5.509198e-09	5.686260e+01	3.605215e+02
2.410000e-06	8.071614e-06	5.513216e-09	5.679980e+01	3.604284e+02
2.420000e-06	8.061479e-06	5.544205e-09	5.672848e+01	3.603417e+02
2.430000e-06	8.049978e-06	5.486961e-09	5.664755e+01	3.602578e+02
2.440000e-06	8.036499e-06	5.425053e-09	5.655269e+01	3.601713e+02
2.450000e-06	8.020730e-06	5.431026e-09	5.644173e+01	3.600749e+02
2.460000e-06	8.003109e-06	5.433904e-09	5.631773e+01	3.599604e+02
2.470000e-06	7.984250e-06	5.560969e-09	5.618502e+01	3.598185e+02
2.480000e-06	7.964696e-06	5.552088e-09	5.604742e+01	3.596400e+02
2.490000e-06	7.944248e-06	5.406236e-09	5.590352e+01	3.594160e+02
2.500000e-06	7.922005e-06	5.543526e-09	5.574700e+01	3.591384e+02
2.510000e-06	7.898216e-06	5.546359e-09	5.557960e+01	3.588006e+02
2.520000e-06	7.873383e-06	5.524723e-09	5.540485e+01	3.583979e+02
2.530000e-06	7.847079e-06	5.656212e-09	5.521975e+01	3.579275e+02
2.540000e-06	7.819379e-06	5.449691e-09	5.502482e+01	3.573889e+02
2.550000e-06	7.790311e-06	5.374751e-09	5.482028e+01	3.567838e+02
2.560000e-06	7.759647e-06	5.529722e-09	5.460449e+01	3.561160e+02
2.570000e-06	7.727661e-06	5.400715e-09	5.437941e+01	3.553911e+02
2.580000e-06	7.694281e-06	5.357164e-09	5.414452e+01	3.546161e+02
2.590000e-06	7.659501e-06	5.343186e-09	5.389977e+01	3.537987e+02
2.600000e-06	7.623674e-06	5.294782e-09	5.364765e+01	3.529473e+02
2.610000e-06	7.586448e-06	5.441420e-09	5.338569e+01	3.520699e+02
2.620000e-06	7.547559e-06	5.374134e-09	5.311203e+01	3.511737e+02
2.630000e-06	7.507212e-06	5.364575e-09	5.282811e+01	3.502651e+02
2.640000e-06	7.465616e-06	5.373485e-09	5.253540e+01	3.493484e+02
2.650000e-06	7.422872e-06	5.252542e-09	5.223461e+01	3.484266e+02
2.660000e-06	7.378988e-06	5.326541e-09	5.192580e+01	3.475005e+02
2.670000e-06	7.333924e-06	5.330744e-09	5.160869e+01	3.465688e+02
2.680000e-06	7.287412e-06	5.309375e-09	5.128138e+01	3.456286e+02
2.690000e-06	7.239418e-06	5.227913e-09	5.094365e+01	3.446755e+02
2.700000e-06	7.190080e-06	5.154279e-09	5.059646e+01	3.437038e+02
2.710000e-06	7.139452e-06	5.298661e-09	5.024019e+01	3.427070e+02
2.720000e-06	7.087498e-06	5.268789e-09	4.987460e+01	3.416784e+02
2.730000e-06	7.033986e-06	5.192639e-09	4.949803e+01	3.406117e+02
2.740000e-06	6.978898e-06	5.124229e-09	4.911037e+01	3.395009e+02
2.750000e-06	6.922556e-06	5.122342e-09	4.871390e+01	3.383413e+02
2.760000e-06	6.865014e-06	5.211687e-09	4.830898e+01	3.371294e+02
2.770000e-06	6.806251e-06	5.137575e-09	4.789547e+01	3.358632e+02
2.780000e-06	6.746404e-06	5.078453e-09	4.747432e+01	3.345424e+02
2.790000e-06	6.685464e-06	5.031797e-09	4.704548e+01	3.331682e+02
2.800000e-06	6.623184e-06	5.057189e-09	4.660722e+01	3.317429e+02
2.810000e-06	6.559505e-06	5.089664e-09	4.615912e+01	3.302700e+02
2.820000e-06	6.494682e-06	5.026551e-09	4.570295e+01	3.287539e+02
2.830000e-06	6.428772e-06	4.965718e-09	4.523915e+01	3.271991e+02
2.840000e-06	6.361792e-06	4.925069e-09	4.476781e+01	3.256099e+02
2.850000e-06	6.293710e-06	4.967289e-09	4.428872e+01	3.239905e+02
2.860000e-06	6.224496e-06	4.956265e-09	4.380166e+01	3.223439e+02
2.870000e-06	6.153989e-06	4.891839e-09	4.330551e+01	3.206721e+02
2.880000e-06	6.082184e-06	4.833356e-09	4.280022e+01	3.189759e+02
2.890000e-06	6.009352e-06	4.819912e-09	4.228770e+01	3.172548e+02
2.900000e-06	5.935508e-06	4.837562e-09	4.176806e+01	3.155067e+02
2.910000e-06	5.860614e-06	4.807950e-09	4.124103e+01	3.137287e+02
2.920000e-06	5.784593e-06	4.761380e-09	4.070608e+01	3.119167e+02
2.930000e-06	5.707280e-06	4.703358e-09	4.016202e+01	3.100659e+02
2.940000e-06	5.628715e-06	4.689127e-09	3.960916e+01	3.081714e+02
2.950000e-06	5.549056e-06	4.686858e-09	3.904860e+01	3.062283e+02
