# Temperatura_=_20.0
# Concentracion g/m^3_=_12600.0
# C_Vs_to_Am_M_A/Vsm_=_65563218390.804596
# pendiente_HvsI_1/m_=_3716.3
# ordenada_HvsI_A/m_=_1297.0
# frecuencia_Hz_=_213245.4102953197

Tiempo_(s)	Campo_(V.s)	Magnetizacion_(V.s)	Campo_(kA/m)	Magnetizacion_(A/m)
0.000000e+00	-8.083017e-06	-5.350019e-09	-5.702474e+01	-3.502144e+02
1.000000e-08	-8.082097e-06	-5.351157e-09	-5.701826e+01	-3.500571e+02
2.000000e-08	-8.079502e-06	-5.352602e-09	-5.699995e+01	-3.498935e+02
3.000000e-08	-8.075546e-06	-5.350136e-09	-5.697204e+01	-3.497357e+02
4.000000e-08	-8.070455e-06	-5.347087e-09	-5.693612e+01	-3.495943e+02
5.000000e-08	-8.064091e-06	-5.342146e-09	-5.689123e+01	-3.494781e+02
6.000000e-08	-8.056526e-06	-5.334683e-09	-5.683785e+01	-3.493931e+02
7.000000e-08	-8.047602e-06	-5.324105e-09	-5.677490e+01	-3.493421e+02
8.000000e-08	-8.036980e-06	-5.294631e-09	-5.669996e+01	-3.493243e+02
9.000000e-08	-8.024632e-06	-5.329114e-09	-5.661285e+01	-3.493353e+02
1.000000e-07	-8.010380e-06	-5.386629e-09	-5.651230e+01	-3.493670e+02
1.100000e-07	-7.994114e-06	-5.366134e-09	-5.639755e+01	-3.494084e+02
1.200000e-07	-7.976201e-06	-5.343383e-09	-5.627117e+01	-3.494455e+02
1.300000e-07	-7.957069e-06	-5.269691e-09	-5.613620e+01	-3.494628e+02
1.400000e-07	-7.937053e-06	-5.200212e-09	-5.599499e+01	-3.494436e+02
1.500000e-07	-7.915998e-06	-5.387101e-09	-5.584644e+01	-3.493713e+02
1.600000e-07	-7.893709e-06	-5.372926e-09	-5.568920e+01	-3.492303e+02
1.700000e-07	-7.870334e-06	-5.240401e-09	-5.552429e+01	-3.490067e+02
1.800000e-07	-7.845394e-06	-5.312240e-09	-5.534834e+01	-3.486895e+02
1.900000e-07	-7.818658e-06	-5.198739e-09	-5.515973e+01	-3.482710e+02
2.000000e-07	-7.790744e-06	-5.246554e-09	-5.496279e+01	-3.477474e+02
2.100000e-07	-7.761659e-06	-5.421037e-09	-5.475760e+01	-3.471190e+02
2.200000e-07	-7.731154e-06	-5.222108e-09	-5.454239e+01	-3.463898e+02
2.300000e-07	-7.699341e-06	-5.118650e-09	-5.431796e+01	-3.455677e+02
2.400000e-07	-7.666073e-06	-5.257918e-09	-5.408326e+01	-3.446637e+02
2.500000e-07	-7.631325e-06	-5.278957e-09	-5.383811e+01	-3.436915e+02
2.600000e-07	-7.595264e-06	-5.266049e-09	-5.358371e+01	-3.426660e+02
2.700000e-07	-7.557798e-06	-5.169827e-09	-5.331939e+01	-3.416030e+02
2.800000e-07	-7.519014e-06	-5.116713e-09	-5.304577e+01	-3.405180e+02
2.900000e-07	-7.479118e-06	-5.185019e-09	-5.276431e+01	-3.394252e+02
3.000000e-07	-7.437817e-06	-5.217667e-09	-5.247294e+01	-3.383368e+02
3.100000e-07	-7.394910e-06	-5.180312e-09	-5.217023e+01	-3.372621e+02
3.200000e-07	-7.350615e-06	-5.110572e-09	-5.185774e+01	-3.362075e+02
3.300000e-07	-7.304951e-06	-5.105802e-09	-5.153558e+01	-3.351757e+02
3.400000e-07	-7.257948e-06	-5.101432e-09	-5.120398e+01	-3.341660e+02
3.500000e-07	-7.209695e-06	-5.114694e-09	-5.086356e+01	-3.331745e+02
3.600000e-07	-7.159863e-06	-5.133596e-09	-5.051201e+01	-3.321943e+02
3.700000e-07	-7.108263e-06	-5.039547e-09	-5.014797e+01	-3.312163e+02
3.800000e-07	-7.055240e-06	-4.985452e-09	-4.977390e+01	-3.302300e+02
3.900000e-07	-7.001028e-06	-5.026981e-09	-4.939144e+01	-3.292239e+02
4.000000e-07	-6.945734e-06	-5.062115e-09	-4.900134e+01	-3.281867e+02
4.100000e-07	-6.889277e-06	-5.026506e-09	-4.860305e+01	-3.271079e+02
4.200000e-07	-6.831415e-06	-4.929590e-09	-4.819484e+01	-3.259784e+02
4.300000e-07	-6.772221e-06	-4.903715e-09	-4.777723e+01	-3.247911e+02
4.400000e-07	-6.711856e-06	-4.954496e-09	-4.735136e+01	-3.235415e+02
4.500000e-07	-6.650355e-06	-4.979734e-09	-4.691748e+01	-3.222275e+02
4.600000e-07	-6.587720e-06	-4.904947e-09	-4.647560e+01	-3.208493e+02
4.700000e-07	-6.524071e-06	-4.811261e-09	-4.602656e+01	-3.194097e+02
4.800000e-07	-6.459331e-06	-4.811133e-09	-4.556983e+01	-3.179134e+02
4.900000e-07	-6.393154e-06	-4.863541e-09	-4.510296e+01	-3.163664e+02
5.000000e-07	-6.325622e-06	-4.859738e-09	-4.462653e+01	-3.147757e+02
5.100000e-07	-6.257081e-06	-4.765373e-09	-4.414298e+01	-3.131483e+02
5.200000e-07	-6.187536e-06	-4.695423e-09	-4.365234e+01	-3.114912e+02
5.300000e-07	-6.116890e-06	-4.723079e-09	-4.315395e+01	-3.098101e+02
5.400000e-07	-6.045252e-06	-4.763848e-09	-4.264855e+01	-3.081093e+02
5.500000e-07	-5.972579e-06	-4.717995e-09	-4.213585e+01	-3.063914e+02
5.600000e-07	-5.898580e-06	-4.629769e-09	-4.161380e+01	-3.046573e+02
5.700000e-07	-5.823224e-06	-4.596023e-09	-4.108217e+01	-3.029056e+02
5.800000e-07	-5.746778e-06	-4.611487e-09	-4.054285e+01	-3.011332e+02
5.900000e-07	-5.669270e-06	-4.609885e-09	-3.999604e+01	-2.993355e+02
6.000000e-07	-5.590572e-06	-4.556897e-09	-3.944084e+01	-2.975068e+02
6.100000e-07	-5.510673e-06	-4.492660e-09	-3.887716e+01	-2.956404e+02
6.200000e-07	-5.429684e-06	-4.461381e-09	-3.830579e+01	-2.937298e+02
6.300000e-07	-5.347748e-06	-4.460787e-09	-3.772774e+01	-2.917684e+02
6.400000e-07	-5.264954e-06	-4.448506e-09	-3.714364e+01	-2.897505e+02
6.500000e-07	-5.181383e-06	-4.401715e-09	-3.655405e+01	-2.876715e+02
6.600000e-07	-5.097051e-06	-4.343609e-09	-3.595911e+01	-2.855283e+02
6.700000e-07	-5.011934e-06	-4.304668e-09	-3.535861e+01	-2.833192e+02
6.800000e-07	-4.926007e-06	-4.295126e-09	-3.475241e+01	-2.810440e+02
6.900000e-07	-4.839217e-06	-4.279429e-09	-3.414011e+01	-2.787040e+02
7.000000e-07	-4.751605e-06	-4.229082e-09	-3.352202e+01	-2.763017e+02
7.100000e-07	-4.663196e-06	-4.165270e-09	-3.289831e+01	-2.738404e+02
7.200000e-07	-4.573931e-06	-4.126976e-09	-3.226855e+01	-2.713238e+02
7.300000e-07	-4.483778e-06	-4.118547e-09	-3.163254e+01	-2.687558e+02
7.400000e-07	-4.392784e-06	-4.093965e-09	-3.099058e+01	-2.661399e+02
7.500000e-07	-4.300977e-06	-4.029175e-09	-3.034290e+01	-2.634789e+02
7.600000e-07	-4.208401e-06	-3.960458e-09	-2.968978e+01	-2.607743e+02
7.700000e-07	-4.115135e-06	-3.925147e-09	-2.903180e+01	-2.580266e+02
7.800000e-07	-4.021227e-06	-3.913462e-09	-2.836929e+01	-2.552350e+02
7.900000e-07	-3.926696e-06	-3.878104e-09	-2.770239e+01	-2.523973e+02
8.000000e-07	-3.831462e-06	-3.806285e-09	-2.703052e+01	-2.495101e+02
8.100000e-07	-3.735479e-06	-3.740732e-09	-2.635337e+01	-2.465692e+02
8.200000e-07	-3.638817e-06	-3.709734e-09	-2.567143e+01	-2.435695e+02
8.300000e-07	-3.541572e-06	-3.690385e-09	-2.498538e+01	-2.405059e+02
8.400000e-07	-3.443723e-06	-3.639962e-09	-2.429507e+01	-2.373732e+02
8.500000e-07	-3.345077e-06	-3.560450e-09	-2.359913e+01	-2.341668e+02
8.600000e-07	-3.245571e-06	-3.496653e-09	-2.289713e+01	-2.308827e+02
8.700000e-07	-3.145472e-06	-3.465755e-09	-2.219094e+01	-2.275181e+02
8.800000e-07	-3.044955e-06	-3.435524e-09	-2.148181e+01	-2.240710e+02
8.900000e-07	-2.944072e-06	-3.370382e-09	-2.077008e+01	-2.205408e+02
9.000000e-07	-2.842673e-06	-3.287375e-09	-2.005473e+01	-2.169279e+02
9.100000e-07	-2.740718e-06	-3.228990e-09	-1.933545e+01	-2.132337e+02
9.200000e-07	-2.638291e-06	-3.196074e-09	-1.861283e+01	-2.094600e+02
9.300000e-07	-2.535409e-06	-3.150899e-09	-1.788701e+01	-2.056092e+02
9.400000e-07	-2.432119e-06	-3.074253e-09	-1.715832e+01	-2.016835e+02
9.500000e-07	-2.328284e-06	-2.993566e-09	-1.642577e+01	-1.976848e+02
9.600000e-07	-2.223976e-06	-2.936840e-09	-1.568989e+01	-1.936142e+02
9.700000e-07	-2.119390e-06	-2.893100e-09	-1.495205e+01	-1.894719e+02
9.800000e-07	-2.014527e-06	-2.832160e-09	-1.421225e+01	-1.852570e+02
9.900000e-07	-1.909377e-06	-2.746406e-09	-1.347044e+01	-1.809673e+02
1.000000e-06	-1.803883e-06	-2.664775e-09	-1.272619e+01	-1.765995e+02
1.010000e-06	-1.698008e-06	-2.604711e-09	-1.197925e+01	-1.721493e+02
1.020000e-06	-1.591794e-06	-2.549365e-09	-1.122992e+01	-1.676115e+02
1.030000e-06	-1.485292e-06	-2.479337e-09	-1.047856e+01	-1.629804e+02
1.040000e-06	-1.378442e-06	-2.395758e-09	-9.724745e+00	-1.582503e+02
1.050000e-06	-1.271216e-06	-2.317127e-09	-8.968285e+00	-1.534156e+02
1.060000e-06	-1.163692e-06	-2.249740e-09	-8.209713e+00	-1.484716e+02
1.070000e-06	-1.055946e-06	-2.182934e-09	-7.449578e+00	-1.434143e+02
1.080000e-06	-9.479995e-07	-2.100852e-09	-6.688026e+00	-1.382409e+02
1.090000e-06	-8.398469e-07	-2.006167e-09	-5.925022e+00	-1.329500e+02
1.100000e-06	-7.315649e-07	-1.916055e-09	-5.161105e+00	-1.275414e+02
1.110000e-06	-6.231695e-07	-1.838846e-09	-4.396388e+00	-1.220161e+02
1.120000e-06	-5.147049e-07	-1.764082e-09	-3.631184e+00	-1.163761e+02
1.130000e-06	-4.062080e-07	-1.675817e-09	-2.865750e+00	-1.106239e+02
1.140000e-06	-2.976538e-07	-1.577063e-09	-2.099913e+00	-1.047624e+02
1.150000e-06	-1.890716e-07	-1.485222e-09	-1.333878e+00	-9.879414e+01
1.160000e-06	-8.046200e-08	-1.403949e-09	-5.676500e-01	-9.272083e+01
1.170000e-06	2.814773e-08	-1.317225e-09	1.985790e-01	-8.654317e+01
1.180000e-06	1.367188e-07	-1.214840e-09	9.645354e-01	-8.026033e+01
1.190000e-06	2.452999e-07	-1.105679e-09	1.730562e+00	-7.386977e+01
1.200000e-06	3.539074e-07	-1.005154e-09	2.496776e+00	-6.736717e+01
1.210000e-06	4.624512e-07	-9.119766e-10	3.262539e+00	-6.074647e+01
1.220000e-06	5.709258e-07	-8.125334e-10	4.027815e+00	-5.400019e+01
1.230000e-06	6.793618e-07	-7.007699e-10	4.792819e+00	-4.711977e+01
1.240000e-06	7.877223e-07	-5.877176e-10	5.557289e+00	-4.009624e+01
1.250000e-06	8.959612e-07	-4.845122e-10	6.320902e+00	-3.292081e+01
1.260000e-06	1.004017e-06	-3.830022e-10	7.083223e+00	-2.558573e+01
1.270000e-06	1.111844e-06	-2.697197e-10	7.843927e+00	-1.808506e+01
1.280000e-06	1.219441e-06	-1.429935e-10	8.603016e+00	-1.041542e+01
1.290000e-06	1.326721e-06	-1.635548e-11	9.359862e+00	-2.576802e+00
1.300000e-06	1.433634e-06	1.011791e-10	1.011412e+01	5.426950e+00
1.310000e-06	1.540139e-06	2.178555e-10	1.086550e+01	1.358763e+01
1.320000e-06	1.646211e-06	3.453912e-10	1.161383e+01	2.189250e+01
1.330000e-06	1.751937e-06	4.812855e-10	1.235971e+01	3.032422e+01
1.340000e-06	1.857350e-06	6.127233e-10	1.310339e+01	3.886115e+01
1.350000e-06	1.962497e-06	7.381555e-10	1.384519e+01	4.747774e+01
1.360000e-06	2.067389e-06	8.663032e-10	1.458519e+01	5.614521e+01
1.370000e-06	2.171963e-06	1.000535e-09	1.532295e+01	6.483236e+01
1.380000e-06	2.276115e-06	1.138701e-09	1.605773e+01	7.350652e+01
1.390000e-06	2.379852e-06	1.273583e-09	1.678958e+01	8.213460e+01
1.400000e-06	2.483122e-06	1.402104e-09	1.751814e+01	9.068406e+01
1.410000e-06	2.585911e-06	1.530201e-09	1.824330e+01	9.912401e+01
1.420000e-06	2.688328e-06	1.661946e-09	1.896584e+01	1.074260e+02
1.430000e-06	2.790222e-06	1.793541e-09	1.968469e+01	1.155649e+02
1.440000e-06	2.891526e-06	1.914516e-09	2.039938e+01	1.235195e+02
1.450000e-06	2.992412e-06	2.025246e-09	2.111112e+01	1.312727e+02
1.460000e-06	3.092959e-06	2.135009e-09	2.182046e+01	1.388120e+02
1.470000e-06	3.193067e-06	2.247859e-09	2.252672e+01	1.461290e+02
1.480000e-06	3.292536e-06	2.356884e-09	2.322846e+01	1.532200e+02
1.490000e-06	3.391217e-06	2.457995e-09	2.392464e+01	1.600844e+02
1.500000e-06	3.489067e-06	2.555155e-09	2.461496e+01	1.667253e+02
1.510000e-06	3.586246e-06	2.653330e-09	2.530055e+01	1.731482e+02
1.520000e-06	3.682861e-06	2.752730e-09	2.598216e+01	1.793604e+02
1.530000e-06	3.778827e-06	2.848936e-09	2.665919e+01	1.853706e+02
1.540000e-06	3.874132e-06	2.936480e-09	2.733155e+01	1.911879e+02
1.550000e-06	3.968770e-06	3.018567e-09	2.799921e+01	1.968215e+02
1.560000e-06	4.062678e-06	3.099299e-09	2.866172e+01	2.022801e+02
1.570000e-06	4.155903e-06	3.180412e-09	2.931941e+01	2.075717e+02
1.580000e-06	4.248578e-06	3.259982e-09	2.997323e+01	2.127033e+02
1.590000e-06	4.340601e-06	3.333075e-09	3.062244e+01	2.176808e+02
1.600000e-06	4.431731e-06	3.404686e-09	3.126535e+01	2.225093e+02
1.610000e-06	4.521874e-06	3.478069e-09	3.190129e+01	2.271927e+02
1.620000e-06	4.611146e-06	3.550624e-09	3.253110e+01	2.317348e+02
1.630000e-06	4.699648e-06	3.618856e-09	3.315547e+01	2.361386e+02
1.640000e-06	4.787311e-06	3.682253e-09	3.377392e+01	2.404073e+02
1.650000e-06	4.874068e-06	3.743238e-09	3.438598e+01	2.445439e+02
1.660000e-06	4.959941e-06	3.802172e-09	3.499181e+01	2.485522e+02
1.670000e-06	5.045096e-06	3.859881e-09	3.559257e+01	2.524359e+02
1.680000e-06	5.129568e-06	3.916469e-09	3.618851e+01	2.561997e+02
1.690000e-06	5.213152e-06	3.971055e-09	3.677818e+01	2.598484e+02
1.700000e-06	5.295691e-06	4.024974e-09	3.736048e+01	2.633873e+02
1.710000e-06	5.377228e-06	4.080592e-09	3.793572e+01	2.668218e+02
1.720000e-06	5.457916e-06	4.133972e-09	3.850496e+01	2.701571e+02
1.730000e-06	5.537685e-06	4.182336e-09	3.906772e+01	2.733985e+02
1.740000e-06	5.616380e-06	4.228082e-09	3.962291e+01	2.765504e+02
1.750000e-06	5.694068e-06	4.272829e-09	4.017099e+01	2.796165e+02
1.760000e-06	5.770814e-06	4.318146e-09	4.071242e+01	2.825998e+02
1.770000e-06	5.846476e-06	4.360868e-09	4.124621e+01	2.855023e+02
1.780000e-06	5.920810e-06	4.399663e-09	4.177063e+01	2.883249e+02
1.790000e-06	5.993901e-06	4.437988e-09	4.228627e+01	2.910677e+02
1.800000e-06	6.065961e-06	4.477679e-09	4.279465e+01	2.937301e+02
1.810000e-06	6.136957e-06	4.515445e-09	4.329552e+01	2.963109e+02
1.820000e-06	6.206825e-06	4.550417e-09	4.378843e+01	2.988087e+02
1.830000e-06	6.275691e-06	4.583958e-09	4.427427e+01	3.012221e+02
1.840000e-06	6.343602e-06	4.616208e-09	4.475338e+01	3.035501e+02
1.850000e-06	6.410304e-06	4.648988e-09	4.522395e+01	3.057923e+02
1.860000e-06	6.475701e-06	4.680406e-09	4.568532e+01	3.079489e+02
1.870000e-06	6.539925e-06	4.709034e-09	4.613841e+01	3.100213e+02
1.880000e-06	6.603050e-06	4.736364e-09	4.658375e+01	3.120118e+02
1.890000e-06	6.665069e-06	4.763677e-09	4.702129e+01	3.139235e+02
1.900000e-06	6.726037e-06	4.791974e-09	4.745141e+01	3.157607e+02
1.910000e-06	6.785967e-06	4.818926e-09	4.787421e+01	3.175279e+02
1.920000e-06	6.844604e-06	4.844984e-09	4.828789e+01	3.192302e+02
1.930000e-06	6.901842e-06	4.869695e-09	4.869170e+01	3.208729e+02
1.940000e-06	6.957851e-06	4.892191e-09	4.908683e+01	3.224607e+02
1.950000e-06	7.012671e-06	4.915640e-09	4.947358e+01	3.239980e+02
1.960000e-06	7.066242e-06	4.939116e-09	4.985152e+01	3.254883e+02
1.970000e-06	7.118468e-06	4.960127e-09	5.021996e+01	3.269340e+02
1.980000e-06	7.169164e-06	4.978112e-09	5.057762e+01	3.283364e+02
1.990000e-06	7.218299e-06	4.995456e-09	5.092426e+01	3.296956e+02
2.000000e-06	7.265955e-06	5.015554e-09	5.126047e+01	3.310107e+02
2.010000e-06	7.312265e-06	5.035919e-09	5.158718e+01	3.322800e+02
2.020000e-06	7.357428e-06	5.053936e-09	5.190580e+01	3.335009e+02
2.030000e-06	7.401498e-06	5.070629e-09	5.221671e+01	3.346707e+02
2.040000e-06	7.444175e-06	5.088495e-09	5.251779e+01	3.357868e+02
2.050000e-06	7.485285e-06	5.106812e-09	5.280782e+01	3.368468e+02
2.060000e-06	7.525052e-06	5.122569e-09	5.308837e+01	3.378492e+02
2.070000e-06	7.563610e-06	5.135442e-09	5.336039e+01	3.387936e+02
2.080000e-06	7.600974e-06	5.147201e-09	5.362399e+01	3.396808e+02
2.090000e-06	7.637174e-06	5.160616e-09	5.387937e+01	3.405127e+02
2.100000e-06	7.672027e-06	5.174678e-09	5.412526e+01	3.412928e+02
2.110000e-06	7.705309e-06	5.186352e-09	5.436006e+01	3.420256e+02
2.120000e-06	7.737175e-06	5.196589e-09	5.458487e+01	3.427164e+02
2.130000e-06	7.767767e-06	5.208369e-09	5.480069e+01	3.433710e+02
2.140000e-06	7.797084e-06	5.220182e-09	5.500752e+01	3.439956e+02
2.150000e-06	7.825178e-06	5.230044e-09	5.520572e+01	3.445957e+02
2.160000e-06	7.851852e-06	5.239486e-09	5.539390e+01	3.451760e+02
2.170000e-06	7.876891e-06	5.249284e-09	5.557055e+01	3.457402e+02
2.180000e-06	7.900411e-06	5.259557e-09	5.573648e+01	3.462904e+02
2.190000e-06	7.922621e-06	5.270036e-09	5.589317e+01	3.468267e+02
2.200000e-06	7.943621e-06	5.279669e-09	5.604132e+01	3.473476e+02
2.210000e-06	7.963382e-06	5.287149e-09	5.618073e+01	3.478496e+02
2.220000e-06	7.981758e-06	5.293891e-09	5.631037e+01	3.483277e+02
2.230000e-06	7.998628e-06	5.301302e-09	5.642939e+01	3.487758e+02
2.240000e-06	8.013981e-06	5.307909e-09	5.653770e+01	3.491867e+02
2.250000e-06	8.027850e-06	5.314036e-09	5.663555e+01	3.495533e+02
2.260000e-06	8.040279e-06	5.316000e-09	5.672323e+01	3.498688e+02
2.270000e-06	8.051145e-06	5.316755e-09	5.679989e+01	3.501274e+02
2.280000e-06	8.060293e-06	5.321460e-09	5.686443e+01	3.503249e+02
2.290000e-06	8.067880e-06	5.325927e-09	5.691796e+01	3.504593e+02
2.300000e-06	8.074123e-06	5.328354e-09	5.696200e+01	3.505310e+02
2.310000e-06	8.079059e-06	5.330792e-09	5.699682e+01	3.505428e+02
2.320000e-06	8.082731e-06	5.335301e-09	5.702273e+01	3.505004e+02
2.330000e-06	8.084854e-06	5.338726e-09	5.703771e+01	3.504117e+02
2.340000e-06	8.085392e-06	5.342170e-09	5.704150e+01	3.502869e+02
2.350000e-06	8.084598e-06	5.345607e-09	5.703590e+01	3.501373e+02
2.360000e-06	8.082447e-06	5.340893e-09	5.702072e+01	3.499753e+02
2.370000e-06	8.079074e-06	5.337431e-09	5.699693e+01	3.498132e+02
2.380000e-06	8.074548e-06	5.335891e-09	5.696500e+01	3.496623e+02
2.390000e-06	8.068464e-06	5.334112e-09	5.692208e+01	3.495326e+02
2.400000e-06	8.060872e-06	5.334015e-09	5.686852e+01	3.494315e+02
2.410000e-06	8.052123e-06	5.338571e-09	5.680679e+01	3.493633e+02
2.420000e-06	8.042191e-06	5.383544e-09	5.673672e+01	3.493293e+02
2.430000e-06	8.030981e-06	5.320931e-09	5.665764e+01	3.493266e+02
2.440000e-06	8.017859e-06	5.243274e-09	5.656506e+01	3.493492e+02
2.450000e-06	8.002384e-06	5.251880e-09	5.645589e+01	3.493873e+02
2.460000e-06	7.985005e-06	5.258229e-09	5.633328e+01	3.494284e+02
2.470000e-06	7.966390e-06	5.415195e-09	5.620195e+01	3.494577e+02
2.480000e-06	7.947120e-06	5.378192e-09	5.606601e+01	3.494588e+02
2.490000e-06	7.926972e-06	5.182891e-09	5.592386e+01	3.494151e+02
2.500000e-06	7.904982e-06	5.351154e-09	5.576873e+01	3.493103e+02
2.510000e-06	7.881360e-06	5.367882e-09	5.560208e+01	3.491296e+02
2.520000e-06	7.856744e-06	5.380493e-09	5.542842e+01	3.488603e+02
2.530000e-06	7.830683e-06	5.577966e-09	5.524456e+01	3.484932e+02
2.540000e-06	7.803218e-06	5.333838e-09	5.505080e+01	3.480224e+02
2.550000e-06	7.774551e-06	5.260721e-09	5.484855e+01	3.474461e+02
2.560000e-06	7.744309e-06	5.480686e-09	5.463520e+01	3.467665e+02
2.570000e-06	7.712629e-06	5.309620e-09	5.441170e+01	3.459897e+02
2.580000e-06	7.679505e-06	5.212924e-09	5.417801e+01	3.451251e+02
2.590000e-06	7.644965e-06	5.174507e-09	5.393434e+01	3.441852e+02
2.600000e-06	7.609378e-06	5.129751e-09	5.368328e+01	3.431844e+02
2.610000e-06	7.572466e-06	5.295139e-09	5.342287e+01	3.421382e+02
2.620000e-06	7.533954e-06	5.196078e-09	5.315117e+01	3.410623e+02
2.630000e-06	7.493935e-06	5.173017e-09	5.286884e+01	3.399718e+02
2.640000e-06	7.452565e-06	5.189221e-09	5.257698e+01	3.388798e+02
2.650000e-06	7.410049e-06	5.070856e-09	5.227704e+01	3.377973e+02
2.660000e-06	7.366387e-06	5.135725e-09	5.196900e+01	3.367321e+02
2.670000e-06	7.321599e-06	5.149045e-09	5.165303e+01	3.356887e+02
2.680000e-06	7.275433e-06	5.173391e-09	5.132733e+01	3.346683e+02
2.690000e-06	7.227763e-06	5.060115e-09	5.099103e+01	3.336684e+02
2.700000e-06	7.178793e-06	4.951547e-09	5.064555e+01	3.326835e+02
2.710000e-06	7.128517e-06	5.128929e-09	5.029086e+01	3.317057e+02
2.720000e-06	7.076937e-06	5.122331e-09	4.992697e+01	3.307249e+02
2.730000e-06	7.023802e-06	5.029796e-09	4.955211e+01	3.297301e+02
2.740000e-06	6.969026e-06	4.919549e-09	4.916567e+01	3.287099e+02
2.750000e-06	6.912974e-06	4.936840e-09	4.877023e+01	3.276531e+02
2.760000e-06	6.855778e-06	5.076585e-09	4.836672e+01	3.265499e+02
2.770000e-06	6.797394e-06	5.003814e-09	4.795483e+01	3.253923e+02
2.780000e-06	6.737842e-06	4.903523e-09	4.753469e+01	3.241743e+02
2.790000e-06	6.677204e-06	4.835800e-09	4.710690e+01	3.228926e+02
2.800000e-06	6.615286e-06	4.899193e-09	4.667008e+01	3.215463e+02
2.810000e-06	6.551926e-06	4.957883e-09	4.622308e+01	3.201369e+02
2.820000e-06	6.487410e-06	4.875226e-09	4.576792e+01	3.186683e+02
2.830000e-06	6.421802e-06	4.776692e-09	4.530507e+01	3.171458e+02
2.840000e-06	6.355102e-06	4.742494e-09	4.483451e+01	3.155760e+02
2.850000e-06	6.287361e-06	4.821785e-09	4.435660e+01	3.139661e+02
2.860000e-06	6.218550e-06	4.813251e-09	4.387115e+01	3.123231e+02
2.870000e-06	6.148457e-06	4.725609e-09	4.337665e+01	3.106533e+02
2.880000e-06	6.077031e-06	4.662538e-09	4.287275e+01	3.089619e+02
2.890000e-06	6.004526e-06	4.669878e-09	4.236123e+01	3.072524e+02
2.900000e-06	5.931046e-06	4.692693e-09	4.184284e+01	3.055264e+02
2.910000e-06	5.856526e-06	4.653149e-09	4.131711e+01	3.037838e+02
2.920000e-06	5.780827e-06	4.599153e-09	4.078307e+01	3.020222e+02
2.930000e-06	5.703989e-06	4.543272e-09	4.024098e+01	3.002379e+02
2.940000e-06	5.625953e-06	4.530931e-09	3.969045e+01	2.984254e+02
