# Temperatura_=_20.0
# Concentracion g/m^3_=_12600.0
# C_Vs_to_Am_M_A/Vsm_=_65563218390.804596
# pendiente_HvsI_1/m_=_3716.3
# ordenada_HvsI_A/m_=_1297.0
# frecuencia_Hz_=_213244.10132803948

Tiempo_(s)	Campo_(V.s)	Magnetizacion_(V.s)	Campo_(kA/m)	Magnetizacion_(A/m)
0.000000e+00	-8.172511e-06	-5.468037e-09	-5.702789e+01	-3.565752e+02
1.000000e-08	-8.171378e-06	-5.470774e-09	-5.701998e+01	-3.564914e+02
2.000000e-08	-8.168682e-06	-5.471014e-09	-5.700117e+01	-3.563754e+02
3.000000e-08	-8.164701e-06	-5.469434e-09	-5.697339e+01	-3.562322e+02
4.000000e-08	-8.159442e-06	-5.466508e-09	-5.693669e+01	-3.560673e+02
5.000000e-08	-8.152889e-06	-5.461226e-09	-5.689097e+01	-3.558865e+02
6.000000e-08	-8.145098e-06	-5.455715e-09	-5.683660e+01	-3.556955e+02
7.000000e-08	-8.135797e-06	-5.447459e-09	-5.677170e+01	-3.554996e+02
8.000000e-08	-8.124819e-06	-5.430945e-09	-5.669509e+01	-3.553035e+02
9.000000e-08	-8.112170e-06	-5.461877e-09	-5.660683e+01	-3.551108e+02
1.000000e-07	-8.097565e-06	-5.487650e-09	-5.650492e+01	-3.549240e+02
1.100000e-07	-8.080977e-06	-5.469516e-09	-5.638917e+01	-3.547443e+02
1.200000e-07	-8.062797e-06	-5.460670e-09	-5.626231e+01	-3.545713e+02
1.300000e-07	-8.043474e-06	-5.410818e-09	-5.612747e+01	-3.544032e+02
1.400000e-07	-8.023260e-06	-5.374848e-09	-5.598642e+01	-3.542370e+02
1.500000e-07	-8.001929e-06	-5.483145e-09	-5.583757e+01	-3.540683e+02
1.600000e-07	-7.979347e-06	-5.442804e-09	-5.567999e+01	-3.538919e+02
1.700000e-07	-7.955569e-06	-5.395961e-09	-5.551406e+01	-3.537017e+02
1.800000e-07	-7.930203e-06	-5.441192e-09	-5.533706e+01	-3.534914e+02
1.900000e-07	-7.903179e-06	-5.346494e-09	-5.514849e+01	-3.532546e+02
2.000000e-07	-7.874951e-06	-5.397117e-09	-5.495152e+01	-3.529849e+02
2.100000e-07	-7.845499e-06	-5.458029e-09	-5.474600e+01	-3.526767e+02
2.200000e-07	-7.814661e-06	-5.344217e-09	-5.453081e+01	-3.523248e+02
2.300000e-07	-7.782392e-06	-5.326448e-09	-5.430563e+01	-3.519253e+02
2.400000e-07	-7.748575e-06	-5.376706e-09	-5.406966e+01	-3.514750e+02
2.500000e-07	-7.713371e-06	-5.371346e-09	-5.382400e+01	-3.509718e+02
2.600000e-07	-7.676833e-06	-5.349558e-09	-5.356905e+01	-3.504147e+02
2.700000e-07	-7.638858e-06	-5.278866e-09	-5.330406e+01	-3.498036e+02
2.800000e-07	-7.599573e-06	-5.277264e-09	-5.302992e+01	-3.491392e+02
2.900000e-07	-7.559051e-06	-5.316876e-09	-5.274716e+01	-3.484229e+02
3.000000e-07	-7.517091e-06	-5.308621e-09	-5.245436e+01	-3.476562e+02
3.100000e-07	-7.473546e-06	-5.262562e-09	-5.215051e+01	-3.468412e+02
3.200000e-07	-7.428517e-06	-5.232867e-09	-5.183629e+01	-3.459798e+02
3.300000e-07	-7.382202e-06	-5.242929e-09	-5.151311e+01	-3.450738e+02
3.400000e-07	-7.334641e-06	-5.226502e-09	-5.118122e+01	-3.441247e+02
3.500000e-07	-7.285573e-06	-5.219042e-09	-5.083883e+01	-3.431336e+02
3.600000e-07	-7.234825e-06	-5.206258e-09	-5.048470e+01	-3.421013e+02
3.700000e-07	-7.182501e-06	-5.164313e-09	-5.011959e+01	-3.410283e+02
3.800000e-07	-7.128902e-06	-5.145083e-09	-4.974557e+01	-3.399144e+02
3.900000e-07	-7.074189e-06	-5.132674e-09	-4.936379e+01	-3.387594e+02
4.000000e-07	-7.018291e-06	-5.130232e-09	-4.897373e+01	-3.375630e+02
4.100000e-07	-6.961037e-06	-5.115289e-09	-4.857421e+01	-3.363249e+02
4.200000e-07	-6.902358e-06	-5.076340e-09	-4.816475e+01	-3.350446e+02
4.300000e-07	-6.842433e-06	-5.051575e-09	-4.774659e+01	-3.337222e+02
4.400000e-07	-6.781332e-06	-5.048904e-09	-4.732023e+01	-3.323578e+02
4.500000e-07	-6.719083e-06	-5.044357e-09	-4.688585e+01	-3.309519e+02
4.600000e-07	-6.655791e-06	-5.007931e-09	-4.644420e+01	-3.295056e+02
4.700000e-07	-6.591324e-06	-4.969713e-09	-4.599435e+01	-3.280198e+02
4.800000e-07	-6.525511e-06	-4.950792e-09	-4.553510e+01	-3.264961e+02
4.900000e-07	-6.458407e-06	-4.947783e-09	-4.506685e+01	-3.249360e+02
5.000000e-07	-6.390192e-06	-4.927699e-09	-4.459084e+01	-3.233410e+02
5.100000e-07	-6.320910e-06	-4.882048e-09	-4.410740e+01	-3.217126e+02
5.200000e-07	-6.250635e-06	-4.846699e-09	-4.361702e+01	-3.200520e+02
5.300000e-07	-6.179304e-06	-4.836035e-09	-4.311927e+01	-3.183598e+02
5.400000e-07	-6.106768e-06	-4.830129e-09	-4.261311e+01	-3.166364e+02
5.500000e-07	-6.032971e-06	-4.797255e-09	-4.209815e+01	-3.148815e+02
5.600000e-07	-5.957869e-06	-4.754669e-09	-4.157409e+01	-3.130940e+02
5.700000e-07	-5.881528e-06	-4.720864e-09	-4.104138e+01	-3.112726e+02
5.800000e-07	-5.804006e-06	-4.694446e-09	-4.050043e+01	-3.094151e+02
5.900000e-07	-5.725319e-06	-4.673876e-09	-3.995135e+01	-3.075192e+02
6.000000e-07	-5.645499e-06	-4.648472e-09	-3.939437e+01	-3.055820e+02
6.100000e-07	-5.564628e-06	-4.613423e-09	-3.883005e+01	-3.036006e+02
6.200000e-07	-5.482745e-06	-4.569559e-09	-3.825867e+01	-3.015721e+02
6.300000e-07	-5.399959e-06	-4.538047e-09	-3.768099e+01	-2.994936e+02
6.400000e-07	-5.316397e-06	-4.524433e-09	-3.709789e+01	-2.973627e+02
6.500000e-07	-5.232045e-06	-4.505157e-09	-3.650928e+01	-2.951773e+02
6.600000e-07	-5.146851e-06	-4.459129e-09	-3.591480e+01	-2.929358e+02
6.700000e-07	-5.060846e-06	-4.401351e-09	-3.531465e+01	-2.906372e+02
6.800000e-07	-4.973957e-06	-4.370746e-09	-3.470834e+01	-2.882809e+02
6.900000e-07	-4.886187e-06	-4.361516e-09	-3.409588e+01	-2.858669e+02
7.000000e-07	-4.797631e-06	-4.331358e-09	-3.347793e+01	-2.833957e+02
7.100000e-07	-4.708171e-06	-4.269233e-09	-3.285368e+01	-2.808680e+02
7.200000e-07	-4.617675e-06	-4.215234e-09	-3.222220e+01	-2.782845e+02
7.300000e-07	-4.526291e-06	-4.199626e-09	-3.158452e+01	-2.756461e+02
7.400000e-07	-4.434144e-06	-4.184316e-09	-3.094152e+01	-2.729537e+02
7.500000e-07	-4.341264e-06	-4.128899e-09	-3.029340e+01	-2.702076e+02
7.600000e-07	-4.247728e-06	-4.057168e-09	-2.964070e+01	-2.674080e+02
7.700000e-07	-4.153485e-06	-4.012730e-09	-2.898307e+01	-2.645546e+02
7.800000e-07	-4.058517e-06	-3.997758e-09	-2.832039e+01	-2.616467e+02
7.900000e-07	-3.962813e-06	-3.963823e-09	-2.765257e+01	-2.586829e+02
8.000000e-07	-3.866341e-06	-3.892790e-09	-2.697938e+01	-2.556618e+02
8.100000e-07	-3.769204e-06	-3.823742e-09	-2.630155e+01	-2.525813e+02
8.200000e-07	-3.671403e-06	-3.787407e-09	-2.561910e+01	-2.494394e+02
8.300000e-07	-3.572782e-06	-3.764606e-09	-2.493092e+01	-2.462337e+02
8.400000e-07	-3.473405e-06	-3.713094e-09	-2.423747e+01	-2.429619e+02
8.500000e-07	-3.373447e-06	-3.635157e-09	-2.353996e+01	-2.396221e+02
8.600000e-07	-3.272958e-06	-3.573041e-09	-2.283874e+01	-2.362123e+02
8.700000e-07	-3.171951e-06	-3.540530e-09	-2.213392e+01	-2.327310e+02
8.800000e-07	-3.070472e-06	-3.506046e-09	-2.142580e+01	-2.291768e+02
8.900000e-07	-2.968538e-06	-3.438934e-09	-2.071450e+01	-2.255488e+02
9.000000e-07	-2.866056e-06	-3.355807e-09	-1.999938e+01	-2.218464e+02
9.100000e-07	-2.762932e-06	-3.295776e-09	-1.927978e+01	-2.180690e+02
9.200000e-07	-2.659204e-06	-3.259637e-09	-1.855596e+01	-2.142162e+02
9.300000e-07	-2.555046e-06	-3.213811e-09	-1.782915e+01	-2.102876e+02
9.400000e-07	-2.450471e-06	-3.137851e-09	-1.709942e+01	-2.062824e+02
9.500000e-07	-2.345462e-06	-3.056629e-09	-1.636667e+01	-2.021996e+02
9.600000e-07	-2.240060e-06	-2.998993e-09	-1.563117e+01	-1.980380e+02
9.700000e-07	-2.134284e-06	-2.953119e-09	-1.489307e+01	-1.937957e+02
9.800000e-07	-2.028104e-06	-2.890343e-09	-1.415214e+01	-1.894703e+02
9.900000e-07	-1.921447e-06	-2.803314e-09	-1.340788e+01	-1.850590e+02
1.000000e-06	-1.814342e-06	-2.721231e-09	-1.266050e+01	-1.805586e+02
1.010000e-06	-1.706898e-06	-2.661223e-09	-1.191076e+01	-1.759657e+02
1.020000e-06	-1.599237e-06	-2.602426e-09	-1.115950e+01	-1.712765e+02
1.030000e-06	-1.491358e-06	-2.525432e-09	-1.040671e+01	-1.664874e+02
1.040000e-06	-1.383197e-06	-2.435929e-09	-9.651970e+00	-1.615950e+02
1.050000e-06	-1.274765e-06	-2.357639e-09	-8.895327e+00	-1.565962e+02
1.060000e-06	-1.166127e-06	-2.293215e-09	-8.137251e+00	-1.514884e+02
1.070000e-06	-1.057314e-06	-2.221402e-09	-7.377948e+00	-1.462697e+02
1.080000e-06	-9.483614e-07	-2.131558e-09	-6.617679e+00	-1.409389e+02
1.090000e-06	-8.392852e-07	-2.037303e-09	-5.856543e+00	-1.354953e+02
1.100000e-06	-7.300791e-07	-1.953470e-09	-5.094502e+00	-1.299390e+02
1.110000e-06	-6.207836e-07	-1.875471e-09	-4.331836e+00	-1.242705e+02
1.120000e-06	-5.113759e-07	-1.790907e-09	-3.568388e+00	-1.184905e+02
1.130000e-06	-4.018694e-07	-1.696094e-09	-2.804250e+00	-1.125999e+02
1.140000e-06	-2.923275e-07	-1.599230e-09	-2.039865e+00	-1.065991e+02
1.150000e-06	-1.827250e-07	-1.509702e-09	-1.275057e+00	-1.004883e+02
1.160000e-06	-7.311448e-08	-1.421130e-09	-5.101938e-01	-9.426661e+01
1.170000e-06	3.645247e-08	-1.325565e-09	2.543658e-01	-8.793244e+01
1.180000e-06	1.460228e-07	-1.223829e-09	1.018949e+00	-8.148291e+01
1.190000e-06	2.555779e-07	-1.120020e-09	1.783426e+00	-7.491401e+01
1.200000e-06	3.650871e-07	-1.018563e-09	2.547582e+00	-6.822056e+01
1.210000e-06	4.745302e-07	-9.145622e-10	3.311278e+00	-6.139643e+01
1.220000e-06	5.838894e-07	-8.047915e-10	4.074388e+00	-5.443477e+01
1.230000e-06	6.932104e-07	-6.917059e-10	4.837231e+00	-4.732844e+01
1.240000e-06	8.024743e-07	-5.771963e-10	5.599676e+00	-4.007045e+01
1.250000e-06	9.116047e-07	-4.676497e-10	6.361190e+00	-3.265456e+01
1.260000e-06	1.020549e-06	-3.588915e-10	7.121403e+00	-2.507585e+01
1.270000e-06	1.129349e-06	-2.447672e-10	7.880609e+00	-1.733136e+01
1.280000e-06	1.238016e-06	-1.211761e-10	8.638896e+00	-9.420690e+00
1.290000e-06	1.346447e-06	5.229848e-12	9.395527e+00	-1.346511e+00
1.300000e-06	1.454591e-06	1.269018e-10	1.015016e+01	6.884983e+00
1.310000e-06	1.562507e-06	2.502043e-10	1.090319e+01	1.526377e+01
1.320000e-06	1.670214e-06	3.798825e-10	1.165478e+01	2.377585e+01
1.330000e-06	1.777581e-06	5.154389e-10	1.240399e+01	3.240326e+01
1.340000e-06	1.884538e-06	6.491841e-10	1.315033e+01	4.112430e+01
1.350000e-06	1.991088e-06	7.805574e-10	1.389384e+01	4.991384e+01
1.360000e-06	2.097227e-06	9.161234e-10	1.463448e+01	5.874396e+01
1.370000e-06	2.203006e-06	1.053553e-09	1.537260e+01	6.758456e+01
1.380000e-06	2.308399e-06	1.189319e-09	1.610804e+01	7.640419e+01
1.390000e-06	2.413354e-06	1.322191e-09	1.684041e+01	8.517091e+01
1.400000e-06	2.517852e-06	1.452273e-09	1.756961e+01	9.385321e+01
1.410000e-06	2.621852e-06	1.583035e-09	1.829532e+01	1.024209e+02
1.420000e-06	2.725288e-06	1.712466e-09	1.901709e+01	1.108458e+02
1.430000e-06	2.828153e-06	1.840406e-09	1.973489e+01	1.191029e+02
1.440000e-06	2.930502e-06	1.963143e-09	2.044909e+01	1.271703e+02
1.450000e-06	3.032382e-06	2.080513e-09	2.116000e+01	1.350303e+02
1.460000e-06	3.133762e-06	2.194647e-09	2.186743e+01	1.426694e+02
1.470000e-06	3.234608e-06	2.306923e-09	2.257114e+01	1.500781e+02
1.480000e-06	3.334933e-06	2.415787e-09	2.327120e+01	1.572514e+02
1.490000e-06	3.434782e-06	2.518394e-09	2.396795e+01	1.641880e+02
1.500000e-06	3.534059e-06	2.616266e-09	2.466071e+01	1.708902e+02
1.510000e-06	3.632587e-06	2.712727e-09	2.534824e+01	1.773633e+02
1.520000e-06	3.730388e-06	2.809132e-09	2.603069e+01	1.836148e+02
1.530000e-06	3.827477e-06	2.903279e-09	2.670818e+01	1.896541e+02
1.540000e-06	3.923839e-06	2.989830e-09	2.738060e+01	1.954916e+02
1.550000e-06	4.019418e-06	3.071113e-09	2.804755e+01	2.011382e+02
1.560000e-06	4.114222e-06	3.152896e-09	2.870909e+01	2.066046e+02
1.570000e-06	4.208380e-06	3.237754e-09	2.936613e+01	2.119010e+02
1.580000e-06	4.301837e-06	3.321017e-09	3.001827e+01	2.170366e+02
1.590000e-06	4.394534e-06	3.396059e-09	3.066512e+01	2.220197e+02
1.600000e-06	4.486574e-06	3.469339e-09	3.130737e+01	2.268570e+02
1.610000e-06	4.577950e-06	3.544028e-09	3.194500e+01	2.315542e+02
1.620000e-06	4.668472e-06	3.616129e-09	3.257666e+01	2.361159e+02
1.630000e-06	4.758042e-06	3.682207e-09	3.320168e+01	2.405454e+02
1.640000e-06	4.846618e-06	3.744472e-09	3.381977e+01	2.448456e+02
1.650000e-06	4.934231e-06	3.805435e-09	3.443113e+01	2.490190e+02
1.660000e-06	5.020965e-06	3.865917e-09	3.503636e+01	2.530676e+02
1.670000e-06	5.106856e-06	3.926391e-09	3.563571e+01	2.569939e+02
1.680000e-06	5.191937e-06	3.983932e-09	3.622941e+01	2.608003e+02
1.690000e-06	5.276227e-06	4.038262e-09	3.681758e+01	2.644898e+02
1.700000e-06	5.359704e-06	4.091955e-09	3.740009e+01	2.680659e+02
1.710000e-06	5.442274e-06	4.146176e-09	3.797626e+01	2.715326e+02
1.720000e-06	5.523756e-06	4.197762e-09	3.854484e+01	2.748944e+02
1.730000e-06	5.604160e-06	4.245236e-09	3.910591e+01	2.781559e+02
1.740000e-06	5.683656e-06	4.290056e-09	3.966063e+01	2.813220e+02
1.750000e-06	5.762144e-06	4.332540e-09	4.020832e+01	2.843975e+02
1.760000e-06	5.839605e-06	4.375372e-09	4.074884e+01	2.873870e+02
1.770000e-06	5.916015e-06	4.418879e-09	4.128203e+01	2.902945e+02
1.780000e-06	5.991295e-06	4.460716e-09	4.180734e+01	2.931234e+02
1.790000e-06	6.065321e-06	4.502060e-09	4.232389e+01	2.958764e+02
1.800000e-06	6.137986e-06	4.544069e-09	4.283095e+01	2.985552e+02
1.810000e-06	6.209481e-06	4.584313e-09	4.332984e+01	3.011609e+02
1.820000e-06	6.280020e-06	4.618322e-09	4.382206e+01	3.036937e+02
1.830000e-06	6.349559e-06	4.650071e-09	4.430731e+01	3.061530e+02
1.840000e-06	6.417998e-06	4.683789e-09	4.478488e+01	3.085381e+02
1.850000e-06	6.485370e-06	4.716345e-09	4.525500e+01	3.108476e+02
1.860000e-06	6.551669e-06	4.746826e-09	4.571764e+01	3.130802e+02
1.870000e-06	6.616638e-06	4.775180e-09	4.617099e+01	3.152350e+02
1.880000e-06	6.680295e-06	4.805892e-09	4.661519e+01	3.173111e+02
1.890000e-06	6.742858e-06	4.838830e-09	4.705175e+01	3.193084e+02
1.900000e-06	6.804314e-06	4.868678e-09	4.748060e+01	3.212274e+02
1.910000e-06	6.864656e-06	4.894884e-09	4.790166e+01	3.230692e+02
1.920000e-06	6.923939e-06	4.920445e-09	4.831534e+01	3.248360e+02
1.930000e-06	6.982042e-06	4.945414e-09	4.872078e+01	3.265303e+02
1.940000e-06	7.038652e-06	4.966491e-09	4.911581e+01	3.281555e+02
1.950000e-06	7.093891e-06	4.985152e-09	4.950127e+01	3.297154e+02
1.960000e-06	7.147992e-06	5.005594e-09	4.987878e+01	3.312139e+02
1.970000e-06	7.200825e-06	5.028070e-09	5.024745e+01	3.326550e+02
1.980000e-06	7.252143e-06	5.051145e-09	5.060555e+01	3.340426e+02
1.990000e-06	7.301815e-06	5.070971e-09	5.095216e+01	3.353803e+02
2.000000e-06	7.349899e-06	5.088761e-09	5.128770e+01	3.366711e+02
2.010000e-06	7.396595e-06	5.109456e-09	5.161354e+01	3.379173e+02
2.020000e-06	7.442052e-06	5.129988e-09	5.193074e+01	3.391208e+02
2.030000e-06	7.486370e-06	5.147019e-09	5.223999e+01	3.402825e+02
2.040000e-06	7.529535e-06	5.159836e-09	5.254120e+01	3.414028e+02
2.050000e-06	7.571210e-06	5.173568e-09	5.283200e+01	3.424816e+02
2.060000e-06	7.611331e-06	5.190405e-09	5.311197e+01	3.435183e+02
2.070000e-06	7.650185e-06	5.205791e-09	5.338309e+01	3.445121e+02
2.080000e-06	7.687801e-06	5.219205e-09	5.364558e+01	3.454623e+02
2.090000e-06	7.724186e-06	5.233087e-09	5.389948e+01	3.463679e+02
2.100000e-06	7.759294e-06	5.248130e-09	5.414446e+01	3.472287e+02
2.110000e-06	7.792844e-06	5.261055e-09	5.437857e+01	3.480446e+02
2.120000e-06	7.824889e-06	5.271568e-09	5.460218e+01	3.488160e+02
2.130000e-06	7.855635e-06	5.282441e-09	5.481673e+01	3.495439e+02
2.140000e-06	7.885054e-06	5.291564e-09	5.502201e+01	3.502297e+02
2.150000e-06	7.913246e-06	5.299326e-09	5.521873e+01	3.508753e+02
2.160000e-06	7.940149e-06	5.307576e-09	5.540647e+01	3.514828e+02
2.170000e-06	7.965425e-06	5.317372e-09	5.558284e+01	3.520545e+02
2.180000e-06	7.989164e-06	5.328742e-09	5.574849e+01	3.525927e+02
2.190000e-06	8.011582e-06	5.339744e-09	5.590492e+01	3.530992e+02
2.200000e-06	8.032634e-06	5.349352e-09	5.605183e+01	3.535758e+02
2.210000e-06	8.052458e-06	5.356882e-09	5.619016e+01	3.540234e+02
2.220000e-06	8.071001e-06	5.364453e-09	5.631956e+01	3.544425e+02
2.230000e-06	8.087941e-06	5.372082e-09	5.643776e+01	3.548327e+02
2.240000e-06	8.103292e-06	5.376434e-09	5.654488e+01	3.551933e+02
2.250000e-06	8.117207e-06	5.378609e-09	5.664198e+01	3.555225e+02
2.260000e-06	8.129699e-06	5.380781e-09	5.672915e+01	3.558184e+02
2.270000e-06	8.140567e-06	5.383945e-09	5.680498e+01	3.560788e+02
2.280000e-06	8.149656e-06	5.390073e-09	5.686841e+01	3.563011e+02
2.290000e-06	8.157216e-06	5.396521e-09	5.692116e+01	3.564833e+02
2.300000e-06	8.163438e-06	5.401705e-09	5.696458e+01	3.566235e+02
2.310000e-06	8.168317e-06	5.406067e-09	5.699862e+01	3.567206e+02
2.320000e-06	8.171911e-06	5.407696e-09	5.702370e+01	3.567744e+02
2.330000e-06	8.173988e-06	5.406240e-09	5.703820e+01	3.567856e+02
2.340000e-06	8.174461e-06	5.406370e-09	5.704150e+01	3.567558e+02
2.350000e-06	8.173602e-06	5.406239e-09	5.703551e+01	3.566880e+02
2.360000e-06	8.171431e-06	5.401333e-09	5.702035e+01	3.565859e+02
2.370000e-06	8.168007e-06	5.399656e-09	5.699646e+01	3.564542e+02
2.380000e-06	8.163352e-06	5.401859e-09	5.696398e+01	3.562983e+02
2.390000e-06	8.157150e-06	5.405134e-09	5.692071e+01	3.561239e+02
2.400000e-06	8.149479e-06	5.406772e-09	5.686717e+01	3.559368e+02
2.410000e-06	8.140617e-06	5.408773e-09	5.680533e+01	3.557424e+02
2.420000e-06	8.130522e-06	5.431230e-09	5.673489e+01	3.555459e+02
2.430000e-06	8.119037e-06	5.381163e-09	5.665475e+01	3.553513e+02
2.440000e-06	8.105582e-06	5.344321e-09	5.656086e+01	3.551616e+02
2.450000e-06	8.089804e-06	5.345889e-09	5.645076e+01	3.549787e+02
2.460000e-06	8.072168e-06	5.340370e-09	5.632769e+01	3.548027e+02
2.470000e-06	8.053267e-06	5.438198e-09	5.619581e+01	3.546327e+02
2.480000e-06	8.033608e-06	5.389866e-09	5.605863e+01	3.544661e+02
2.490000e-06	8.012961e-06	5.299670e-09	5.591455e+01	3.542991e+02
2.500000e-06	7.990589e-06	5.384283e-09	5.575844e+01	3.541268e+02
2.510000e-06	7.966767e-06	5.350838e-09	5.559221e+01	3.539436e+02
2.520000e-06	7.941822e-06	5.407127e-09	5.541814e+01	3.537432e+02
2.530000e-06	7.915347e-06	5.504027e-09	5.523340e+01	3.535190e+02
2.540000e-06	7.887483e-06	5.359207e-09	5.503896e+01	3.532649e+02
2.550000e-06	7.858318e-06	5.389529e-09	5.483545e+01	3.529746e+02
2.560000e-06	7.827600e-06	5.464934e-09	5.462109e+01	3.526430e+02
2.570000e-06	7.795523e-06	5.362071e-09	5.439726e+01	3.522653e+02
2.580000e-06	7.761980e-06	5.350499e-09	5.416320e+01	3.518381e+02
2.590000e-06	7.727020e-06	5.296097e-09	5.391925e+01	3.513589e+02
2.600000e-06	7.690980e-06	5.331732e-09	5.366776e+01	3.508261e+02
2.610000e-06	7.653508e-06	5.403607e-09	5.340628e+01	3.502393e+02
2.620000e-06	7.614350e-06	5.312766e-09	5.313304e+01	3.495987e+02
2.630000e-06	7.573728e-06	5.374471e-09	5.284958e+01	3.489055e+02
2.640000e-06	7.531887e-06	5.378293e-09	5.255761e+01	3.481613e+02
2.650000e-06	7.488884e-06	5.323885e-09	5.225753e+01	3.473678e+02
2.660000e-06	7.444653e-06	5.319764e-09	5.194889e+01	3.465270e+02
2.670000e-06	7.399197e-06	5.291329e-09	5.163169e+01	3.456408e+02
2.680000e-06	7.352288e-06	5.338127e-09	5.130436e+01	3.447109e+02
2.690000e-06	7.303929e-06	5.261135e-09	5.096691e+01	3.437386e+02
2.700000e-06	7.254273e-06	5.216672e-09	5.062041e+01	3.427248e+02
2.710000e-06	7.203291e-06	5.259919e-09	5.026466e+01	3.416700e+02
2.720000e-06	7.150920e-06	5.251747e-09	4.989921e+01	3.405745e+02
2.730000e-06	7.096945e-06	5.247469e-09	4.952258e+01	3.394380e+02
2.740000e-06	7.041489e-06	5.148267e-09	4.913561e+01	3.382603e+02
2.750000e-06	6.984790e-06	5.141634e-09	4.873996e+01	3.370410e+02
2.760000e-06	6.926824e-06	5.171581e-09	4.833547e+01	3.357797e+02
2.770000e-06	6.867698e-06	5.144783e-09	4.792289e+01	3.344762e+02
2.780000e-06	6.807495e-06	5.110043e-09	4.750279e+01	3.331306e+02
2.790000e-06	6.746078e-06	5.049253e-09	4.707422e+01	3.317433e+02
2.800000e-06	6.683322e-06	5.063460e-09	4.663631e+01	3.303150e+02
2.810000e-06	6.619303e-06	5.057468e-09	4.618959e+01	3.288468e+02
2.820000e-06	6.554066e-06	5.031896e-09	4.573436e+01	3.273399e+02
2.830000e-06	6.487681e-06	4.983824e-09	4.527112e+01	3.257960e+02
2.840000e-06	6.420259e-06	4.953477e-09	4.480065e+01	3.242165e+02
2.850000e-06	6.351676e-06	4.958485e-09	4.432208e+01	3.226030e+02
2.860000e-06	6.281841e-06	4.930256e-09	4.383477e+01	3.209567e+02
2.870000e-06	6.210753e-06	4.900746e-09	4.333872e+01	3.192787e+02
2.880000e-06	6.138495e-06	4.857823e-09	4.283450e+01	3.175693e+02
2.890000e-06	6.065166e-06	4.834744e-09	4.232281e+01	3.158286e+02
2.900000e-06	5.990761e-06	4.811990e-09	4.180361e+01	3.140559e+02
2.910000e-06	5.915220e-06	4.797315e-09	4.127648e+01	3.122499e+02
2.920000e-06	5.838454e-06	4.778235e-09	4.074081e+01	3.104089e+02
2.930000e-06	5.760460e-06	4.724642e-09	4.019657e+01	3.085306e+02
2.940000e-06	5.681261e-06	4.676555e-09	3.964392e+01	3.066124e+02
