# Temperatura_=_20.0
# Concentracion g/m^3_=_12600.0
# C_Vs_to_Am_M_A/Vsm_=_65563218390.804596
# pendiente_HvsI_1/m_=_3716.3
# ordenada_HvsI_A/m_=_1297.0
# frecuencia_Hz_=_213251.9123739399

Tiempo_(s)	Campo_(V.s)	Magnetizacion_(V.s)	Campo_(kA/m)	Magnetizacion_(A/m)
0.000000e+00	-8.198070e-06	-8.498295e-10	-5.702833e+01	-5.607968e+01
1.000000e-08	-8.197173e-06	-8.522442e-10	-5.702209e+01	-5.599880e+01
2.000000e-08	-8.194577e-06	-8.573413e-10	-5.700403e+01	-5.591375e+01
3.000000e-08	-8.190594e-06	-8.550068e-10	-5.697633e+01	-5.582942e+01
4.000000e-08	-8.185368e-06	-8.500315e-10	-5.693997e+01	-5.575041e+01
5.000000e-08	-8.178808e-06	-8.462444e-10	-5.689434e+01	-5.568066e+01
6.000000e-08	-8.171087e-06	-8.447065e-10	-5.684063e+01	-5.562315e+01
7.000000e-08	-8.162013e-06	-8.414473e-10	-5.677751e+01	-5.557961e+01
8.000000e-08	-8.151215e-06	-8.171200e-10	-5.670239e+01	-5.555029e+01
9.000000e-08	-8.138697e-06	-8.439468e-10	-5.661531e+01	-5.553394e+01
1.000000e-07	-8.124197e-06	-8.973127e-10	-5.651445e+01	-5.552769e+01
1.100000e-07	-8.107638e-06	-8.721132e-10	-5.639926e+01	-5.552723e+01
1.200000e-07	-8.089525e-06	-8.610774e-10	-5.627326e+01	-5.552696e+01
1.300000e-07	-8.070281e-06	-8.301569e-10	-5.613939e+01	-5.552030e+01
1.400000e-07	-8.050052e-06	-7.316164e-10	-5.599867e+01	-5.550006e+01
1.500000e-07	-8.028741e-06	-8.976044e-10	-5.585043e+01	-5.545880e+01
1.600000e-07	-8.006183e-06	-9.261407e-10	-5.569351e+01	-5.538935e+01
1.700000e-07	-7.982499e-06	-7.551960e-10	-5.552875e+01	-5.528516e+01
1.800000e-07	-7.957286e-06	-8.602465e-10	-5.535336e+01	-5.514080e+01
1.900000e-07	-7.930312e-06	-7.991857e-10	-5.516573e+01	-5.495222e+01
2.000000e-07	-7.902132e-06	-7.748693e-10	-5.496969e+01	-5.471708e+01
2.100000e-07	-7.872695e-06	-9.550578e-10	-5.476492e+01	-5.443486e+01
2.200000e-07	-7.841813e-06	-8.095644e-10	-5.455010e+01	-5.410699e+01
2.300000e-07	-7.809568e-06	-6.924886e-10	-5.432579e+01	-5.373672e+01
2.400000e-07	-7.775815e-06	-8.127302e-10	-5.409099e+01	-5.332898e+01
2.500000e-07	-7.740592e-06	-8.434633e-10	-5.384597e+01	-5.289011e+01
2.600000e-07	-7.704042e-06	-8.707776e-10	-5.359172e+01	-5.242749e+01
2.700000e-07	-7.666092e-06	-7.800268e-10	-5.332772e+01	-5.194913e+01
2.800000e-07	-7.626837e-06	-6.975372e-10	-5.305466e+01	-5.146321e+01
2.900000e-07	-7.586296e-06	-7.737463e-10	-5.277264e+01	-5.097762e+01
3.000000e-07	-7.544261e-06	-8.429933e-10	-5.248023e+01	-5.049954e+01
3.100000e-07	-7.500678e-06	-8.445508e-10	-5.217706e+01	-5.003502e+01
3.200000e-07	-7.455616e-06	-7.443631e-10	-5.186359e+01	-4.958871e+01
3.300000e-07	-7.409240e-06	-6.980882e-10	-5.154099e+01	-4.916362e+01
3.400000e-07	-7.361664e-06	-7.318418e-10	-5.121003e+01	-4.876103e+01
3.500000e-07	-7.312642e-06	-8.057149e-10	-5.086902e+01	-4.838044e+01
3.600000e-07	-7.261857e-06	-8.221997e-10	-5.051574e+01	-4.801976e+01
3.700000e-07	-7.209396e-06	-6.808517e-10	-5.015080e+01	-4.767542e+01
3.800000e-07	-7.155606e-06	-6.368450e-10	-4.977663e+01	-4.734275e+01
3.900000e-07	-7.100775e-06	-7.510656e-10	-4.939520e+01	-4.701625e+01
4.000000e-07	-7.044903e-06	-8.155926e-10	-4.900655e+01	-4.669005e+01
4.100000e-07	-6.987607e-06	-7.388050e-10	-4.860797e+01	-4.635825e+01
4.200000e-07	-6.928783e-06	-6.167252e-10	-4.819878e+01	-4.601531e+01
4.300000e-07	-6.868739e-06	-6.527179e-10	-4.778109e+01	-4.565644e+01
4.400000e-07	-6.807590e-06	-7.675617e-10	-4.735572e+01	-4.527782e+01
4.500000e-07	-6.745287e-06	-7.719342e-10	-4.692232e+01	-4.487682e+01
4.600000e-07	-6.681862e-06	-6.500974e-10	-4.648112e+01	-4.445213e+01
4.700000e-07	-6.617247e-06	-5.805766e-10	-4.603163e+01	-4.400374e+01
4.800000e-07	-6.551286e-06	-6.621107e-10	-4.557279e+01	-4.353290e+01
4.900000e-07	-6.484074e-06	-7.404115e-10	-4.510524e+01	-4.304197e+01
5.000000e-07	-6.415766e-06	-6.938085e-10	-4.463007e+01	-4.253417e+01
5.100000e-07	-6.346375e-06	-5.817988e-10	-4.414736e+01	-4.201331e+01
5.200000e-07	-6.275992e-06	-5.692116e-10	-4.365775e+01	-4.148350e+01
5.300000e-07	-6.204509e-06	-6.589038e-10	-4.316050e+01	-4.094888e+01
5.400000e-07	-6.131819e-06	-6.952681e-10	-4.265484e+01	-4.041324e+01
5.500000e-07	-6.057925e-06	-6.199105e-10	-4.214082e+01	-3.987984e+01
5.600000e-07	-5.982701e-06	-5.494775e-10	-4.161753e+01	-3.935117e+01
5.700000e-07	-5.906254e-06	-5.764099e-10	-4.108574e+01	-3.882884e+01
5.800000e-07	-5.828593e-06	-6.301508e-10	-4.054551e+01	-3.831346e+01
5.900000e-07	-5.749725e-06	-6.192619e-10	-3.999688e+01	-3.780469e+01
6.000000e-07	-5.669732e-06	-5.634582e-10	-3.944042e+01	-3.730130e+01
6.100000e-07	-5.588639e-06	-5.376197e-10	-3.887632e+01	-3.680129e+01
6.200000e-07	-5.506580e-06	-5.557997e-10	-3.830549e+01	-3.630209e+01
6.300000e-07	-5.423645e-06	-5.772611e-10	-3.772857e+01	-3.580075e+01
6.400000e-07	-5.339891e-06	-5.661807e-10	-3.714595e+01	-3.529421e+01
6.500000e-07	-5.255303e-06	-5.344221e-10	-3.655753e+01	-3.477948e+01
6.600000e-07	-5.169871e-06	-5.143665e-10	-3.596324e+01	-3.425386e+01
6.700000e-07	-5.083682e-06	-5.134262e-10	-3.536368e+01	-3.371513e+01
6.800000e-07	-4.996760e-06	-5.242433e-10	-3.475902e+01	-3.316168e+01
6.900000e-07	-4.908897e-06	-5.213264e-10	-3.414782e+01	-3.259254e+01
7.000000e-07	-4.819992e-06	-4.974745e-10	-3.352937e+01	-3.200745e+01
7.100000e-07	-4.730235e-06	-4.741681e-10	-3.290499e+01	-3.140683e+01
7.200000e-07	-4.639572e-06	-4.743738e-10	-3.227431e+01	-3.079164e+01
7.300000e-07	-4.547973e-06	-4.931363e-10	-3.163712e+01	-3.016334e+01
7.400000e-07	-4.455617e-06	-4.899353e-10	-3.099466e+01	-2.952368e+01
7.500000e-07	-4.362479e-06	-4.558372e-10	-3.034676e+01	-2.887458e+01
7.600000e-07	-4.268633e-06	-4.259816e-10	-2.969394e+01	-2.821795e+01
7.700000e-07	-4.174227e-06	-4.245939e-10	-2.903722e+01	-2.755555e+01
7.800000e-07	-4.079169e-06	-4.377292e-10	-2.837597e+01	-2.688887e+01
7.900000e-07	-3.983291e-06	-4.277715e-10	-2.770901e+01	-2.621901e+01
8.000000e-07	-3.886515e-06	-3.932650e-10	-2.703581e+01	-2.554670e+01
8.100000e-07	-3.788968e-06	-3.699059e-10	-2.635725e+01	-2.487219e+01
8.200000e-07	-3.690797e-06	-3.747002e-10	-2.567434e+01	-2.419538e+01
8.300000e-07	-3.591944e-06	-3.853369e-10	-2.498668e+01	-2.351581e+01
8.400000e-07	-3.492403e-06	-3.698928e-10	-2.429424e+01	-2.283277e+01
8.500000e-07	-3.392214e-06	-3.360628e-10	-2.359730e+01	-2.214545e+01
8.600000e-07	-3.291408e-06	-3.147610e-10	-2.289606e+01	-2.145298e+01
8.700000e-07	-3.189996e-06	-3.179091e-10	-2.219060e+01	-2.075463e+01
8.800000e-07	-3.088091e-06	-3.240713e-10	-2.148172e+01	-2.004982e+01
8.900000e-07	-2.985882e-06	-3.063810e-10	-2.077073e+01	-1.933828e+01
9.000000e-07	-2.883252e-06	-2.734500e-10	-2.005680e+01	-1.862002e+01
9.100000e-07	-2.779992e-06	-2.556712e-10	-1.933849e+01	-1.789541e+01
9.200000e-07	-2.676086e-06	-2.631645e-10	-1.861569e+01	-1.716513e+01
9.300000e-07	-2.571598e-06	-2.708168e-10	-1.788884e+01	-1.643011e+01
9.400000e-07	-2.466655e-06	-2.513916e-10	-1.715882e+01	-1.569149e+01
9.500000e-07	-2.361296e-06	-2.171921e-10	-1.642591e+01	-1.495048e+01
9.600000e-07	-2.255495e-06	-2.014817e-10	-1.568993e+01	-1.420830e+01
9.700000e-07	-2.149296e-06	-2.091239e-10	-1.495117e+01	-1.346606e+01
9.800000e-07	-2.042723e-06	-2.076023e-10	-1.420982e+01	-1.272466e+01
9.900000e-07	-1.935781e-06	-1.768193e-10	-1.346590e+01	-1.198472e+01
1.000000e-06	-1.828479e-06	-1.443543e-10	-1.271947e+01	-1.124655e+01
1.010000e-06	-1.720837e-06	-1.397272e-10	-1.197068e+01	-1.051007e+01
1.020000e-06	-1.612914e-06	-1.510843e-10	-1.121993e+01	-9.774894e+00
1.030000e-06	-1.504769e-06	-1.443256e-10	-1.046764e+01	-9.040333e+00
1.040000e-06	-1.396402e-06	-1.144164e-10	-9.713807e+00	-8.305462e+00
1.050000e-06	-1.287728e-06	-9.186427e-11	-8.957840e+00	-7.569221e+00
1.060000e-06	-1.178784e-06	-9.264897e-11	-8.199988e+00	-6.830514e+00
1.070000e-06	-1.069686e-06	-9.605979e-11	-7.441071e+00	-6.088317e+00
1.080000e-06	-9.604324e-07	-7.730217e-11	-6.681067e+00	-5.341781e+00
1.090000e-06	-8.510252e-07	-4.753508e-11	-5.919996e+00	-4.590317e+00
1.100000e-06	-7.414483e-07	-3.083875e-11	-5.157745e+00	-3.833667e+00
1.110000e-06	-6.316915e-07	-3.002026e-11	-4.394243e+00	-3.071938e+00
1.120000e-06	-5.218120e-07	-2.954875e-11	-3.629887e+00	-2.305608e+00
1.130000e-06	-4.119010e-07	-1.684689e-11	-2.865312e+00	-1.535500e+00
1.140000e-06	-3.019496e-07	2.555158e-12	-2.100455e+00	-7.627261e-01
1.150000e-06	-1.919210e-07	1.507258e-11	-1.335063e+00	1.139771e-02
1.160000e-06	-8.186890e-08	1.972655e-11	-5.695056e-01	7.854536e-01
1.170000e-06	2.815925e-08	2.734371e-11	1.958845e-01	1.558035e+00
1.180000e-06	1.381698e-07	4.410664e-11	9.611522e-01	2.327861e+00
1.190000e-06	2.481953e-07	6.353597e-11	1.726524e+00	3.093883e+00
1.200000e-06	3.582235e-07	7.686735e-11	2.491914e+00	3.855371e+00
1.210000e-06	4.681777e-07	8.407571e-11	3.256790e+00	4.611976e+00
1.220000e-06	5.780403e-07	8.977316e-11	4.021029e+00	5.363762e+00
1.230000e-06	6.878186e-07	1.009690e-10	4.784681e+00	6.111204e+00
1.240000e-06	7.974536e-07	1.174077e-10	5.547336e+00	6.855146e+00
1.250000e-06	9.069995e-07	1.282828e-10	6.309372e+00	7.596735e+00
1.260000e-06	1.016429e-06	1.309544e-10	7.070599e+00	8.337320e+00
1.270000e-06	1.125583e-06	1.381338e-10	7.829907e+00	9.078342e+00
1.280000e-06	1.234466e-06	1.577146e-10	8.587329e+00	9.821199e+00
1.290000e-06	1.343162e-06	1.794948e-10	9.343455e+00	1.056713e+01
1.300000e-06	1.451655e-06	1.927428e-10	1.009816e+01	1.131708e+01
1.310000e-06	1.559887e-06	1.969530e-10	1.085106e+01	1.207163e+01
1.320000e-06	1.667800e-06	2.028214e-10	1.160173e+01	1.283091e+01
1.330000e-06	1.775405e-06	2.170145e-10	1.235027e+01	1.359457e+01
1.340000e-06	1.882744e-06	2.312833e-10	1.309695e+01	1.436178e+01
1.350000e-06	1.989783e-06	2.388081e-10	1.384155e+01	1.513126e+01
1.360000e-06	2.096471e-06	2.443998e-10	1.458370e+01	1.590136e+01
1.370000e-06	2.202762e-06	2.557132e-10	1.532310e+01	1.667018e+01
1.380000e-06	2.308630e-06	2.725813e-10	1.605955e+01	1.743565e+01
1.390000e-06	2.413988e-06	2.872119e-10	1.679245e+01	1.819571e+01
1.400000e-06	2.518830e-06	2.955103e-10	1.752177e+01	1.894840e+01
1.410000e-06	2.623187e-06	3.012334e-10	1.824771e+01	1.969203e+01
1.420000e-06	2.726968e-06	3.102144e-10	1.896964e+01	2.042525e+01
1.430000e-06	2.830158e-06	3.245956e-10	1.968746e+01	2.114714e+01
1.440000e-06	2.932858e-06	3.368491e-10	2.040187e+01	2.185727e+01
1.450000e-06	3.035120e-06	3.436826e-10	2.111324e+01	2.255570e+01
1.460000e-06	3.136932e-06	3.507080e-10	2.182148e+01	2.324292e+01
1.470000e-06	3.238196e-06	3.634649e-10	2.252590e+01	2.391985e+01
1.480000e-06	3.338862e-06	3.787775e-10	2.322617e+01	2.458771e+01
1.490000e-06	3.438948e-06	3.903568e-10	2.392240e+01	2.524791e+01
1.500000e-06	3.538453e-06	3.966440e-10	2.461458e+01	2.590193e+01
1.510000e-06	3.637358e-06	4.025607e-10	2.530260e+01	2.655119e+01
1.520000e-06	3.735587e-06	4.133646e-10	2.598591e+01	2.719696e+01
1.530000e-06	3.833068e-06	4.262724e-10	2.666402e+01	2.784021e+01
1.540000e-06	3.929811e-06	4.348747e-10	2.733699e+01	2.848159e+01
1.550000e-06	4.025731e-06	4.396277e-10	2.800424e+01	2.912136e+01
1.560000e-06	4.120812e-06	4.471772e-10	2.866565e+01	2.975938e+01
1.570000e-06	4.215226e-06	4.621572e-10	2.932243e+01	3.039515e+01
1.580000e-06	4.309045e-06	4.796640e-10	2.997506e+01	3.102789e+01
1.590000e-06	4.402197e-06	4.894026e-10	3.062305e+01	3.165656e+01
1.600000e-06	4.494562e-06	4.936864e-10	3.126558e+01	3.228006e+01
1.610000e-06	4.586132e-06	5.023045e-10	3.190257e+01	3.289723e+01
1.620000e-06	4.676961e-06	5.162465e-10	3.253440e+01	3.350708e+01
1.630000e-06	4.766944e-06	5.273019e-10	3.316035e+01	3.410878e+01
1.640000e-06	4.855925e-06	5.331082e-10	3.377933e+01	3.470182e+01
1.650000e-06	4.943856e-06	5.378715e-10	3.439100e+01	3.528601e+01
1.660000e-06	5.030866e-06	5.471539e-10	3.499627e+01	3.586154e+01
1.670000e-06	5.117171e-06	5.609342e-10	3.559663e+01	3.642893e+01
1.680000e-06	5.202696e-06	5.711033e-10	3.619157e+01	3.698899e+01
1.690000e-06	5.287304e-06	5.759558e-10	3.678014e+01	3.754275e+01
1.700000e-06	5.371030e-06	5.825638e-10	3.736256e+01	3.809134e+01
1.710000e-06	5.453901e-06	5.956583e-10	3.793904e+01	3.863588e+01
1.720000e-06	5.535790e-06	6.083031e-10	3.850868e+01	3.917736e+01
1.730000e-06	5.616564e-06	6.148731e-10	3.907057e+01	3.971654e+01
1.740000e-06	5.696314e-06	6.190521e-10	3.962534e+01	4.025382e+01
1.750000e-06	5.775089e-06	6.252581e-10	4.017332e+01	4.078918e+01
1.760000e-06	5.852797e-06	6.351300e-10	4.071388e+01	4.132215e+01
1.770000e-06	5.929473e-06	6.444748e-10	4.124726e+01	4.185182e+01
1.780000e-06	6.005145e-06	6.509746e-10	4.177366e+01	4.237685e+01
1.790000e-06	6.079666e-06	6.580737e-10	4.229205e+01	4.289557e+01
1.800000e-06	6.152820e-06	6.672671e-10	4.280093e+01	4.340609e+01
1.810000e-06	6.224679e-06	6.770593e-10	4.330081e+01	4.390642e+01
1.820000e-06	6.295544e-06	6.834585e-10	4.379377e+01	4.439462e+01
1.830000e-06	6.365326e-06	6.864037e-10	4.427919e+01	4.486898e+01
1.840000e-06	6.433938e-06	6.894852e-10	4.475648e+01	4.532810e+01
1.850000e-06	6.501538e-06	6.949555e-10	4.522673e+01	4.577108e+01
1.860000e-06	6.568097e-06	7.010187e-10	4.568973e+01	4.619754e+01
1.870000e-06	6.633371e-06	7.053095e-10	4.614380e+01	4.660770e+01
1.880000e-06	6.697303e-06	7.097336e-10	4.658853e+01	4.700239e+01
1.890000e-06	6.760086e-06	7.160948e-10	4.702527e+01	4.738296e+01
1.900000e-06	6.821759e-06	7.240705e-10	4.745428e+01	4.775122e+01
1.910000e-06	6.882331e-06	7.316907e-10	4.787564e+01	4.810932e+01
1.920000e-06	6.941906e-06	7.379157e-10	4.829006e+01	4.845955e+01
1.930000e-06	7.000262e-06	7.424762e-10	4.869600e+01	4.880419e+01
1.940000e-06	7.057122e-06	7.457040e-10	4.909154e+01	4.914536e+01
1.950000e-06	7.112638e-06	7.501372e-10	4.947773e+01	4.948478e+01
1.960000e-06	7.166934e-06	7.556171e-10	4.985543e+01	4.982369e+01
1.970000e-06	7.219970e-06	7.590389e-10	5.022436e+01	5.016273e+01
1.980000e-06	7.271615e-06	7.630089e-10	5.058362e+01	5.050182e+01
1.990000e-06	7.321602e-06	7.692302e-10	5.093135e+01	5.084025e+01
2.000000e-06	7.369911e-06	7.766020e-10	5.126740e+01	5.117662e+01
2.010000e-06	7.416864e-06	7.831969e-10	5.159402e+01	5.150902e+01
2.020000e-06	7.462588e-06	7.886488e-10	5.191209e+01	5.183512e+01
2.030000e-06	7.507081e-06	7.931223e-10	5.222160e+01	5.215234e+01
2.040000e-06	7.550447e-06	7.972759e-10	5.252327e+01	5.245807e+01
2.050000e-06	7.592393e-06	8.013433e-10	5.281505e+01	5.274988e+01
2.060000e-06	7.632737e-06	8.048920e-10	5.309570e+01	5.302566e+01
2.070000e-06	7.671719e-06	8.088171e-10	5.336687e+01	5.328386e+01
2.080000e-06	7.709401e-06	8.130935e-10	5.362899e+01	5.352357e+01
2.090000e-06	7.745886e-06	8.181209e-10	5.388280e+01	5.374459e+01
2.100000e-06	7.781211e-06	8.224371e-10	5.412853e+01	5.394751e+01
2.110000e-06	7.815093e-06	8.262369e-10	5.436422e+01	5.413360e+01
2.120000e-06	7.847440e-06	8.295825e-10	5.458924e+01	5.430477e+01
2.130000e-06	7.878437e-06	8.312999e-10	5.480486e+01	5.446340e+01
2.140000e-06	7.908115e-06	8.311813e-10	5.501132e+01	5.461213e+01
2.150000e-06	7.936475e-06	8.317118e-10	5.520859e+01	5.475367e+01
2.160000e-06	7.963507e-06	8.342404e-10	5.539664e+01	5.489057e+01
2.170000e-06	7.988907e-06	8.369168e-10	5.557333e+01	5.502497e+01
2.180000e-06	8.012714e-06	8.403873e-10	5.573894e+01	5.515845e+01
2.190000e-06	8.035169e-06	8.463310e-10	5.589514e+01	5.529186e+01
2.200000e-06	8.056295e-06	8.525690e-10	5.604210e+01	5.542522e+01
2.210000e-06	8.076264e-06	8.555663e-10	5.618101e+01	5.555770e+01
2.220000e-06	8.094935e-06	8.566245e-10	5.631089e+01	5.568765e+01
2.230000e-06	8.112013e-06	8.582730e-10	5.642969e+01	5.581271e+01
2.240000e-06	8.127501e-06	8.593605e-10	5.653743e+01	5.592999e+01
2.250000e-06	8.141514e-06	8.601329e-10	5.663491e+01	5.603630e+01
2.260000e-06	8.154133e-06	8.595238e-10	5.672269e+01	5.612837e+01
2.270000e-06	8.165238e-06	8.584439e-10	5.679994e+01	5.620319e+01
2.280000e-06	8.174545e-06	8.616247e-10	5.686468e+01	5.625818e+01
2.290000e-06	8.182218e-06	8.677165e-10	5.691806e+01	5.629156e+01
2.300000e-06	8.188586e-06	8.720331e-10	5.696236e+01	5.630243e+01
2.310000e-06	8.193588e-06	8.736893e-10	5.699715e+01	5.629097e+01
2.320000e-06	8.197303e-06	8.738758e-10	5.702300e+01	5.625848e+01
2.330000e-06	8.199505e-06	8.739253e-10	5.703832e+01	5.620737e+01
2.340000e-06	8.199963e-06	8.763289e-10	5.704150e+01	5.614101e+01
2.350000e-06	8.199020e-06	8.786274e-10	5.703494e+01	5.606357e+01
2.360000e-06	8.196855e-06	8.730302e-10	5.701988e+01	5.597976e+01
2.370000e-06	8.193464e-06	8.709060e-10	5.699629e+01	5.589448e+01
2.380000e-06	8.188869e-06	8.726946e-10	5.696432e+01	5.581250e+01
2.390000e-06	8.182776e-06	8.746392e-10	5.692194e+01	5.573812e+01
2.400000e-06	8.175112e-06	8.775826e-10	5.686863e+01	5.567478e+01
2.410000e-06	8.166214e-06	8.823580e-10	5.680673e+01	5.562480e+01
2.420000e-06	8.156099e-06	9.216851e-10	5.673637e+01	5.558911e+01
2.430000e-06	8.144636e-06	8.641433e-10	5.665663e+01	5.556716e+01
2.440000e-06	8.131335e-06	8.015525e-10	5.656410e+01	5.555678e+01
2.450000e-06	8.115725e-06	8.350865e-10	5.645551e+01	5.555430e+01
2.460000e-06	8.098123e-06	8.204250e-10	5.633307e+01	5.555468e+01
2.470000e-06	8.079199e-06	9.475622e-10	5.620143e+01	5.555173e+01
2.480000e-06	8.059584e-06	9.322687e-10	5.606498e+01	5.553848e+01
2.490000e-06	8.039138e-06	6.991129e-10	5.592275e+01	5.550756e+01
2.500000e-06	8.016933e-06	8.862925e-10	5.576829e+01	5.545162e+01
2.510000e-06	7.993093e-06	9.103345e-10	5.560245e+01	5.536379e+01
2.520000e-06	7.968200e-06	8.262222e-10	5.542928e+01	5.523807e+01
2.530000e-06	7.941854e-06	1.041529e-09	5.524602e+01	5.506975e+01
2.540000e-06	7.914050e-06	8.364862e-10	5.505260e+01	5.485570e+01
2.550000e-06	7.884896e-06	7.516607e-10	5.484980e+01	5.459458e+01
2.560000e-06	7.854172e-06	1.027646e-09	5.463607e+01	5.428692e+01
2.570000e-06	7.822073e-06	8.965837e-10	5.441278e+01	5.393518e+01
2.580000e-06	7.788460e-06	7.966053e-10	5.417896e+01	5.354357e+01
2.590000e-06	7.753406e-06	7.448953e-10	5.393511e+01	5.311781e+01
2.600000e-06	7.717328e-06	6.875370e-10	5.368414e+01	5.266489e+01
2.610000e-06	7.679885e-06	9.170839e-10	5.342368e+01	5.219257e+01
2.620000e-06	7.640792e-06	8.437129e-10	5.315173e+01	5.170901e+01
2.630000e-06	7.600176e-06	7.578064e-10	5.286919e+01	5.122231e+01
2.640000e-06	7.558264e-06	7.225619e-10	5.257764e+01	5.073999e+01
2.650000e-06	7.515263e-06	6.429777e-10	5.227851e+01	5.026867e+01
2.660000e-06	7.471084e-06	8.364177e-10	5.197119e+01	4.981366e+01
2.670000e-06	7.425579e-06	8.513628e-10	5.165464e+01	4.937873e+01
2.680000e-06	7.378545e-06	7.510445e-10	5.132746e+01	4.896594e+01
2.690000e-06	7.330048e-06	6.197386e-10	5.099010e+01	4.857558e+01
2.700000e-06	7.280367e-06	6.275093e-10	5.064450e+01	4.820627e+01
2.710000e-06	7.229413e-06	8.986602e-10	5.029005e+01	4.785506e+01
2.720000e-06	7.176984e-06	8.146623e-10	4.992534e+01	4.751775e+01
2.730000e-06	7.122917e-06	6.237378e-10	4.954923e+01	4.718916e+01
2.740000e-06	7.067394e-06	5.813782e-10	4.916299e+01	4.686353e+01
2.750000e-06	7.010700e-06	7.229621e-10	4.876861e+01	4.653493e+01
2.760000e-06	6.952766e-06	8.664190e-10	4.836561e+01	4.619762e+01
2.770000e-06	6.893599e-06	6.860827e-10	4.795402e+01	4.584643e+01
2.780000e-06	6.833247e-06	5.663065e-10	4.753420e+01	4.547706e+01
2.790000e-06	6.771713e-06	6.137675e-10	4.710615e+01	4.508635e+01
2.800000e-06	6.708835e-06	7.582223e-10	4.666875e+01	4.467236e+01
2.810000e-06	6.644618e-06	7.697283e-10	4.622203e+01	4.423452e+01
2.820000e-06	6.579238e-06	6.180850e-10	4.576723e+01	4.377352e+01
2.830000e-06	6.512709e-06	5.648487e-10	4.530443e+01	4.329126e+01
2.840000e-06	6.445157e-06	6.299952e-10	4.483452e+01	4.279057e+01
2.850000e-06	6.376475e-06	7.321181e-10	4.435675e+01	4.227505e+01
2.860000e-06	6.306484e-06	6.745721e-10	4.386987e+01	4.174873e+01
2.870000e-06	6.235177e-06	5.714789e-10	4.337383e+01	4.121574e+01
2.880000e-06	6.162738e-06	5.652369e-10	4.286993e+01	4.068009e+01
2.890000e-06	6.089326e-06	6.305698e-10	4.235925e+01	4.014529e+01
2.900000e-06	6.014793e-06	6.567046e-10	4.184077e+01	3.961421e+01
2.910000e-06	5.939035e-06	5.988757e-10	4.131378e+01	3.908886e+01
2.920000e-06	5.862018e-06	5.635919e-10	4.077803e+01	3.857030e+01
2.930000e-06	5.783799e-06	5.566060e-10	4.023391e+01	3.805863e+01
2.940000e-06	5.704429e-06	5.771233e-10	3.968179e+01	3.755299e+01
2.950000e-06	5.623977e-06	5.866324e-10	3.912214e+01	3.705172e+01
