# Temperatura_=_20.0
# Concentracion g/m^3_=_12600.0
# C_Vs_to_Am_M_A/Vsm_=_65563218390.804596
# pendiente_HvsI_1/m_=_3716.3
# ordenada_HvsI_A/m_=_1297.0
# frecuencia_Hz_=_213245.61319789235

Tiempo_(s)	Campo_(V.s)	Magnetizacion_(V.s)	Campo_(kA/m)	Magnetizacion_(A/m)
0.000000e+00	-8.136305e-06	-5.373881e-09	-5.702562e+01	-3.507652e+02
1.000000e-08	-8.135060e-06	-5.376894e-09	-5.701690e+01	-3.506737e+02
2.000000e-08	-8.132196e-06	-5.379602e-09	-5.699682e+01	-3.505354e+02
3.000000e-08	-8.128006e-06	-5.377446e-09	-5.696745e+01	-3.503557e+02
4.000000e-08	-8.122604e-06	-5.372408e-09	-5.692959e+01	-3.501414e+02
5.000000e-08	-8.115937e-06	-5.366078e-09	-5.688287e+01	-3.499009e+02
6.000000e-08	-8.108099e-06	-5.360458e-09	-5.682793e+01	-3.496434e+02
7.000000e-08	-8.098795e-06	-5.345294e-09	-5.676272e+01	-3.493785e+02
8.000000e-08	-8.087658e-06	-5.324939e-09	-5.668467e+01	-3.491158e+02
9.000000e-08	-8.074798e-06	-5.382825e-09	-5.659453e+01	-3.488642e+02
1.000000e-07	-8.059886e-06	-5.421978e-09	-5.649001e+01	-3.486314e+02
1.100000e-07	-8.043024e-06	-5.387358e-09	-5.637183e+01	-3.484234e+02
1.200000e-07	-8.024750e-06	-5.365971e-09	-5.624376e+01	-3.482439e+02
1.300000e-07	-8.005407e-06	-5.269172e-09	-5.610818e+01	-3.480945e+02
1.400000e-07	-7.985221e-06	-5.260591e-09	-5.596670e+01	-3.479741e+02
1.500000e-07	-7.963868e-06	-5.456362e-09	-5.581704e+01	-3.478788e+02
1.600000e-07	-7.941202e-06	-5.341902e-09	-5.565818e+01	-3.478026e+02
1.700000e-07	-7.917422e-06	-5.265491e-09	-5.549151e+01	-3.477371e+02
1.800000e-07	-7.892013e-06	-5.350590e-09	-5.531343e+01	-3.476721e+02
1.900000e-07	-7.864890e-06	-5.211581e-09	-5.512333e+01	-3.475962e+02
2.000000e-07	-7.836702e-06	-5.329233e-09	-5.492577e+01	-3.474971e+02
2.100000e-07	-7.807269e-06	-5.406353e-09	-5.471948e+01	-3.473624e+02
2.200000e-07	-7.776371e-06	-5.179632e-09	-5.450292e+01	-3.471804e+02
2.300000e-07	-7.744102e-06	-5.200342e-09	-5.427676e+01	-3.469400e+02
2.400000e-07	-7.710290e-06	-5.322292e-09	-5.403977e+01	-3.466319e+02
2.500000e-07	-7.675060e-06	-5.314483e-09	-5.379285e+01	-3.462487e+02
2.600000e-07	-7.638487e-06	-5.268278e-09	-5.353652e+01	-3.457852e+02
2.700000e-07	-7.600406e-06	-5.139380e-09	-5.326961e+01	-3.452384e+02
2.800000e-07	-7.561149e-06	-5.164941e-09	-5.299447e+01	-3.446078e+02
2.900000e-07	-7.520721e-06	-5.275323e-09	-5.271112e+01	-3.438953e+02
3.000000e-07	-7.478753e-06	-5.274130e-09	-5.241698e+01	-3.431045e+02
3.100000e-07	-7.435234e-06	-5.166153e-09	-5.211196e+01	-3.422409e+02
3.200000e-07	-7.390313e-06	-5.079708e-09	-5.179712e+01	-3.413113e+02
3.300000e-07	-7.344127e-06	-5.136574e-09	-5.147341e+01	-3.403230e+02
3.400000e-07	-7.296747e-06	-5.186738e-09	-5.114134e+01	-3.392841e+02
3.500000e-07	-7.247920e-06	-5.173470e-09	-5.079912e+01	-3.382021e+02
3.600000e-07	-7.197268e-06	-5.079051e-09	-5.044411e+01	-3.370841e+02
3.700000e-07	-7.144902e-06	-4.998647e-09	-5.007708e+01	-3.359363e+02
3.800000e-07	-7.091273e-06	-5.075984e-09	-4.970121e+01	-3.347636e+02
3.900000e-07	-7.036566e-06	-5.124884e-09	-4.931779e+01	-3.335695e+02
4.000000e-07	-6.980738e-06	-5.049771e-09	-4.892649e+01	-3.323560e+02
4.100000e-07	-6.923550e-06	-4.953611e-09	-4.852568e+01	-3.311238e+02
4.200000e-07	-6.864873e-06	-4.958387e-09	-4.811443e+01	-3.298720e+02
4.300000e-07	-6.804986e-06	-5.035751e-09	-4.769469e+01	-3.285986e+02
4.400000e-07	-6.743995e-06	-5.020415e-09	-4.726722e+01	-3.273009e+02
4.500000e-07	-6.681854e-06	-4.918752e-09	-4.683168e+01	-3.259753e+02
4.600000e-07	-6.618691e-06	-4.854166e-09	-4.638899e+01	-3.246180e+02
4.700000e-07	-6.554475e-06	-4.898690e-09	-4.593891e+01	-3.232251e+02
4.800000e-07	-6.488852e-06	-4.939489e-09	-4.547897e+01	-3.217932e+02
4.900000e-07	-6.421812e-06	-4.881870e-09	-4.500911e+01	-3.203191e+02
5.000000e-07	-6.353679e-06	-4.790394e-09	-4.453158e+01	-3.188003e+02
5.100000e-07	-6.284539e-06	-4.765103e-09	-4.404699e+01	-3.172351e+02
5.200000e-07	-6.214377e-06	-4.810946e-09	-4.355524e+01	-3.156227e+02
5.300000e-07	-6.143236e-06	-4.815800e-09	-4.305662e+01	-3.139628e+02
5.400000e-07	-6.070964e-06	-4.741367e-09	-4.255008e+01	-3.122560e+02
5.500000e-07	-5.997336e-06	-4.666881e-09	-4.203405e+01	-3.105034e+02
5.600000e-07	-5.922399e-06	-4.670105e-09	-4.150883e+01	-3.087064e+02
5.700000e-07	-5.846332e-06	-4.693473e-09	-4.097569e+01	-3.068667e+02
5.800000e-07	-5.769189e-06	-4.651528e-09	-4.043501e+01	-3.049860e+02
5.900000e-07	-5.690849e-06	-4.581245e-09	-3.988594e+01	-3.030657e+02
6.000000e-07	-5.611259e-06	-4.549440e-09	-3.932811e+01	-3.011071e+02
6.100000e-07	-5.530593e-06	-4.556080e-09	-3.876274e+01	-2.991109e+02
6.200000e-07	-5.448943e-06	-4.539565e-09	-3.819047e+01	-2.970773e+02
6.300000e-07	-5.366392e-06	-4.488028e-09	-3.761189e+01	-2.950061e+02
6.400000e-07	-5.283050e-06	-4.438930e-09	-3.702777e+01	-2.928964e+02
6.500000e-07	-5.198873e-06	-4.416978e-09	-3.643779e+01	-2.907468e+02
6.600000e-07	-5.113864e-06	-4.402583e-09	-3.584197e+01	-2.885556e+02
6.700000e-07	-5.028063e-06	-4.361536e-09	-3.524062e+01	-2.863208e+02
6.800000e-07	-4.941487e-06	-4.312246e-09	-3.463382e+01	-2.840399e+02
6.900000e-07	-4.854164e-06	-4.277508e-09	-3.402180e+01	-2.817107e+02
7.000000e-07	-4.765979e-06	-4.254273e-09	-3.340373e+01	-2.793307e+02
7.100000e-07	-4.676755e-06	-4.223303e-09	-3.277837e+01	-2.768978e+02
7.200000e-07	-4.586545e-06	-4.178248e-09	-3.214611e+01	-2.744099e+02
7.300000e-07	-4.495547e-06	-4.139683e-09	-3.150832e+01	-2.718652e+02
7.400000e-07	-4.403807e-06	-4.106138e-09	-3.086534e+01	-2.692622e+02
7.500000e-07	-4.311332e-06	-4.065498e-09	-3.021721e+01	-2.665996e+02
7.600000e-07	-4.218121e-06	-4.016548e-09	-2.956390e+01	-2.638764e+02
7.700000e-07	-4.124171e-06	-3.967496e-09	-2.890543e+01	-2.610919e+02
7.800000e-07	-4.029574e-06	-3.932081e-09	-2.824242e+01	-2.582454e+02
7.900000e-07	-3.934347e-06	-3.894686e-09	-2.757499e+01	-2.553366e+02
8.000000e-07	-3.838394e-06	-3.843486e-09	-2.690248e+01	-2.523649e+02
8.100000e-07	-3.741624e-06	-3.789799e-09	-2.622424e+01	-2.493300e+02
8.200000e-07	-3.644049e-06	-3.746601e-09	-2.554036e+01	-2.462313e+02
8.300000e-07	-3.545719e-06	-3.712096e-09	-2.485118e+01	-2.430684e+02
8.400000e-07	-3.446792e-06	-3.661485e-09	-2.415782e+01	-2.398405e+02
8.500000e-07	-3.347306e-06	-3.593767e-09	-2.346055e+01	-2.365469e+02
8.600000e-07	-3.247201e-06	-3.535548e-09	-2.275894e+01	-2.331866e+02
8.700000e-07	-3.146562e-06	-3.497248e-09	-2.205358e+01	-2.297587e+02
8.800000e-07	-3.045380e-06	-3.456282e-09	-2.134442e+01	-2.262620e+02
8.900000e-07	-2.943665e-06	-3.388981e-09	-2.063152e+01	-2.226952e+02
9.000000e-07	-2.841454e-06	-3.314017e-09	-1.991514e+01	-2.190569e+02
9.100000e-07	-2.738722e-06	-3.261499e-09	-1.919512e+01	-2.153457e+02
9.200000e-07	-2.635556e-06	-3.222224e-09	-1.847205e+01	-2.115600e+02
9.300000e-07	-2.532017e-06	-3.167300e-09	-1.774636e+01	-2.076982e+02
9.400000e-07	-2.428044e-06	-3.089552e-09	-1.701764e+01	-2.037584e+02
9.500000e-07	-2.323556e-06	-3.017650e-09	-1.628531e+01	-1.997388e+02
9.600000e-07	-2.218485e-06	-2.965945e-09	-1.554888e+01	-1.956374e+02
9.700000e-07	-2.112903e-06	-2.912486e-09	-1.480888e+01	-1.914521e+02
9.800000e-07	-2.006972e-06	-2.841233e-09	-1.406644e+01	-1.871806e+02
9.900000e-07	-1.900693e-06	-2.759812e-09	-1.332155e+01	-1.828207e+02
1.000000e-06	-1.794008e-06	-2.690775e-09	-1.257382e+01	-1.783701e+02
1.010000e-06	-1.687050e-06	-2.634460e-09	-1.182417e+01	-1.738265e+02
1.020000e-06	-1.579921e-06	-2.570231e-09	-1.107333e+01	-1.691876e+02
1.030000e-06	-1.472545e-06	-2.490048e-09	-1.032075e+01	-1.644514e+02
1.040000e-06	-1.364894e-06	-2.407275e-09	-9.566247e+00	-1.596158e+02
1.050000e-06	-1.256988e-06	-2.336232e-09	-8.809963e+00	-1.546791e+02
1.060000e-06	-1.148800e-06	-2.268032e-09	-8.051691e+00	-1.496399e+02
1.070000e-06	-1.040355e-06	-2.189925e-09	-7.291622e+00	-1.444969e+02
1.080000e-06	-9.316988e-07	-2.102556e-09	-6.530078e+00	-1.392492e+02
1.090000e-06	-8.228779e-07	-2.015542e-09	-5.767375e+00	-1.338959e+02
1.100000e-06	-7.140118e-07	-1.934846e-09	-5.004356e+00	-1.284366e+02
1.110000e-06	-6.050939e-07	-1.856802e-09	-4.240974e+00	-1.228705e+02
1.120000e-06	-4.960807e-07	-1.773114e-09	-3.476924e+00	-1.171970e+02
1.130000e-06	-3.870018e-07	-1.682394e-09	-2.712413e+00	-1.114149e+02
1.140000e-06	-2.778186e-07	-1.591492e-09	-1.947171e+00	-1.055229e+02
1.150000e-06	-1.685981e-07	-1.505540e-09	-1.181668e+00	-9.951890e+01
1.160000e-06	-5.940362e-08	-1.417900e-09	-4.163472e-01	-9.340019e+01
1.170000e-06	4.980735e-08	-1.321447e-09	3.490890e-01	-8.716319e+01
1.180000e-06	1.590065e-07	-1.219197e-09	1.114443e+00	-8.080348e+01
1.190000e-06	2.681928e-07	-1.117245e-09	1.879706e+00	-7.431585e+01
1.200000e-06	3.773473e-07	-1.019039e-09	2.644747e+00	-6.769434e+01
1.210000e-06	4.864686e-07	-9.180185e-10	3.409554e+00	-6.093248e+01
1.220000e-06	5.955492e-07	-8.111743e-10	4.174077e+00	-5.402358e+01
1.230000e-06	7.045465e-07	-7.026462e-10	4.938015e+00	-4.696105e+01
1.240000e-06	8.134250e-07	-5.921225e-10	5.701121e+00	-3.973885e+01
1.250000e-06	9.221587e-07	-4.811626e-10	6.463213e+00	-3.235201e+01
1.260000e-06	1.030724e-06	-3.682441e-10	7.224122e+00	-2.479709e+01
1.270000e-06	1.139068e-06	-2.508794e-10	7.983487e+00	-1.707276e+01
1.280000e-06	1.247195e-06	-1.274787e-10	8.741323e+00	-9.180290e+00
1.290000e-06	1.355069e-06	-3.311310e-12	9.497386e+00	-1.123974e+00
1.300000e-06	1.462596e-06	1.195274e-10	1.025103e+01	7.088470e+00
1.310000e-06	1.569840e-06	2.437856e-10	1.100267e+01	1.544567e+01
1.320000e-06	1.676843e-06	3.720849e-10	1.175264e+01	2.393246e+01
1.330000e-06	1.783570e-06	5.046679e-10	1.250066e+01	3.252995e+01
1.340000e-06	1.890062e-06	6.367901e-10	1.324704e+01	4.121567e+01
1.350000e-06	1.996255e-06	7.680924e-10	1.399133e+01	4.996399e+01
1.360000e-06	2.102057e-06	9.011521e-10	1.473287e+01	5.874658e+01
1.370000e-06	2.207433e-06	1.036702e-09	1.547142e+01	6.753306e+01
1.380000e-06	2.312241e-06	1.173429e-09	1.620600e+01	7.629181e+01
1.390000e-06	2.416496e-06	1.307401e-09	1.693670e+01	8.499073e+01
1.400000e-06	2.520305e-06	1.436636e-09	1.766428e+01	9.359820e+01
1.410000e-06	2.623656e-06	1.565752e-09	1.838864e+01	1.020839e+02
1.420000e-06	2.726555e-06	1.696360e-09	1.910984e+01	1.104196e+02
1.430000e-06	2.828997e-06	1.824676e-09	1.982783e+01	1.185800e+02
1.440000e-06	2.930948e-06	1.943529e-09	2.054239e+01	1.265434e+02
1.450000e-06	3.032434e-06	2.057263e-09	2.125368e+01	1.342920e+02
1.460000e-06	3.133468e-06	2.171423e-09	2.196180e+01	1.418123e+02
1.470000e-06	3.233989e-06	2.283978e-09	2.266634e+01	1.490954e+02
1.480000e-06	3.333900e-06	2.389164e-09	2.336659e+01	1.561366e+02
1.490000e-06	3.433138e-06	2.488725e-09	2.406213e+01	1.629355e+02
1.500000e-06	3.531802e-06	2.586661e-09	2.475364e+01	1.694955e+02
1.510000e-06	3.629892e-06	2.684619e-09	2.544114e+01	1.758229e+02
1.520000e-06	3.727213e-06	2.779196e-09	2.612324e+01	1.819271e+02
1.530000e-06	3.823648e-06	2.867928e-09	2.679913e+01	1.878190e+02
1.540000e-06	3.919287e-06	2.951156e-09	2.746944e+01	1.935109e+02
1.550000e-06	4.014244e-06	3.030536e-09	2.813498e+01	1.990157e+02
1.560000e-06	4.108557e-06	3.109468e-09	2.879599e+01	2.043460e+02
1.570000e-06	4.202195e-06	3.188916e-09	2.945229e+01	2.095137e+02
1.580000e-06	4.295194e-06	3.267939e-09	3.010409e+01	2.145298e+02
1.590000e-06	4.387566e-06	3.343942e-09	3.075151e+01	2.194037e+02
1.600000e-06	4.479161e-06	3.417782e-09	3.139348e+01	2.241431e+02
1.610000e-06	4.569888e-06	3.489297e-09	3.202937e+01	2.287540e+02
1.620000e-06	4.659746e-06	3.558241e-09	3.265916e+01	2.332411e+02
1.630000e-06	4.748693e-06	3.624754e-09	3.328257e+01	2.376073e+02
1.640000e-06	4.836684e-06	3.687491e-09	3.389928e+01	2.418545e+02
1.650000e-06	4.923802e-06	3.747397e-09	3.450988e+01	2.459838e+02
1.660000e-06	5.010078e-06	3.805134e-09	3.511456e+01	2.499958e+02
1.670000e-06	5.095551e-06	3.861898e-09	3.571363e+01	2.538908e+02
1.680000e-06	5.180234e-06	3.919282e-09	3.630715e+01	2.576694e+02
1.690000e-06	5.264023e-06	3.974456e-09	3.689441e+01	2.613325e+02
1.700000e-06	5.346951e-06	4.028365e-09	3.747563e+01	2.648816e+02
1.710000e-06	5.429000e-06	4.083128e-09	3.805070e+01	2.683189e+02
1.720000e-06	5.509984e-06	4.135301e-09	3.861830e+01	2.716474e+02
1.730000e-06	5.589902e-06	4.183363e-09	3.917842e+01	2.748705e+02
1.740000e-06	5.668905e-06	4.228635e-09	3.973214e+01	2.779924e+02
1.750000e-06	5.746920e-06	4.271994e-09	4.027893e+01	2.810174e+02
1.760000e-06	5.823943e-06	4.314354e-09	4.081877e+01	2.839500e+02
1.770000e-06	5.899944e-06	4.355053e-09	4.135144e+01	2.867944e+02
1.780000e-06	5.974765e-06	4.395086e-09	4.187585e+01	2.895548e+02
1.790000e-06	6.048342e-06	4.434657e-09	4.239154e+01	2.922345e+02
1.800000e-06	6.120672e-06	4.474185e-09	4.289848e+01	2.948362e+02
1.810000e-06	6.191884e-06	4.511599e-09	4.339759e+01	2.973619e+02
1.820000e-06	6.262024e-06	4.545543e-09	4.388918e+01	2.998129e+02
1.830000e-06	6.331082e-06	4.578648e-09	4.437320e+01	3.021896e+02
1.840000e-06	6.399108e-06	4.612936e-09	4.484998e+01	3.044919e+02
1.850000e-06	6.466056e-06	4.646908e-09	4.531920e+01	3.067192e+02
1.860000e-06	6.531756e-06	4.675756e-09	4.577968e+01	3.088707e+02
1.870000e-06	6.596148e-06	4.701075e-09	4.623099e+01	3.109457e+02
1.880000e-06	6.659372e-06	4.727696e-09	4.667411e+01	3.129438e+02
1.890000e-06	6.721530e-06	4.756275e-09	4.710976e+01	3.148648e+02
1.900000e-06	6.782616e-06	4.784786e-09	4.753790e+01	3.167093e+02
1.910000e-06	6.842608e-06	4.810808e-09	4.795837e+01	3.184786e+02
1.920000e-06	6.901467e-06	4.835091e-09	4.837091e+01	3.201749e+02
1.930000e-06	6.958989e-06	4.858639e-09	4.877407e+01	3.218011e+02
1.940000e-06	7.015084e-06	4.882475e-09	4.916722e+01	3.233606e+02
1.950000e-06	7.069910e-06	4.904970e-09	4.955149e+01	3.248575e+02
1.960000e-06	7.123528e-06	4.924612e-09	4.992729e+01	3.262963e+02
1.970000e-06	7.175830e-06	4.942570e-09	5.029386e+01	3.276813e+02
1.980000e-06	7.226644e-06	4.960856e-09	5.065000e+01	3.290169e+02
1.990000e-06	7.275815e-06	4.980606e-09	5.099463e+01	3.303069e+02
2.000000e-06	7.323466e-06	5.000506e-09	5.132861e+01	3.315545e+02
2.010000e-06	7.369843e-06	5.019975e-09	5.165365e+01	3.327623e+02
2.020000e-06	7.415022e-06	5.038179e-09	5.197030e+01	3.339317e+02
2.030000e-06	7.459026e-06	5.055475e-09	5.227872e+01	3.350633e+02
2.040000e-06	7.501762e-06	5.073376e-09	5.257824e+01	3.361569e+02
2.050000e-06	7.542986e-06	5.091007e-09	5.286718e+01	3.372112e+02
2.060000e-06	7.582804e-06	5.105754e-09	5.314625e+01	3.382247e+02
2.070000e-06	7.621391e-06	5.118665e-09	5.341670e+01	3.391951e+02
2.080000e-06	7.658709e-06	5.130843e-09	5.367825e+01	3.401204e+02
2.090000e-06	7.694891e-06	5.143240e-09	5.393184e+01	3.409984e+02
2.100000e-06	7.729763e-06	5.155262e-09	5.417625e+01	3.418276e+02
2.110000e-06	7.763002e-06	5.165537e-09	5.440922e+01	3.426069e+02
2.120000e-06	7.794742e-06	5.178171e-09	5.463168e+01	3.433364e+02
2.130000e-06	7.825201e-06	5.191948e-09	5.484516e+01	3.440167e+02
2.140000e-06	7.854415e-06	5.202273e-09	5.504991e+01	3.446496e+02
2.150000e-06	7.882427e-06	5.210821e-09	5.524625e+01	3.452380e+02
2.160000e-06	7.908995e-06	5.218266e-09	5.543245e+01	3.457851e+02
2.170000e-06	7.933931e-06	5.227255e-09	5.560723e+01	3.462952e+02
2.180000e-06	7.957426e-06	5.235825e-09	5.577190e+01	3.467724e+02
2.190000e-06	7.979523e-06	5.245035e-09	5.592676e+01	3.472211e+02
2.200000e-06	8.000289e-06	5.256463e-09	5.607231e+01	3.476452e+02
2.210000e-06	8.019898e-06	5.266715e-09	5.620975e+01	3.480480e+02
2.220000e-06	8.038155e-06	5.275652e-09	5.633771e+01	3.484318e+02
2.230000e-06	8.054828e-06	5.282421e-09	5.645456e+01	3.487979e+02
2.240000e-06	8.069989e-06	5.288192e-09	5.656082e+01	3.491461e+02
2.250000e-06	8.083694e-06	5.292615e-09	5.665688e+01	3.494751e+02
2.260000e-06	8.095883e-06	5.294842e-09	5.674231e+01	3.497822e+02
2.270000e-06	8.106377e-06	5.297776e-09	5.681586e+01	3.500639e+02
2.280000e-06	8.115178e-06	5.302335e-09	5.687754e+01	3.503156e+02
2.290000e-06	8.122533e-06	5.307628e-09	5.692910e+01	3.505324e+02
2.300000e-06	8.128524e-06	5.312329e-09	5.697108e+01	3.507094e+02
2.310000e-06	8.133217e-06	5.315996e-09	5.700397e+01	3.508420e+02
2.320000e-06	8.136616e-06	5.320926e-09	5.702780e+01	3.509264e+02
2.330000e-06	8.138390e-06	5.323694e-09	5.704024e+01	3.509601e+02
2.340000e-06	8.138571e-06	5.325047e-09	5.704150e+01	3.509420e+02
2.350000e-06	8.137436e-06	5.322851e-09	5.703355e+01	3.508727e+02
2.360000e-06	8.135028e-06	5.315058e-09	5.701667e+01	3.507549e+02
2.370000e-06	8.131457e-06	5.313469e-09	5.699164e+01	3.505930e+02
2.380000e-06	8.126687e-06	5.313792e-09	5.695821e+01	3.503934e+02
2.390000e-06	8.120319e-06	5.314500e-09	5.691358e+01	3.501635e+02
2.400000e-06	8.112432e-06	5.315793e-09	5.685830e+01	3.499125e+02
2.410000e-06	8.103334e-06	5.327508e-09	5.679453e+01	3.496497e+02
2.420000e-06	8.093000e-06	5.352707e-09	5.672210e+01	3.493848e+02
2.430000e-06	8.081309e-06	5.264572e-09	5.664016e+01	3.491272e+02
2.440000e-06	8.067598e-06	5.226880e-09	5.654407e+01	3.488851e+02
2.450000e-06	8.051582e-06	5.248165e-09	5.643181e+01	3.486653e+02
2.460000e-06	8.033805e-06	5.278931e-09	5.630722e+01	3.484726e+02
2.470000e-06	8.014859e-06	5.425558e-09	5.617443e+01	3.483096e+02
2.480000e-06	7.995279e-06	5.265003e-09	5.603720e+01	3.481764e+02
2.490000e-06	7.974685e-06	5.145351e-09	5.589286e+01	3.480704e+02
2.500000e-06	7.952193e-06	5.325699e-09	5.573521e+01	3.479866e+02
2.510000e-06	7.928295e-06	5.214743e-09	5.556772e+01	3.479174e+02
2.520000e-06	7.903341e-06	5.296593e-09	5.539282e+01	3.478535e+02
2.530000e-06	7.876779e-06	5.429128e-09	5.520666e+01	3.477840e+02
2.540000e-06	7.848916e-06	5.171494e-09	5.501137e+01	3.476968e+02
2.550000e-06	7.819764e-06	5.327424e-09	5.480705e+01	3.475796e+02
2.560000e-06	7.788953e-06	5.504869e-09	5.459110e+01	3.474203e+02
2.570000e-06	7.756725e-06	5.295021e-09	5.436523e+01	3.472074e+02
2.580000e-06	7.723014e-06	5.289010e-09	5.412895e+01	3.469308e+02
2.590000e-06	7.687982e-06	5.234778e-09	5.388342e+01	3.465822e+02
2.600000e-06	7.651976e-06	5.331645e-09	5.363106e+01	3.461553e+02
2.610000e-06	7.614507e-06	5.475595e-09	5.336845e+01	3.456462e+02
2.620000e-06	7.575328e-06	5.245374e-09	5.309385e+01	3.450532e+02
2.630000e-06	7.534756e-06	5.239667e-09	5.280949e+01	3.443772e+02
2.640000e-06	7.492942e-06	5.259584e-09	5.251642e+01	3.436210e+02
2.650000e-06	7.449945e-06	5.309524e-09	5.221507e+01	3.427894e+02
2.660000e-06	7.405800e-06	5.376280e-09	5.190567e+01	3.418885e+02
2.670000e-06	7.360392e-06	5.192457e-09	5.158741e+01	3.409257e+02
2.680000e-06	7.313446e-06	5.165918e-09	5.125837e+01	3.399086e+02
2.690000e-06	7.265083e-06	5.156577e-09	5.091941e+01	3.388450e+02
2.700000e-06	7.215524e-06	5.254849e-09	5.057206e+01	3.377424e+02
2.710000e-06	7.164683e-06	5.295168e-09	5.021573e+01	3.366073e+02
2.720000e-06	7.112428e-06	5.075225e-09	4.984949e+01	3.354452e+02
2.730000e-06	7.058529e-06	5.079148e-09	4.947172e+01	3.342604e+02
2.740000e-06	7.003130e-06	5.138305e-09	4.908344e+01	3.330555e+02
2.750000e-06	6.946552e-06	5.198104e-09	4.868690e+01	3.318317e+02
2.760000e-06	6.888708e-06	5.107230e-09	4.828148e+01	3.305889e+02
2.770000e-06	6.829657e-06	4.959867e-09	4.786761e+01	3.293255e+02
2.780000e-06	6.769603e-06	5.031933e-09	4.744670e+01	3.280391e+02
2.790000e-06	6.708397e-06	5.072161e-09	4.701772e+01	3.267265e+02
2.800000e-06	6.645793e-06	5.059555e-09	4.657894e+01	3.253839e+02
2.810000e-06	6.581860e-06	4.944065e-09	4.613085e+01	3.240075e+02
2.820000e-06	6.516746e-06	4.901280e-09	4.567448e+01	3.225936e+02
2.830000e-06	6.450469e-06	4.945719e-09	4.520996e+01	3.211387e+02
2.840000e-06	6.383166e-06	4.956109e-09	4.473825e+01	3.196403e+02
2.850000e-06	6.314818e-06	4.919015e-09	4.425921e+01	3.180961e+02
2.860000e-06	6.245160e-06	4.819900e-09	4.377099e+01	3.165050e+02
2.870000e-06	6.174142e-06	4.812001e-09	4.327324e+01	3.148664e+02
2.880000e-06	6.101972e-06	4.828838e-09	4.276742e+01	3.131806e+02
2.890000e-06	6.028852e-06	4.817952e-09	4.225493e+01	3.114485e+02
2.900000e-06	5.954736e-06	4.754074e-09	4.173547e+01	3.096712e+02
2.910000e-06	5.879494e-06	4.707906e-09	4.120811e+01	3.078505e+02
2.920000e-06	5.803001e-06	4.708043e-09	4.067199e+01	3.059881e+02
2.930000e-06	5.725186e-06	4.679820e-09	4.012660e+01	3.040854e+02
2.940000e-06	5.646199e-06	4.639579e-09	3.957300e+01	3.021439e+02
