# Temperatura_=_20.0
# Concentracion g/m^3_=_12600.0
# C_Vs_to_Am_M_A/Vsm_=_65563218390.804596
# pendiente_HvsI_1/m_=_3716.3
# ordenada_HvsI_A/m_=_1297.0
# frecuencia_Hz_=_213243.84627674063

Tiempo_(s)	Campo_(V.s)	Magnetizacion_(V.s)	Campo_(kA/m)	Magnetizacion_(A/m)
0.000000e+00	-8.146892e-06	-5.437895e-09	-5.702951e+01	-3.554958e+02
1.000000e-08	-8.145712e-06	-5.440577e-09	-5.702125e+01	-3.554018e+02
2.000000e-08	-8.142874e-06	-5.442489e-09	-5.700139e+01	-3.552878e+02
3.000000e-08	-8.138739e-06	-5.441109e-09	-5.697244e+01	-3.551602e+02
4.000000e-08	-8.133380e-06	-5.437673e-09	-5.693493e+01	-3.550253e+02
5.000000e-08	-8.126723e-06	-5.432322e-09	-5.688833e+01	-3.548885e+02
6.000000e-08	-8.118841e-06	-5.426651e-09	-5.683315e+01	-3.547541e+02
7.000000e-08	-8.109471e-06	-5.413874e-09	-5.676756e+01	-3.546249e+02
8.000000e-08	-8.098375e-06	-5.388758e-09	-5.668988e+01	-3.545022e+02
9.000000e-08	-8.085669e-06	-5.452161e-09	-5.660094e+01	-3.543852e+02
1.000000e-07	-8.070957e-06	-5.498074e-09	-5.649795e+01	-3.542718e+02
1.100000e-07	-8.054199e-06	-5.452645e-09	-5.638065e+01	-3.541578e+02
1.200000e-07	-8.035935e-06	-5.434774e-09	-5.625280e+01	-3.540379e+02
1.300000e-07	-8.016573e-06	-5.343032e-09	-5.611726e+01	-3.539055e+02
1.400000e-07	-7.996390e-06	-5.315472e-09	-5.597597e+01	-3.537534e+02
1.500000e-07	-7.975066e-06	-5.534753e-09	-5.582670e+01	-3.535740e+02
1.600000e-07	-7.952386e-06	-5.421555e-09	-5.566794e+01	-3.533599e+02
1.700000e-07	-7.928568e-06	-5.341526e-09	-5.550121e+01	-3.531044e+02
1.800000e-07	-7.903060e-06	-5.460867e-09	-5.532265e+01	-3.528017e+02
1.900000e-07	-7.875854e-06	-5.288830e-09	-5.513220e+01	-3.524471e+02
2.000000e-07	-7.847635e-06	-5.389272e-09	-5.493467e+01	-3.520378e+02
2.100000e-07	-7.818176e-06	-5.501336e-09	-5.472845e+01	-3.515723e+02
2.200000e-07	-7.787281e-06	-5.267346e-09	-5.451218e+01	-3.510508e+02
2.300000e-07	-7.754989e-06	-5.271916e-09	-5.428613e+01	-3.504751e+02
2.400000e-07	-7.721081e-06	-5.388795e-09	-5.404877e+01	-3.498484e+02
2.500000e-07	-7.685819e-06	-5.360060e-09	-5.380193e+01	-3.491746e+02
2.600000e-07	-7.649303e-06	-5.331048e-09	-5.354631e+01	-3.484587e+02
2.700000e-07	-7.611257e-06	-5.229277e-09	-5.327999e+01	-3.477055e+02
2.800000e-07	-7.571993e-06	-5.249020e-09	-5.300513e+01	-3.469201e+02
2.900000e-07	-7.531624e-06	-5.313803e-09	-5.272254e+01	-3.461068e+02
3.000000e-07	-7.489703e-06	-5.295552e-09	-5.242908e+01	-3.452693e+02
3.100000e-07	-7.446157e-06	-5.232172e-09	-5.212426e+01	-3.444101e+02
3.200000e-07	-7.401196e-06	-5.178684e-09	-5.180952e+01	-3.435305e+02
3.300000e-07	-7.354931e-06	-5.218584e-09	-5.148566e+01	-3.426306e+02
3.400000e-07	-7.307538e-06	-5.214725e-09	-5.115390e+01	-3.417090e+02
3.500000e-07	-7.258655e-06	-5.197552e-09	-5.081172e+01	-3.407634e+02
3.600000e-07	-7.207867e-06	-5.173573e-09	-5.045619e+01	-3.397904e+02
3.700000e-07	-7.155436e-06	-5.117690e-09	-5.008917e+01	-3.387860e+02
3.800000e-07	-7.101703e-06	-5.133908e-09	-4.971303e+01	-3.377460e+02
3.900000e-07	-7.046874e-06	-5.135741e-09	-4.932922e+01	-3.366661e+02
4.000000e-07	-6.990984e-06	-5.108800e-09	-4.893798e+01	-3.355423e+02
4.100000e-07	-6.933731e-06	-5.078372e-09	-4.853720e+01	-3.343713e+02
4.200000e-07	-6.874964e-06	-5.052963e-09	-4.812582e+01	-3.331505e+02
4.300000e-07	-6.815016e-06	-5.051750e-09	-4.770617e+01	-3.318786e+02
4.400000e-07	-6.753985e-06	-5.030339e-09	-4.727894e+01	-3.305550e+02
4.500000e-07	-6.691734e-06	-5.006436e-09	-4.684318e+01	-3.291805e+02
4.600000e-07	-6.628426e-06	-4.977627e-09	-4.640001e+01	-3.277568e+02
4.700000e-07	-6.564105e-06	-4.960204e-09	-4.594976e+01	-3.262863e+02
4.800000e-07	-6.498386e-06	-4.941978e-09	-4.548972e+01	-3.247719e+02
4.900000e-07	-6.431252e-06	-4.921867e-09	-4.501976e+01	-3.232172e+02
5.000000e-07	-6.363044e-06	-4.902781e-09	-4.454230e+01	-3.216253e+02
5.100000e-07	-6.293847e-06	-4.868310e-09	-4.405791e+01	-3.199994e+02
5.200000e-07	-6.223635e-06	-4.841245e-09	-4.356642e+01	-3.183419e+02
5.300000e-07	-6.152411e-06	-4.823775e-09	-4.306784e+01	-3.166546e+02
5.400000e-07	-6.080119e-06	-4.807705e-09	-4.256178e+01	-3.149384e+02
5.500000e-07	-6.006500e-06	-4.776073e-09	-4.204644e+01	-3.131933e+02
5.600000e-07	-5.931502e-06	-4.744081e-09	-4.152144e+01	-3.114181e+02
5.700000e-07	-5.855312e-06	-4.717404e-09	-4.098810e+01	-3.096110e+02
5.800000e-07	-5.777978e-06	-4.684481e-09	-4.044675e+01	-3.077693e+02
5.900000e-07	-5.699501e-06	-4.661329e-09	-3.989739e+01	-3.058900e+02
6.000000e-07	-5.619784e-06	-4.639261e-09	-3.933936e+01	-3.039694e+02
6.100000e-07	-5.538920e-06	-4.608465e-09	-3.877330e+01	-3.020041e+02
6.200000e-07	-5.457100e-06	-4.567918e-09	-3.820055e+01	-2.999907e+02
6.300000e-07	-5.374327e-06	-4.536025e-09	-3.762113e+01	-2.979265e+02
6.400000e-07	-5.290787e-06	-4.515770e-09	-3.703633e+01	-2.958090e+02
6.500000e-07	-5.206549e-06	-4.489912e-09	-3.644665e+01	-2.936366e+02
6.600000e-07	-5.121490e-06	-4.450985e-09	-3.585123e+01	-2.914085e+02
6.700000e-07	-5.035577e-06	-4.402409e-09	-3.524982e+01	-2.891245e+02
6.800000e-07	-4.948793e-06	-4.366059e-09	-3.464232e+01	-2.867850e+02
6.900000e-07	-4.861204e-06	-4.344482e-09	-3.402918e+01	-2.843911e+02
7.000000e-07	-4.772837e-06	-4.317131e-09	-3.341060e+01	-2.819441e+02
7.100000e-07	-4.683518e-06	-4.272395e-09	-3.278536e+01	-2.794452e+02
7.200000e-07	-4.593118e-06	-4.223656e-09	-3.215254e+01	-2.768959e+02
7.300000e-07	-4.501835e-06	-4.192804e-09	-3.151355e+01	-2.742970e+02
7.400000e-07	-4.409854e-06	-4.167594e-09	-3.086967e+01	-2.716489e+02
7.500000e-07	-4.317169e-06	-4.123040e-09	-3.022086e+01	-2.689515e+02
7.600000e-07	-4.223808e-06	-4.064312e-09	-2.956732e+01	-2.662038e+02
7.700000e-07	-4.129768e-06	-4.010396e-09	-2.890902e+01	-2.634042e+02
7.800000e-07	-4.035060e-06	-3.978064e-09	-2.824605e+01	-2.605504e+02
7.900000e-07	-3.939724e-06	-3.948256e-09	-2.757868e+01	-2.576397e+02
8.000000e-07	-3.843687e-06	-3.895898e-09	-2.690641e+01	-2.546688e+02
8.100000e-07	-3.746870e-06	-3.834277e-09	-2.622868e+01	-2.516344e+02
8.200000e-07	-3.649249e-06	-3.787700e-09	-2.554531e+01	-2.485333e+02
8.300000e-07	-3.550784e-06	-3.758109e-09	-2.485604e+01	-2.453623e+02
8.400000e-07	-3.451627e-06	-3.715837e-09	-2.416193e+01	-2.421189e+02
8.500000e-07	-3.351907e-06	-3.646286e-09	-2.346387e+01	-2.388011e+02
8.600000e-07	-3.251640e-06	-3.577956e-09	-2.276199e+01	-2.354076e+02
8.700000e-07	-3.150836e-06	-3.530956e-09	-2.205634e+01	-2.319379e+02
8.800000e-07	-3.049513e-06	-3.491727e-09	-2.134707e+01	-2.283920e+02
8.900000e-07	-2.947715e-06	-3.432524e-09	-2.063446e+01	-2.247705e+02
9.000000e-07	-2.845373e-06	-3.358122e-09	-1.991806e+01	-2.210746e+02
9.100000e-07	-2.742523e-06	-3.298590e-09	-1.919809e+01	-2.173055e+02
9.200000e-07	-2.639240e-06	-3.254672e-09	-1.847509e+01	-2.134644e+02
9.300000e-07	-2.535541e-06	-3.206404e-09	-1.774918e+01	-2.095522e+02
9.400000e-07	-2.431437e-06	-3.136936e-09	-1.702044e+01	-2.055692e+02
9.500000e-07	-2.326874e-06	-3.059446e-09	-1.628848e+01	-2.015152e+02
9.600000e-07	-2.221824e-06	-2.996007e-09	-1.555311e+01	-1.973889e+02
9.700000e-07	-2.116289e-06	-2.940237e-09	-1.481435e+01	-1.931881e+02
9.800000e-07	-2.010305e-06	-2.875035e-09	-1.407245e+01	-1.889097e+02
9.900000e-07	-1.903907e-06	-2.796141e-09	-1.332765e+01	-1.845496e+02
1.000000e-06	-1.797083e-06	-2.720704e-09	-1.257986e+01	-1.801033e+02
1.010000e-06	-1.689961e-06	-2.656838e-09	-1.182999e+01	-1.755656e+02
1.020000e-06	-1.582623e-06	-2.592073e-09	-1.107861e+01	-1.709312e+02
1.030000e-06	-1.475028e-06	-2.518169e-09	-1.032543e+01	-1.661948e+02
1.040000e-06	-1.367223e-06	-2.437355e-09	-9.570776e+00	-1.613516e+02
1.050000e-06	-1.259216e-06	-2.358426e-09	-8.814711e+00	-1.563976e+02
1.060000e-06	-1.150982e-06	-2.283895e-09	-8.057053e+00	-1.513296e+02
1.070000e-06	-1.042522e-06	-2.207624e-09	-7.297817e+00	-1.461456e+02
1.080000e-06	-9.338992e-07	-2.124366e-09	-6.537440e+00	-1.408445e+02
1.090000e-06	-8.251194e-07	-2.036065e-09	-5.775964e+00	-1.354266e+02
1.100000e-06	-7.162225e-07	-1.948828e-09	-5.013669e+00	-1.298931e+02
1.110000e-06	-6.072405e-07	-1.865118e-09	-4.250778e+00	-1.242459e+02
1.120000e-06	-4.980969e-07	-1.781796e-09	-3.486756e+00	-1.184875e+02
1.130000e-06	-3.888572e-07	-1.694130e-09	-2.722061e+00	-1.126204e+02
1.140000e-06	-2.796076e-07	-1.600782e-09	-1.957297e+00	-1.066467e+02
1.150000e-06	-1.703045e-07	-1.507680e-09	-1.192158e+00	-1.005679e+02
1.160000e-06	-6.097417e-08	-1.415554e-09	-4.268287e-01	-9.438433e+01
1.170000e-06	4.839590e-08	-1.319831e-09	3.387788e-01	-8.809492e+01
1.180000e-06	1.577735e-07	-1.220530e-09	1.104439e+00	-8.169701e+01
1.190000e-06	2.671062e-07	-1.118015e-09	1.869785e+00	-7.518626e+01
1.200000e-06	3.764251e-07	-1.016243e-09	2.635034e+00	-6.855670e+01
1.210000e-06	4.856922e-07	-9.135997e-10	3.399921e+00	-6.180095e+01
1.220000e-06	5.948612e-07	-8.079866e-10	4.164121e+00	-5.491058e+01
1.230000e-06	7.039303e-07	-7.018812e-10	4.927622e+00	-4.787662e+01
1.240000e-06	8.129133e-07	-5.948836e-10	5.690520e+00	-4.069015e+01
1.250000e-06	9.217283e-07	-4.881511e-10	6.452242e+00	-3.334301e+01
1.260000e-06	1.030344e-06	-3.764111e-10	7.212567e+00	-2.582852e+01
1.270000e-06	1.138795e-06	-2.579791e-10	7.971742e+00	-1.814223e+01
1.280000e-06	1.247018e-06	-1.334896e-10	8.729319e+00	-1.028260e+01
1.290000e-06	1.355000e-06	-7.967991e-12	9.485212e+00	-2.251596e+00
1.300000e-06	1.462776e-06	1.169515e-10	1.023966e+01	5.944825e+00
1.310000e-06	1.570335e-06	2.439796e-10	1.099259e+01	1.429643e+01
1.320000e-06	1.677640e-06	3.731995e-10	1.174374e+01	2.278859e+01
1.330000e-06	1.784660e-06	5.033140e-10	1.249290e+01	3.140237e+01
1.340000e-06	1.891346e-06	6.367099e-10	1.323972e+01	4.011480e+01
1.350000e-06	1.997652e-06	7.729865e-10	1.398388e+01	4.889941e+01
1.360000e-06	2.103493e-06	9.074443e-10	1.472478e+01	5.772684e+01
1.370000e-06	2.208834e-06	1.038718e-09	1.546219e+01	6.656568e+01
1.380000e-06	2.313675e-06	1.173583e-09	1.619608e+01	7.538334e+01
1.390000e-06	2.417986e-06	1.312573e-09	1.692628e+01	8.414705e+01
1.400000e-06	2.521888e-06	1.446915e-09	1.765361e+01	9.282476e+01
1.410000e-06	2.625421e-06	1.574943e-09	1.837836e+01	1.013861e+02
1.420000e-06	2.728483e-06	1.700374e-09	1.909981e+01	1.098033e+02
1.430000e-06	2.831049e-06	1.828813e-09	1.981778e+01	1.180516e+02
1.440000e-06	2.933100e-06	1.953887e-09	2.053215e+01	1.261102e+02
1.450000e-06	3.034641e-06	2.070370e-09	2.124296e+01	1.339622e+02
1.460000e-06	3.135777e-06	2.181625e-09	2.195092e+01	1.415952e+02
1.470000e-06	3.236393e-06	2.294035e-09	2.265525e+01	1.490009e+02
1.480000e-06	3.336404e-06	2.405998e-09	2.335534e+01	1.561750e+02
1.490000e-06	3.435901e-06	2.512293e-09	2.405184e+01	1.631171e+02
1.500000e-06	3.534754e-06	2.611547e-09	2.474383e+01	1.698299e+02
1.510000e-06	3.632842e-06	2.709129e-09	2.543046e+01	1.763188e+02
1.520000e-06	3.730178e-06	2.806434e-09	2.611183e+01	1.825912e+02
1.530000e-06	3.826747e-06	2.899169e-09	2.678783e+01	1.886558e+02
1.540000e-06	3.922626e-06	2.984186e-09	2.745899e+01	1.945224e+02
1.550000e-06	4.017814e-06	3.065999e-09	2.812532e+01	2.002007e+02
1.560000e-06	4.112258e-06	3.148543e-09	2.878645e+01	2.057004e+02
1.570000e-06	4.206032e-06	3.232281e-09	2.944288e+01	2.110305e+02
1.580000e-06	4.299126e-06	3.314809e-09	3.009455e+01	2.161992e+02
1.590000e-06	4.391529e-06	3.392515e-09	3.074138e+01	2.212137e+02
1.600000e-06	4.483266e-06	3.467154e-09	3.138356e+01	2.260803e+02
1.610000e-06	4.574216e-06	3.539975e-09	3.202023e+01	2.308041e+02
1.620000e-06	4.664196e-06	3.610853e-09	3.265010e+01	2.353898e+02
1.630000e-06	4.753193e-06	3.678084e-09	3.327309e+01	2.398410e+02
1.640000e-06	4.841306e-06	3.741271e-09	3.388990e+01	2.441611e+02
1.650000e-06	4.928580e-06	3.801030e-09	3.450083e+01	2.483533e+02
1.660000e-06	5.015019e-06	3.859905e-09	3.510591e+01	2.524208e+02
1.670000e-06	5.100662e-06	3.920937e-09	3.570543e+01	2.563667e+02
1.680000e-06	5.185458e-06	3.979922e-09	3.629902e+01	2.601946e+02
1.690000e-06	5.269388e-06	4.033857e-09	3.688653e+01	2.639080e+02
1.700000e-06	5.352537e-06	4.087719e-09	3.746859e+01	2.675110e+02
1.710000e-06	5.434778e-06	4.143262e-09	3.804429e+01	2.710076e+02
1.720000e-06	5.515961e-06	4.197010e-09	3.861258e+01	2.744020e+02
1.730000e-06	5.596117e-06	4.245983e-09	3.917369e+01	2.776982e+02
1.740000e-06	5.675227e-06	4.290604e-09	3.972748e+01	2.809001e+02
1.750000e-06	5.753288e-06	4.334350e-09	4.027392e+01	2.840111e+02
1.760000e-06	5.830411e-06	4.380642e-09	4.081378e+01	2.870341e+02
1.770000e-06	5.906548e-06	4.425543e-09	4.134676e+01	2.899716e+02
1.780000e-06	5.981541e-06	4.464839e-09	4.187172e+01	2.928253e+02
1.790000e-06	6.055178e-06	4.501989e-09	4.238719e+01	2.955963e+02
1.800000e-06	6.127506e-06	4.540899e-09	4.289350e+01	2.982853e+02
1.810000e-06	6.198733e-06	4.580371e-09	4.339210e+01	3.008925e+02
1.820000e-06	6.268897e-06	4.616990e-09	4.388325e+01	3.034178e+02
1.830000e-06	6.338045e-06	4.650427e-09	4.436730e+01	3.058609e+02
1.840000e-06	6.406207e-06	4.682727e-09	4.484445e+01	3.082218e+02
1.850000e-06	6.473284e-06	4.715697e-09	4.531400e+01	3.105005e+02
1.860000e-06	6.539070e-06	4.747457e-09	4.577451e+01	3.126977e+02
1.870000e-06	6.603582e-06	4.777274e-09	4.622610e+01	3.148143e+02
1.880000e-06	6.666946e-06	4.805910e-09	4.666966e+01	3.168519e+02
1.890000e-06	6.729196e-06	4.833239e-09	4.710542e+01	3.188127e+02
1.900000e-06	6.790337e-06	4.861565e-09	4.753342e+01	3.206996e+02
1.910000e-06	6.850453e-06	4.889267e-09	4.795424e+01	3.225157e+02
1.920000e-06	6.909462e-06	4.914503e-09	4.836731e+01	3.242645e+02
1.930000e-06	6.967077e-06	4.938340e-09	4.877062e+01	3.259498e+02
1.940000e-06	7.023261e-06	4.962538e-09	4.916392e+01	3.275751e+02
1.950000e-06	7.078197e-06	4.988857e-09	4.954848e+01	3.291438e+02
1.960000e-06	7.131935e-06	5.013694e-09	4.992465e+01	3.306589e+02
1.970000e-06	7.184318e-06	5.034732e-09	5.029135e+01	3.321228e+02
1.980000e-06	7.235110e-06	5.052361e-09	5.064690e+01	3.335372e+02
1.990000e-06	7.284234e-06	5.068984e-09	5.099078e+01	3.349033e+02
2.000000e-06	7.331964e-06	5.087883e-09	5.132489e+01	3.362213e+02
2.010000e-06	7.378455e-06	5.108738e-09	5.165034e+01	3.374910e+02
2.020000e-06	7.423700e-06	5.128558e-09	5.196706e+01	3.387117e+02
2.030000e-06	7.467788e-06	5.145093e-09	5.227568e+01	3.398823e+02
2.040000e-06	7.510651e-06	5.160728e-09	5.257573e+01	3.410018e+02
2.050000e-06	7.551974e-06	5.179043e-09	5.286499e+01	3.420691e+02
2.060000e-06	7.591828e-06	5.198396e-09	5.314398e+01	3.430835e+02
2.070000e-06	7.630435e-06	5.212357e-09	5.341423e+01	3.440448e+02
2.080000e-06	7.667709e-06	5.221207e-09	5.367515e+01	3.449535e+02
2.090000e-06	7.703800e-06	5.231971e-09	5.392780e+01	3.458106e+02
2.100000e-06	7.738666e-06	5.244941e-09	5.417187e+01	3.466181e+02
2.110000e-06	7.771919e-06	5.257022e-09	5.440464e+01	3.473787e+02
2.120000e-06	7.803718e-06	5.266830e-09	5.462724e+01	3.480954e+02
2.130000e-06	7.834336e-06	5.275435e-09	5.484157e+01	3.487719e+02
2.140000e-06	7.863661e-06	5.285830e-09	5.504685e+01	3.494120e+02
2.150000e-06	7.891696e-06	5.297027e-09	5.524310e+01	3.500193e+02
2.160000e-06	7.918286e-06	5.309063e-09	5.542923e+01	3.505973e+02
2.170000e-06	7.943191e-06	5.319850e-09	5.560358e+01	3.511487e+02
2.180000e-06	7.966613e-06	5.328870e-09	5.576753e+01	3.516756e+02
2.190000e-06	7.988739e-06	5.339273e-09	5.592242e+01	3.521791e+02
2.200000e-06	8.009591e-06	5.348369e-09	5.606838e+01	3.526593e+02
2.210000e-06	8.029221e-06	5.354871e-09	5.620580e+01	3.531153e+02
2.220000e-06	8.047456e-06	5.359951e-09	5.633345e+01	3.535450e+02
2.230000e-06	8.064174e-06	5.365590e-09	5.645047e+01	3.539458e+02
2.240000e-06	8.079437e-06	5.371755e-09	5.655732e+01	3.543144e+02
2.250000e-06	8.093210e-06	5.378091e-09	5.665373e+01	3.546472e+02
2.260000e-06	8.105515e-06	5.383289e-09	5.673987e+01	3.549406e+02
2.270000e-06	8.116142e-06	5.386732e-09	5.681426e+01	3.551914e+02
2.280000e-06	8.124991e-06	5.391663e-09	5.687620e+01	3.553971e+02
2.290000e-06	8.132372e-06	5.396656e-09	5.692787e+01	3.555562e+02
2.300000e-06	8.138398e-06	5.400541e-09	5.697006e+01	3.556681e+02
2.310000e-06	8.143075e-06	5.404201e-09	5.700279e+01	3.557340e+02
2.320000e-06	8.146487e-06	5.406229e-09	5.702668e+01	3.557561e+02
2.330000e-06	8.148337e-06	5.406539e-09	5.703963e+01	3.557381e+02
2.340000e-06	8.148604e-06	5.409866e-09	5.704150e+01	3.556848e+02
2.350000e-06	8.147540e-06	5.411937e-09	5.703405e+01	3.556021e+02
2.360000e-06	8.145141e-06	5.406811e-09	5.701725e+01	3.554963e+02
2.370000e-06	8.141584e-06	5.406104e-09	5.699236e+01	3.553740e+02
2.380000e-06	8.136824e-06	5.405919e-09	5.695903e+01	3.552416e+02
2.390000e-06	8.130452e-06	5.405607e-09	5.691443e+01	3.551050e+02
2.400000e-06	8.122579e-06	5.406443e-09	5.685932e+01	3.549690e+02
2.410000e-06	8.113513e-06	5.415362e-09	5.679586e+01	3.548372e+02
2.420000e-06	8.103259e-06	5.453262e-09	5.672408e+01	3.547115e+02
2.430000e-06	8.091677e-06	5.356568e-09	5.664300e+01	3.545921e+02
2.440000e-06	8.078061e-06	5.306089e-09	5.654768e+01	3.544775e+02
2.450000e-06	8.062060e-06	5.330449e-09	5.643568e+01	3.543643e+02
2.460000e-06	8.044207e-06	5.345082e-09	5.631070e+01	3.542478e+02
2.470000e-06	8.025174e-06	5.510189e-09	5.617747e+01	3.541218e+02
2.480000e-06	8.005539e-06	5.369083e-09	5.604002e+01	3.539795e+02
2.490000e-06	7.984896e-06	5.233227e-09	5.589551e+01	3.538132e+02
2.500000e-06	7.962323e-06	5.457176e-09	5.573750e+01	3.536156e+02
2.510000e-06	7.938375e-06	5.358349e-09	5.556986e+01	3.533795e+02
2.520000e-06	7.913456e-06	5.428504e-09	5.539543e+01	3.530987e+02
2.530000e-06	7.886952e-06	5.589672e-09	5.520989e+01	3.527679e+02
2.540000e-06	7.859132e-06	5.276715e-09	5.501515e+01	3.523834e+02
2.550000e-06	7.830062e-06	5.367015e-09	5.481166e+01	3.519432e+02
2.560000e-06	7.799332e-06	5.521681e-09	5.459654e+01	3.514468e+02
2.570000e-06	7.767198e-06	5.272556e-09	5.437160e+01	3.508952e+02
2.580000e-06	7.733548e-06	5.291359e-09	5.413604e+01	3.502909e+02
2.590000e-06	7.698472e-06	5.247550e-09	5.389050e+01	3.496377e+02
2.600000e-06	7.662435e-06	5.294446e-09	5.363824e+01	3.489401e+02
2.610000e-06	7.624943e-06	5.431364e-09	5.337579e+01	3.482030e+02
2.620000e-06	7.585734e-06	5.213508e-09	5.310132e+01	3.474315e+02
2.630000e-06	7.545091e-06	5.293650e-09	5.281681e+01	3.466302e+02
2.640000e-06	7.503227e-06	5.330624e-09	5.252376e+01	3.458032e+02
2.650000e-06	7.460222e-06	5.283656e-09	5.222271e+01	3.449535e+02
2.660000e-06	7.416047e-06	5.323229e-09	5.191348e+01	3.440830e+02
2.670000e-06	7.370678e-06	5.195101e-09	5.159590e+01	3.431923e+02
2.680000e-06	7.323800e-06	5.267120e-09	5.126774e+01	3.422806e+02
2.690000e-06	7.275472e-06	5.222246e-09	5.092943e+01	3.413462e+02
2.700000e-06	7.225907e-06	5.200151e-09	5.058247e+01	3.403859e+02
2.710000e-06	7.174981e-06	5.256779e-09	5.022599e+01	3.393962e+02
2.720000e-06	7.122643e-06	5.136064e-09	4.985961e+01	3.383727e+02
2.730000e-06	7.068664e-06	5.187694e-09	4.948175e+01	3.373113e+02
2.740000e-06	7.013183e-06	5.141595e-09	4.909337e+01	3.362077e+02
2.750000e-06	6.956520e-06	5.127336e-09	4.869673e+01	3.350582e+02
2.760000e-06	6.898630e-06	5.115338e-09	4.829149e+01	3.338600e+02
2.770000e-06	6.839581e-06	5.048562e-09	4.787813e+01	3.326112e+02
2.780000e-06	6.779484e-06	5.101553e-09	4.745745e+01	3.313108e+02
2.790000e-06	6.718202e-06	5.041750e-09	4.702846e+01	3.299591e+02
2.800000e-06	6.655441e-06	5.022713e-09	4.658912e+01	3.285572e+02
2.810000e-06	6.591376e-06	4.988841e-09	4.614066e+01	3.271073e+02
2.820000e-06	6.526215e-06	4.984876e-09	4.568452e+01	3.256123e+02
2.830000e-06	6.459874e-06	4.976022e-09	4.522012e+01	3.240753e+02
2.840000e-06	6.392418e-06	4.922583e-09	4.474792e+01	3.224997e+02
2.850000e-06	6.323888e-06	4.916525e-09	4.426820e+01	3.208887e+02
2.860000e-06	6.254130e-06	4.873420e-09	4.377989e+01	3.192451e+02
2.870000e-06	6.183008e-06	4.868383e-09	4.328202e+01	3.175710e+02
2.880000e-06	6.110775e-06	4.834614e-09	4.277638e+01	3.158678e+02
2.890000e-06	6.037555e-06	4.804746e-09	4.226383e+01	3.141357e+02
2.900000e-06	5.963273e-06	4.773639e-09	4.174384e+01	3.123742e+02
2.910000e-06	5.887935e-06	4.754710e-09	4.121646e+01	3.105817e+02
2.920000e-06	5.811391e-06	4.747178e-09	4.068065e+01	3.087560e+02
2.930000e-06	5.733545e-06	4.689843e-09	4.013571e+01	3.068940e+02
2.940000e-06	5.654406e-06	4.648287e-09	3.958172e+01	3.049923e+02
