# Temperatura_=_20.0
# Concentracion g/m^3_=_12600.0
# C_Vs_to_Am_M_A/Vsm_=_65563218390.804596
# pendiente_HvsI_1/m_=_3716.3
# ordenada_HvsI_A/m_=_1297.0
# frecuencia_Hz_=_213245.04679784778

Tiempo_(s)	Campo_(V.s)	Magnetizacion_(V.s)	Campo_(kA/m)	Magnetizacion_(A/m)
0.000000e+00	-8.165826e-06	-5.429081e-09	-5.701981e+01	-3.552650e+02
1.000000e-08	-8.164831e-06	-5.429193e-09	-5.701287e+01	-3.551571e+02
2.000000e-08	-8.162169e-06	-5.428501e-09	-5.699428e+01	-3.550368e+02
3.000000e-08	-8.158142e-06	-5.426474e-09	-5.696615e+01	-3.549113e+02
4.000000e-08	-8.152933e-06	-5.423644e-09	-5.692978e+01	-3.547867e+02
5.000000e-08	-8.146458e-06	-5.418330e-09	-5.688457e+01	-3.546680e+02
6.000000e-08	-8.138715e-06	-5.410897e-09	-5.683051e+01	-3.545586e+02
7.000000e-08	-8.129446e-06	-5.401672e-09	-5.676578e+01	-3.544599e+02
8.000000e-08	-8.118457e-06	-5.380765e-09	-5.668905e+01	-3.543712e+02
9.000000e-08	-8.105846e-06	-5.420859e-09	-5.660098e+01	-3.542899e+02
1.000000e-07	-8.091304e-06	-5.463803e-09	-5.649944e+01	-3.542112e+02
1.100000e-07	-8.074733e-06	-5.437928e-09	-5.638373e+01	-3.541286e+02
1.200000e-07	-8.056572e-06	-5.421047e-09	-5.625692e+01	-3.540344e+02
1.300000e-07	-8.037238e-06	-5.358616e-09	-5.612191e+01	-3.539196e+02
1.400000e-07	-8.016997e-06	-5.318197e-09	-5.598058e+01	-3.537751e+02
1.500000e-07	-7.995630e-06	-5.476498e-09	-5.583138e+01	-3.535917e+02
1.600000e-07	-7.972995e-06	-5.431159e-09	-5.567332e+01	-3.533610e+02
1.700000e-07	-7.949261e-06	-5.342543e-09	-5.550760e+01	-3.530756e+02
1.800000e-07	-7.923977e-06	-5.410520e-09	-5.533104e+01	-3.527300e+02
1.900000e-07	-7.896963e-06	-5.303592e-09	-5.514241e+01	-3.523203e+02
2.000000e-07	-7.868699e-06	-5.358115e-09	-5.494505e+01	-3.518448e+02
2.100000e-07	-7.839196e-06	-5.451126e-09	-5.473904e+01	-3.513039e+02
2.200000e-07	-7.808351e-06	-5.277269e-09	-5.452366e+01	-3.507002e+02
2.300000e-07	-7.776130e-06	-5.240475e-09	-5.429867e+01	-3.500381e+02
2.400000e-07	-7.742335e-06	-5.350910e-09	-5.406268e+01	-3.493235e+02
2.500000e-07	-7.707103e-06	-5.366540e-09	-5.381667e+01	-3.485631e+02
2.600000e-07	-7.670578e-06	-5.326208e-09	-5.356163e+01	-3.477647e+02
2.700000e-07	-7.632617e-06	-5.203025e-09	-5.329655e+01	-3.469356e+02
2.800000e-07	-7.593397e-06	-5.198909e-09	-5.302269e+01	-3.460829e+02
2.900000e-07	-7.552951e-06	-5.299335e-09	-5.274027e+01	-3.452126e+02
3.000000e-07	-7.510993e-06	-5.314308e-09	-5.244728e+01	-3.443294e+02
3.100000e-07	-7.467457e-06	-5.230662e-09	-5.214328e+01	-3.434364e+02
3.200000e-07	-7.422497e-06	-5.143182e-09	-5.182934e+01	-3.425346e+02
3.300000e-07	-7.376271e-06	-5.167638e-09	-5.150656e+01	-3.416234e+02
3.400000e-07	-7.328842e-06	-5.213205e-09	-5.117537e+01	-3.407004e+02
3.500000e-07	-7.279953e-06	-5.212875e-09	-5.083399e+01	-3.397614e+02
3.600000e-07	-7.229286e-06	-5.143257e-09	-5.048020e+01	-3.388012e+02
3.700000e-07	-7.176976e-06	-5.063621e-09	-5.011493e+01	-3.378137e+02
3.800000e-07	-7.123333e-06	-5.107889e-09	-4.974036e+01	-3.367925e+02
3.900000e-07	-7.068591e-06	-5.157771e-09	-4.935810e+01	-3.357311e+02
4.000000e-07	-7.012792e-06	-5.112430e-09	-4.896848e+01	-3.346236e+02
4.100000e-07	-6.955577e-06	-5.030752e-09	-4.856896e+01	-3.334652e+02
4.200000e-07	-6.896917e-06	-5.008698e-09	-4.815936e+01	-3.322522e+02
4.300000e-07	-6.837071e-06	-5.062475e-09	-4.774147e+01	-3.309823e+02
4.400000e-07	-6.776039e-06	-5.067009e-09	-4.731529e+01	-3.296548e+02
4.500000e-07	-6.713828e-06	-4.986960e-09	-4.688089e+01	-3.282708e+02
4.600000e-07	-6.650507e-06	-4.910341e-09	-4.643874e+01	-3.268324e+02
4.700000e-07	-6.586028e-06	-4.923562e-09	-4.598850e+01	-3.253430e+02
4.800000e-07	-6.520224e-06	-4.962321e-09	-4.552901e+01	-3.238070e+02
4.900000e-07	-6.453152e-06	-4.931679e-09	-4.506066e+01	-3.222290e+02
5.000000e-07	-6.384991e-06	-4.850918e-09	-4.458471e+01	-3.206139e+02
5.100000e-07	-6.315744e-06	-4.804791e-09	-4.410117e+01	-3.189661e+02
5.200000e-07	-6.245400e-06	-4.825882e-09	-4.360998e+01	-3.172895e+02
5.300000e-07	-6.174072e-06	-4.839581e-09	-4.311192e+01	-3.155869e+02
5.400000e-07	-6.101639e-06	-4.792655e-09	-4.260614e+01	-3.138597e+02
5.500000e-07	-6.027940e-06	-4.722505e-09	-4.209151e+01	-3.121084e+02
5.600000e-07	-5.952945e-06	-4.700421e-09	-4.156785e+01	-3.103318e+02
5.700000e-07	-5.876722e-06	-4.710788e-09	-4.103560e+01	-3.085277e+02
5.800000e-07	-5.799410e-06	-4.686390e-09	-4.049575e+01	-3.066928e+02
5.900000e-07	-5.720887e-06	-4.631304e-09	-3.994745e+01	-3.048230e+02
6.000000e-07	-5.641108e-06	-4.589689e-09	-3.939037e+01	-3.029135e+02
6.100000e-07	-5.560227e-06	-4.577540e-09	-3.882560e+01	-3.009598e+02
6.200000e-07	-5.478367e-06	-4.561685e-09	-3.825399e+01	-2.989571e+02
6.300000e-07	-5.395650e-06	-4.523090e-09	-3.767640e+01	-2.969015e+02
6.400000e-07	-5.312111e-06	-4.476532e-09	-3.709307e+01	-2.947897e+02
6.500000e-07	-5.227740e-06	-4.443542e-09	-3.650393e+01	-2.926192e+02
6.600000e-07	-5.142548e-06	-4.422779e-09	-3.590906e+01	-2.903888e+02
6.700000e-07	-5.056517e-06	-4.391790e-09	-3.530832e+01	-2.880981e+02
6.800000e-07	-4.969705e-06	-4.350607e-09	-3.470214e+01	-2.857479e+02
6.900000e-07	-4.882132e-06	-4.309258e-09	-3.409064e+01	-2.833397e+02
7.000000e-07	-4.793663e-06	-4.275571e-09	-3.347289e+01	-2.808755e+02
7.100000e-07	-4.704194e-06	-4.244889e-09	-3.284814e+01	-2.783577e+02
7.200000e-07	-4.613798e-06	-4.206975e-09	-3.221693e+01	-2.757886e+02
7.300000e-07	-4.522549e-06	-4.167126e-09	-3.157977e+01	-2.731703e+02
7.400000e-07	-4.430512e-06	-4.126527e-09	-3.093710e+01	-2.705044e+02
7.500000e-07	-4.337705e-06	-4.083643e-09	-3.028905e+01	-2.677917e+02
7.600000e-07	-4.244122e-06	-4.041260e-09	-2.963558e+01	-2.650319e+02
7.700000e-07	-4.149880e-06	-3.995229e-09	-2.897752e+01	-2.622241e+02
7.800000e-07	-4.055039e-06	-3.951879e-09	-2.831527e+01	-2.593660e+02
7.900000e-07	-3.959533e-06	-3.910264e-09	-2.764838e+01	-2.564548e+02
8.000000e-07	-3.863217e-06	-3.863541e-09	-2.697583e+01	-2.534868e+02
8.100000e-07	-3.766115e-06	-3.811578e-09	-2.629779e+01	-2.504580e+02
8.200000e-07	-3.668306e-06	-3.761783e-09	-2.561481e+01	-2.473640e+02
8.300000e-07	-3.569765e-06	-3.723541e-09	-2.492673e+01	-2.442007e+02
8.400000e-07	-3.470548e-06	-3.681343e-09	-2.423392e+01	-2.409643e+02
8.500000e-07	-3.370731e-06	-3.620838e-09	-2.353693e+01	-2.376514e+02
8.600000e-07	-3.270333e-06	-3.557183e-09	-2.283588e+01	-2.342596e+02
8.700000e-07	-3.169335e-06	-3.509098e-09	-2.213063e+01	-2.307873e+02
8.800000e-07	-3.067815e-06	-3.469538e-09	-2.142174e+01	-2.272336e+02
8.900000e-07	-2.965846e-06	-3.412859e-09	-2.070972e+01	-2.235987e+02
9.000000e-07	-2.863407e-06	-3.338423e-09	-1.999442e+01	-2.198835e+02
9.100000e-07	-2.760507e-06	-3.275052e-09	-1.927589e+01	-2.160892e+02
9.200000e-07	-2.657046e-06	-3.231920e-09	-1.855345e+01	-2.122175e+02
9.300000e-07	-2.553039e-06	-3.185577e-09	-1.782720e+01	-2.082699e+02
9.400000e-07	-2.448598e-06	-3.113075e-09	-1.709792e+01	-2.042478e+02
9.500000e-07	-2.343688e-06	-3.034331e-09	-1.636536e+01	-2.001519e+02
9.600000e-07	-2.238352e-06	-2.978481e-09	-1.562982e+01	-1.959822e+02
9.700000e-07	-2.132637e-06	-2.931824e-09	-1.489164e+01	-1.917378e+02
9.800000e-07	-2.026478e-06	-2.864505e-09	-1.415037e+01	-1.874168e+02
9.900000e-07	-1.919887e-06	-2.774706e-09	-1.340607e+01	-1.830161e+02
1.000000e-06	-1.812937e-06	-2.696440e-09	-1.265926e+01	-1.785321e+02
1.010000e-06	-1.705657e-06	-2.642632e-09	-1.191015e+01	-1.739603e+02
1.020000e-06	-1.598092e-06	-2.582222e-09	-1.115905e+01	-1.692957e+02
1.030000e-06	-1.490312e-06	-2.496417e-09	-1.040645e+01	-1.645331e+02
1.040000e-06	-1.382298e-06	-2.406532e-09	-9.652222e+00	-1.596678e+02
1.050000e-06	-1.273986e-06	-2.340160e-09	-8.895910e+00	-1.546950e+02
1.060000e-06	-1.165408e-06	-2.282225e-09	-8.137736e+00	-1.496112e+02
1.070000e-06	-1.056671e-06	-2.200814e-09	-7.378454e+00	-1.444134e+02
1.080000e-06	-9.477856e-07	-2.101962e-09	-6.618137e+00	-1.391000e+02
1.090000e-06	-8.386894e-07	-2.013763e-09	-5.856347e+00	-1.336703e+02
1.100000e-06	-7.294742e-07	-1.940155e-09	-5.093726e+00	-1.281249e+02
1.110000e-06	-6.201934e-07	-1.861177e-09	-4.330647e+00	-1.224650e+02
1.120000e-06	-5.107969e-07	-1.764862e-09	-3.566760e+00	-1.166926e+02
1.130000e-06	-4.013414e-07	-1.665988e-09	-2.802461e+00	-1.108100e+02
1.140000e-06	-2.918717e-07	-1.578470e-09	-2.038063e+00	-1.048194e+02
1.150000e-06	-1.823538e-07	-1.497838e-09	-1.273329e+00	-9.872244e+01
1.160000e-06	-7.275688e-08	-1.406252e-09	-5.080421e-01	-9.251999e+01
1.170000e-06	3.688685e-08	-1.299919e-09	2.575712e-01	-8.621161e+01
1.180000e-06	1.465370e-07	-1.197720e-09	1.023229e+00	-7.979544e+01
1.190000e-06	2.561535e-07	-1.105755e-09	1.788653e+00	-7.326802e+01
1.200000e-06	3.656993e-07	-1.011814e-09	2.553582e+00	-6.662426e+01
1.210000e-06	4.751537e-07	-9.021912e-10	3.317873e+00	-5.985766e+01
1.220000e-06	5.845194e-07	-7.856986e-10	4.081545e+00	-5.296052e+01
1.230000e-06	6.937701e-07	-6.762284e-10	4.844414e+00	-4.592443e+01
1.240000e-06	8.029526e-07	-5.724699e-10	5.606806e+00	-3.874085e+01
1.250000e-06	9.120452e-07	-4.659472e-10	6.368571e+00	-3.140174e+01
1.260000e-06	1.020921e-06	-3.496132e-10	7.128824e+00	-2.390027e+01
1.270000e-06	1.129608e-06	-2.298058e-10	7.887758e+00	-1.623160e+01
1.280000e-06	1.238105e-06	-1.105239e-10	8.645359e+00	-8.393551e+00
1.290000e-06	1.346363e-06	7.709280e-12	9.401298e+00	-3.872689e-01
1.300000e-06	1.454407e-06	1.290081e-10	1.015574e+01	7.782286e+00
1.310000e-06	1.562256e-06	2.579953e-10	1.090882e+01	1.610596e+01
1.320000e-06	1.669817e-06	3.881832e-10	1.165989e+01	2.457024e+01
1.330000e-06	1.777000e-06	5.163730e-10	1.240832e+01	3.315724e+01
1.340000e-06	1.883826e-06	6.449111e-10	1.315426e+01	4.184499e+01
1.350000e-06	1.990295e-06	7.787926e-10	1.389770e+01	5.060781e+01
1.360000e-06	2.096373e-06	9.191134e-10	1.463842e+01	5.941693e+01
1.370000e-06	2.202071e-06	1.056635e-09	1.537648e+01	6.824129e+01
1.380000e-06	2.307369e-06	1.189781e-09	1.611175e+01	7.704839e+01
1.390000e-06	2.412224e-06	1.322725e-09	1.684392e+01	8.580526e+01
1.400000e-06	2.516576e-06	1.456267e-09	1.757259e+01	9.447942e+01
1.410000e-06	2.620372e-06	1.589943e-09	1.829737e+01	1.030398e+02
1.420000e-06	2.723635e-06	1.718732e-09	1.901842e+01	1.114578e+02
1.430000e-06	2.826395e-06	1.842441e-09	1.973597e+01	1.197077e+02
1.440000e-06	2.928690e-06	1.962591e-09	2.045027e+01	1.277675e+02
1.450000e-06	3.030532e-06	2.081440e-09	2.116140e+01	1.356193e+02
1.460000e-06	3.131906e-06	2.198108e-09	2.186928e+01	1.432497e+02
1.470000e-06	3.232748e-06	2.308979e-09	2.257343e+01	1.506495e+02
1.480000e-06	3.333036e-06	2.414662e-09	2.327371e+01	1.578136e+02
1.490000e-06	3.432769e-06	2.518599e-09	2.397012e+01	1.647412e+02
1.500000e-06	3.531882e-06	2.620950e-09	2.466220e+01	1.714346e+02
1.510000e-06	3.630279e-06	2.719502e-09	2.534928e+01	1.778992e+02
1.520000e-06	3.727998e-06	2.812550e-09	2.603163e+01	1.841426e+02
1.530000e-06	3.825040e-06	2.902433e-09	2.670924e+01	1.901742e+02
1.540000e-06	3.921299e-06	2.990173e-09	2.738140e+01	1.960041e+02
1.550000e-06	4.016774e-06	3.076406e-09	2.804807e+01	2.016433e+02
1.560000e-06	4.111489e-06	3.161983e-09	2.870945e+01	2.071021e+02
1.570000e-06	4.205486e-06	3.244361e-09	2.936580e+01	2.123909e+02
1.580000e-06	4.298820e-06	3.323595e-09	3.001753e+01	2.175188e+02
1.590000e-06	4.391523e-06	3.398711e-09	3.066485e+01	2.224941e+02
1.600000e-06	4.483509e-06	3.472938e-09	3.130716e+01	2.273240e+02
1.610000e-06	4.574708e-06	3.546393e-09	3.194398e+01	2.320145e+02
1.620000e-06	4.665090e-06	3.613880e-09	3.257509e+01	2.365706e+02
1.630000e-06	4.754575e-06	3.676508e-09	3.319994e+01	2.409965e+02
1.640000e-06	4.843079e-06	3.739426e-09	3.381795e+01	2.452957e+02
1.650000e-06	4.930604e-06	3.804730e-09	3.442911e+01	2.494713e+02
1.660000e-06	5.017272e-06	3.868935e-09	3.503429e+01	2.535260e+02
1.670000e-06	5.103128e-06	3.928241e-09	3.563380e+01	2.574624e+02
1.680000e-06	5.188172e-06	3.983834e-09	3.622764e+01	2.612832e+02
1.690000e-06	5.272387e-06	4.039448e-09	3.681569e+01	2.649913e+02
1.700000e-06	5.355710e-06	4.096817e-09	3.739751e+01	2.685895e+02
1.710000e-06	5.438097e-06	4.151581e-09	3.797280e+01	2.720808e+02
1.720000e-06	5.519502e-06	4.198802e-09	3.854123e+01	2.754684e+02
1.730000e-06	5.599923e-06	4.245253e-09	3.910278e+01	2.787554e+02
1.740000e-06	5.679330e-06	4.294302e-09	3.965727e+01	2.819446e+02
1.750000e-06	5.757696e-06	4.342255e-09	4.020447e+01	2.850389e+02
1.760000e-06	5.835051e-06	4.387324e-09	4.074462e+01	2.880407e+02
1.770000e-06	5.911435e-06	4.429498e-09	4.127799e+01	2.909520e+02
1.780000e-06	5.986758e-06	4.471557e-09	4.180395e+01	2.937745e+02
1.790000e-06	6.060837e-06	4.515422e-09	4.232123e+01	2.965096e+02
1.800000e-06	6.133649e-06	4.559083e-09	4.282966e+01	2.991582e+02
1.810000e-06	6.205262e-06	4.596717e-09	4.332971e+01	3.017212e+02
1.820000e-06	6.275793e-06	4.628468e-09	4.382221e+01	3.041990e+02
1.830000e-06	6.345245e-06	4.660992e-09	4.430718e+01	3.065926e+02
1.840000e-06	6.413627e-06	4.694851e-09	4.478467e+01	3.089026e+02
1.850000e-06	6.480903e-06	4.727662e-09	4.525444e+01	3.111302e+02
1.860000e-06	6.546952e-06	4.757120e-09	4.571564e+01	3.132769e+02
1.870000e-06	6.611776e-06	4.783679e-09	4.616829e+01	3.153448e+02
1.880000e-06	6.675398e-06	4.811158e-09	4.661255e+01	3.173361e+02
1.890000e-06	6.737902e-06	4.841227e-09	4.704900e+01	3.192538e+02
1.900000e-06	6.799281e-06	4.870056e-09	4.747759e+01	3.211013e+02
1.910000e-06	6.859587e-06	4.894239e-09	4.789869e+01	3.228820e+02
1.920000e-06	6.918813e-06	4.917876e-09	4.831225e+01	3.245997e+02
1.930000e-06	6.976770e-06	4.943436e-09	4.871695e+01	3.262579e+02
1.940000e-06	7.033343e-06	4.969266e-09	4.911198e+01	3.278601e+02
1.950000e-06	7.088608e-06	4.992048e-09	4.949788e+01	3.294092e+02
1.960000e-06	7.142656e-06	5.011686e-09	4.987528e+01	3.309079e+02
1.970000e-06	7.195428e-06	5.031146e-09	5.024378e+01	3.323578e+02
1.980000e-06	7.246717e-06	5.052369e-09	5.060192e+01	3.337602e+02
1.990000e-06	7.296325e-06	5.073362e-09	5.094831e+01	3.351155e+02
2.000000e-06	7.344387e-06	5.093843e-09	5.128392e+01	3.364236e+02
2.010000e-06	7.391132e-06	5.113742e-09	5.161033e+01	3.376837e+02
2.020000e-06	7.436622e-06	5.133437e-09	5.192797e+01	3.388947e+02
2.030000e-06	7.480948e-06	5.152021e-09	5.223749e+01	3.400555e+02
2.040000e-06	7.524088e-06	5.167173e-09	5.253872e+01	3.411649e+02
2.050000e-06	7.565735e-06	5.180701e-09	5.282953e+01	3.422218e+02
2.060000e-06	7.605862e-06	5.194767e-09	5.310973e+01	3.432257e+02
2.070000e-06	7.644692e-06	5.209242e-09	5.338087e+01	3.441769e+02
2.080000e-06	7.682280e-06	5.222931e-09	5.364334e+01	3.450759e+02
2.090000e-06	7.718651e-06	5.236384e-09	5.389730e+01	3.459245e+02
2.100000e-06	7.753771e-06	5.250262e-09	5.414254e+01	3.467248e+02
2.110000e-06	7.787350e-06	5.263180e-09	5.437701e+01	3.474798e+02
2.120000e-06	7.819432e-06	5.274270e-09	5.460103e+01	3.481929e+02
2.130000e-06	7.850227e-06	5.284858e-09	5.481606e+01	3.488676e+02
2.140000e-06	7.879667e-06	5.293926e-09	5.502164e+01	3.495077e+02
2.150000e-06	7.907879e-06	5.302153e-09	5.521864e+01	3.501167e+02
2.160000e-06	7.934798e-06	5.311176e-09	5.540660e+01	3.506974e+02
2.170000e-06	7.960064e-06	5.321273e-09	5.558303e+01	3.512520e+02
2.180000e-06	7.983721e-06	5.332123e-09	5.574822e+01	3.517819e+02
2.190000e-06	8.006018e-06	5.344219e-09	5.590392e+01	3.522873e+02
2.200000e-06	8.027033e-06	5.355549e-09	5.605066e+01	3.527674e+02
2.210000e-06	8.046906e-06	5.362693e-09	5.618942e+01	3.532204e+02
2.220000e-06	8.065511e-06	5.368469e-09	5.631934e+01	3.536437e+02
2.230000e-06	8.082548e-06	5.375309e-09	5.643830e+01	3.540338e+02
2.240000e-06	8.098000e-06	5.380910e-09	5.654620e+01	3.543872e+02
2.250000e-06	8.111927e-06	5.384112e-09	5.664345e+01	3.547001e+02
2.260000e-06	8.124401e-06	5.384004e-09	5.673055e+01	3.549690e+02
2.270000e-06	8.135263e-06	5.385315e-09	5.680640e+01	3.551913e+02
2.280000e-06	8.144336e-06	5.392498e-09	5.686976e+01	3.553651e+02
2.290000e-06	8.151885e-06	5.399888e-09	5.692247e+01	3.554899e+02
2.300000e-06	8.158116e-06	5.403737e-09	5.696597e+01	3.555668e+02
2.310000e-06	8.162975e-06	5.406448e-09	5.699991e+01	3.555980e+02
2.320000e-06	8.166514e-06	5.411246e-09	5.702461e+01	3.555876e+02
2.330000e-06	8.168517e-06	5.415779e-09	5.703860e+01	3.555407e+02
2.340000e-06	8.168932e-06	5.418416e-09	5.704150e+01	3.554637e+02
2.350000e-06	8.167990e-06	5.417155e-09	5.703492e+01	3.553636e+02
2.360000e-06	8.165705e-06	5.410677e-09	5.701897e+01	3.552480e+02
2.370000e-06	8.162166e-06	5.410561e-09	5.699425e+01	3.551239e+02
2.380000e-06	8.157495e-06	5.412401e-09	5.696164e+01	3.549982e+02
2.390000e-06	8.151298e-06	5.410934e-09	5.691837e+01	3.548763e+02
2.400000e-06	8.143542e-06	5.409617e-09	5.686421e+01	3.547624e+02
2.410000e-06	8.134632e-06	5.412549e-09	5.680199e+01	3.546588e+02
2.420000e-06	8.124557e-06	5.448560e-09	5.673164e+01	3.545658e+02
2.430000e-06	8.113153e-06	5.390308e-09	5.665201e+01	3.544816e+02
2.440000e-06	8.099717e-06	5.339304e-09	5.655819e+01	3.544024e+02
2.450000e-06	8.083867e-06	5.349753e-09	5.644751e+01	3.543224e+02
2.460000e-06	8.066129e-06	5.348762e-09	5.632365e+01	3.542344e+02
2.470000e-06	8.047162e-06	5.476535e-09	5.619121e+01	3.541299e+02
2.480000e-06	8.027538e-06	5.409916e-09	5.605418e+01	3.539999e+02
2.490000e-06	8.006960e-06	5.266969e-09	5.591049e+01	3.538351e+02
2.500000e-06	7.984528e-06	5.408783e-09	5.575385e+01	3.536266e+02
2.510000e-06	7.960621e-06	5.374308e-09	5.558692e+01	3.533666e+02
2.520000e-06	7.935711e-06	5.408814e-09	5.541298e+01	3.530487e+02
2.530000e-06	7.909248e-06	5.557479e-09	5.522819e+01	3.526681e+02
2.540000e-06	7.881411e-06	5.361886e-09	5.503381e+01	3.522222e+02
2.550000e-06	7.852355e-06	5.391653e-09	5.483093e+01	3.517105e+02
2.560000e-06	7.821714e-06	5.541425e-09	5.461696e+01	3.511347e+02
2.570000e-06	7.789603e-06	5.362544e-09	5.439274e+01	3.504982e+02
2.580000e-06	7.755979e-06	5.285498e-09	5.415796e+01	3.498063e+02
2.590000e-06	7.720988e-06	5.220219e-09	5.391363e+01	3.490656e+02
2.600000e-06	7.684985e-06	5.269321e-09	5.366222e+01	3.482833e+02
2.610000e-06	7.647551e-06	5.428229e-09	5.340084e+01	3.474670e+02
2.620000e-06	7.608435e-06	5.272870e-09	5.312769e+01	3.466241e+02
2.630000e-06	7.567833e-06	5.237971e-09	5.284418e+01	3.457610e+02
2.640000e-06	7.525945e-06	5.248296e-09	5.255169e+01	3.448831e+02
2.650000e-06	7.482901e-06	5.254349e-09	5.225113e+01	3.439942e+02
2.660000e-06	7.438689e-06	5.341824e-09	5.194240e+01	3.430963e+02
2.670000e-06	7.393236e-06	5.241208e-09	5.162502e+01	3.421895e+02
2.680000e-06	7.346262e-06	5.194723e-09	5.129701e+01	3.412722e+02
2.690000e-06	7.297844e-06	5.155705e-09	5.095892e+01	3.403409e+02
2.700000e-06	7.248250e-06	5.202028e-09	5.061262e+01	3.393910e+02
2.710000e-06	7.197374e-06	5.282610e-09	5.025737e+01	3.384165e+02
2.720000e-06	7.145020e-06	5.138626e-09	4.989179e+01	3.374113e+02
2.730000e-06	7.090956e-06	5.097449e-09	4.951428e+01	3.363686e+02
2.740000e-06	7.035418e-06	5.109822e-09	4.912647e+01	3.352825e+02
2.750000e-06	6.978765e-06	5.156004e-09	4.873088e+01	3.341475e+02
2.760000e-06	6.920914e-06	5.126810e-09	4.832692e+01	3.329594e+02
2.770000e-06	6.861878e-06	4.998684e-09	4.791469e+01	3.317152e+02
2.780000e-06	6.801725e-06	5.015485e-09	4.749466e+01	3.304137e+02
2.790000e-06	6.740303e-06	5.042752e-09	4.706576e+01	3.290549e+02
2.800000e-06	6.677490e-06	5.050452e-09	4.662716e+01	3.276405e+02
2.810000e-06	6.613424e-06	4.972010e-09	4.617980e+01	3.261735e+02
2.820000e-06	6.548213e-06	4.909507e-09	4.572445e+01	3.246579e+02
2.830000e-06	6.481859e-06	4.920436e-09	4.526111e+01	3.230981e+02
2.840000e-06	6.414467e-06	4.928215e-09	4.479053e+01	3.214991e+02
2.850000e-06	6.346050e-06	4.917424e-09	4.431279e+01	3.198655e+02
2.860000e-06	6.276352e-06	4.842108e-09	4.382611e+01	3.182015e+02
2.870000e-06	6.205273e-06	4.810319e-09	4.332979e+01	3.165102e+02
2.880000e-06	6.133101e-06	4.807335e-09	4.282583e+01	3.147939e+02
2.890000e-06	6.059937e-06	4.803113e-09	4.231494e+01	3.130535e+02
2.900000e-06	5.985694e-06	4.764924e-09	4.179652e+01	3.112884e+02
2.910000e-06	5.910338e-06	4.717094e-09	4.127034e+01	3.094970e+02
2.920000e-06	5.833734e-06	4.698700e-09	4.073543e+01	3.076765e+02
2.930000e-06	5.755831e-06	4.668507e-09	4.019145e+01	3.058228e+02
2.940000e-06	5.676692e-06	4.639351e-09	3.963884e+01	3.039318e+02
