# Temperatura_=_20.0
# Concentracion g/m^3_=_12600.0
# C_Vs_to_Am_M_A/Vsm_=_65563218390.804596
# pendiente_HvsI_1/m_=_3716.3
# ordenada_HvsI_A/m_=_1297.0
# frecuencia_Hz_=_213246.65537733998

Tiempo_(s)	Campo_(V.s)	Magnetizacion_(V.s)	Campo_(kA/m)	Magnetizacion_(A/m)
0.000000e+00	-8.131305e-06	-5.361657e-09	-5.702144e+01	-3.524603e+02
1.000000e-08	-8.130329e-06	-5.361642e-09	-5.701460e+01	-3.523292e+02
2.000000e-08	-8.127714e-06	-5.360461e-09	-5.699626e+01	-3.522061e+02
3.000000e-08	-8.123795e-06	-5.357352e-09	-5.696878e+01	-3.521014e+02
4.000000e-08	-8.118678e-06	-5.353776e-09	-5.693289e+01	-3.520233e+02
5.000000e-08	-8.112290e-06	-5.348405e-09	-5.688809e+01	-3.519771e+02
6.000000e-08	-8.104677e-06	-5.341873e-09	-5.683471e+01	-3.519642e+02
7.000000e-08	-8.095570e-06	-5.335834e-09	-5.677085e+01	-3.519824e+02
8.000000e-08	-8.084768e-06	-5.322744e-09	-5.669510e+01	-3.520251e+02
9.000000e-08	-8.072310e-06	-5.338762e-09	-5.660773e+01	-3.520822e+02
1.000000e-07	-8.057905e-06	-5.368995e-09	-5.650672e+01	-3.521401e+02
1.100000e-07	-8.041450e-06	-5.363904e-09	-5.639132e+01	-3.521824e+02
1.200000e-07	-8.023448e-06	-5.350460e-09	-5.626508e+01	-3.521911e+02
1.300000e-07	-8.004329e-06	-5.308145e-09	-5.613101e+01	-3.521471e+02
1.400000e-07	-7.984295e-06	-5.265023e-09	-5.599052e+01	-3.520319e+02
1.500000e-07	-7.963216e-06	-5.349297e-09	-5.584270e+01	-3.518286e+02
1.600000e-07	-7.940898e-06	-5.353444e-09	-5.568620e+01	-3.515225e+02
1.700000e-07	-7.917337e-06	-5.291672e-09	-5.552097e+01	-3.511025e+02
1.800000e-07	-7.892169e-06	-5.309353e-09	-5.534448e+01	-3.505618e+02
1.900000e-07	-7.865320e-06	-5.258957e-09	-5.515620e+01	-3.498983e+02
2.000000e-07	-7.837271e-06	-5.284584e-09	-5.495950e+01	-3.491145e+02
2.100000e-07	-7.808025e-06	-5.362972e-09	-5.475441e+01	-3.482178e+02
2.200000e-07	-7.777363e-06	-5.264533e-09	-5.453939e+01	-3.472201e+02
2.300000e-07	-7.745348e-06	-5.188326e-09	-5.431488e+01	-3.461366e+02
2.400000e-07	-7.711941e-06	-5.255034e-09	-5.408061e+01	-3.449857e+02
2.500000e-07	-7.677068e-06	-5.292122e-09	-5.383606e+01	-3.437871e+02
2.600000e-07	-7.640739e-06	-5.272586e-09	-5.358131e+01	-3.425613e+02
2.700000e-07	-7.602997e-06	-5.184048e-09	-5.331664e+01	-3.413280e+02
2.800000e-07	-7.563951e-06	-5.132967e-09	-5.304282e+01	-3.401052e+02
2.900000e-07	-7.523680e-06	-5.186322e-09	-5.276042e+01	-3.389080e+02
3.000000e-07	-7.482061e-06	-5.230205e-09	-5.246856e+01	-3.377481e+02
3.100000e-07	-7.438920e-06	-5.199618e-09	-5.216603e+01	-3.366328e+02
3.200000e-07	-7.394312e-06	-5.123078e-09	-5.185322e+01	-3.355649e+02
3.300000e-07	-7.348404e-06	-5.090313e-09	-5.153128e+01	-3.345429e+02
3.400000e-07	-7.301236e-06	-5.120854e-09	-5.120052e+01	-3.335611e+02
3.500000e-07	-7.252670e-06	-5.155562e-09	-5.085994e+01	-3.326100e+02
3.600000e-07	-7.202421e-06	-5.122765e-09	-5.050756e+01	-3.316771e+02
3.700000e-07	-7.150463e-06	-5.027525e-09	-5.014320e+01	-3.307482e+02
3.800000e-07	-7.097115e-06	-5.005075e-09	-4.976910e+01	-3.298079e+02
3.900000e-07	-7.042589e-06	-5.065341e-09	-4.938673e+01	-3.288409e+02
4.000000e-07	-6.986937e-06	-5.080822e-09	-4.899647e+01	-3.278327e+02
4.100000e-07	-6.930036e-06	-5.006265e-09	-4.859745e+01	-3.267710e+02
4.200000e-07	-6.871687e-06	-4.924467e-09	-4.818827e+01	-3.256459e+02
4.300000e-07	-6.812015e-06	-4.941253e-09	-4.776981e+01	-3.244506e+02
4.400000e-07	-6.751250e-06	-4.999857e-09	-4.734369e+01	-3.231815e+02
4.500000e-07	-6.689379e-06	-4.973914e-09	-4.690981e+01	-3.218384e+02
4.600000e-07	-6.626426e-06	-4.871177e-09	-4.646835e+01	-3.204242e+02
4.700000e-07	-6.562376e-06	-4.817806e-09	-4.601920e+01	-3.189443e+02
4.800000e-07	-6.497112e-06	-4.861179e-09	-4.556153e+01	-3.174063e+02
4.900000e-07	-6.430541e-06	-4.897257e-09	-4.509469e+01	-3.158189e+02
5.000000e-07	-6.362700e-06	-4.839139e-09	-4.461895e+01	-3.141914e+02
5.100000e-07	-6.293749e-06	-4.743285e-09	-4.413543e+01	-3.125327e+02
5.200000e-07	-6.223802e-06	-4.720782e-09	-4.364492e+01	-3.108508e+02
5.300000e-07	-6.152760e-06	-4.765448e-09	-4.314673e+01	-3.091519e+02
5.400000e-07	-6.080623e-06	-4.765361e-09	-4.264087e+01	-3.074402e+02
5.500000e-07	-6.007405e-06	-4.683347e-09	-4.212741e+01	-3.057175e+02
5.600000e-07	-5.932828e-06	-4.611239e-09	-4.160444e+01	-3.039832e+02
5.700000e-07	-5.856910e-06	-4.613906e-09	-4.107206e+01	-3.022343e+02
5.800000e-07	-5.779873e-06	-4.633040e-09	-4.053183e+01	-3.004658e+02
5.900000e-07	-5.701739e-06	-4.597460e-09	-3.998391e+01	-2.986711e+02
6.000000e-07	-5.622475e-06	-4.526649e-09	-3.942806e+01	-2.968426e+02
6.100000e-07	-5.542048e-06	-4.486716e-09	-3.886407e+01	-2.949723e+02
6.200000e-07	-5.460577e-06	-4.485036e-09	-3.829274e+01	-2.930524e+02
6.300000e-07	-5.378261e-06	-4.474791e-09	-3.771550e+01	-2.910757e+02
6.400000e-07	-5.295104e-06	-4.429597e-09	-3.713235e+01	-2.890366e+02
6.500000e-07	-5.211114e-06	-4.374290e-09	-3.654336e+01	-2.869307e+02
6.600000e-07	-5.126353e-06	-4.341674e-09	-3.594897e+01	-2.847560e+02
6.700000e-07	-5.040788e-06	-4.322856e-09	-3.534894e+01	-2.825119e+02
6.800000e-07	-4.954390e-06	-4.295918e-09	-3.474307e+01	-2.801999e+02
6.900000e-07	-4.867124e-06	-4.253659e-09	-3.413111e+01	-2.778230e+02
7.000000e-07	-4.779000e-06	-4.209083e-09	-3.351313e+01	-2.753851e+02
7.100000e-07	-4.690016e-06	-4.173247e-09	-3.288912e+01	-2.728912e+02
7.200000e-07	-4.600191e-06	-4.142351e-09	-3.225922e+01	-2.703462e+02
7.300000e-07	-4.509426e-06	-4.112002e-09	-3.162272e+01	-2.677546e+02
7.400000e-07	-4.417706e-06	-4.073132e-09	-3.097952e+01	-2.651204e+02
7.500000e-07	-4.325301e-06	-4.022071e-09	-3.033153e+01	-2.624461e+02
7.600000e-07	-4.232245e-06	-3.970813e-09	-2.967896e+01	-2.597328e+02
7.700000e-07	-4.138460e-06	-3.930503e-09	-2.902129e+01	-2.569800e+02
7.800000e-07	-4.043988e-06	-3.899464e-09	-2.835879e+01	-2.541854e+02
7.900000e-07	-3.948791e-06	-3.860246e-09	-2.769122e+01	-2.513456e+02
8.000000e-07	-3.852797e-06	-3.804752e-09	-2.701805e+01	-2.484554e+02
8.100000e-07	-3.756172e-06	-3.749489e-09	-2.634046e+01	-2.455092e+02
8.200000e-07	-3.658979e-06	-3.709465e-09	-2.565889e+01	-2.425007e+02
8.300000e-07	-3.561072e-06	-3.677200e-09	-2.497231e+01	-2.394237e+02
8.400000e-07	-3.462390e-06	-3.626445e-09	-2.428029e+01	-2.362725e+02
8.500000e-07	-3.362965e-06	-3.557601e-09	-2.358307e+01	-2.330421e+02
8.600000e-07	-3.262906e-06	-3.499115e-09	-2.288140e+01	-2.297290e+02
8.700000e-07	-3.162391e-06	-3.460961e-09	-2.217652e+01	-2.263309e+02
8.800000e-07	-3.061409e-06	-3.421875e-09	-2.146838e+01	-2.228468e+02
8.900000e-07	-2.959855e-06	-3.356888e-09	-2.075623e+01	-2.192775e+02
9.000000e-07	-2.857762e-06	-3.280156e-09	-2.004029e+01	-2.156248e+02
9.100000e-07	-2.755169e-06	-3.222377e-09	-1.932085e+01	-2.118912e+02
9.200000e-07	-2.652035e-06	-3.182788e-09	-1.859761e+01	-2.080802e+02
9.300000e-07	-2.548377e-06	-3.132077e-09	-1.787070e+01	-2.041950e+02
9.400000e-07	-2.444292e-06	-3.056804e-09	-1.714080e+01	-2.002387e+02
9.500000e-07	-2.339825e-06	-2.983655e-09	-1.640821e+01	-1.962133e+02
9.600000e-07	-2.235009e-06	-2.930570e-09	-1.567318e+01	-1.921200e+02
9.700000e-07	-2.129843e-06	-2.882103e-09	-1.493570e+01	-1.879585e+02
9.800000e-07	-2.024266e-06	-2.814855e-09	-1.419533e+01	-1.837268e+02
9.900000e-07	-1.918326e-06	-2.730908e-09	-1.345242e+01	-1.794215e+02
1.000000e-06	-1.812002e-06	-2.656840e-09	-1.270681e+01	-1.750380e+02
1.010000e-06	-1.705232e-06	-2.598761e-09	-1.195808e+01	-1.705701e+02
1.020000e-06	-1.598099e-06	-2.538035e-09	-1.120680e+01	-1.660113e+02
1.030000e-06	-1.490608e-06	-2.459136e-09	-1.045301e+01	-1.613546e+02
1.040000e-06	-1.382818e-06	-2.372289e-09	-9.697125e+00	-1.565931e+02
1.050000e-06	-1.274802e-06	-2.297669e-09	-8.939655e+00	-1.517207e+02
1.060000e-06	-1.166606e-06	-2.231817e-09	-8.180918e+00	-1.467323e+02
1.070000e-06	-1.058280e-06	-2.157979e-09	-7.421276e+00	-1.416242e+02
1.080000e-06	-9.498023e-07	-2.070347e-09	-6.660566e+00	-1.363945e+02
1.090000e-06	-8.411626e-07	-1.980850e-09	-5.898722e+00	-1.310429e+02
1.100000e-06	-7.323919e-07	-1.898760e-09	-5.135958e+00	-1.255707e+02
1.110000e-06	-6.235373e-07	-1.821005e-09	-4.372607e+00	-1.199808e+02
1.120000e-06	-5.146394e-07	-1.738074e-09	-3.608951e+00	-1.142770e+02
1.130000e-06	-4.057396e-07	-1.644070e-09	-2.845282e+00	-1.084636e+02
1.140000e-06	-2.968007e-07	-1.547360e-09	-2.081339e+00	-1.025452e+02
1.150000e-06	-1.877488e-07	-1.459986e-09	-1.316604e+00	-9.652540e+01
1.160000e-06	-7.866173e-08	-1.374701e-09	-5.516218e-01	-9.040693e+01
1.170000e-06	3.040437e-08	-1.279909e-09	2.132131e-01	-8.419068e+01
1.180000e-06	1.394789e-07	-1.177540e-09	9.781074e-01	-7.787552e+01
1.190000e-06	2.485373e-07	-1.076299e-09	1.742888e+00	-7.145804e+01
1.200000e-06	3.575540e-07	-9.800919e-10	2.507376e+00	-6.493247e+01
1.210000e-06	4.665359e-07	-8.800160e-10	3.271621e+00	-5.829091e+01
1.220000e-06	5.754341e-07	-7.726457e-10	4.035279e+00	-5.152368e+01
1.230000e-06	6.842005e-07	-6.618238e-10	4.798012e+00	-4.461988e+01
1.240000e-06	7.928586e-07	-5.535295e-10	5.559986e+00	-3.756814e+01
1.250000e-06	9.014360e-07	-4.491470e-10	6.321393e+00	-3.035752e+01
1.260000e-06	1.009895e-06	-3.401757e-10	7.081974e+00	-2.297840e+01
1.270000e-06	1.118185e-06	-2.215199e-10	7.841361e+00	-1.542344e+01
1.280000e-06	1.226338e-06	-9.708445e-11	8.599795e+00	-7.688524e+00
1.290000e-06	1.334343e-06	2.446855e-11	9.357189e+00	2.265065e-01
1.300000e-06	1.442145e-06	1.439593e-10	1.011316e+01	8.317189e+00
1.310000e-06	1.549689e-06	2.686138e-10	1.086732e+01	1.657404e+01
1.320000e-06	1.656875e-06	3.991573e-10	1.161897e+01	2.498240e+01
1.330000e-06	1.763737e-06	5.320000e-10	1.236835e+01	3.352250e+01
1.340000e-06	1.870298e-06	6.635878e-10	1.311561e+01	4.216986e+01
1.350000e-06	1.976456e-06	7.955818e-10	1.386006e+01	5.089589e+01
1.360000e-06	2.082094e-06	9.304789e-10	1.460085e+01	5.966869e+01
1.370000e-06	2.187197e-06	1.064616e-09	1.533790e+01	6.845410e+01
1.380000e-06	2.291888e-06	1.198018e-09	1.607205e+01	7.721676e+01
1.390000e-06	2.396211e-06	1.329948e-09	1.680363e+01	8.592133e+01
1.400000e-06	2.500093e-06	1.459493e-09	1.753211e+01	9.453361e+01
1.410000e-06	2.603500e-06	1.588854e-09	1.825726e+01	1.030216e+02
1.420000e-06	2.706415e-06	1.718571e-09	1.897895e+01	1.113566e+02
1.430000e-06	2.808860e-06	1.845840e-09	1.969736e+01	1.195137e+02
1.440000e-06	2.910815e-06	1.965886e-09	2.041233e+01	1.274725e+02
1.450000e-06	3.012215e-06	2.081689e-09	2.112341e+01	1.352174e+02
1.460000e-06	3.113171e-06	2.197371e-09	2.183136e+01	1.427377e+02
1.470000e-06	3.213726e-06	2.312141e-09	2.253652e+01	1.500272e+02
1.480000e-06	3.313780e-06	2.421284e-09	2.323815e+01	1.570842e+02
1.490000e-06	3.413235e-06	2.522631e-09	2.393559e+01	1.639107e+02
1.500000e-06	3.511986e-06	2.619508e-09	2.462809e+01	1.705115e+02
1.510000e-06	3.609910e-06	2.716207e-09	2.531479e+01	1.768941e+02
1.520000e-06	3.707040e-06	2.812178e-09	2.599592e+01	1.830673e+02
1.530000e-06	3.803518e-06	2.903507e-09	2.667248e+01	1.890408e+02
1.540000e-06	3.899341e-06	2.988445e-09	2.734444e+01	1.948244e+02
1.550000e-06	3.994504e-06	3.071533e-09	2.801178e+01	2.004276e+02
1.560000e-06	4.088989e-06	3.154443e-09	2.867437e+01	2.058589e+02
1.570000e-06	4.182731e-06	3.236331e-09	2.933174e+01	2.111259e+02
1.580000e-06	4.275778e-06	3.315655e-09	2.998424e+01	2.162350e+02
1.590000e-06	4.368155e-06	3.389845e-09	3.063205e+01	2.211914e+02
1.600000e-06	4.459846e-06	3.462742e-09	3.127503e+01	2.259992e+02
1.610000e-06	4.550736e-06	3.535855e-09	3.191241e+01	2.306619e+02
1.620000e-06	4.640702e-06	3.605313e-09	3.254330e+01	2.351825e+02
1.630000e-06	4.729705e-06	3.668844e-09	3.316744e+01	2.395635e+02
1.640000e-06	4.817827e-06	3.729709e-09	3.378540e+01	2.438080e+02
1.650000e-06	4.905119e-06	3.792060e-09	3.439755e+01	2.479191e+02
1.660000e-06	4.991547e-06	3.854113e-09	3.500363e+01	2.519006e+02
1.670000e-06	5.077121e-06	3.913337e-09	3.560373e+01	2.557568e+02
1.680000e-06	5.161819e-06	3.969545e-09	3.619768e+01	2.594926e+02
1.690000e-06	5.245730e-06	4.023137e-09	3.678611e+01	2.631135e+02
1.700000e-06	5.328859e-06	4.076159e-09	3.736906e+01	2.666253e+02
1.710000e-06	5.410991e-06	4.129228e-09	3.794501e+01	2.700338e+02
1.720000e-06	5.492101e-06	4.179810e-09	3.851381e+01	2.733447e+02
1.730000e-06	5.572275e-06	4.227296e-09	3.907603e+01	2.765632e+02
1.740000e-06	5.651396e-06	4.273694e-09	3.963087e+01	2.796937e+02
1.750000e-06	5.729440e-06	4.319189e-09	4.017816e+01	2.827399e+02
1.760000e-06	5.806509e-06	4.363081e-09	4.071862e+01	2.857044e+02
1.770000e-06	5.882630e-06	4.405211e-09	4.125242e+01	2.885885e+02
1.780000e-06	5.957639e-06	4.445512e-09	4.177843e+01	2.913927e+02
1.790000e-06	6.031281e-06	4.485514e-09	4.229485e+01	2.941166e+02
1.800000e-06	6.103642e-06	4.525174e-09	4.280228e+01	2.967590e+02
1.810000e-06	6.174927e-06	4.562509e-09	4.330218e+01	2.993184e+02
1.820000e-06	6.245169e-06	4.595736e-09	4.379476e+01	3.017932e+02
1.830000e-06	6.314349e-06	4.627063e-09	4.427988e+01	3.041821e+02
1.840000e-06	6.382502e-06	4.661260e-09	4.475782e+01	3.064842e+02
1.850000e-06	6.449660e-06	4.696817e-09	4.522877e+01	3.086995e+02
1.860000e-06	6.515520e-06	4.729003e-09	4.569062e+01	3.108290e+02
1.870000e-06	6.580019e-06	4.757017e-09	4.614292e+01	3.128747e+02
1.880000e-06	6.643437e-06	4.785030e-09	4.658765e+01	3.148398e+02
1.890000e-06	6.705768e-06	4.814926e-09	4.702474e+01	3.167283e+02
1.900000e-06	6.766955e-06	4.843812e-09	4.745382e+01	3.185452e+02
1.910000e-06	6.827132e-06	4.869121e-09	4.787582e+01	3.202959e+02
1.920000e-06	6.886310e-06	4.893094e-09	4.829081e+01	3.219857e+02
1.930000e-06	6.944059e-06	4.917672e-09	4.869578e+01	3.236202e+02
1.940000e-06	7.000308e-06	4.943298e-09	4.909023e+01	3.252041e+02
1.950000e-06	7.055339e-06	4.967505e-09	4.947614e+01	3.267414e+02
1.960000e-06	7.109204e-06	4.988518e-09	4.985388e+01	3.282349e+02
1.970000e-06	7.161819e-06	5.009787e-09	5.022284e+01	3.296864e+02
1.980000e-06	7.212889e-06	5.031287e-09	5.058097e+01	3.310962e+02
1.990000e-06	7.262204e-06	5.050070e-09	5.092680e+01	3.324634e+02
2.000000e-06	7.310048e-06	5.067781e-09	5.126231e+01	3.337860e+02
2.010000e-06	7.356688e-06	5.087265e-09	5.158938e+01	3.350612e+02
2.020000e-06	7.402045e-06	5.108445e-09	5.190745e+01	3.362860e+02
2.030000e-06	7.446261e-06	5.128032e-09	5.221751e+01	3.374570e+02
2.040000e-06	7.489348e-06	5.144436e-09	5.251966e+01	3.385713e+02
2.050000e-06	7.530879e-06	5.159340e-09	5.281091e+01	3.396268e+02
2.060000e-06	7.570939e-06	5.175608e-09	5.309183e+01	3.406222e+02
2.070000e-06	7.609758e-06	5.191690e-09	5.336405e+01	3.415578e+02
2.080000e-06	7.647210e-06	5.205594e-09	5.362669e+01	3.424350e+02
2.090000e-06	7.683499e-06	5.219383e-09	5.388117e+01	3.432570e+02
2.100000e-06	7.718578e-06	5.233016e-09	5.412716e+01	3.440279e+02
2.110000e-06	7.752059e-06	5.245897e-09	5.436194e+01	3.447532e+02
2.120000e-06	7.784086e-06	5.258568e-09	5.458654e+01	3.454389e+02
2.130000e-06	7.814852e-06	5.271605e-09	5.480229e+01	3.460911e+02
2.140000e-06	7.844274e-06	5.281781e-09	5.500861e+01	3.467160e+02
2.150000e-06	7.872450e-06	5.290119e-09	5.520620e+01	3.473188e+02
2.160000e-06	7.899326e-06	5.300771e-09	5.539467e+01	3.479038e+02
2.170000e-06	7.924602e-06	5.311793e-09	5.557192e+01	3.484733e+02
2.180000e-06	7.948279e-06	5.321385e-09	5.573796e+01	3.490282e+02
2.190000e-06	7.970588e-06	5.330582e-09	5.589440e+01	3.495673e+02
2.200000e-06	7.991600e-06	5.339511e-09	5.604174e+01	3.500875e+02
2.210000e-06	8.011428e-06	5.347351e-09	5.618079e+01	3.505841e+02
2.220000e-06	8.029986e-06	5.353025e-09	5.631093e+01	3.510508e+02
2.230000e-06	8.046982e-06	5.359063e-09	5.643012e+01	3.514808e+02
2.240000e-06	8.062426e-06	5.364261e-09	5.653842e+01	3.518668e+02
2.250000e-06	8.076385e-06	5.368266e-09	5.663631e+01	3.522020e+02
2.260000e-06	8.088899e-06	5.372834e-09	5.672406e+01	3.524805e+02
2.270000e-06	8.099816e-06	5.378633e-09	5.680062e+01	3.526982e+02
2.280000e-06	8.108967e-06	5.385440e-09	5.686479e+01	3.528531e+02
2.290000e-06	8.116591e-06	5.389745e-09	5.691826e+01	3.529457e+02
2.300000e-06	8.122886e-06	5.392994e-09	5.696240e+01	3.529792e+02
2.310000e-06	8.127820e-06	5.397850e-09	5.699700e+01	3.529595e+02
2.320000e-06	8.131473e-06	5.401528e-09	5.702262e+01	3.528952e+02
2.330000e-06	8.133662e-06	5.403431e-09	5.703797e+01	3.527965e+02
2.340000e-06	8.134166e-06	5.404973e-09	5.704150e+01	3.526755e+02
2.350000e-06	8.133277e-06	5.406531e-09	5.703527e+01	3.525447e+02
2.360000e-06	8.131110e-06	5.405279e-09	5.702007e+01	3.524165e+02
2.370000e-06	8.127671e-06	5.405379e-09	5.699596e+01	3.523023e+02
2.380000e-06	8.123062e-06	5.406214e-09	5.696364e+01	3.522113e+02
2.390000e-06	8.117074e-06	5.405626e-09	5.692165e+01	3.521503e+02
2.400000e-06	8.109594e-06	5.406026e-09	5.686919e+01	3.521224e+02
2.410000e-06	8.100772e-06	5.406238e-09	5.680733e+01	3.521271e+02
2.420000e-06	8.090694e-06	5.425676e-09	5.673665e+01	3.521598e+02
2.430000e-06	8.079335e-06	5.393887e-09	5.665699e+01	3.522119e+02
2.440000e-06	8.066113e-06	5.343029e-09	5.656427e+01	3.522713e+02
2.450000e-06	8.050582e-06	5.334250e-09	5.645536e+01	3.523227e+02
2.460000e-06	8.033159e-06	5.335454e-09	5.633318e+01	3.523487e+02
2.470000e-06	8.014433e-06	5.425438e-09	5.620187e+01	3.523307e+02
2.480000e-06	7.994925e-06	5.433242e-09	5.606507e+01	3.522498e+02
2.490000e-06	7.974552e-06	5.341752e-09	5.592219e+01	3.520880e+02
2.500000e-06	7.952471e-06	5.421098e-09	5.576735e+01	3.518297e+02
2.510000e-06	7.928760e-06	5.459860e-09	5.560108e+01	3.514620e+02
2.520000e-06	7.903907e-06	5.468814e-09	5.542680e+01	3.509762e+02
2.530000e-06	7.877612e-06	5.543258e-09	5.524240e+01	3.503678e+02
2.540000e-06	7.849926e-06	5.412938e-09	5.504825e+01	3.496374e+02
2.550000e-06	7.820989e-06	5.336000e-09	5.484532e+01	3.487903e+02
2.560000e-06	7.790469e-06	5.415957e-09	5.463130e+01	3.478363e+02
2.570000e-06	7.758455e-06	5.320357e-09	5.440680e+01	3.467893e+02
2.580000e-06	7.725091e-06	5.209096e-09	5.417283e+01	3.456662e+02
2.590000e-06	7.690403e-06	5.144531e-09	5.392958e+01	3.444865e+02
2.600000e-06	7.654585e-06	5.133763e-09	5.367840e+01	3.432704e+02
2.610000e-06	7.617385e-06	5.248539e-09	5.341754e+01	3.420380e+02
2.620000e-06	7.578597e-06	5.218025e-09	5.314553e+01	3.408084e+02
2.630000e-06	7.538362e-06	5.136137e-09	5.286338e+01	3.395980e+02
2.640000e-06	7.496801e-06	5.092198e-09	5.257193e+01	3.384201e+02
2.650000e-06	7.454062e-06	5.053703e-09	5.227222e+01	3.372840e+02
2.660000e-06	7.410194e-06	5.132834e-09	5.196459e+01	3.361946e+02
2.670000e-06	7.365080e-06	5.160555e-09	5.164822e+01	3.351524e+02
2.680000e-06	7.318533e-06	5.090009e-09	5.132181e+01	3.341534e+02
2.690000e-06	7.270529e-06	4.992893e-09	5.098518e+01	3.331898e+02
2.700000e-06	7.221238e-06	4.987325e-09	5.063952e+01	3.322504e+02
2.710000e-06	7.170643e-06	5.112576e-09	5.028472e+01	3.313215e+02
2.720000e-06	7.118661e-06	5.083753e-09	4.992019e+01	3.303882e+02
2.730000e-06	7.065139e-06	4.956162e-09	4.954486e+01	3.294350e+02
2.740000e-06	7.009996e-06	4.901759e-09	4.915817e+01	3.284470e+02
2.750000e-06	6.953544e-06	4.959918e-09	4.876230e+01	3.274107e+02
2.760000e-06	6.895965e-06	5.029947e-09	4.835852e+01	3.263151e+02
2.770000e-06	6.837214e-06	4.936571e-09	4.794652e+01	3.251520e+02
2.780000e-06	6.777261e-06	4.832494e-09	4.752609e+01	3.239162e+02
2.790000e-06	6.716164e-06	4.834963e-09	4.709765e+01	3.226062e+02
2.800000e-06	6.653821e-06	4.904357e-09	4.666047e+01	3.212234e+02
2.810000e-06	6.590130e-06	4.907938e-09	4.621383e+01	3.197722e+02
2.820000e-06	6.525288e-06	4.803083e-09	4.575912e+01	3.182593e+02
2.830000e-06	6.459343e-06	4.734920e-09	4.529667e+01	3.166929e+02
2.840000e-06	6.392301e-06	4.758984e-09	4.482653e+01	3.150823e+02
2.850000e-06	6.324171e-06	4.808147e-09	4.434876e+01	3.134365e+02
2.860000e-06	6.254825e-06	4.762986e-09	4.386247e+01	3.117641e+02
2.870000e-06	6.184158e-06	4.669381e-09	4.336691e+01	3.100721e+02
2.880000e-06	6.112219e-06	4.640434e-09	4.286243e+01	3.083657e+02
2.890000e-06	6.039236e-06	4.669357e-09	4.235063e+01	3.066478e+02
2.900000e-06	5.965327e-06	4.671203e-09	4.183234e+01	3.049189e+02
2.910000e-06	5.890387e-06	4.607328e-09	4.130682e+01	3.031770e+02
2.920000e-06	5.814207e-06	4.551186e-09	4.077260e+01	3.014180e+02
2.930000e-06	5.736780e-06	4.533009e-09	4.022964e+01	2.996360e+02
2.940000e-06	5.658177e-06	4.530400e-09	3.967843e+01	2.978237e+02
2.950000e-06	5.578363e-06	4.505596e-09	3.911873e+01	2.959731e+02
