# Temperatura_=_20.0
# Concentracion g/m^3_=_9000.0
# C_Vs_to_Am_M_A/Vsm_=_65563218390.804596
# pendiente_HvsI_1/m_=_3716.3
# ordenada_HvsI_A/m_=_1297.0
# frecuencia_Hz_=_301060.7310209849

Tiempo_(s)	Campo_(V.s)	Magnetizacion_(V.s)	Campo_(kA/m)	Magnetizacion_(A/m)
0.000000e+00	-2.665322e-06	-2.937861e-09	-1.977286e+01	-1.943680e+02
1.000000e-08	-2.665090e-06	-2.940001e-09	-1.977114e+01	-1.944659e+02
2.000000e-08	-2.663676e-06	-2.937978e-09	-1.976065e+01	-1.945501e+02
3.000000e-08	-2.661079e-06	-2.936996e-09	-1.974138e+01	-1.946166e+02
4.000000e-08	-2.657687e-06	-2.937156e-09	-1.971622e+01	-1.946580e+02
5.000000e-08	-2.653583e-06	-2.934552e-09	-1.968577e+01	-1.946644e+02
6.000000e-08	-2.648626e-06	-2.931445e-09	-1.964900e+01	-1.946250e+02
7.000000e-08	-2.642763e-06	-2.934322e-09	-1.960550e+01	-1.945296e+02
8.000000e-08	-2.635988e-06	-2.960696e-09	-1.955524e+01	-1.943705e+02
9.000000e-08	-2.628232e-06	-2.955682e-09	-1.949770e+01	-1.941435e+02
1.000000e-07	-2.619211e-06	-2.896855e-09	-1.943078e+01	-1.938494e+02
1.100000e-07	-2.608880e-06	-2.851479e-09	-1.935415e+01	-1.934942e+02
1.200000e-07	-2.597611e-06	-2.960932e-09	-1.927054e+01	-1.930890e+02
1.300000e-07	-2.585517e-06	-3.011593e-09	-1.918082e+01	-1.926490e+02
1.400000e-07	-2.572560e-06	-2.886051e-09	-1.908470e+01	-1.921917e+02
1.500000e-07	-2.558879e-06	-2.851153e-09	-1.898321e+01	-1.917355e+02
1.600000e-07	-2.544087e-06	-2.948552e-09	-1.887347e+01	-1.912970e+02
1.700000e-07	-2.527817e-06	-2.940908e-09	-1.875277e+01	-1.908891e+02
1.800000e-07	-2.510659e-06	-2.927939e-09	-1.862549e+01	-1.905195e+02
1.900000e-07	-2.493068e-06	-2.991225e-09	-1.849499e+01	-1.901894e+02
2.000000e-07	-2.474638e-06	-2.830407e-09	-1.835826e+01	-1.898930e+02
2.100000e-07	-2.455198e-06	-2.811133e-09	-1.821404e+01	-1.896182e+02
2.200000e-07	-2.435151e-06	-3.054064e-09	-1.806533e+01	-1.893475e+02
2.300000e-07	-2.414452e-06	-2.998562e-09	-1.791177e+01	-1.890595e+02
2.400000e-07	-2.392657e-06	-2.731254e-09	-1.775008e+01	-1.887318e+02
2.500000e-07	-2.369846e-06	-2.864876e-09	-1.758085e+01	-1.883423e+02
2.600000e-07	-2.346455e-06	-3.048459e-09	-1.740733e+01	-1.878723e+02
2.700000e-07	-2.322450e-06	-2.895854e-09	-1.722924e+01	-1.873073e+02
2.800000e-07	-2.297433e-06	-2.801026e-09	-1.704365e+01	-1.866390e+02
2.900000e-07	-2.271235e-06	-2.867119e-09	-1.684930e+01	-1.858649e+02
3.000000e-07	-2.244094e-06	-2.892271e-09	-1.664795e+01	-1.849887e+02
3.100000e-07	-2.216270e-06	-2.840722e-09	-1.644154e+01	-1.840188e+02
3.200000e-07	-2.187751e-06	-2.824857e-09	-1.622997e+01	-1.829673e+02
3.300000e-07	-2.158526e-06	-2.805945e-09	-1.601316e+01	-1.818479e+02
3.400000e-07	-2.128580e-06	-2.784406e-09	-1.579100e+01	-1.806740e+02
3.500000e-07	-2.097856e-06	-2.728283e-09	-1.556308e+01	-1.794573e+02
3.600000e-07	-2.066566e-06	-2.793980e-09	-1.533095e+01	-1.782066e+02
3.700000e-07	-2.034883e-06	-2.792944e-09	-1.509591e+01	-1.769265e+02
3.800000e-07	-2.002307e-06	-2.606298e-09	-1.485424e+01	-1.756180e+02
3.900000e-07	-1.968417e-06	-2.649541e-09	-1.460282e+01	-1.742781e+02
4.000000e-07	-1.933586e-06	-2.799942e-09	-1.434443e+01	-1.729010e+02
4.100000e-07	-1.898245e-06	-2.644784e-09	-1.408225e+01	-1.714792e+02
4.200000e-07	-1.862372e-06	-2.496037e-09	-1.381613e+01	-1.700047e+02
4.300000e-07	-1.825850e-06	-2.658180e-09	-1.354519e+01	-1.684701e+02
4.400000e-07	-1.788696e-06	-2.647925e-09	-1.326955e+01	-1.668698e+02
4.500000e-07	-1.750852e-06	-2.489916e-09	-1.298881e+01	-1.652001e+02
4.600000e-07	-1.712300e-06	-2.488077e-09	-1.270281e+01	-1.634603e+02
4.700000e-07	-1.673257e-06	-2.537755e-09	-1.241317e+01	-1.616514e+02
4.800000e-07	-1.633917e-06	-2.465277e-09	-1.212132e+01	-1.597768e+02
4.900000e-07	-1.594164e-06	-2.408059e-09	-1.182641e+01	-1.578403e+02
5.000000e-07	-1.553818e-06	-2.422201e-09	-1.152710e+01	-1.558465e+02
5.100000e-07	-1.512741e-06	-2.377930e-09	-1.122236e+01	-1.537990e+02
5.200000e-07	-1.470808e-06	-2.328891e-09	-1.091129e+01	-1.517006e+02
5.300000e-07	-1.428067e-06	-2.312211e-09	-1.059421e+01	-1.495521e+02
5.400000e-07	-1.384832e-06	-2.301442e-09	-1.027347e+01	-1.473529e+02
5.500000e-07	-1.341298e-06	-2.225016e-09	-9.950502e+00	-1.451009e+02
5.600000e-07	-1.297338e-06	-2.178257e-09	-9.624386e+00	-1.427929e+02
5.700000e-07	-1.252918e-06	-2.183814e-09	-9.294850e+00	-1.404250e+02
5.800000e-07	-1.208022e-06	-2.153595e-09	-8.961792e+00	-1.379933e+02
5.900000e-07	-1.162655e-06	-2.066253e-09	-8.625230e+00	-1.354945e+02
6.000000e-07	-1.116893e-06	-2.021499e-09	-8.285745e+00	-1.329257e+02
6.100000e-07	-1.070768e-06	-2.036344e-09	-7.943563e+00	-1.302849e+02
6.200000e-07	-1.024189e-06	-1.980175e-09	-7.598009e+00	-1.275708e+02
6.300000e-07	-9.771968e-07	-1.898308e-09	-7.249397e+00	-1.247825e+02
6.400000e-07	-9.299964e-07	-1.865597e-09	-6.899238e+00	-1.219188e+02
6.500000e-07	-8.826100e-07	-1.850038e-09	-6.547698e+00	-1.189782e+02
6.600000e-07	-8.349957e-07	-1.783959e-09	-6.194469e+00	-1.159580e+02
6.700000e-07	-7.870725e-07	-1.723010e-09	-5.838947e+00	-1.128544e+02
6.800000e-07	-7.388646e-07	-1.690016e-09	-5.481314e+00	-1.096623e+02
6.900000e-07	-6.902301e-07	-1.635136e-09	-5.120516e+00	-1.063755e+02
7.000000e-07	-6.410745e-07	-1.575851e-09	-4.755852e+00	-1.029870e+02
7.100000e-07	-5.914357e-07	-1.532820e-09	-4.387604e+00	-9.948933e+01
7.200000e-07	-5.413670e-07	-1.483528e-09	-4.016166e+00	-9.587556e+01
7.300000e-07	-4.910521e-07	-1.405663e-09	-3.642901e+00	-9.213955e+01
7.400000e-07	-4.404686e-07	-1.352058e-09	-3.267644e+00	-8.827655e+01
7.500000e-07	-3.896580e-07	-1.309369e-09	-2.890703e+00	-8.428349e+01
7.600000e-07	-3.387032e-07	-1.236235e-09	-2.512692e+00	-8.015912e+01
7.700000e-07	-2.876326e-07	-1.150828e-09	-2.133821e+00	-7.590391e+01
7.800000e-07	-2.364841e-07	-1.094722e-09	-1.754373e+00	-7.151976e+01
7.900000e-07	-1.852589e-07	-1.042696e-09	-1.374355e+00	-6.700958e+01
8.000000e-07	-1.339706e-07	-9.564469e-10	-9.938698e-01	-6.237688e+01
8.100000e-07	-8.263091e-08	-8.746423e-10	-6.130027e-01	-5.762535e+01
8.200000e-07	-3.124834e-08	-8.106417e-10	-2.318178e-01	-5.275856e+01
8.300000e-07	2.011690e-08	-7.426430e-10	1.492385e-01	-4.777993e+01
8.400000e-07	7.146670e-08	-6.551469e-10	5.301803e-01	-4.269275e+01
8.500000e-07	1.227977e-07	-5.723271e-10	9.109825e-01	-3.750054e+01
8.600000e-07	1.740600e-07	-4.951950e-10	1.291275e+00	-3.220745e+01
8.700000e-07	2.252524e-07	-4.113791e-10	1.671049e+00	-2.681878e+01
8.800000e-07	2.763279e-07	-3.248644e-10	2.049956e+00	-2.134146e+01
8.900000e-07	3.273200e-07	-2.388098e-10	2.428245e+00	-1.578441e+01
9.000000e-07	3.781830e-07	-1.516021e-10	2.805575e+00	-1.015872e+01
9.100000e-07	4.288524e-07	-6.016045e-11	3.181469e+00	-4.477612e+00
9.200000e-07	4.793439e-07	2.205735e-11	3.556043e+00	1.243922e+00
9.300000e-07	5.295089e-07	1.064496e-10	3.928196e+00	6.989600e+00
9.400000e-07	5.793398e-07	1.996139e-10	4.297869e+00	1.274256e+01
9.500000e-07	6.287923e-07	2.913099e-10	4.664736e+00	1.848613e+01
9.600000e-07	6.777372e-07	3.719915e-10	5.027837e+00	2.420453e+01
9.700000e-07	7.262702e-07	4.558537e-10	5.387882e+00	2.988348e+01
9.800000e-07	7.744723e-07	5.517350e-10	5.745472e+00	3.551064e+01
9.900000e-07	8.223435e-07	6.408031e-10	6.100608e+00	4.107568e+01
1.000000e-06	8.699493e-07	7.199274e-10	6.453774e+00	4.657027e+01
1.010000e-06	9.173895e-07	8.001936e-10	6.805713e+00	5.198765e+01
1.020000e-06	9.646428e-07	8.881648e-10	7.156264e+00	5.732224e+01
1.030000e-06	1.011597e-06	9.698734e-10	7.504595e+00	6.256902e+01
1.040000e-06	1.058140e-06	1.047252e-09	7.849877e+00	6.772308e+01
1.050000e-06	1.104278e-06	1.125086e-09	8.192160e+00	7.277924e+01
1.060000e-06	1.150039e-06	1.199462e-09	8.531635e+00	7.773183e+01
1.070000e-06	1.195400e-06	1.271402e-09	8.868153e+00	8.257481e+01
1.080000e-06	1.240356e-06	1.345116e-09	9.201661e+00	8.730199e+01
1.090000e-06	1.284821e-06	1.418321e-09	9.531527e+00	9.190755e+01
1.100000e-06	1.328818e-06	1.481846e-09	9.857922e+00	9.638653e+01
1.110000e-06	1.372476e-06	1.545563e-09	1.018180e+01	1.007354e+02
1.120000e-06	1.415916e-06	1.612229e-09	1.050406e+01	1.049525e+02
1.130000e-06	1.459035e-06	1.675299e-09	1.082394e+01	1.090383e+02
1.140000e-06	1.501555e-06	1.732979e-09	1.113938e+01	1.129953e+02
1.150000e-06	1.543266e-06	1.790639e-09	1.144882e+01	1.168279e+02
1.160000e-06	1.584039e-06	1.849690e-09	1.175129e+01	1.205415e+02
1.170000e-06	1.624082e-06	1.905279e-09	1.204836e+01	1.241422e+02
1.180000e-06	1.663657e-06	1.959269e-09	1.234194e+01	1.276357e+02
1.190000e-06	1.702780e-06	2.010548e-09	1.263218e+01	1.310267e+02
1.200000e-06	1.741370e-06	2.061593e-09	1.291846e+01	1.343182e+02
1.210000e-06	1.779337e-06	2.108504e-09	1.320013e+01	1.375109e+02
1.220000e-06	1.816720e-06	2.154540e-09	1.347745e+01	1.406038e+02
1.230000e-06	1.853471e-06	2.200919e-09	1.375009e+01	1.435938e+02
1.240000e-06	1.889568e-06	2.244319e-09	1.401788e+01	1.464765e+02
1.250000e-06	1.925170e-06	2.285833e-09	1.428199e+01	1.492473e+02
1.260000e-06	1.960358e-06	2.326377e-09	1.454304e+01	1.519020e+02
1.270000e-06	1.994857e-06	2.365271e-09	1.479898e+01	1.544375e+02
1.280000e-06	2.028308e-06	2.399879e-09	1.504713e+01	1.568529e+02
1.290000e-06	2.060738e-06	2.435659e-09	1.528771e+01	1.591498e+02
1.300000e-06	2.092434e-06	2.468778e-09	1.552286e+01	1.613320e+02
1.310000e-06	2.123527e-06	2.498286e-09	1.575352e+01	1.634059e+02
1.320000e-06	2.153957e-06	2.527186e-09	1.597927e+01	1.653795e+02
1.330000e-06	2.183689e-06	2.557161e-09	1.619983e+01	1.672615e+02
1.340000e-06	2.212649e-06	2.584760e-09	1.641468e+01	1.690607e+02
1.350000e-06	2.240862e-06	2.609718e-09	1.662398e+01	1.707848e+02
1.360000e-06	2.268472e-06	2.636681e-09	1.682880e+01	1.724398e+02
1.370000e-06	2.295465e-06	2.664445e-09	1.702905e+01	1.740298e+02
1.380000e-06	2.321491e-06	2.688530e-09	1.722213e+01	1.755563e+02
1.390000e-06	2.346340e-06	2.708198e-09	1.740647e+01	1.770189e+02
1.400000e-06	2.370221e-06	2.728813e-09	1.758363e+01	1.784158e+02
1.410000e-06	2.393278e-06	2.748482e-09	1.775469e+01	1.797443e+02
1.420000e-06	2.415542e-06	2.765841e-09	1.791985e+01	1.810022e+02
1.430000e-06	2.436986e-06	2.783017e-09	1.807894e+01	1.821878e+02
1.440000e-06	2.457583e-06	2.801514e-09	1.823174e+01	1.833015e+02
1.450000e-06	2.477462e-06	2.819515e-09	1.837921e+01	1.843453e+02
1.460000e-06	2.496694e-06	2.835570e-09	1.852188e+01	1.853235e+02
1.470000e-06	2.515129e-06	2.851244e-09	1.865865e+01	1.862416e+02
1.480000e-06	2.532624e-06	2.865587e-09	1.878844e+01	1.871065e+02
1.490000e-06	2.549190e-06	2.879185e-09	1.891133e+01	1.879247e+02
1.500000e-06	2.564774e-06	2.892920e-09	1.902694e+01	1.887024e+02
1.510000e-06	2.579314e-06	2.905346e-09	1.913481e+01	1.894438e+02
1.520000e-06	2.592895e-06	2.915152e-09	1.923556e+01	1.901511e+02
1.530000e-06	2.605496e-06	2.924593e-09	1.932904e+01	1.908239e+02
1.540000e-06	2.617183e-06	2.935536e-09	1.941574e+01	1.914597e+02
1.550000e-06	2.627846e-06	2.945995e-09	1.949484e+01	1.920540e+02
1.560000e-06	2.637178e-06	2.953726e-09	1.956408e+01	1.926017e+02
1.570000e-06	2.645383e-06	2.960846e-09	1.962494e+01	1.930976e+02
1.580000e-06	2.652723e-06	2.969090e-09	1.967939e+01	1.935376e+02
1.590000e-06	2.659221e-06	2.976038e-09	1.972760e+01	1.939198e+02
1.600000e-06	2.664851e-06	2.980576e-09	1.976937e+01	1.942449e+02
1.610000e-06	2.669581e-06	2.985267e-09	1.980446e+01	1.945162e+02
1.620000e-06	2.673507e-06	2.989677e-09	1.983358e+01	1.947399e+02
1.630000e-06	2.676662e-06	2.992317e-09	1.985698e+01	1.949238e+02
1.640000e-06	2.678744e-06	2.996081e-09	1.987244e+01	1.950764e+02
1.650000e-06	2.679562e-06	3.000848e-09	1.987850e+01	1.952058e+02
1.660000e-06	2.679408e-06	3.003254e-09	1.987736e+01	1.953185e+02
1.670000e-06	2.678466e-06	3.003839e-09	1.987038e+01	1.954178e+02
1.680000e-06	2.676686e-06	3.007012e-09	1.985717e+01	1.955036e+02
1.690000e-06	2.674072e-06	3.008277e-09	1.983778e+01	1.955721e+02
1.700000e-06	2.670614e-06	3.007087e-09	1.981212e+01	1.956162e+02
1.710000e-06	2.666433e-06	3.007053e-09	1.978110e+01	1.956260e+02
1.720000e-06	2.661618e-06	3.007940e-09	1.974538e+01	1.955907e+02
1.730000e-06	2.655865e-06	2.994705e-09	1.970270e+01	1.955002e+02
1.740000e-06	2.648846e-06	2.956032e-09	1.965063e+01	1.953464e+02
1.750000e-06	2.640576e-06	2.984967e-09	1.958928e+01	1.951248e+02
1.760000e-06	2.630945e-06	3.065254e-09	1.951784e+01	1.948359e+02
1.770000e-06	2.620292e-06	3.010478e-09	1.943881e+01	1.944853e+02
1.780000e-06	2.609451e-06	2.922602e-09	1.935838e+01	1.940838e+02
1.790000e-06	2.598222e-06	2.918284e-09	1.927508e+01	1.936462e+02
1.800000e-06	2.585441e-06	3.033669e-09	1.918026e+01	1.931901e+02
1.810000e-06	2.570974e-06	2.931258e-09	1.907294e+01	1.927338e+02
1.820000e-06	2.555921e-06	2.896235e-09	1.896126e+01	1.922940e+02
1.830000e-06	2.540242e-06	2.942414e-09	1.884495e+01	1.918841e+02
1.840000e-06	2.523201e-06	2.818152e-09	1.871853e+01	1.915122e+02
1.850000e-06	2.505233e-06	2.851458e-09	1.858523e+01	1.911800e+02
1.860000e-06	2.486814e-06	3.031841e-09	1.844859e+01	1.908821e+02
1.870000e-06	2.467587e-06	2.907062e-09	1.830595e+01	1.906068e+02
1.880000e-06	2.447493e-06	2.680390e-09	1.815688e+01	1.903370e+02
1.890000e-06	2.426805e-06	2.965128e-09	1.800341e+01	1.900515e+02
1.900000e-06	2.405123e-06	3.052022e-09	1.784256e+01	1.897279e+02
1.910000e-06	2.382080e-06	2.720594e-09	1.767161e+01	1.893441e+02
1.920000e-06	2.358008e-06	2.758869e-09	1.749303e+01	1.888809e+02
1.930000e-06	2.333214e-06	3.007379e-09	1.730910e+01	1.883236e+02
1.940000e-06	2.307727e-06	2.802502e-09	1.712002e+01	1.876633e+02
1.950000e-06	2.281417e-06	2.710705e-09	1.692484e+01	1.868973e+02
1.960000e-06	2.254158e-06	2.874219e-09	1.672262e+01	1.860287e+02
1.970000e-06	2.226248e-06	2.798252e-09	1.651556e+01	1.850657e+02
1.980000e-06	2.197751e-06	2.711524e-09	1.630416e+01	1.840201e+02
1.990000e-06	2.168196e-06	2.778781e-09	1.608490e+01	1.829056e+02
2.000000e-06	2.137840e-06	2.786673e-09	1.585971e+01	1.817357e+02
2.010000e-06	2.106884e-06	2.719143e-09	1.563005e+01	1.805223e+02
2.020000e-06	2.074995e-06	2.619415e-09	1.539349e+01	1.792743e+02
2.030000e-06	2.042363e-06	2.699732e-09	1.515140e+01	1.779969e+02
2.040000e-06	2.009150e-06	2.797383e-09	1.490501e+01	1.766910e+02
2.050000e-06	1.975200e-06	2.557374e-09	1.465315e+01	1.753540e+02
2.060000e-06	1.940483e-06	2.529273e-09	1.439560e+01	1.739804e+02
2.070000e-06	1.905144e-06	2.744046e-09	1.413343e+01	1.725626e+02
2.080000e-06	1.869277e-06	2.611182e-09	1.386735e+01	1.710926e+02
2.090000e-06	1.832836e-06	2.443800e-09	1.359701e+01	1.695631e+02
2.100000e-06	1.795760e-06	2.561733e-09	1.332196e+01	1.679681e+02
2.110000e-06	1.757908e-06	2.572534e-09	1.304115e+01	1.663040e+02
2.120000e-06	1.719117e-06	2.452587e-09	1.275338e+01	1.645697e+02
2.130000e-06	1.679476e-06	2.418245e-09	1.245930e+01	1.627663e+02
2.140000e-06	1.639309e-06	2.445812e-09	1.216132e+01	1.608967e+02
2.150000e-06	1.598765e-06	2.433779e-09	1.186054e+01	1.589651e+02
2.160000e-06	1.557677e-06	2.333723e-09	1.155572e+01	1.569758e+02
2.170000e-06	1.515986e-06	2.332015e-09	1.124644e+01	1.549326e+02
2.180000e-06	1.473836e-06	2.353039e-09	1.093375e+01	1.528382e+02
2.190000e-06	1.431237e-06	2.256896e-09	1.061773e+01	1.506938e+02
2.200000e-06	1.388056e-06	2.214132e-09	1.029738e+01	1.484989e+02
2.210000e-06	1.344348e-06	2.242542e-09	9.973129e+00	1.462513e+02
2.220000e-06	1.300331e-06	2.193728e-09	9.646588e+00	1.439479e+02
2.230000e-06	1.256050e-06	2.097049e-09	9.318087e+00	1.415850e+02
2.240000e-06	1.211458e-06	2.094355e-09	8.987279e+00	1.391586e+02
2.250000e-06	1.166583e-06	2.105021e-09	8.654372e+00	1.366652e+02
2.260000e-06	1.121332e-06	2.019507e-09	8.318675e+00	1.341020e+02
2.270000e-06	1.075518e-06	1.946714e-09	7.978799e+00	1.314669e+02
2.280000e-06	1.029128e-06	1.966747e-09	7.634653e+00	1.287587e+02
2.290000e-06	9.823769e-07	1.933450e-09	7.287826e+00	1.259762e+02
2.300000e-06	9.353757e-07	1.843275e-09	6.939145e+00	1.231185e+02
2.310000e-06	8.881047e-07	1.809172e-09	6.588461e+00	1.201840e+02
2.320000e-06	8.406439e-07	1.788406e-09	6.236371e+00	1.171701e+02
2.330000e-06	7.928991e-07	1.730152e-09	5.882172e+00	1.140732e+02
2.340000e-06	7.448092e-07	1.663915e-09	5.525415e+00	1.108882e+02
2.350000e-06	6.963592e-07	1.637417e-09	5.165985e+00	1.076089e+02
2.360000e-06	6.475510e-07	1.587495e-09	4.803899e+00	1.042284e+02
2.370000e-06	5.984614e-07	1.510799e-09	4.439724e+00	1.007393e+02
2.380000e-06	5.491198e-07	1.470228e-09	4.073681e+00	9.713462e+01
2.390000e-06	4.996441e-07	1.429298e-09	3.706642e+00	9.340806e+01
2.400000e-06	4.499774e-07	1.352793e-09	3.338186e+00	8.955479e+01
2.410000e-06	4.000543e-07	1.282380e-09	2.967828e+00	8.557162e+01
2.420000e-06	3.499645e-07	1.240970e-09	2.596234e+00	8.145718e+01
2.430000e-06	2.997730e-07	1.181171e-09	2.223885e+00	7.721181e+01
2.440000e-06	2.494542e-07	1.094793e-09	1.850592e+00	7.283732e+01
2.450000e-06	1.990218e-07	1.024131e-09	1.476456e+00	6.833658e+01
2.460000e-06	1.486408e-07	9.731645e-10	1.102701e+00	6.371305e+01
2.470000e-06	9.823588e-08	8.969799e-10	7.287692e-01	5.897042e+01
2.480000e-06	4.772680e-08	8.115216e-10	3.540643e-01	5.411230e+01
2.490000e-06	-2.779777e-09	7.465156e-10	-2.062196e-02	4.914209e+01
2.500000e-06	-5.325035e-08	6.778002e-10	-3.950411e-01	4.406309e+01
2.510000e-06	-1.037482e-07	5.927787e-10	-7.696625e-01	3.887880e+01
2.520000e-06	-1.542699e-07	5.065817e-10	-1.144461e+00	3.359329e+01
2.530000e-06	-2.046676e-07	4.337050e-10	-1.518340e+00	2.821178e+01
2.540000e-06	-2.549737e-07	3.520498e-10	-1.891539e+00	2.274106e+01
2.550000e-06	-3.052562e-07	2.622867e-10	-2.264562e+00	1.718991e+01
2.560000e-06	-3.554455e-07	1.838316e-10	-2.636895e+00	1.156926e+01
2.570000e-06	-4.054829e-07	1.035620e-10	-3.008101e+00	5.892167e+00
2.580000e-06	-4.553768e-07	1.047689e-11	-3.378242e+00	1.735334e-01
2.590000e-06	-5.050670e-07	-7.700755e-11	-3.746872e+00	-5.570435e+00
2.600000e-06	-5.544060e-07	-1.545159e-10	-4.112896e+00	-1.132290e+01
2.610000e-06	-6.032829e-07	-2.436927e-10	-4.475493e+00	-1.706713e+01
2.620000e-06	-6.517844e-07	-3.388774e-10	-4.835304e+00	-2.278728e+01
2.630000e-06	-6.999838e-07	-4.222541e-10	-5.192875e+00	-2.846894e+01
2.640000e-06	-7.477727e-07	-4.978111e-10	-5.547399e+00	-3.409962e+01
2.650000e-06	-7.952723e-07	-5.839596e-10	-5.899779e+00	-3.966886e+01
2.660000e-06	-8.425470e-07	-6.722117e-10	-6.250489e+00	-4.516818e+01
2.670000e-06	-8.895426e-07	-7.506260e-10	-6.599129e+00	-5.059073e+01
2.680000e-06	-9.362780e-07	-8.293959e-10	-6.945838e+00	-5.593086e+01
2.690000e-06	-9.828395e-07	-9.109116e-10	-7.291258e+00	-6.118353e+01
2.700000e-06	-1.029169e-06	-9.893033e-10	-7.634953e+00	-6.634384e+01
2.710000e-06	-1.075138e-06	-1.064435e-09	-7.975980e+00	-7.140663e+01
2.720000e-06	-1.120715e-06	-1.142543e-09	-8.314097e+00	-7.636628e+01
2.730000e-06	-1.165852e-06	-1.216438e-09	-8.648948e+00	-8.121675e+01
2.740000e-06	-1.210579e-06	-1.284896e-09	-8.980755e+00	-8.595186e+01
2.750000e-06	-1.254994e-06	-1.355392e-09	-9.310254e+00	-9.056575e+01
2.760000e-06	-1.299198e-06	-1.427038e-09	-9.638180e+00	-9.505336e+01
2.770000e-06	-1.343095e-06	-1.492829e-09	-9.963833e+00	-9.941107e+01
2.780000e-06	-1.386532e-06	-1.555080e-09	-1.028608e+01	-1.036371e+02
2.790000e-06	-1.429456e-06	-1.619847e-09	-1.060451e+01	-1.077316e+02
2.800000e-06	-1.471920e-06	-1.681676e-09	-1.091953e+01	-1.116972e+02
2.810000e-06	-1.513886e-06	-1.739804e-09	-1.123086e+01	-1.155379e+02
2.820000e-06	-1.555217e-06	-1.796561e-09	-1.153748e+01	-1.192593e+02
2.830000e-06	-1.595963e-06	-1.853563e-09	-1.183976e+01	-1.228673e+02
2.840000e-06	-1.636328e-06	-1.906614e-09	-1.213920e+01	-1.263678e+02
2.850000e-06	-1.676280e-06	-1.956013e-09	-1.243559e+01	-1.297654e+02
2.860000e-06	-1.715629e-06	-2.007989e-09	-1.272750e+01	-1.330634e+02
2.870000e-06	-1.754193e-06	-2.059649e-09	-1.301359e+01	-1.362627e+02
2.880000e-06	-1.791771e-06	-2.106183e-09	-1.329237e+01	-1.393622e+02
2.890000e-06	-1.828548e-06	-2.150321e-09	-1.356520e+01	-1.423591e+02
2.900000e-06	-1.864826e-06	-2.196845e-09	-1.383433e+01	-1.452491e+02
2.910000e-06	-1.900552e-06	-2.241113e-09	-1.409937e+01	-1.480276e+02
2.920000e-06	-1.935611e-06	-2.281385e-09	-1.435945e+01	-1.506901e+02
2.930000e-06	-1.970014e-06	-2.319580e-09	-1.461468e+01	-1.532336e+02
2.940000e-06	-2.003686e-06	-2.357603e-09	-1.486448e+01	-1.556571e+02
