# Temperatura_=_20.0
# Concentracion g/m^3_=_9000.0
# C_Vs_to_Am_M_A/Vsm_=_65563218390.804596
# pendiente_HvsI_1/m_=_3716.3
# ordenada_HvsI_A/m_=_1297.0
# frecuencia_Hz_=_301062.274302179

Tiempo_(s)	Campo_(V.s)	Magnetizacion_(V.s)	Campo_(kA/m)	Magnetizacion_(A/m)
0.000000e+00	-2.665215e-06	-2.968283e-09	-1.976851e+01	-1.960492e+02
1.000000e-08	-2.664189e-06	-2.966119e-09	-1.976090e+01	-1.961172e+02
2.000000e-08	-2.661892e-06	-2.967061e-09	-1.974386e+01	-1.961543e+02
3.000000e-08	-2.658646e-06	-2.968332e-09	-1.971978e+01	-1.961553e+02
4.000000e-08	-2.654703e-06	-2.967442e-09	-1.969054e+01	-1.961139e+02
5.000000e-08	-2.649996e-06	-2.966287e-09	-1.965563e+01	-1.960234e+02
6.000000e-08	-2.644426e-06	-2.970849e-09	-1.961432e+01	-1.958779e+02
7.000000e-08	-2.637946e-06	-2.979606e-09	-1.956625e+01	-1.956738e+02
8.000000e-08	-2.630523e-06	-2.950027e-09	-1.951119e+01	-1.954100e+02
9.000000e-08	-2.621917e-06	-2.913868e-09	-1.944736e+01	-1.950891e+02
1.000000e-07	-2.611898e-06	-2.942840e-09	-1.937305e+01	-1.947172e+02
1.100000e-07	-2.600811e-06	-3.018843e-09	-1.929081e+01	-1.943034e+02
1.200000e-07	-2.588989e-06	-2.961306e-09	-1.920313e+01	-1.938594e+02
1.300000e-07	-2.576333e-06	-2.846704e-09	-1.910925e+01	-1.933976e+02
1.400000e-07	-2.562846e-06	-2.941897e-09	-1.900921e+01	-1.929300e+02
1.500000e-07	-2.548378e-06	-2.989512e-09	-1.890190e+01	-1.924668e+02
1.600000e-07	-2.532545e-06	-2.938013e-09	-1.878447e+01	-1.920148e+02
1.700000e-07	-2.515531e-06	-2.951025e-09	-1.865827e+01	-1.915766e+02
1.800000e-07	-2.497954e-06	-2.955205e-09	-1.852790e+01	-1.911498e+02
1.900000e-07	-2.479821e-06	-2.841672e-09	-1.839340e+01	-1.907277e+02
2.000000e-07	-2.460703e-06	-2.930867e-09	-1.825160e+01	-1.902990e+02
2.100000e-07	-2.440762e-06	-3.059908e-09	-1.810369e+01	-1.898500e+02
2.200000e-07	-2.420275e-06	-2.849025e-09	-1.795173e+01	-1.893653e+02
2.300000e-07	-2.398871e-06	-2.768998e-09	-1.779298e+01	-1.888298e+02
2.400000e-07	-2.376311e-06	-2.982347e-09	-1.762564e+01	-1.882305e+02
2.500000e-07	-2.353031e-06	-2.983158e-09	-1.745297e+01	-1.875575e+02
2.600000e-07	-2.329271e-06	-2.778303e-09	-1.727674e+01	-1.868051e+02
2.700000e-07	-2.304691e-06	-2.834745e-09	-1.709442e+01	-1.859724e+02
2.800000e-07	-2.278893e-06	-2.899942e-09	-1.690307e+01	-1.850629e+02
2.900000e-07	-2.251967e-06	-2.842682e-09	-1.670335e+01	-1.840838e+02
3.000000e-07	-2.224318e-06	-2.799338e-09	-1.649828e+01	-1.830450e+02
3.100000e-07	-2.196025e-06	-2.823383e-09	-1.628842e+01	-1.819574e+02
3.200000e-07	-2.167061e-06	-2.775936e-09	-1.607359e+01	-1.808315e+02
3.300000e-07	-2.137452e-06	-2.720591e-09	-1.585397e+01	-1.796763e+02
3.400000e-07	-2.107017e-06	-2.763854e-09	-1.562822e+01	-1.784977e+02
3.500000e-07	-2.075818e-06	-2.794684e-09	-1.539682e+01	-1.772980e+02
3.600000e-07	-2.044213e-06	-2.670314e-09	-1.516240e+01	-1.760760e+02
3.700000e-07	-2.011985e-06	-2.601463e-09	-1.492335e+01	-1.748270e+02
3.800000e-07	-1.978523e-06	-2.759243e-09	-1.467516e+01	-1.735435e+02
3.900000e-07	-1.943857e-06	-2.711259e-09	-1.441803e+01	-1.722169e+02
4.000000e-07	-1.908548e-06	-2.549301e-09	-1.415614e+01	-1.708378e+02
4.100000e-07	-1.872794e-06	-2.586163e-09	-1.389094e+01	-1.693979e+02
4.200000e-07	-1.836410e-06	-2.663050e-09	-1.362107e+01	-1.678906e+02
4.300000e-07	-1.799387e-06	-2.540125e-09	-1.334647e+01	-1.663119e+02
4.400000e-07	-1.761803e-06	-2.490076e-09	-1.306769e+01	-1.646605e+02
4.500000e-07	-1.723542e-06	-2.534909e-09	-1.278391e+01	-1.629377e+02
4.600000e-07	-1.684640e-06	-2.488085e-09	-1.249536e+01	-1.611469e+02
4.700000e-07	-1.645346e-06	-2.429953e-09	-1.220391e+01	-1.592932e+02
4.800000e-07	-1.605731e-06	-2.423702e-09	-1.191008e+01	-1.573817e+02
4.900000e-07	-1.565654e-06	-2.417319e-09	-1.161282e+01	-1.554174e+02
5.000000e-07	-1.524842e-06	-2.342509e-09	-1.131011e+01	-1.534038e+02
5.100000e-07	-1.483069e-06	-2.326336e-09	-1.100026e+01	-1.513429e+02
5.200000e-07	-1.440415e-06	-2.316897e-09	-1.068389e+01	-1.492344e+02
5.300000e-07	-1.397211e-06	-2.266357e-09	-1.036344e+01	-1.470760e+02
5.400000e-07	-1.353717e-06	-2.207170e-09	-1.004083e+01	-1.448640e+02
5.500000e-07	-1.309888e-06	-2.197697e-09	-9.715738e+00	-1.425934e+02
5.600000e-07	-1.265552e-06	-2.178807e-09	-9.386888e+00	-1.402588e+02
5.700000e-07	-1.220706e-06	-2.108173e-09	-9.054254e+00	-1.378549e+02
5.800000e-07	-1.175459e-06	-2.068880e-09	-8.718649e+00	-1.353772e+02
5.900000e-07	-1.129803e-06	-2.051415e-09	-8.380007e+00	-1.328222e+02
6.000000e-07	-1.083711e-06	-2.019187e-09	-8.038136e+00	-1.301875e+02
6.100000e-07	-1.037264e-06	-1.941963e-09	-7.693622e+00	-1.274718e+02
6.200000e-07	-9.904761e-07	-1.900251e-09	-7.346588e+00	-1.246745e+02
6.300000e-07	-9.433730e-07	-1.879489e-09	-6.997214e+00	-1.217951e+02
6.400000e-07	-8.960493e-07	-1.831890e-09	-6.646203e+00	-1.188331e+02
6.500000e-07	-8.485192e-07	-1.764889e-09	-6.293662e+00	-1.157870e+02
6.600000e-07	-8.007368e-07	-1.716477e-09	-5.939249e+00	-1.126545e+02
6.700000e-07	-7.526648e-07	-1.683041e-09	-5.582687e+00	-1.094321e+02
6.800000e-07	-7.042193e-07	-1.625904e-09	-5.223356e+00	-1.061152e+02
6.900000e-07	-6.552190e-07	-1.575413e-09	-4.859909e+00	-1.026984e+02
7.000000e-07	-6.057081e-07	-1.519497e-09	-4.492676e+00	-9.917592e+01
7.100000e-07	-5.558544e-07	-1.458022e-09	-4.122900e+00	-9.554204e+01
7.200000e-07	-5.056152e-07	-1.400541e-09	-3.750264e+00	-9.179168e+01
7.300000e-07	-4.550344e-07	-1.356931e-09	-3.375095e+00	-8.792075e+01
7.400000e-07	-4.042365e-07	-1.291106e-09	-2.998315e+00	-8.392647e+01
7.500000e-07	-3.532290e-07	-1.206639e-09	-2.619980e+00	-7.980743e+01
7.600000e-07	-3.021019e-07	-1.148471e-09	-2.240759e+00	-7.556357e+01
7.700000e-07	-2.509695e-07	-1.098557e-09	-1.861498e+00	-7.119594e+01
7.800000e-07	-1.997590e-07	-1.027207e-09	-1.481658e+00	-6.670637e+01
7.900000e-07	-1.484447e-07	-9.383070e-10	-1.101049e+00	-6.209716e+01
8.000000e-07	-9.710583e-08	-8.720676e-10	-7.202562e-01	-5.737079e+01
8.100000e-07	-4.577695e-08	-8.098238e-10	-3.395381e-01	-5.252972e+01
8.200000e-07	5.575112e-09	-7.332758e-10	4.135188e-02	-4.757639e+01
8.300000e-07	5.700245e-08	-6.475209e-10	4.228002e-01	-4.251339e+01
8.400000e-07	1.084327e-07	-5.646584e-10	8.042702e-01	-3.734374e+01
8.500000e-07	1.597697e-07	-4.855766e-10	1.185048e+00	-3.207131e+01
8.600000e-07	2.110504e-07	-4.038795e-10	1.565409e+00	-2.670131e+01
8.700000e-07	2.622855e-07	-3.227277e-10	1.945431e+00	-2.124065e+01
8.800000e-07	3.133719e-07	-2.328554e-10	2.324351e+00	-1.569827e+01
8.900000e-07	3.642856e-07	-1.434211e-10	2.701990e+00	-1.008523e+01
9.000000e-07	4.149952e-07	-5.912120e-11	3.078115e+00	-4.414616e+00
9.100000e-07	4.654359e-07	2.109234e-11	3.452245e+00	1.298813e+00
9.200000e-07	5.155841e-07	1.118136e-10	3.824206e+00	7.039123e+00
9.300000e-07	5.654679e-07	2.075791e-10	4.194205e+00	1.278986e+01
9.400000e-07	6.150482e-07	2.939474e-10	4.561953e+00	1.853476e+01
9.500000e-07	6.641572e-07	3.766027e-10	4.926206e+00	2.425836e+01
9.600000e-07	7.127306e-07	4.647566e-10	5.286486e+00	2.994657e+01
9.700000e-07	7.609058e-07	5.577545e-10	5.643813e+00	3.558697e+01
9.800000e-07	8.087948e-07	6.419994e-10	5.999016e+00	4.116896e+01
9.900000e-07	8.564530e-07	7.248381e-10	6.352508e+00	4.668361e+01
1.000000e-06	9.039455e-07	8.061638e-10	6.704771e+00	5.212342e+01
1.010000e-06	9.512457e-07	8.873425e-10	7.055607e+00	5.748187e+01
1.020000e-06	9.983598e-07	9.688472e-10	7.405063e+00	6.275296e+01
1.030000e-06	1.045135e-06	1.051417e-09	7.752008e+00	6.793087e+01
1.040000e-06	1.091368e-06	1.130225e-09	8.094930e+00	7.300966e+01
1.050000e-06	1.137182e-06	1.200266e-09	8.434739e+00	7.798314e+01
1.060000e-06	1.182663e-06	1.274526e-09	8.772084e+00	8.284505e+01
1.070000e-06	1.227757e-06	1.351252e-09	9.106552e+00	8.758933e+01
1.080000e-06	1.272394e-06	1.422763e-09	9.437637e+00	9.221053e+01
1.090000e-06	1.316562e-06	1.485868e-09	9.765243e+00	9.670432e+01
1.100000e-06	1.360338e-06	1.549821e-09	1.008994e+01	1.010679e+02
1.110000e-06	1.403804e-06	1.615121e-09	1.041233e+01	1.053004e+02
1.120000e-06	1.447016e-06	1.678252e-09	1.073285e+01	1.094030e+02
1.130000e-06	1.489717e-06	1.739868e-09	1.104957e+01	1.133785e+02
1.140000e-06	1.531635e-06	1.796909e-09	1.136049e+01	1.172316e+02
1.150000e-06	1.572707e-06	1.853301e-09	1.166513e+01	1.209678e+02
1.160000e-06	1.612928e-06	1.908692e-09	1.196346e+01	1.245926e+02
1.170000e-06	1.652573e-06	1.965130e-09	1.225751e+01	1.281112e+02
1.180000e-06	1.691846e-06	2.017299e-09	1.254881e+01	1.315276e+02
1.190000e-06	1.730631e-06	2.065512e-09	1.283649e+01	1.348438e+02
1.200000e-06	1.768834e-06	2.112062e-09	1.311984e+01	1.380599e+02
1.210000e-06	1.806400e-06	2.160402e-09	1.339848e+01	1.411742e+02
1.220000e-06	1.843310e-06	2.209881e-09	1.367226e+01	1.441830e+02
1.230000e-06	1.879604e-06	2.251917e-09	1.394145e+01	1.470819e+02
1.240000e-06	1.915347e-06	2.290661e-09	1.420657e+01	1.498664e+02
1.250000e-06	1.950642e-06	2.331484e-09	1.446836e+01	1.525324e+02
1.260000e-06	1.985333e-06	2.372608e-09	1.472567e+01	1.550776e+02
1.270000e-06	2.019077e-06	2.406353e-09	1.497596e+01	1.575017e+02
1.280000e-06	2.051772e-06	2.440019e-09	1.521847e+01	1.598069e+02
1.290000e-06	2.083660e-06	2.474104e-09	1.545498e+01	1.619982e+02
1.300000e-06	2.114955e-06	2.505515e-09	1.568711e+01	1.640825e+02
1.310000e-06	2.145616e-06	2.535228e-09	1.591452e+01	1.660687e+02
1.320000e-06	2.175551e-06	2.563836e-09	1.613656e+01	1.679661e+02
1.330000e-06	2.204727e-06	2.590920e-09	1.635296e+01	1.697841e+02
1.340000e-06	2.233181e-06	2.616423e-09	1.656402e+01	1.715309e+02
1.350000e-06	2.260990e-06	2.644281e-09	1.677028e+01	1.732130e+02
1.360000e-06	2.288218e-06	2.671138e-09	1.697224e+01	1.748344e+02
1.370000e-06	2.314589e-06	2.695362e-09	1.716784e+01	1.763968e+02
1.380000e-06	2.339772e-06	2.716527e-09	1.735462e+01	1.778996e+02
1.390000e-06	2.363872e-06	2.737758e-09	1.753338e+01	1.793405e+02
1.400000e-06	2.387118e-06	2.757837e-09	1.770580e+01	1.807162e+02
1.410000e-06	2.409615e-06	2.775563e-09	1.787266e+01	1.820232e+02
1.420000e-06	2.431339e-06	2.793937e-09	1.803380e+01	1.832588e+02
1.430000e-06	2.452227e-06	2.813195e-09	1.818873e+01	1.844216e+02
1.440000e-06	2.472344e-06	2.832193e-09	1.833795e+01	1.855120e+02
1.450000e-06	2.491813e-06	2.849265e-09	1.848235e+01	1.865326e+02
1.460000e-06	2.510535e-06	2.865683e-09	1.862121e+01	1.874876e+02
1.470000e-06	2.528320e-06	2.880648e-09	1.875313e+01	1.883825e+02
1.480000e-06	2.545140e-06	2.893784e-09	1.887789e+01	1.892234e+02
1.490000e-06	2.561065e-06	2.905355e-09	1.899601e+01	1.900164e+02
1.500000e-06	2.575996e-06	2.916722e-09	1.910675e+01	1.907664e+02
1.510000e-06	2.589863e-06	2.927693e-09	1.920961e+01	1.914770e+02
1.520000e-06	2.602780e-06	2.937030e-09	1.930542e+01	1.921499e+02
1.530000e-06	2.614748e-06	2.947123e-09	1.939418e+01	1.927849e+02
1.540000e-06	2.625711e-06	2.958887e-09	1.947550e+01	1.933803e+02
1.550000e-06	2.635449e-06	2.968730e-09	1.954773e+01	1.939331e+02
1.560000e-06	2.643908e-06	2.975603e-09	1.961047e+01	1.944402e+02
1.570000e-06	2.651418e-06	2.982776e-09	1.966618e+01	1.948986e+02
1.580000e-06	2.658137e-06	2.990630e-09	1.971601e+01	1.953067e+02
1.590000e-06	2.664000e-06	2.995757e-09	1.975950e+01	1.956643e+02
1.600000e-06	2.668967e-06	2.999083e-09	1.979634e+01	1.959730e+02
1.610000e-06	2.673096e-06	3.002861e-09	1.982696e+01	1.962359e+02
1.620000e-06	2.676433e-06	3.006098e-09	1.985171e+01	1.964575e+02
1.630000e-06	2.678807e-06	3.011015e-09	1.986933e+01	1.966426e+02
1.640000e-06	2.679986e-06	3.016339e-09	1.987807e+01	1.967959e+02
1.650000e-06	2.680044e-06	3.018682e-09	1.987850e+01	1.969208e+02
1.660000e-06	2.679275e-06	3.021009e-09	1.987280e+01	1.970188e+02
1.670000e-06	2.677757e-06	3.024632e-09	1.986154e+01	1.970893e+02
1.680000e-06	2.675382e-06	3.022627e-09	1.984392e+01	1.971292e+02
1.690000e-06	2.672184e-06	3.018269e-09	1.982020e+01	1.971334e+02
1.700000e-06	2.668261e-06	3.016815e-09	1.979111e+01	1.970957e+02
1.710000e-06	2.663659e-06	3.015510e-09	1.975697e+01	1.970093e+02
1.720000e-06	2.658206e-06	2.998673e-09	1.971652e+01	1.968684e+02
1.730000e-06	2.651579e-06	2.988353e-09	1.966737e+01	1.966689e+02
1.740000e-06	2.643672e-06	3.026135e-09	1.960872e+01	1.964098e+02
1.750000e-06	2.634466e-06	3.040182e-09	1.954044e+01	1.960932e+02
1.760000e-06	2.624024e-06	2.949141e-09	1.946299e+01	1.957251e+02
1.770000e-06	2.613056e-06	2.952135e-09	1.938163e+01	1.953145e+02
1.780000e-06	2.601977e-06	3.010925e-09	1.929946e+01	1.948726e+02
1.790000e-06	2.589870e-06	3.038016e-09	1.920966e+01	1.944120e+02
1.800000e-06	2.575859e-06	2.902162e-09	1.910574e+01	1.939449e+02
1.810000e-06	2.560800e-06	2.926675e-09	1.899404e+01	1.934816e+02
1.820000e-06	2.545453e-06	2.949701e-09	1.888021e+01	1.930291e+02
1.830000e-06	2.528982e-06	2.834997e-09	1.875804e+01	1.925904e+02
1.840000e-06	2.511191e-06	2.941508e-09	1.862608e+01	1.921634e+02
1.850000e-06	2.492860e-06	2.972712e-09	1.849011e+01	1.917417e+02
1.860000e-06	2.473979e-06	2.792011e-09	1.835007e+01	1.913144e+02
1.870000e-06	2.454142e-06	2.799725e-09	1.820294e+01	1.908677e+02
1.880000e-06	2.433579e-06	3.045072e-09	1.805041e+01	1.903865e+02
1.890000e-06	2.412190e-06	2.894691e-09	1.789177e+01	1.898556e+02
1.900000e-06	2.389476e-06	2.712632e-09	1.772329e+01	1.892616e+02
1.910000e-06	2.365587e-06	2.919266e-09	1.754610e+01	1.885945e+02
1.920000e-06	2.340962e-06	2.957217e-09	1.736345e+01	1.878483e+02
1.930000e-06	2.315709e-06	2.713865e-09	1.717615e+01	1.870218e+02
1.940000e-06	2.289698e-06	2.791674e-09	1.698322e+01	1.861180e+02
1.950000e-06	2.262715e-06	2.878478e-09	1.678308e+01	1.851440e+02
1.960000e-06	2.234889e-06	2.725439e-09	1.657668e+01	1.841095e+02
1.970000e-06	2.206559e-06	2.722588e-09	1.636655e+01	1.830254e+02
1.980000e-06	2.177442e-06	2.815893e-09	1.615058e+01	1.819025e+02
1.990000e-06	2.147236e-06	2.764231e-09	1.592654e+01	1.807495e+02
2.000000e-06	2.116301e-06	2.638334e-09	1.569709e+01	1.795729e+02
2.010000e-06	2.084636e-06	2.664076e-09	1.546222e+01	1.783752e+02
2.020000e-06	2.052102e-06	2.784943e-09	1.522091e+01	1.771553e+02
2.030000e-06	2.019003e-06	2.679960e-09	1.497541e+01	1.759088e+02
2.040000e-06	1.985299e-06	2.512369e-09	1.472542e+01	1.746286e+02
2.050000e-06	1.950772e-06	2.668349e-09	1.446932e+01	1.733058e+02
2.060000e-06	1.915515e-06	2.689053e-09	1.420782e+01	1.719312e+02
2.070000e-06	1.879762e-06	2.500865e-09	1.394263e+01	1.704963e+02
2.080000e-06	1.843492e-06	2.540228e-09	1.367360e+01	1.689944e+02
2.090000e-06	1.806588e-06	2.598579e-09	1.339987e+01	1.674213e+02
2.100000e-06	1.769012e-06	2.495124e-09	1.312117e+01	1.657755e+02
2.110000e-06	1.730605e-06	2.437609e-09	1.283629e+01	1.640581e+02
2.120000e-06	1.691259e-06	2.466820e-09	1.254446e+01	1.622725e+02
2.130000e-06	1.651187e-06	2.455941e-09	1.224723e+01	1.604235e+02
2.140000e-06	1.610701e-06	2.381356e-09	1.194694e+01	1.585164e+02
2.150000e-06	1.569788e-06	2.337231e-09	1.164348e+01	1.565562e+02
2.160000e-06	1.528236e-06	2.371701e-09	1.133528e+01	1.545465e+02
2.170000e-06	1.486133e-06	2.323327e-09	1.102299e+01	1.524894e+02
2.180000e-06	1.443625e-06	2.244125e-09	1.070770e+01	1.503847e+02
2.190000e-06	1.400626e-06	2.256261e-09	1.038877e+01	1.482305e+02
2.200000e-06	1.357032e-06	2.224657e-09	1.006542e+01	1.460229e+02
2.210000e-06	1.313008e-06	2.155696e-09	9.738880e+00	1.437571e+02
2.220000e-06	1.268723e-06	2.126123e-09	9.410410e+00	1.414277e+02
2.230000e-06	1.224209e-06	2.127630e-09	9.080239e+00	1.390293e+02
2.240000e-06	1.179441e-06	2.071162e-09	8.748181e+00	1.365575e+02
2.250000e-06	1.134234e-06	1.996659e-09	8.412873e+00	1.340085e+02
2.260000e-06	1.088434e-06	1.993732e-09	8.073161e+00	1.313800e+02
2.270000e-06	1.042043e-06	1.980810e-09	7.729075e+00	1.286706e+02
2.280000e-06	9.953113e-07	1.902421e-09	7.382452e+00	1.258795e+02
2.290000e-06	9.483683e-07	1.842733e-09	7.034265e+00	1.230065e+02
2.300000e-06	9.012049e-07	1.829302e-09	6.684444e+00	1.200508e+02
2.310000e-06	8.538528e-07	1.784734e-09	6.333222e+00	1.170112e+02
2.320000e-06	8.061822e-07	1.718941e-09	5.979638e+00	1.138855e+02
2.330000e-06	7.581242e-07	1.671030e-09	5.623181e+00	1.106701e+02
2.340000e-06	7.097023e-07	1.634939e-09	5.264025e+00	1.073605e+02
2.350000e-06	6.610689e-07	1.571802e-09	4.903300e+00	1.039515e+02
2.360000e-06	6.121727e-07	1.519499e-09	4.540626e+00	1.004371e+02
2.370000e-06	5.628673e-07	1.484717e-09	4.174916e+00	9.681183e+01
2.380000e-06	5.133484e-07	1.413662e-09	3.807622e+00	9.307037e+01
2.390000e-06	4.636273e-07	1.342647e-09	3.438830e+00	8.920860e+01
2.400000e-06	4.136673e-07	1.296482e-09	3.068265e+00	8.522362e+01
2.410000e-06	3.635477e-07	1.246144e-09	2.696517e+00	8.111395e+01
2.420000e-06	3.133223e-07	1.163848e-09	2.323983e+00	7.687942e+01
2.430000e-06	2.630474e-07	1.087711e-09	1.951083e+00	7.252101e+01
2.440000e-06	2.126979e-07	1.037017e-09	1.577629e+00	6.804051e+01
2.450000e-06	1.622459e-07	9.731226e-10	1.203415e+00	6.344020e+01
2.460000e-06	1.117502e-07	8.883974e-10	8.288769e-01	5.872255e+01
2.470000e-06	6.123401e-08	8.131442e-10	4.541867e-01	5.389002e+01
2.480000e-06	1.068033e-08	7.506291e-10	7.921843e-02	4.894507e+01
2.490000e-06	-3.982616e-08	6.748583e-10	-2.953998e-01	4.389025e+01
2.500000e-06	-9.033912e-08	5.923341e-10	-6.700660e-01	3.872853e+01
2.510000e-06	-1.408573e-07	5.133701e-10	-1.044771e+00	3.346372e+01
2.520000e-06	-1.912728e-07	4.331418e-10	-1.418714e+00	2.810092e+01
2.530000e-06	-2.416196e-07	3.448272e-10	-1.792148e+00	2.264690e+01
2.540000e-06	-2.919218e-07	2.642918e-10	-2.165251e+00	1.711045e+01
2.550000e-06	-3.421546e-07	1.879317e-10	-2.537839e+00	1.150248e+01
2.560000e-06	-3.921897e-07	9.748480e-11	-2.908961e+00	5.835944e+00
2.570000e-06	-4.420011e-07	6.429199e-12	-3.278423e+00	1.254908e-01
2.580000e-06	-4.916882e-07	-7.429563e-11	-3.646964e+00	-5.613008e+00
2.590000e-06	-5.411372e-07	-1.543313e-10	-4.013739e+00	-1.136311e+01
2.600000e-06	-5.901453e-07	-2.463379e-10	-4.377243e+00	-1.710852e+01
2.610000e-06	-6.388019e-07	-3.363433e-10	-4.738140e+00	-2.283369e+01
2.620000e-06	-6.871028e-07	-4.204356e-10	-5.096399e+00	-2.852443e+01
2.630000e-06	-7.349680e-07	-5.036126e-10	-5.451426e+00	-3.416818e+01
2.640000e-06	-7.824848e-07	-5.866972e-10	-5.803869e+00	-3.975422e+01
2.650000e-06	-8.297202e-07	-6.695963e-10	-6.154225e+00	-4.527351e+01
2.660000e-06	-8.767746e-07	-7.531626e-10	-6.503238e+00	-5.071846e+01
2.670000e-06	-9.236035e-07	-8.376063e-10	-6.850579e+00	-5.608248e+01
2.680000e-06	-9.701823e-07	-9.138152e-10	-7.196065e+00	-6.135957e+01
2.690000e-06	-1.016544e-06	-9.886522e-10	-7.539941e+00	-6.654390e+01
2.700000e-06	-1.062645e-06	-1.069549e-09	-7.881880e+00	-7.162953e+01
2.710000e-06	-1.108367e-06	-1.151080e-09	-8.221009e+00	-7.661031e+01
2.720000e-06	-1.153603e-06	-1.222588e-09	-8.556534e+00	-8.147996e+01
2.730000e-06	-1.198419e-06	-1.291156e-09	-8.888945e+00	-8.623240e+01
2.740000e-06	-1.242914e-06	-1.365099e-09	-9.218980e+00	-9.086212e+01
2.750000e-06	-1.287174e-06	-1.436638e-09	-9.547261e+00	-9.536468e+01
2.760000e-06	-1.331202e-06	-1.500012e-09	-9.873830e+00	-9.973719e+01
2.770000e-06	-1.374791e-06	-1.561176e-09	-1.019714e+01	-1.039786e+02
2.780000e-06	-1.417814e-06	-1.626117e-09	-1.051625e+01	-1.080899e+02
2.790000e-06	-1.460360e-06	-1.687306e-09	-1.083182e+01	-1.120740e+02
2.800000e-06	-1.502464e-06	-1.746555e-09	-1.114412e+01	-1.159352e+02
2.810000e-06	-1.543992e-06	-1.805441e-09	-1.145215e+01	-1.196791e+02
2.820000e-06	-1.584867e-06	-1.862761e-09	-1.175533e+01	-1.233113e+02
2.830000e-06	-1.625294e-06	-1.916210e-09	-1.205518e+01	-1.268369e+02
2.840000e-06	-1.665339e-06	-1.967732e-09	-1.235220e+01	-1.302600e+02
2.850000e-06	-1.704897e-06	-2.021244e-09	-1.264561e+01	-1.335829e+02
2.860000e-06	-1.743711e-06	-2.071025e-09	-1.293350e+01	-1.368058e+02
2.870000e-06	-1.781526e-06	-2.116159e-09	-1.321399e+01	-1.399270e+02
2.880000e-06	-1.818479e-06	-2.160411e-09	-1.348808e+01	-1.429430e+02
2.890000e-06	-1.854864e-06	-2.206206e-09	-1.375795e+01	-1.458496e+02
2.900000e-06	-1.890769e-06	-2.249305e-09	-1.402427e+01	-1.486419e+02
2.910000e-06	-1.926025e-06	-2.291280e-09	-1.428577e+01	-1.513161e+02
2.920000e-06	-1.960579e-06	-2.331980e-09	-1.454206e+01	-1.538695e+02
2.930000e-06	-1.994455e-06	-2.369197e-09	-1.479333e+01	-1.563017e+02
2.940000e-06	-2.027652e-06	-2.405145e-09	-1.503956e+01	-1.586149e+02
