# Temperatura_=_20.0
# Concentracion g/m^3_=_9000.0
# C_Vs_to_Am_M_A/Vsm_=_65563218390.804596
# pendiente_HvsI_1/m_=_3716.3
# ordenada_HvsI_A/m_=_1297.0
# frecuencia_Hz_=_301057.61806836474

Tiempo_(s)	Campo_(V.s)	Magnetizacion_(V.s)	Campo_(kA/m)	Magnetizacion_(A/m)
0.000000e+00	-2.666885e-06	-2.942320e-09	-1.977844e+01	-1.953929e+02
1.000000e-08	-2.666536e-06	-2.948772e-09	-1.977584e+01	-1.955294e+02
2.000000e-08	-2.665056e-06	-2.952517e-09	-1.976487e+01	-1.956451e+02
3.000000e-08	-2.662293e-06	-2.952566e-09	-1.974437e+01	-1.957374e+02
4.000000e-08	-2.658671e-06	-2.951666e-09	-1.971752e+01	-1.958011e+02
5.000000e-08	-2.654358e-06	-2.950298e-09	-1.968553e+01	-1.958280e+02
6.000000e-08	-2.649199e-06	-2.944434e-09	-1.964727e+01	-1.958087e+02
7.000000e-08	-2.643184e-06	-2.929722e-09	-1.960266e+01	-1.957336e+02
8.000000e-08	-2.636281e-06	-2.943740e-09	-1.955146e+01	-1.955943e+02
9.000000e-08	-2.628457e-06	-3.002805e-09	-1.949344e+01	-1.953853e+02
1.000000e-07	-2.619314e-06	-3.022067e-09	-1.942563e+01	-1.951050e+02
1.100000e-07	-2.608768e-06	-2.872052e-09	-1.934742e+01	-1.947566e+02
1.200000e-07	-2.597362e-06	-2.818589e-09	-1.926283e+01	-1.943480e+02
1.300000e-07	-2.585180e-06	-2.941231e-09	-1.917248e+01	-1.938916e+02
1.400000e-07	-2.572053e-06	-3.068073e-09	-1.907513e+01	-1.934030e+02
1.500000e-07	-2.558199e-06	-2.910369e-09	-1.897238e+01	-1.928995e+02
1.600000e-07	-2.543314e-06	-2.885518e-09	-1.886199e+01	-1.923981e+02
1.700000e-07	-2.526793e-06	-2.940807e-09	-1.873946e+01	-1.919137e+02
1.800000e-07	-2.509302e-06	-2.906365e-09	-1.860975e+01	-1.914569e+02
1.900000e-07	-2.491602e-06	-3.032740e-09	-1.847848e+01	-1.910329e+02
2.000000e-07	-2.473072e-06	-2.988108e-09	-1.834105e+01	-1.906406e+02
2.100000e-07	-2.453376e-06	-2.763604e-09	-1.819498e+01	-1.902723e+02
2.200000e-07	-2.433170e-06	-2.804460e-09	-1.804513e+01	-1.899145e+02
2.300000e-07	-2.412392e-06	-3.119387e-09	-1.789104e+01	-1.895494e+02
2.400000e-07	-2.390405e-06	-2.976175e-09	-1.772797e+01	-1.891560e+02
2.500000e-07	-2.367385e-06	-2.759039e-09	-1.755725e+01	-1.887132e+02
2.600000e-07	-2.343857e-06	-2.884489e-09	-1.738276e+01	-1.882010e+02
2.700000e-07	-2.319777e-06	-3.055094e-09	-1.720417e+01	-1.876034e+02
2.800000e-07	-2.294734e-06	-2.918139e-09	-1.701845e+01	-1.869089e+02
2.900000e-07	-2.268431e-06	-2.813256e-09	-1.682337e+01	-1.861122e+02
3.000000e-07	-2.241098e-06	-2.849699e-09	-1.662067e+01	-1.852139e+02
3.100000e-07	-2.213101e-06	-2.867252e-09	-1.641303e+01	-1.842201e+02
3.200000e-07	-2.184396e-06	-2.851670e-09	-1.620015e+01	-1.831413e+02
3.300000e-07	-2.154981e-06	-2.803195e-09	-1.598200e+01	-1.819904e+02
3.400000e-07	-2.124894e-06	-2.831527e-09	-1.575886e+01	-1.807816e+02
3.500000e-07	-2.093973e-06	-2.721760e-09	-1.552955e+01	-1.795280e+02
3.600000e-07	-2.062451e-06	-2.708196e-09	-1.529576e+01	-1.782401e+02
3.700000e-07	-2.030663e-06	-2.843757e-09	-1.506001e+01	-1.769249e+02
3.800000e-07	-1.998065e-06	-2.769404e-09	-1.481826e+01	-1.755851e+02
3.900000e-07	-1.963971e-06	-2.534744e-09	-1.456541e+01	-1.742194e+02
4.000000e-07	-1.928850e-06	-2.689334e-09	-1.430494e+01	-1.728227e+02
4.100000e-07	-1.893364e-06	-2.805960e-09	-1.404176e+01	-1.713871e+02
4.200000e-07	-1.857324e-06	-2.553191e-09	-1.377448e+01	-1.699036e+02
4.300000e-07	-1.820620e-06	-2.508605e-09	-1.350227e+01	-1.683632e+02
4.400000e-07	-1.783402e-06	-2.648306e-09	-1.322625e+01	-1.667581e+02
4.500000e-07	-1.745526e-06	-2.597679e-09	-1.294535e+01	-1.650828e+02
4.600000e-07	-1.706907e-06	-2.455643e-09	-1.265894e+01	-1.633346e+02
4.700000e-07	-1.667716e-06	-2.499270e-09	-1.236829e+01	-1.615139e+02
4.800000e-07	-1.628203e-06	-2.484928e-09	-1.207525e+01	-1.596238e+02
4.900000e-07	-1.588372e-06	-2.418837e-09	-1.177985e+01	-1.576694e+02
5.000000e-07	-1.548041e-06	-2.397677e-09	-1.148075e+01	-1.556568e+02
5.100000e-07	-1.506980e-06	-2.394171e-09	-1.117623e+01	-1.535924e+02
5.200000e-07	-1.464879e-06	-2.332646e-09	-1.086399e+01	-1.514814e+02
5.300000e-07	-1.421889e-06	-2.274115e-09	-1.054516e+01	-1.493277e+02
5.400000e-07	-1.378483e-06	-2.300928e-09	-1.022325e+01	-1.471328e+02
5.500000e-07	-1.334796e-06	-2.261777e-09	-9.899253e+00	-1.448957e+02
5.600000e-07	-1.290686e-06	-2.175774e-09	-9.572123e+00	-1.426135e+02
5.700000e-07	-1.246122e-06	-2.129972e-09	-9.241620e+00	-1.402815e+02
5.800000e-07	-1.201146e-06	-2.164820e-09	-8.908064e+00	-1.378935e+02
5.900000e-07	-1.155725e-06	-2.107789e-09	-8.571211e+00	-1.354432e+02
6.000000e-07	-1.109843e-06	-2.008068e-09	-8.230931e+00	-1.329244e+02
6.100000e-07	-1.063536e-06	-1.993400e-09	-7.887504e+00	-1.303316e+02
6.200000e-07	-1.016802e-06	-1.993652e-09	-7.540915e+00	-1.276602e+02
6.300000e-07	-9.696858e-07	-1.927860e-09	-7.191485e+00	-1.249068e+02
6.400000e-07	-9.223149e-07	-1.849316e-09	-6.840168e+00	-1.220689e+02
6.500000e-07	-8.747929e-07	-1.837318e-09	-6.487731e+00	-1.191445e+02
6.600000e-07	-8.270991e-07	-1.797260e-09	-6.134019e+00	-1.161319e+02
6.700000e-07	-7.791413e-07	-1.735210e-09	-5.778349e+00	-1.130288e+02
6.800000e-07	-7.309555e-07	-1.682920e-09	-5.420989e+00	-1.098325e+02
6.900000e-07	-6.824270e-07	-1.639905e-09	-5.061087e+00	-1.065392e+02
7.000000e-07	-6.332941e-07	-1.574290e-09	-4.696702e+00	-1.031443e+02
7.100000e-07	-5.836498e-07	-1.522230e-09	-4.328525e+00	-9.964231e+01
7.200000e-07	-5.337844e-07	-1.491693e-09	-3.958707e+00	-9.602736e+01
7.300000e-07	-4.836048e-07	-1.420538e-09	-3.586561e+00	-9.229353e+01
7.400000e-07	-4.330431e-07	-1.345325e-09	-3.211580e+00	-8.843540e+01
7.500000e-07	-3.822595e-07	-1.297103e-09	-2.834953e+00	-8.444855e+01
7.600000e-07	-3.313020e-07	-1.253972e-09	-2.457036e+00	-8.032985e+01
7.700000e-07	-2.801922e-07	-1.162967e-09	-2.077991e+00	-7.607771e+01
7.800000e-07	-2.289695e-07	-1.079328e-09	-1.698108e+00	-7.169212e+01
7.900000e-07	-1.776876e-07	-1.030329e-09	-1.317786e+00	-6.717451e+01
8.000000e-07	-1.263385e-07	-9.703565e-10	-9.369646e-01	-6.252751e+01
8.100000e-07	-7.490796e-08	-8.847744e-10	-5.555402e-01	-5.775458e+01
8.200000e-07	-2.344209e-08	-8.028123e-10	-1.738537e-01	-5.285974e+01
8.300000e-07	2.800788e-08	-7.401170e-10	2.077150e-01	-4.784729e+01
8.400000e-07	7.940762e-08	-6.611045e-10	5.889111e-01	-4.272167e+01
8.500000e-07	1.307227e-07	-5.782611e-10	9.694798e-01	-3.748750e+01
8.600000e-07	1.819601e-07	-4.948107e-10	1.349471e+00	-3.214973e+01
8.700000e-07	2.331673e-07	-4.100475e-10	1.729240e+00	-2.671395e+01
8.800000e-07	2.842832e-07	-3.186530e-10	2.108331e+00	-2.118679e+01
8.900000e-07	3.352779e-07	-2.343394e-10	2.486523e+00	-1.557627e+01
9.000000e-07	3.860788e-07	-1.534557e-10	2.863278e+00	-9.892129e+00
9.100000e-07	4.366257e-07	-5.924125e-11	3.238149e+00	-4.146015e+00
9.200000e-07	4.869896e-07	3.154002e-11	3.611664e+00	1.648547e+00
9.300000e-07	5.370180e-07	1.160433e-10	3.982689e+00	7.476341e+00
9.400000e-07	5.866241e-07	2.000317e-10	4.350583e+00	1.332087e+01
9.500000e-07	6.359312e-07	2.977974e-10	4.716260e+00	1.916488e+01
9.600000e-07	6.847761e-07	3.889302e-10	5.078508e+00	2.499106e+01
9.700000e-07	7.331525e-07	4.730133e-10	5.437282e+00	3.078261e+01
9.800000e-07	7.812572e-07	5.607261e-10	5.794041e+00	3.652389e+01
9.900000e-07	8.290696e-07	6.534324e-10	6.148633e+00	4.220084e+01
1.000000e-06	8.767003e-07	7.408748e-10	6.501876e+00	4.780126e+01
1.010000e-06	9.241961e-07	8.199814e-10	6.854120e+00	5.331485e+01
1.020000e-06	9.714596e-07	9.075078e-10	7.204640e+00	5.873315e+01
1.030000e-06	1.018416e-06	9.920981e-10	7.552885e+00	6.404924e+01
1.040000e-06	1.064963e-06	1.070540e-09	7.898093e+00	6.925742e+01
1.050000e-06	1.111034e-06	1.145020e-09	8.239769e+00	7.435284e+01
1.060000e-06	1.156708e-06	1.221992e-09	8.578497e+00	7.933124e+01
1.070000e-06	1.202013e-06	1.294897e-09	8.914495e+00	8.418870e+01
1.080000e-06	1.246876e-06	1.364955e-09	9.247210e+00	8.892163e+01
1.090000e-06	1.291300e-06	1.436461e-09	9.576672e+00	9.352685e+01
1.100000e-06	1.335308e-06	1.501761e-09	9.903054e+00	9.800178e+01
1.110000e-06	1.378997e-06	1.565638e-09	1.022706e+01	1.023447e+02
1.120000e-06	1.422462e-06	1.630609e-09	1.054941e+01	1.065549e+02
1.130000e-06	1.465587e-06	1.697849e-09	1.086924e+01	1.106332e+02
1.140000e-06	1.508078e-06	1.754106e-09	1.118437e+01	1.145815e+02
1.150000e-06	1.549697e-06	1.806839e-09	1.149303e+01	1.184031e+02
1.160000e-06	1.590352e-06	1.865120e-09	1.179453e+01	1.221021e+02
1.170000e-06	1.630285e-06	1.926125e-09	1.209069e+01	1.256832e+02
1.180000e-06	1.669836e-06	1.979691e-09	1.238402e+01	1.291510e+02
1.190000e-06	1.708957e-06	2.026020e-09	1.267414e+01	1.325095e+02
1.200000e-06	1.747525e-06	2.076453e-09	1.296018e+01	1.357617e+02
1.210000e-06	1.785527e-06	2.125057e-09	1.324201e+01	1.389090e+02
1.220000e-06	1.822852e-06	2.173776e-09	1.351883e+01	1.419515e+02
1.230000e-06	1.859460e-06	2.217788e-09	1.379032e+01	1.448876e+02
1.240000e-06	1.895467e-06	2.258696e-09	1.405736e+01	1.477147e+02
1.250000e-06	1.931089e-06	2.298506e-09	1.432155e+01	1.504295e+02
1.260000e-06	1.966289e-06	2.341800e-09	1.458260e+01	1.530291e+02
1.270000e-06	2.000654e-06	2.381225e-09	1.483746e+01	1.555111e+02
1.280000e-06	2.033871e-06	2.412504e-09	1.508381e+01	1.578747e+02
1.290000e-06	2.066072e-06	2.445341e-09	1.532262e+01	1.601211e+02
1.300000e-06	2.097671e-06	2.480547e-09	1.555697e+01	1.622534e+02
1.310000e-06	2.128744e-06	2.512872e-09	1.578741e+01	1.642770e+02
1.320000e-06	2.159100e-06	2.537584e-09	1.601255e+01	1.661989e+02
1.330000e-06	2.188720e-06	2.563915e-09	1.623222e+01	1.680273e+02
1.340000e-06	2.217568e-06	2.592111e-09	1.644616e+01	1.697709e+02
1.350000e-06	2.245688e-06	2.619095e-09	1.665471e+01	1.714377e+02
1.360000e-06	2.273284e-06	2.643505e-09	1.685937e+01	1.730348e+02
1.370000e-06	2.300221e-06	2.667557e-09	1.705914e+01	1.745677e+02
1.380000e-06	2.326002e-06	2.691975e-09	1.725034e+01	1.760396e+02
1.390000e-06	2.350565e-06	2.713650e-09	1.743251e+01	1.774522e+02
1.400000e-06	2.374306e-06	2.733655e-09	1.760858e+01	1.788051e+02
1.410000e-06	2.397284e-06	2.752913e-09	1.777899e+01	1.800969e+02
1.420000e-06	2.419432e-06	2.771331e-09	1.794325e+01	1.813259e+02
1.430000e-06	2.440827e-06	2.788056e-09	1.810192e+01	1.824904e+02
1.440000e-06	2.461361e-06	2.805563e-09	1.825420e+01	1.835900e+02
1.450000e-06	2.481169e-06	2.822626e-09	1.840111e+01	1.846257e+02
1.460000e-06	2.500381e-06	2.838310e-09	1.854359e+01	1.855999e+02
1.470000e-06	2.518691e-06	2.853469e-09	1.867938e+01	1.865171e+02
1.480000e-06	2.535972e-06	2.867914e-09	1.880754e+01	1.873825e+02
1.490000e-06	2.552432e-06	2.881413e-09	1.892961e+01	1.882024e+02
1.500000e-06	2.568024e-06	2.894404e-09	1.904525e+01	1.889827e+02
1.510000e-06	2.582467e-06	2.907498e-09	1.915236e+01	1.897283e+02
1.520000e-06	2.595832e-06	2.919038e-09	1.925148e+01	1.904428e+02
1.530000e-06	2.608256e-06	2.929494e-09	1.934362e+01	1.911276e+02
1.540000e-06	2.619787e-06	2.940346e-09	1.942914e+01	1.917820e+02
1.550000e-06	2.630295e-06	2.950826e-09	1.950707e+01	1.924034e+02
1.560000e-06	2.639445e-06	2.958730e-09	1.957493e+01	1.929877e+02
1.570000e-06	2.647457e-06	2.965752e-09	1.963435e+01	1.935302e+02
1.580000e-06	2.654663e-06	2.974107e-09	1.968779e+01	1.940265e+02
1.590000e-06	2.661028e-06	2.982539e-09	1.973499e+01	1.944731e+02
1.600000e-06	2.666501e-06	2.989371e-09	1.977558e+01	1.948684e+02
1.610000e-06	2.671019e-06	2.994513e-09	1.980909e+01	1.952131e+02
1.620000e-06	2.674805e-06	2.999185e-09	1.983717e+01	1.955099e+02
1.630000e-06	2.677894e-06	3.004993e-09	1.986007e+01	1.957637e+02
1.640000e-06	2.679771e-06	3.010314e-09	1.987400e+01	1.959804e+02
1.650000e-06	2.680378e-06	3.015380e-09	1.987850e+01	1.961663e+02
1.660000e-06	2.680143e-06	3.018749e-09	1.987676e+01	1.963269e+02
1.670000e-06	2.679077e-06	3.020054e-09	1.986885e+01	1.964657e+02
1.680000e-06	2.677132e-06	3.020689e-09	1.985443e+01	1.965836e+02
1.690000e-06	2.674386e-06	3.021588e-09	1.983406e+01	1.966786e+02
1.700000e-06	2.670823e-06	3.022692e-09	1.980763e+01	1.967452e+02
1.710000e-06	2.666609e-06	3.025176e-09	1.977638e+01	1.967758e+02
1.720000e-06	2.661778e-06	3.030133e-09	1.974056e+01	1.967609e+02
1.730000e-06	2.655876e-06	3.042983e-09	1.969678e+01	1.966909e+02
1.740000e-06	2.648643e-06	2.989730e-09	1.964315e+01	1.965572e+02
1.750000e-06	2.640274e-06	2.923914e-09	1.958108e+01	1.963540e+02
1.760000e-06	2.630622e-06	2.973924e-09	1.950950e+01	1.960796e+02
1.770000e-06	2.619790e-06	3.123552e-09	1.942916e+01	1.957366e+02
1.780000e-06	2.608789e-06	3.077446e-09	1.934757e+01	1.953327e+02
1.790000e-06	2.597669e-06	2.893394e-09	1.926511e+01	1.948800e+02
1.800000e-06	2.584787e-06	2.930088e-09	1.916957e+01	1.943939e+02
1.810000e-06	2.569861e-06	2.988390e-09	1.905887e+01	1.938916e+02
1.820000e-06	2.554591e-06	2.948489e-09	1.894563e+01	1.933903e+02
1.830000e-06	2.538955e-06	2.928771e-09	1.882967e+01	1.929050e+02
1.840000e-06	2.521807e-06	2.931370e-09	1.870249e+01	1.924468e+02
1.850000e-06	2.503699e-06	2.781664e-09	1.856820e+01	1.920212e+02
1.860000e-06	2.485316e-06	2.891330e-09	1.843186e+01	1.916275e+02
1.870000e-06	2.466086e-06	3.094192e-09	1.828925e+01	1.912587e+02
1.880000e-06	2.445829e-06	2.795799e-09	1.813901e+01	1.909015e+02
1.890000e-06	2.425064e-06	2.657679e-09	1.798501e+01	1.905383e+02
1.900000e-06	2.403298e-06	3.012694e-09	1.782359e+01	1.901484e+02
1.910000e-06	2.379992e-06	3.002151e-09	1.765075e+01	1.897106e+02
1.920000e-06	2.355751e-06	2.673236e-09	1.747096e+01	1.892047e+02
1.930000e-06	2.330907e-06	2.814396e-09	1.728671e+01	1.886144e+02
1.940000e-06	2.305345e-06	2.964720e-09	1.709714e+01	1.879278e+02
1.950000e-06	2.278923e-06	2.770306e-09	1.690119e+01	1.871393e+02
1.960000e-06	2.251511e-06	2.766677e-09	1.669789e+01	1.862489e+02
1.970000e-06	2.223511e-06	2.838036e-09	1.649024e+01	1.852624e+02
1.980000e-06	2.194999e-06	2.741890e-09	1.627878e+01	1.841899e+02
1.990000e-06	2.165218e-06	2.723660e-09	1.605792e+01	1.830445e+02
2.000000e-06	2.134473e-06	2.740256e-09	1.582991e+01	1.818402e+02
2.010000e-06	2.103318e-06	2.797550e-09	1.559885e+01	1.805901e+02
2.020000e-06	2.071262e-06	2.683595e-09	1.536111e+01	1.793051e+02
2.030000e-06	2.038438e-06	2.539887e-09	1.511768e+01	1.779925e+02
2.040000e-06	2.005155e-06	2.747836e-09	1.487084e+01	1.766553e+02
2.050000e-06	1.971075e-06	2.774170e-09	1.461809e+01	1.752923e+02
2.060000e-06	1.936122e-06	2.465398e-09	1.435887e+01	1.738988e+02
2.070000e-06	1.900652e-06	2.551540e-09	1.409581e+01	1.724670e+02
2.080000e-06	1.864749e-06	2.740007e-09	1.382954e+01	1.709880e+02
2.090000e-06	1.828276e-06	2.522618e-09	1.355905e+01	1.694528e+02
2.100000e-06	1.791064e-06	2.452097e-09	1.328308e+01	1.678532e+02
2.110000e-06	1.752990e-06	2.545728e-09	1.300071e+01	1.661838e+02
2.120000e-06	1.714022e-06	2.513304e-09	1.271171e+01	1.644416e+02
2.130000e-06	1.674242e-06	2.423554e-09	1.241669e+01	1.626268e+02
2.140000e-06	1.634024e-06	2.391062e-09	1.211842e+01	1.607423e+02
2.150000e-06	1.593476e-06	2.435473e-09	1.181771e+01	1.587931e+02
2.160000e-06	1.552304e-06	2.375278e-09	1.151236e+01	1.567852e+02
2.170000e-06	1.510541e-06	2.288045e-09	1.120263e+01	1.547250e+02
2.180000e-06	1.468371e-06	2.320491e-09	1.088989e+01	1.526180e+02
2.190000e-06	1.425692e-06	2.308677e-09	1.057337e+01	1.504681e+02
2.200000e-06	1.382382e-06	2.191436e-09	1.025217e+01	1.482768e+02
2.210000e-06	1.338600e-06	2.191804e-09	9.927469e+00	1.460436e+02
2.220000e-06	1.294556e-06	2.220985e-09	9.600826e+00	1.437656e+02
2.230000e-06	1.250221e-06	2.131772e-09	9.272022e+00	1.414380e+02
2.240000e-06	1.205589e-06	2.051104e-09	8.941017e+00	1.390550e+02
2.250000e-06	1.160603e-06	2.072710e-09	8.607389e+00	1.366101e+02
2.260000e-06	1.115066e-06	2.072681e-09	8.269670e+00	1.340972e+02
2.270000e-06	1.068959e-06	1.955339e-09	7.927725e+00	1.315106e+02
2.280000e-06	1.022445e-06	1.918688e-09	7.582767e+00	1.288457e+02
2.290000e-06	9.756955e-07	1.936992e-09	7.236055e+00	1.260990e+02
2.300000e-06	9.287476e-07	1.879775e-09	6.887875e+00	1.232680e+02
2.310000e-06	8.815477e-07	1.800752e-09	6.537827e+00	1.203506e+02
2.320000e-06	8.341152e-07	1.771178e-09	6.186053e+00	1.173451e+02
2.330000e-06	7.864122e-07	1.744175e-09	5.832272e+00	1.142493e+02
2.340000e-06	7.382208e-07	1.672830e-09	5.474870e+00	1.110605e+02
2.350000e-06	6.896984e-07	1.625767e-09	5.115014e+00	1.077751e+02
2.360000e-06	6.409835e-07	1.597247e-09	4.753729e+00	1.043884e+02
2.370000e-06	5.918152e-07	1.529605e-09	4.389082e+00	1.008950e+02
2.380000e-06	5.422960e-07	1.455971e-09	4.021833e+00	9.728910e+01
2.390000e-06	4.926834e-07	1.431257e-09	3.653890e+00	9.356471e+01
2.400000e-06	4.428925e-07	1.380856e-09	3.284626e+00	8.971639e+01
2.410000e-06	3.928263e-07	1.290267e-09	2.913319e+00	8.573962e+01
2.420000e-06	3.426670e-07	1.225535e-09	2.541323e+00	8.163117e+01
2.430000e-06	2.924924e-07	1.187439e-09	2.169212e+00	7.738934e+01
2.440000e-06	2.421771e-07	1.123112e-09	1.796059e+00	7.301402e+01
2.450000e-06	1.917233e-07	1.027511e-09	1.421878e+00	6.850654e+01
2.460000e-06	1.412221e-07	9.653344e-10	1.047346e+00	6.386943e+01
2.470000e-06	9.069372e-08	9.100731e-10	6.726123e-01	5.910613e+01
2.480000e-06	4.010326e-08	8.311681e-10	2.974180e-01	5.422063e+01
2.490000e-06	-1.042160e-08	7.490214e-10	-7.728976e-02	4.921720e+01
2.500000e-06	-6.084557e-08	6.789010e-10	-4.512493e-01	4.410028e+01
2.510000e-06	-1.113175e-07	6.013209e-10	-8.255644e-01	3.887447e+01
2.520000e-06	-1.618211e-07	5.111917e-10	-1.200114e+00	3.354468e+01
2.530000e-06	-2.121904e-07	4.335778e-10	-1.573669e+00	2.811647e+01
2.540000e-06	-2.624191e-07	3.575272e-10	-1.946180e+00	2.259635e+01
2.550000e-06	-3.126527e-07	2.678597e-10	-2.318728e+00	1.699225e+01
2.560000e-06	-3.627981e-07	1.758220e-10	-2.690621e+00	1.131377e+01
2.570000e-06	-4.127526e-07	9.938065e-11	-3.061099e+00	5.572422e+00
2.580000e-06	-4.625775e-07	1.295077e-11	-3.430616e+00	-2.184005e-01
2.590000e-06	-5.122630e-07	-8.216112e-11	-3.799099e+00	-6.043590e+00
2.600000e-06	-5.616523e-07	-1.663449e-10	-4.165385e+00	-1.188672e+01
2.610000e-06	-6.105854e-07	-2.488065e-10	-4.528287e+00	-1.773059e+01
2.620000e-06	-6.591807e-07	-3.422526e-10	-4.888685e+00	-2.355784e+01
2.630000e-06	-7.074741e-07	-4.356100e-10	-5.246844e+00	-2.935163e+01
2.640000e-06	-7.552534e-07	-5.136560e-10	-5.601190e+00	-3.509623e+01
2.650000e-06	-8.026964e-07	-5.973411e-10	-5.953041e+00	-4.077744e+01
2.660000e-06	-8.499330e-07	-6.881343e-10	-6.303362e+00	-4.638292e+01
2.670000e-06	-8.968561e-07	-7.711096e-10	-6.651358e+00	-5.190224e+01
2.680000e-06	-9.434899e-07	-8.447274e-10	-6.997209e+00	-5.732683e+01
2.690000e-06	-9.899349e-07	-9.260544e-10	-7.341659e+00	-6.264966e+01
2.700000e-06	-1.036248e-06	-1.011193e-09	-7.685134e+00	-6.786495e+01
2.710000e-06	-1.082292e-06	-1.087975e-09	-8.026610e+00	-7.296781e+01
2.720000e-06	-1.127890e-06	-1.162095e-09	-8.364775e+00	-7.795393e+01
2.730000e-06	-1.172986e-06	-1.236978e-09	-8.699222e+00	-8.281939e+01
2.740000e-06	-1.217614e-06	-1.312315e-09	-9.030199e+00	-8.756056e+01
2.750000e-06	-1.261914e-06	-1.382927e-09	-9.358738e+00	-9.217423e+01
2.760000e-06	-1.306025e-06	-1.453432e-09	-9.685882e+00	-9.665777e+01
2.770000e-06	-1.349894e-06	-1.518893e-09	-1.001123e+01	-1.010094e+02
2.780000e-06	-1.393337e-06	-1.580000e-09	-1.033341e+01	-1.052283e+02
2.790000e-06	-1.436226e-06	-1.642972e-09	-1.065149e+01	-1.093152e+02
2.800000e-06	-1.478611e-06	-1.707375e-09	-1.096583e+01	-1.132720e+02
2.810000e-06	-1.520491e-06	-1.768033e-09	-1.127643e+01	-1.171017e+02
2.820000e-06	-1.561735e-06	-1.821950e-09	-1.158230e+01	-1.208085e+02
2.830000e-06	-1.602380e-06	-1.877644e-09	-1.188374e+01	-1.243971e+02
2.840000e-06	-1.642659e-06	-1.933846e-09	-1.218246e+01	-1.278721e+02
2.850000e-06	-1.682610e-06	-1.985517e-09	-1.247875e+01	-1.312375e+02
2.860000e-06	-1.721926e-06	-2.032465e-09	-1.277033e+01	-1.344965e+02
2.870000e-06	-1.760357e-06	-2.080660e-09	-1.305535e+01	-1.376505e+02
2.880000e-06	-1.797853e-06	-2.127885e-09	-1.333342e+01	-1.406998e+02
2.890000e-06	-1.834533e-06	-2.171816e-09	-1.360545e+01	-1.436428e+02
2.900000e-06	-1.870697e-06	-2.216776e-09	-1.387366e+01	-1.464770e+02
2.910000e-06	-1.906371e-06	-2.259960e-09	-1.413823e+01	-1.491992e+02
2.920000e-06	-1.941348e-06	-2.298206e-09	-1.439763e+01	-1.518063e+02
2.930000e-06	-1.975639e-06	-2.334884e-09	-1.465194e+01	-1.542960e+02
2.940000e-06	-2.009254e-06	-2.374795e-09	-1.490124e+01	-1.566673e+02
