# Temperatura_=_20.0
# Concentracion g/m^3_=_9000.0
# C_Vs_to_Am_M_A/Vsm_=_65563218390.804596
# pendiente_HvsI_1/m_=_3716.3
# ordenada_HvsI_A/m_=_1297.0
# frecuencia_Hz_=_301056.75437234004

Tiempo_(s)	Campo_(V.s)	Magnetizacion_(V.s)	Campo_(kA/m)	Magnetizacion_(A/m)
0.000000e+00	-2.664781e-06	-2.947541e-09	-1.977970e+01	-1.952764e+02
1.000000e-08	-2.664411e-06	-2.950444e-09	-1.977696e+01	-1.953215e+02
2.000000e-08	-2.662983e-06	-2.951457e-09	-1.976635e+01	-1.953656e+02
3.000000e-08	-2.660275e-06	-2.950724e-09	-1.974626e+01	-1.954098e+02
4.000000e-08	-2.656646e-06	-2.950711e-09	-1.971932e+01	-1.954492e+02
5.000000e-08	-2.652335e-06	-2.949147e-09	-1.968732e+01	-1.954740e+02
6.000000e-08	-2.647241e-06	-2.943058e-09	-1.964951e+01	-1.954699e+02
7.000000e-08	-2.641216e-06	-2.932292e-09	-1.960479e+01	-1.954202e+02
8.000000e-08	-2.634177e-06	-2.945447e-09	-1.955254e+01	-1.953081e+02
9.000000e-08	-2.626228e-06	-2.985804e-09	-1.949354e+01	-1.951191e+02
1.000000e-07	-2.617147e-06	-2.989060e-09	-1.942614e+01	-1.948431e+02
1.100000e-07	-2.606708e-06	-2.883501e-09	-1.934865e+01	-1.944767e+02
1.200000e-07	-2.595267e-06	-2.849889e-09	-1.926373e+01	-1.940238e+02
1.300000e-07	-2.582975e-06	-2.942686e-09	-1.917249e+01	-1.934959e+02
1.400000e-07	-2.569796e-06	-3.010814e-09	-1.907467e+01	-1.929115e+02
1.500000e-07	-2.555955e-06	-2.918414e-09	-1.897193e+01	-1.922937e+02
1.600000e-07	-2.541042e-06	-2.890007e-09	-1.886124e+01	-1.916684e+02
1.700000e-07	-2.524520e-06	-2.911245e-09	-1.873860e+01	-1.910606e+02
1.800000e-07	-2.507030e-06	-2.905462e-09	-1.860878e+01	-1.904920e+02
1.900000e-07	-2.489230e-06	-2.994207e-09	-1.847665e+01	-1.899778e+02
2.000000e-07	-2.470655e-06	-2.943640e-09	-1.833878e+01	-1.895253e+02
2.100000e-07	-2.451008e-06	-2.785545e-09	-1.819295e+01	-1.891322e+02
2.200000e-07	-2.430812e-06	-2.849212e-09	-1.804304e+01	-1.887870e+02
2.300000e-07	-2.409988e-06	-3.039783e-09	-1.788847e+01	-1.884701e+02
2.400000e-07	-2.387982e-06	-2.920769e-09	-1.772513e+01	-1.881561e+02
2.500000e-07	-2.364971e-06	-2.788516e-09	-1.755433e+01	-1.878159e+02
2.600000e-07	-2.341400e-06	-2.895449e-09	-1.737937e+01	-1.874207e+02
2.700000e-07	-2.317225e-06	-2.978395e-09	-1.719992e+01	-1.869442e+02
2.800000e-07	-2.292109e-06	-2.886652e-09	-1.701350e+01	-1.863661e+02
2.900000e-07	-2.265812e-06	-2.831970e-09	-1.681830e+01	-1.856733e+02
3.000000e-07	-2.238484e-06	-2.833566e-09	-1.661546e+01	-1.848610e+02
3.100000e-07	-2.210470e-06	-2.828869e-09	-1.640752e+01	-1.839330e+02
3.200000e-07	-2.181814e-06	-2.843624e-09	-1.619481e+01	-1.829001e+02
3.300000e-07	-2.152489e-06	-2.809386e-09	-1.597715e+01	-1.817782e+02
3.400000e-07	-2.122437e-06	-2.778879e-09	-1.575408e+01	-1.805862e+02
3.500000e-07	-2.091549e-06	-2.722848e-09	-1.552481e+01	-1.793429e+02
3.600000e-07	-2.060052e-06	-2.729844e-09	-1.529102e+01	-1.780650e+02
3.700000e-07	-2.028196e-06	-2.787044e-09	-1.505457e+01	-1.767645e+02
3.800000e-07	-1.995553e-06	-2.722650e-09	-1.481227e+01	-1.754480e+02
3.900000e-07	-1.961551e-06	-2.594703e-09	-1.455989e+01	-1.741158e+02
4.000000e-07	-1.926530e-06	-2.674752e-09	-1.429993e+01	-1.727628e+02
4.100000e-07	-1.891009e-06	-2.738605e-09	-1.403627e+01	-1.713791e+02
4.200000e-07	-1.854948e-06	-2.590949e-09	-1.376861e+01	-1.699521e+02
4.300000e-07	-1.818327e-06	-2.545276e-09	-1.349678e+01	-1.684686e+02
4.400000e-07	-1.781109e-06	-2.610524e-09	-1.322053e+01	-1.669164e+02
4.500000e-07	-1.743203e-06	-2.579038e-09	-1.293917e+01	-1.652861e+02
4.600000e-07	-1.704583e-06	-2.491029e-09	-1.265250e+01	-1.635725e+02
4.700000e-07	-1.665389e-06	-2.491775e-09	-1.236158e+01	-1.617748e+02
4.800000e-07	-1.625822e-06	-2.472781e-09	-1.206789e+01	-1.598965e+02
4.900000e-07	-1.585861e-06	-2.427177e-09	-1.177128e+01	-1.579444e+02
5.000000e-07	-1.545489e-06	-2.406593e-09	-1.147160e+01	-1.559276e+02
5.100000e-07	-1.504424e-06	-2.384238e-09	-1.116680e+01	-1.538558e+02
5.200000e-07	-1.462293e-06	-2.335191e-09	-1.085407e+01	-1.517377e+02
5.300000e-07	-1.419265e-06	-2.294018e-09	-1.053469e+01	-1.495796e+02
5.400000e-07	-1.375788e-06	-2.293143e-09	-1.021198e+01	-1.473846e+02
5.500000e-07	-1.332039e-06	-2.257919e-09	-9.887243e+00	-1.451520e+02
5.600000e-07	-1.287942e-06	-2.194899e-09	-9.559930e+00	-1.428775e+02
5.700000e-07	-1.243407e-06	-2.149036e-09	-9.229357e+00	-1.405537e+02
5.800000e-07	-1.198433e-06	-2.147268e-09	-8.895530e+00	-1.381714e+02
5.900000e-07	-1.153034e-06	-2.108406e-09	-8.558554e+00	-1.357202e+02
6.000000e-07	-1.107193e-06	-2.034761e-09	-8.218291e+00	-1.331905e+02
6.100000e-07	-1.060969e-06	-2.000522e-09	-7.875189e+00	-1.305738e+02
6.200000e-07	-1.014384e-06	-1.982666e-09	-7.529404e+00	-1.278642e+02
6.300000e-07	-9.674149e-07	-1.930868e-09	-7.180771e+00	-1.250580e+02
6.400000e-07	-9.201263e-07	-1.867373e-09	-6.829764e+00	-1.221540e+02
6.500000e-07	-8.726327e-07	-1.838105e-09	-6.477236e+00	-1.191532e+02
6.600000e-07	-8.249567e-07	-1.795412e-09	-6.123355e+00	-1.160577e+02
6.700000e-07	-7.770040e-07	-1.735793e-09	-5.767419e+00	-1.128697e+02
6.800000e-07	-7.287522e-07	-1.683476e-09	-5.409263e+00	-1.095911e+02
6.900000e-07	-6.802149e-07	-1.637198e-09	-5.048989e+00	-1.062222e+02
7.000000e-07	-6.312427e-07	-1.577851e-09	-4.685486e+00	-1.027619e+02
7.100000e-07	-5.818765e-07	-1.520010e-09	-4.319059e+00	-9.920679e+01
7.200000e-07	-5.321479e-07	-1.473251e-09	-3.949941e+00	-9.555186e+01
7.300000e-07	-4.820022e-07	-1.410292e-09	-3.577728e+00	-9.179087e+01
7.400000e-07	-4.315389e-07	-1.344187e-09	-3.203157e+00	-8.791701e+01
7.500000e-07	-3.807708e-07	-1.289390e-09	-2.826324e+00	-8.392372e+01
7.600000e-07	-3.298247e-07	-1.234457e-09	-2.448169e+00	-7.980539e+01
7.700000e-07	-2.787772e-07	-1.156076e-09	-2.069262e+00	-7.555798e+01
7.800000e-07	-2.276204e-07	-1.080805e-09	-1.689544e+00	-7.117936e+01
7.900000e-07	-1.763995e-07	-1.023823e-09	-1.309349e+00	-6.666947e+01
8.000000e-07	-1.251211e-07	-9.588051e-10	-9.287283e-01	-6.203012e+01
8.100000e-07	-7.377772e-08	-8.759135e-10	-5.476253e-01	-5.726470e+01
8.200000e-07	-2.237830e-08	-7.960193e-10	-1.661060e-01	-5.237773e+01
8.300000e-07	2.903647e-08	-7.302769e-10	2.155272e-01	-4.737444e+01
8.400000e-07	8.041034e-08	-6.547766e-10	5.968568e-01	-4.226034e+01
8.500000e-07	1.317629e-07	-5.694565e-10	9.780284e-01	-3.704110e+01
8.600000e-07	1.830484e-07	-4.834779e-10	1.358702e+00	-3.172246e+01
8.700000e-07	2.342085e-07	-4.010573e-10	1.738445e+00	-2.631046e+01
8.800000e-07	2.852988e-07	-3.158215e-10	2.117670e+00	-2.081174e+01
8.900000e-07	3.362597e-07	-2.296612e-10	2.495934e+00	-1.523401e+01
9.000000e-07	3.869894e-07	-1.413623e-10	2.872482e+00	-9.586398e+00
9.100000e-07	4.375020e-07	-4.702065e-11	3.247419e+00	-3.879773e+00
9.200000e-07	4.877189e-07	4.218612e-11	3.620161e+00	1.873116e+00
9.300000e-07	5.376308e-07	1.257604e-10	3.990638e+00	7.657756e+00
9.400000e-07	5.872606e-07	2.103788e-10	4.359023e+00	1.345821e+01
9.500000e-07	6.364278e-07	3.043016e-10	4.723973e+00	1.925767e+01
9.600000e-07	6.851030e-07	3.941670e-10	5.085272e+00	2.503913e+01
9.700000e-07	7.333672e-07	4.788237e-10	5.443519e+00	3.078613e+01
9.800000e-07	7.813524e-07	5.670792e-10	5.799696e+00	3.648343e+01
9.900000e-07	8.291681e-07	6.587605e-10	6.154614e+00	4.211756e+01
1.000000e-06	8.768057e-07	7.477300e-10	6.508211e+00	4.767711e+01
1.010000e-06	9.242653e-07	8.303257e-10	6.860486e+00	5.315282e+01
1.020000e-06	9.715037e-07	9.134341e-10	7.211120e+00	5.853736e+01
1.030000e-06	1.018397e-06	9.936799e-10	7.559190e+00	6.382499e+01
1.040000e-06	1.064855e-06	1.072414e-09	7.904036e+00	6.901101e+01
1.050000e-06	1.110888e-06	1.149236e-09	8.245722e+00	7.409129e+01
1.060000e-06	1.156528e-06	1.223930e-09	8.584486e+00	7.906178e+01
1.070000e-06	1.201781e-06	1.296646e-09	8.920388e+00	8.391828e+01
1.080000e-06	1.246578e-06	1.369158e-09	9.252894e+00	8.865634e+01
1.090000e-06	1.290894e-06	1.443147e-09	9.581835e+00	9.327143e+01
1.100000e-06	1.334840e-06	1.511117e-09	9.908030e+00	9.775934e+01
1.110000e-06	1.378537e-06	1.573859e-09	1.023238e+01	1.021167e+02
1.120000e-06	1.421996e-06	1.636775e-09	1.055496e+01	1.063412e+02
1.130000e-06	1.465033e-06	1.701634e-09	1.087441e+01	1.104327e+02
1.140000e-06	1.507343e-06	1.760884e-09	1.118846e+01	1.143926e+02
1.150000e-06	1.548748e-06	1.815046e-09	1.149580e+01	1.182246e+02
1.160000e-06	1.589277e-06	1.871282e-09	1.179663e+01	1.219339e+02
1.170000e-06	1.629178e-06	1.928830e-09	1.209280e+01	1.255268e+02
1.180000e-06	1.668680e-06	1.983029e-09	1.238601e+01	1.290101e+02
1.190000e-06	1.707780e-06	2.033645e-09	1.267623e+01	1.323898e+02
1.200000e-06	1.746330e-06	2.084694e-09	1.296237e+01	1.356707e+02
1.210000e-06	1.784265e-06	2.133444e-09	1.324395e+01	1.388554e+02
1.220000e-06	1.821560e-06	2.181330e-09	1.352078e+01	1.419440e+02
1.230000e-06	1.858156e-06	2.227210e-09	1.379242e+01	1.449344e+02
1.240000e-06	1.894179e-06	2.268777e-09	1.405980e+01	1.478219e+02
1.250000e-06	1.929789e-06	2.306743e-09	1.432412e+01	1.506007e+02
1.260000e-06	1.964921e-06	2.346393e-09	1.458490e+01	1.532645e+02
1.270000e-06	1.999204e-06	2.386967e-09	1.483937e+01	1.558077e+02
1.280000e-06	2.032351e-06	2.422868e-09	1.508540e+01	1.582266e+02
1.290000e-06	2.064536e-06	2.457116e-09	1.532430e+01	1.605199e+02
1.300000e-06	2.096126e-06	2.490658e-09	1.555879e+01	1.626898e+02
1.310000e-06	2.127193e-06	2.521867e-09	1.578938e+01	1.647418e+02
1.320000e-06	2.157527e-06	2.550153e-09	1.601454e+01	1.666842e+02
1.330000e-06	2.187102e-06	2.578145e-09	1.623407e+01	1.685279e+02
1.340000e-06	2.215929e-06	2.604161e-09	1.644804e+01	1.702846e+02
1.350000e-06	2.244054e-06	2.628197e-09	1.665680e+01	1.719663e+02
1.360000e-06	2.271639e-06	2.652382e-09	1.686156e+01	1.735833e+02
1.370000e-06	2.298524e-06	2.677650e-09	1.706111e+01	1.751436e+02
1.380000e-06	2.324278e-06	2.702646e-09	1.725227e+01	1.766521e+02
1.390000e-06	2.348828e-06	2.724385e-09	1.743450e+01	1.781104e+02
1.400000e-06	2.372519e-06	2.744215e-09	1.761035e+01	1.795169e+02
1.410000e-06	2.395430e-06	2.763421e-09	1.778041e+01	1.808676e+02
1.420000e-06	2.417527e-06	2.784037e-09	1.794443e+01	1.821571e+02
1.430000e-06	2.438839e-06	2.803622e-09	1.810262e+01	1.833799e+02
1.440000e-06	2.459348e-06	2.819674e-09	1.825485e+01	1.845313e+02
1.450000e-06	2.479170e-06	2.835985e-09	1.840198e+01	1.856089e+02
1.460000e-06	2.498334e-06	2.853168e-09	1.854423e+01	1.866130e+02
1.470000e-06	2.516583e-06	2.869993e-09	1.867968e+01	1.875467e+02
1.480000e-06	2.533844e-06	2.884472e-09	1.880781e+01	1.884157e+02
1.490000e-06	2.550253e-06	2.896826e-09	1.892960e+01	1.892274e+02
1.500000e-06	2.565743e-06	2.909286e-09	1.904458e+01	1.899899e+02
1.510000e-06	2.580168e-06	2.922546e-09	1.915165e+01	1.907111e+02
1.520000e-06	2.593593e-06	2.935148e-09	1.925130e+01	1.913968e+02
1.530000e-06	2.606115e-06	2.944554e-09	1.934424e+01	1.920502e+02
1.540000e-06	2.617673e-06	2.952639e-09	1.943004e+01	1.926717e+02
1.550000e-06	2.628098e-06	2.962553e-09	1.950742e+01	1.932582e+02
1.560000e-06	2.637184e-06	2.972518e-09	1.957486e+01	1.938042e+02
1.570000e-06	2.645184e-06	2.979976e-09	1.963424e+01	1.943027e+02
1.580000e-06	2.652434e-06	2.986303e-09	1.968806e+01	1.947463e+02
1.590000e-06	2.658858e-06	2.992603e-09	1.973574e+01	1.951291e+02
1.600000e-06	2.664337e-06	2.997816e-09	1.977641e+01	1.954476e+02
1.610000e-06	2.668911e-06	3.002160e-09	1.981036e+01	1.957019e+02
1.620000e-06	2.672710e-06	3.006099e-09	1.983856e+01	1.958959e+02
1.630000e-06	2.675687e-06	3.010212e-09	1.986066e+01	1.960375e+02
1.640000e-06	2.677498e-06	3.014663e-09	1.987409e+01	1.961374e+02
1.650000e-06	2.678091e-06	3.018286e-09	1.987850e+01	1.962078e+02
1.660000e-06	2.677832e-06	3.020118e-09	1.987658e+01	1.962607e+02
1.670000e-06	2.676803e-06	3.019715e-09	1.986894e+01	1.963063e+02
1.680000e-06	2.674936e-06	3.018804e-09	1.985508e+01	1.963506e+02
1.690000e-06	2.672227e-06	3.018389e-09	1.983498e+01	1.963951e+02
1.700000e-06	2.668684e-06	3.018691e-09	1.980868e+01	1.964354e+02
1.710000e-06	2.664448e-06	3.020968e-09	1.977723e+01	1.964619e+02
1.720000e-06	2.659504e-06	3.026270e-09	1.974053e+01	1.964606e+02
1.730000e-06	2.653538e-06	3.032146e-09	1.969625e+01	1.964150e+02
1.740000e-06	2.646386e-06	2.991219e-09	1.964316e+01	1.963082e+02
1.750000e-06	2.638013e-06	2.946097e-09	1.958102e+01	1.961253e+02
1.760000e-06	2.628257e-06	2.996688e-09	1.950860e+01	1.958560e+02
1.770000e-06	2.617455e-06	3.084321e-09	1.942842e+01	1.954962e+02
1.780000e-06	2.606537e-06	3.050784e-09	1.934738e+01	1.950494e+02
1.790000e-06	2.595365e-06	2.925987e-09	1.926445e+01	1.945266e+02
1.800000e-06	2.582449e-06	2.940194e-09	1.916858e+01	1.939457e+02
1.810000e-06	2.567634e-06	2.965877e-09	1.905861e+01	1.933297e+02
1.820000e-06	2.552416e-06	2.939835e-09	1.894566e+01	1.927043e+02
1.830000e-06	2.536727e-06	2.940739e-09	1.882920e+01	1.920948e+02
1.840000e-06	2.519524e-06	2.897530e-09	1.870151e+01	1.915230e+02
1.850000e-06	2.501424e-06	2.806762e-09	1.856716e+01	1.910049e+02
1.860000e-06	2.483070e-06	2.904333e-09	1.843093e+01	1.905481e+02
1.870000e-06	2.463862e-06	3.006314e-09	1.828836e+01	1.901512e+02
1.880000e-06	2.443662e-06	2.789773e-09	1.813842e+01	1.898034e+02
1.890000e-06	2.422855e-06	2.727920e-09	1.798397e+01	1.894856e+02
1.900000e-06	2.401033e-06	2.955335e-09	1.782200e+01	1.891725e+02
1.910000e-06	2.377782e-06	2.921861e-09	1.764942e+01	1.888355e+02
1.920000e-06	2.353610e-06	2.730831e-09	1.746999e+01	1.884453e+02
1.930000e-06	2.328812e-06	2.842336e-09	1.728593e+01	1.879757e+02
1.940000e-06	2.303325e-06	2.908452e-09	1.709675e+01	1.874056e+02
1.950000e-06	2.276975e-06	2.779056e-09	1.690116e+01	1.867214e+02
1.960000e-06	2.249582e-06	2.798204e-09	1.669783e+01	1.859179e+02
1.970000e-06	2.221612e-06	2.817743e-09	1.649022e+01	1.849982e+02
1.980000e-06	2.193085e-06	2.730096e-09	1.627847e+01	1.839725e+02
1.990000e-06	2.163414e-06	2.739605e-09	1.605823e+01	1.828566e+02
2.000000e-06	2.132795e-06	2.763517e-09	1.583097e+01	1.816692e+02
2.010000e-06	2.101567e-06	2.754658e-09	1.559917e+01	1.804292e+02
2.020000e-06	2.069416e-06	2.675729e-09	1.536052e+01	1.791535e+02
2.030000e-06	2.036530e-06	2.611269e-09	1.511643e+01	1.778546e+02
2.040000e-06	2.003240e-06	2.722951e-09	1.486933e+01	1.765394e+02
2.050000e-06	1.969166e-06	2.715884e-09	1.461640e+01	1.752087e+02
2.060000e-06	1.934252e-06	2.533653e-09	1.435725e+01	1.738577e+02
2.070000e-06	1.898808e-06	2.570582e-09	1.409417e+01	1.724768e+02
2.080000e-06	1.862881e-06	2.664104e-09	1.382749e+01	1.710536e+02
2.090000e-06	1.826393e-06	2.541745e-09	1.355665e+01	1.695748e+02
2.100000e-06	1.789167e-06	2.487051e-09	1.328034e+01	1.680281e+02
2.110000e-06	1.751078e-06	2.523830e-09	1.299762e+01	1.664039e+02
2.120000e-06	1.712126e-06	2.492429e-09	1.270849e+01	1.646966e+02
2.130000e-06	1.672408e-06	2.436536e-09	1.241368e+01	1.629050e+02
2.140000e-06	1.632198e-06	2.412340e-09	1.211521e+01	1.610325e+02
2.150000e-06	1.591610e-06	2.418010e-09	1.181395e+01	1.590856e+02
2.160000e-06	1.550465e-06	2.367580e-09	1.150854e+01	1.570733e+02
2.170000e-06	1.508712e-06	2.308983e-09	1.119862e+01	1.550054e+02
2.180000e-06	1.466551e-06	2.315728e-09	1.088568e+01	1.528906e+02
2.190000e-06	1.423943e-06	2.293396e-09	1.056941e+01	1.507355e+02
2.200000e-06	1.380700e-06	2.214204e-09	1.024843e+01	1.485433e+02
2.210000e-06	1.336954e-06	2.191484e-09	9.923723e+00	1.463138e+02
2.220000e-06	1.292940e-06	2.194404e-09	9.597022e+00	1.440427e+02
2.230000e-06	1.248690e-06	2.137181e-09	9.268573e+00	1.417230e+02
2.240000e-06	1.204138e-06	2.073767e-09	8.937882e+00	1.393454e+02
2.250000e-06	1.159206e-06	2.065825e-09	8.604367e+00	1.368997e+02
2.260000e-06	1.113722e-06	2.049930e-09	8.266757e+00	1.343762e+02
2.270000e-06	1.067647e-06	1.969249e-09	7.924757e+00	1.317662e+02
2.280000e-06	1.021209e-06	1.928043e-09	7.580064e+00	1.290636e+02
2.290000e-06	9.745386e-07	1.920404e-09	7.233647e+00	1.262646e+02
2.300000e-06	9.275602e-07	1.865947e-09	6.884943e+00	1.233678e+02
2.310000e-06	8.803262e-07	1.798147e-09	6.534342e+00	1.203742e+02
2.320000e-06	8.329259e-07	1.762422e-09	6.182507e+00	1.172855e+02
2.330000e-06	7.851658e-07	1.729245e-09	5.828001e+00	1.141043e+02
2.340000e-06	7.368921e-07	1.667716e-09	5.469683e+00	1.108324e+02
2.350000e-06	6.883276e-07	1.615474e-09	5.109207e+00	1.074703e+02
2.360000e-06	6.394977e-07	1.576278e-09	4.746760e+00	1.040168e+02
2.370000e-06	5.903244e-07	1.518469e-09	4.381764e+00	1.004688e+02
2.380000e-06	5.408980e-07	1.455069e-09	4.014890e+00	9.682146e+01
2.390000e-06	4.913007e-07	1.411086e-09	3.646747e+00	9.306851e+01
2.400000e-06	4.415839e-07	1.354977e-09	3.277718e+00	8.920318e+01
2.410000e-06	3.916528e-07	1.278859e-09	2.907097e+00	8.521886e+01
2.420000e-06	3.415646e-07	1.216835e-09	2.535311e+00	8.110986e+01
2.430000e-06	2.914327e-07	1.168833e-09	2.163199e+00	7.687200e+01
2.440000e-06	2.411843e-07	1.102265e-09	1.790224e+00	7.250303e+01
2.450000e-06	1.907575e-07	1.015357e-09	1.415924e+00	6.800271e+01
2.460000e-06	1.402930e-07	9.482533e-10	1.041344e+00	6.337275e+01
2.470000e-06	8.980339e-08	8.901336e-10	6.665780e-01	5.861644e+01
2.480000e-06	3.922845e-08	8.147207e-10	2.911786e-01	5.373823e+01
2.490000e-06	-1.131209e-08	7.326733e-10	-8.396557e-02	4.874331e+01
2.500000e-06	-6.173879e-08	6.579780e-10	-4.582647e-01	4.363718e+01
2.510000e-06	-1.121459e-07	5.841495e-10	-8.324187e-01	3.842550e+01
2.520000e-06	-1.626010e-07	5.029283e-10	-1.206928e+00	3.311401e+01
2.530000e-06	-2.129777e-07	4.218991e-10	-1.580856e+00	2.770870e+01
2.540000e-06	-2.632451e-07	3.406289e-10	-1.953973e+00	2.221618e+01
2.550000e-06	-3.134904e-07	2.538620e-10	-2.326926e+00	1.664406e+01
2.560000e-06	-3.636195e-07	1.683943e-10	-2.699016e+00	1.100133e+01
2.570000e-06	-4.135478e-07	8.952062e-11	-3.069616e+00	5.298765e+00
2.580000e-06	-4.633318e-07	1.500938e-12	-3.439144e+00	-4.510388e-01
2.590000e-06	-5.129864e-07	-9.244742e-11	-3.807712e+00	-6.233684e+00
2.600000e-06	-5.623052e-07	-1.759590e-10	-4.173788e+00	-1.203332e+01
2.610000e-06	-6.112686e-07	-2.555003e-10	-4.537226e+00	-1.783317e+01
2.620000e-06	-6.600011e-07	-3.449616e-10	-4.898949e+00	-2.361623e+01
2.630000e-06	-7.082572e-07	-4.378995e-10	-5.257137e+00	-2.936597e+01
2.640000e-06	-7.560021e-07	-5.194492e-10	-5.611530e+00	-3.506706e+01
2.650000e-06	-8.034595e-07	-5.998897e-10	-5.963789e+00	-4.070586e+01
2.660000e-06	-8.506390e-07	-6.865252e-10	-6.313985e+00	-4.627083e+01
2.670000e-06	-8.974728e-07	-7.724408e-10	-6.661615e+00	-5.175255e+01
2.680000e-06	-9.440725e-07	-8.523537e-10	-7.007508e+00	-5.714357e+01
2.690000e-06	-9.905100e-07	-9.312600e-10	-7.352197e+00	-6.243804e+01
2.700000e-06	-1.036721e-06	-1.010634e-09	-7.695206e+00	-6.763122e+01
2.710000e-06	-1.082622e-06	-1.086644e-09	-8.035913e+00	-7.271894e+01
2.720000e-06	-1.128127e-06	-1.161327e-09	-8.373675e+00	-7.769718e+01
2.730000e-06	-1.173230e-06	-1.235792e-09	-8.708460e+00	-8.256172e+01
2.740000e-06	-1.217894e-06	-1.309829e-09	-9.039988e+00	-8.730814e+01
2.750000e-06	-1.262160e-06	-1.379933e-09	-9.368555e+00	-9.193192e+01
2.760000e-06	-1.306187e-06	-1.448433e-09	-9.695350e+00	-9.642881e+01
2.770000e-06	-1.349975e-06	-1.515877e-09	-1.002037e+01	-1.007953e+02
2.780000e-06	-1.393326e-06	-1.580602e-09	-1.034215e+01	-1.050291e+02
2.790000e-06	-1.436114e-06	-1.640817e-09	-1.065975e+01	-1.091298e+02
2.800000e-06	-1.478457e-06	-1.699546e-09	-1.097405e+01	-1.130988e+02
2.810000e-06	-1.520303e-06	-1.760201e-09	-1.128466e+01	-1.169395e+02
2.820000e-06	-1.561510e-06	-1.817376e-09	-1.159052e+01	-1.206571e+02
2.830000e-06	-1.602180e-06	-1.872319e-09	-1.189240e+01	-1.242579e+02
2.840000e-06	-1.642440e-06	-1.926445e-09	-1.219124e+01	-1.277486e+02
2.850000e-06	-1.682315e-06	-1.978129e-09	-1.248722e+01	-1.311353e+02
2.860000e-06	-1.721613e-06	-2.027674e-09	-1.277891e+01	-1.344228e+02
2.870000e-06	-1.760032e-06	-2.079333e-09	-1.306408e+01	-1.376141e+02
2.880000e-06	-1.797438e-06	-2.128722e-09	-1.334173e+01	-1.407095e+02
2.890000e-06	-1.834025e-06	-2.171406e-09	-1.361330e+01	-1.437067e+02
2.900000e-06	-1.870130e-06	-2.213369e-09	-1.388130e+01	-1.466015e+02
2.910000e-06	-1.905778e-06	-2.256808e-09	-1.414590e+01	-1.493880e+02
2.920000e-06	-1.940735e-06	-2.299369e-09	-1.440537e+01	-1.520600e+02
2.930000e-06	-1.974975e-06	-2.337887e-09	-1.465952e+01	-1.546118e+02
2.940000e-06	-2.008532e-06	-2.375014e-09	-1.490860e+01	-1.570394e+02
