# Temperatura_=_20.0
# Concentracion g/m^3_=_9000.0
# C_Vs_to_Am_M_A/Vsm_=_65563218390.804596
# pendiente_HvsI_1/m_=_3716.3
# ordenada_HvsI_A/m_=_1297.0
# frecuencia_Hz_=_301062.0848700561

Tiempo_(s)	Campo_(V.s)	Magnetizacion_(V.s)	Campo_(kA/m)	Magnetizacion_(A/m)
0.000000e+00	-2.670425e-06	-2.940663e-09	-1.977368e+01	-1.945367e+02
1.000000e-08	-2.670148e-06	-2.943059e-09	-1.977163e+01	-1.946374e+02
2.000000e-08	-2.668837e-06	-2.944026e-09	-1.976192e+01	-1.947234e+02
3.000000e-08	-2.666277e-06	-2.944037e-09	-1.974297e+01	-1.947942e+02
4.000000e-08	-2.662784e-06	-2.943504e-09	-1.971710e+01	-1.948455e+02
5.000000e-08	-2.658617e-06	-2.943361e-09	-1.968625e+01	-1.948691e+02
6.000000e-08	-2.653618e-06	-2.943191e-09	-1.964923e+01	-1.948540e+02
7.000000e-08	-2.647707e-06	-2.944497e-09	-1.960546e+01	-1.947880e+02
8.000000e-08	-2.640889e-06	-2.945804e-09	-1.955498e+01	-1.946589e+02
9.000000e-08	-2.633130e-06	-2.943365e-09	-1.949752e+01	-1.944570e+02
1.000000e-07	-2.624154e-06	-2.936768e-09	-1.943106e+01	-1.941761e+02
1.100000e-07	-2.613793e-06	-2.933053e-09	-1.935434e+01	-1.938152e+02
1.200000e-07	-2.602412e-06	-2.929123e-09	-1.927007e+01	-1.933792e+02
1.300000e-07	-2.590263e-06	-2.906970e-09	-1.918011e+01	-1.928788e+02
1.400000e-07	-2.577298e-06	-2.907271e-09	-1.908410e+01	-1.923295e+02
1.500000e-07	-2.563536e-06	-2.932125e-09	-1.898220e+01	-1.917504e+02
1.600000e-07	-2.548728e-06	-2.927945e-09	-1.887255e+01	-1.911620e+02
1.700000e-07	-2.532456e-06	-2.904412e-09	-1.875206e+01	-1.905840e+02
1.800000e-07	-2.515118e-06	-2.918445e-09	-1.862368e+01	-1.900328e+02
1.900000e-07	-2.497380e-06	-2.922589e-09	-1.849233e+01	-1.895198e+02
2.000000e-07	-2.478932e-06	-2.887382e-09	-1.835573e+01	-1.890497e+02
2.100000e-07	-2.459402e-06	-2.895888e-09	-1.821112e+01	-1.886196e+02
2.200000e-07	-2.439183e-06	-2.903171e-09	-1.806141e+01	-1.882197e+02
2.300000e-07	-2.418384e-06	-2.867104e-09	-1.790739e+01	-1.878338e+02
2.400000e-07	-2.396573e-06	-2.874520e-09	-1.774589e+01	-1.874409e+02
2.500000e-07	-2.373746e-06	-2.919859e-09	-1.757686e+01	-1.870180e+02
2.600000e-07	-2.350302e-06	-2.893620e-09	-1.740327e+01	-1.865418e+02
2.700000e-07	-2.326259e-06	-2.863672e-09	-1.722524e+01	-1.859916e+02
2.800000e-07	-2.301280e-06	-2.883545e-09	-1.704028e+01	-1.853510e+02
2.900000e-07	-2.275136e-06	-2.870240e-09	-1.684669e+01	-1.846098e+02
3.000000e-07	-2.247957e-06	-2.835729e-09	-1.664543e+01	-1.837641e+02
3.100000e-07	-2.220004e-06	-2.829077e-09	-1.643845e+01	-1.828166e+02
3.200000e-07	-2.191343e-06	-2.811451e-09	-1.622622e+01	-1.817757e+02
3.300000e-07	-2.162051e-06	-2.780650e-09	-1.600932e+01	-1.806538e+02
3.400000e-07	-2.132132e-06	-2.778436e-09	-1.578778e+01	-1.794656e+02
3.500000e-07	-2.101403e-06	-2.759909e-09	-1.556024e+01	-1.782260e+02
3.600000e-07	-2.070005e-06	-2.720659e-09	-1.532775e+01	-1.769479e+02
3.700000e-07	-2.038205e-06	-2.700878e-09	-1.509229e+01	-1.756412e+02
3.800000e-07	-2.005593e-06	-2.699371e-09	-1.485080e+01	-1.743112e+02
3.900000e-07	-1.971652e-06	-2.681496e-09	-1.459948e+01	-1.729586e+02
4.000000e-07	-1.936690e-06	-2.650434e-09	-1.434060e+01	-1.715796e+02
4.100000e-07	-1.901220e-06	-2.624206e-09	-1.407795e+01	-1.701667e+02
4.200000e-07	-1.865264e-06	-2.606371e-09	-1.381171e+01	-1.687104e+02
4.300000e-07	-1.828634e-06	-2.588787e-09	-1.354048e+01	-1.672002e+02
4.400000e-07	-1.791354e-06	-2.555940e-09	-1.326443e+01	-1.656263e+02
4.500000e-07	-1.753490e-06	-2.522452e-09	-1.298406e+01	-1.639810e+02
4.600000e-07	-1.714960e-06	-2.496723e-09	-1.269876e+01	-1.622595e+02
4.700000e-07	-1.675879e-06	-2.476453e-09	-1.240937e+01	-1.604603e+02
4.800000e-07	-1.636425e-06	-2.449640e-09	-1.211723e+01	-1.585855e+02
4.900000e-07	-1.596630e-06	-2.418029e-09	-1.182255e+01	-1.566398e+02
5.000000e-07	-1.556246e-06	-2.381974e-09	-1.152352e+01	-1.546296e+02
5.100000e-07	-1.515017e-06	-2.353779e-09	-1.121824e+01	-1.525622e+02
5.200000e-07	-1.472913e-06	-2.331020e-09	-1.090647e+01	-1.504445e+02
5.300000e-07	-1.430029e-06	-2.292123e-09	-1.058893e+01	-1.482818e+02
5.400000e-07	-1.386686e-06	-2.252115e-09	-1.026799e+01	-1.460771e+02
5.500000e-07	-1.343034e-06	-2.221679e-09	-9.944755e+00	-1.438310e+02
5.600000e-07	-1.298965e-06	-2.187929e-09	-9.618440e+00	-1.415408e+02
5.700000e-07	-1.254381e-06	-2.146585e-09	-9.288310e+00	-1.392019e+02
5.800000e-07	-1.209365e-06	-2.111505e-09	-8.954980e+00	-1.368077e+02
5.900000e-07	-1.163986e-06	-2.069859e-09	-8.618963e+00	-1.343505e+02
6.000000e-07	-1.118183e-06	-2.025579e-09	-8.279807e+00	-1.318226e+02
6.100000e-07	-1.071922e-06	-1.990153e-09	-7.937256e+00	-1.292168e+02
6.200000e-07	-1.025256e-06	-1.947916e-09	-7.591711e+00	-1.265272e+02
6.300000e-07	-9.782585e-07	-1.898456e-09	-7.243705e+00	-1.237494e+02
6.400000e-07	-9.309857e-07	-1.854601e-09	-6.893664e+00	-1.208803e+02
6.500000e-07	-8.835215e-07	-1.813674e-09	-6.542207e+00	-1.179185e+02
6.600000e-07	-8.358296e-07	-1.763927e-09	-6.189063e+00	-1.148633e+02
6.700000e-07	-7.878226e-07	-1.713607e-09	-5.833585e+00	-1.117145e+02
6.800000e-07	-7.394810e-07	-1.664425e-09	-5.475631e+00	-1.084716e+02
6.900000e-07	-6.907918e-07	-1.612682e-09	-5.115102e+00	-1.051338e+02
7.000000e-07	-6.416449e-07	-1.558788e-09	-4.751184e+00	-1.016990e+02
7.100000e-07	-5.919894e-07	-1.504335e-09	-4.383500e+00	-9.816414e+01
7.200000e-07	-5.419724e-07	-1.449356e-09	-4.013140e+00	-9.452533e+01
7.300000e-07	-4.916410e-07	-1.391963e-09	-3.640451e+00	-9.077775e+01
7.400000e-07	-4.409581e-07	-1.332494e-09	-3.265160e+00	-8.691628e+01
7.500000e-07	-3.900168e-07	-1.269421e-09	-2.887955e+00	-8.293588e+01
7.600000e-07	-3.389085e-07	-1.205932e-09	-2.509514e+00	-7.883207e+01
7.700000e-07	-2.877018e-07	-1.140932e-09	-2.130344e+00	-7.460125e+01
7.800000e-07	-2.364371e-07	-1.073136e-09	-1.750745e+00	-7.024103e+01
7.900000e-07	-1.850982e-07	-1.002511e-09	-1.370595e+00	-6.575035e+01
8.000000e-07	-1.337061e-07	-9.314938e-10	-9.900529e-01	-6.112950e+01
8.100000e-07	-8.227273e-08	-8.609626e-10	-6.092044e-01	-5.638009e+01
8.200000e-07	-3.082670e-08	-7.876589e-10	-2.282623e-01	-5.150488e+01
8.300000e-07	2.059952e-08	-7.106851e-10	1.525331e-01	-4.650771e+01
8.400000e-07	7.203973e-08	-6.315172e-10	5.334322e-01	-4.139342e+01
8.500000e-07	1.234223e-07	-5.529350e-10	9.139042e-01	-3.616785e+01
8.600000e-07	1.747330e-07	-4.733797e-10	1.293844e+00	-3.083789e+01
8.700000e-07	2.260200e-07	-3.892136e-10	1.673609e+00	-2.541162e+01
8.800000e-07	2.772036e-07	-2.994984e-10	2.052608e+00	-1.989847e+01
8.900000e-07	3.282979e-07	-2.104424e-10	2.430946e+00	-1.430934e+01
9.000000e-07	3.792500e-07	-1.250621e-10	2.808231e+00	-8.656638e+00
9.100000e-07	4.299244e-07	-3.985986e-11	3.183459e+00	-2.954257e+00
9.200000e-07	4.804344e-07	4.830748e-11	3.557470e+00	2.782679e+00
9.300000e-07	5.307230e-07	1.384367e-10	3.929842e+00	8.538159e+00
9.400000e-07	5.806633e-07	2.246636e-10	4.299634e+00	1.429576e+01
9.500000e-07	6.302248e-07	3.088272e-10	4.666622e+00	2.003925e+01
9.600000e-07	6.793045e-07	3.966474e-10	5.030042e+00	2.575310e+01
9.700000e-07	7.279140e-07	4.871408e-10	5.389981e+00	3.142308e+01
9.800000e-07	7.761525e-07	5.763282e-10	5.747172e+00	3.703661e+01
9.900000e-07	8.240374e-07	6.622784e-10	6.101745e+00	4.258302e+01
1.000000e-06	8.716573e-07	7.449743e-10	6.454356e+00	4.805353e+01
1.010000e-06	9.191360e-07	8.270677e-10	6.805921e+00	5.344109e+01
1.020000e-06	9.664333e-07	9.101574e-10	7.156143e+00	5.874003e+01
1.030000e-06	1.013443e-06	9.910781e-10	7.504237e+00	6.394561e+01
1.040000e-06	1.060104e-06	1.067733e-09	7.849744e+00	6.905354e+01
1.050000e-06	1.106357e-06	1.142199e-09	8.192234e+00	7.405958e+01
1.060000e-06	1.152193e-06	1.218262e-09	8.531640e+00	7.895927e+01
1.070000e-06	1.197645e-06	1.292640e-09	8.868197e+00	8.374777e+01
1.080000e-06	1.242619e-06	1.363241e-09	9.201212e+00	8.842006e+01
1.090000e-06	1.287101e-06	1.431264e-09	9.530588e+00	9.297118e+01
1.100000e-06	1.331190e-06	1.498004e-09	9.857053e+00	9.739665e+01
1.110000e-06	1.374953e-06	1.563960e-09	1.018111e+01	1.016930e+02
1.120000e-06	1.418406e-06	1.627686e-09	1.050287e+01	1.058584e+02
1.130000e-06	1.461535e-06	1.688871e-09	1.082222e+01	1.098926e+02
1.140000e-06	1.504115e-06	1.747791e-09	1.113751e+01	1.137974e+02
1.150000e-06	1.545889e-06	1.805643e-09	1.144684e+01	1.175766e+02
1.160000e-06	1.586774e-06	1.862308e-09	1.174958e+01	1.212353e+02
1.170000e-06	1.626867e-06	1.916833e-09	1.204645e+01	1.247797e+02
1.180000e-06	1.666462e-06	1.968685e-09	1.233964e+01	1.282160e+02
1.190000e-06	1.705678e-06	2.018200e-09	1.263002e+01	1.315498e+02
1.200000e-06	1.744350e-06	2.067518e-09	1.291638e+01	1.347855e+02
1.210000e-06	1.782410e-06	2.116118e-09	1.319820e+01	1.379254e+02
1.220000e-06	1.819907e-06	2.162456e-09	1.347586e+01	1.409696e+02
1.230000e-06	1.856758e-06	2.206224e-09	1.374873e+01	1.439162e+02
1.240000e-06	1.892965e-06	2.248048e-09	1.401683e+01	1.467614e+02
1.250000e-06	1.928656e-06	2.289960e-09	1.428110e+01	1.495005e+02
1.260000e-06	1.963855e-06	2.330696e-09	1.454174e+01	1.521281e+02
1.270000e-06	1.998371e-06	2.367281e-09	1.479733e+01	1.546401e+02
1.280000e-06	2.031893e-06	2.400223e-09	1.504555e+01	1.570335e+02
1.290000e-06	2.064340e-06	2.434979e-09	1.528580e+01	1.593080e+02
1.300000e-06	2.096016e-06	2.469463e-09	1.552036e+01	1.614657e+02
1.310000e-06	2.127203e-06	2.499248e-09	1.575129e+01	1.635118e+02
1.320000e-06	2.157753e-06	2.526019e-09	1.597750e+01	1.654536e+02
1.330000e-06	2.187539e-06	2.553195e-09	1.619806e+01	1.673003e+02
1.340000e-06	2.216578e-06	2.579448e-09	1.641308e+01	1.690619e+02
1.350000e-06	2.244848e-06	2.604065e-09	1.662242e+01	1.707482e+02
1.360000e-06	2.272497e-06	2.629987e-09	1.682715e+01	1.723678e+02
1.370000e-06	2.299548e-06	2.655552e-09	1.702745e+01	1.739271e+02
1.380000e-06	2.325671e-06	2.679739e-09	1.722089e+01	1.754300e+02
1.390000e-06	2.350601e-06	2.702402e-09	1.740549e+01	1.768778e+02
1.400000e-06	2.374488e-06	2.723392e-09	1.758236e+01	1.782692e+02
1.410000e-06	2.397578e-06	2.742288e-09	1.775333e+01	1.796011e+02
1.420000e-06	2.419855e-06	2.760512e-09	1.791828e+01	1.808695e+02
1.430000e-06	2.441305e-06	2.778709e-09	1.807712e+01	1.820703e+02
1.440000e-06	2.461976e-06	2.795959e-09	1.823018e+01	1.832007e+02
1.450000e-06	2.481905e-06	2.813473e-09	1.837775e+01	1.842595e+02
1.460000e-06	2.501188e-06	2.830373e-09	1.852053e+01	1.852478e+02
1.470000e-06	2.519676e-06	2.844737e-09	1.865743e+01	1.861692e+02
1.480000e-06	2.537166e-06	2.858237e-09	1.878694e+01	1.870294e+02
1.490000e-06	2.553745e-06	2.872218e-09	1.890970e+01	1.878355e+02
1.500000e-06	2.569379e-06	2.885543e-09	1.902546e+01	1.885952e+02
1.510000e-06	2.583942e-06	2.897091e-09	1.913330e+01	1.893156e+02
1.520000e-06	2.597520e-06	2.907390e-09	1.923384e+01	1.900024e+02
1.530000e-06	2.610192e-06	2.917684e-09	1.932768e+01	1.906591e+02
1.540000e-06	2.621949e-06	2.928628e-09	1.941473e+01	1.912868e+02
1.550000e-06	2.632661e-06	2.938685e-09	1.949405e+01	1.918835e+02
1.560000e-06	2.642071e-06	2.945905e-09	1.956373e+01	1.924455e+02
1.570000e-06	2.650254e-06	2.952363e-09	1.962432e+01	1.929675e+02
1.580000e-06	2.657555e-06	2.960392e-09	1.967838e+01	1.934438e+02
1.590000e-06	2.664050e-06	2.968605e-09	1.972647e+01	1.938695e+02
1.600000e-06	2.669665e-06	2.973769e-09	1.976805e+01	1.942414e+02
1.610000e-06	2.674394e-06	2.977407e-09	1.980307e+01	1.945589e+02
1.620000e-06	2.678308e-06	2.982071e-09	1.983205e+01	1.948242e+02
1.630000e-06	2.681444e-06	2.987489e-09	1.985527e+01	1.950421e+02
1.640000e-06	2.683618e-06	2.993611e-09	1.987137e+01	1.952197e+02
1.650000e-06	2.684581e-06	2.998099e-09	1.987850e+01	1.953649e+02
1.660000e-06	2.684455e-06	2.999486e-09	1.987757e+01	1.954856e+02
1.670000e-06	2.683516e-06	3.001565e-09	1.987061e+01	1.955880e+02
1.680000e-06	2.681734e-06	3.003874e-09	1.985742e+01	1.956756e+02
1.690000e-06	2.679051e-06	3.002946e-09	1.983756e+01	1.957482e+02
1.700000e-06	2.675551e-06	3.001118e-09	1.981164e+01	1.958017e+02
1.710000e-06	2.671337e-06	3.000777e-09	1.978043e+01	1.958282e+02
1.720000e-06	2.666471e-06	2.999870e-09	1.974440e+01	1.958168e+02
1.730000e-06	2.660686e-06	2.992943e-09	1.970157e+01	1.957554e+02
1.740000e-06	2.653665e-06	2.985447e-09	1.964958e+01	1.956318e+02
1.750000e-06	2.645387e-06	2.987736e-09	1.958828e+01	1.954359e+02
1.760000e-06	2.635774e-06	2.984115e-09	1.951710e+01	1.951612e+02
1.770000e-06	2.625076e-06	2.979380e-09	1.943788e+01	1.948065e+02
1.780000e-06	2.614055e-06	2.985108e-09	1.935628e+01	1.943762e+02
1.790000e-06	2.602798e-06	2.985254e-09	1.927292e+01	1.938805e+02
1.800000e-06	2.590176e-06	2.949766e-09	1.917946e+01	1.933347e+02
1.810000e-06	2.575653e-06	2.907541e-09	1.907192e+01	1.927576e+02
1.820000e-06	2.560350e-06	2.919970e-09	1.895861e+01	1.921698e+02
1.830000e-06	2.544719e-06	2.905031e-09	1.884287e+01	1.915910e+02
1.840000e-06	2.527850e-06	2.865037e-09	1.871796e+01	1.910380e+02
1.850000e-06	2.509827e-06	2.875640e-09	1.858450e+01	1.905226e+02
1.860000e-06	2.491377e-06	2.877474e-09	1.844788e+01	1.900499e+02
1.870000e-06	2.472233e-06	2.829847e-09	1.830613e+01	1.896178e+02
1.880000e-06	2.452102e-06	2.827585e-09	1.815706e+01	1.892168e+02
1.890000e-06	2.431325e-06	2.860813e-09	1.800322e+01	1.888311e+02
1.900000e-06	2.409677e-06	2.824671e-09	1.784292e+01	1.884401e+02
1.910000e-06	2.386654e-06	2.812878e-09	1.767244e+01	1.880207e+02
1.920000e-06	2.362515e-06	2.864456e-09	1.749370e+01	1.875495e+02
1.930000e-06	2.337694e-06	2.838718e-09	1.730991e+01	1.870058e+02
1.940000e-06	2.312178e-06	2.779626e-09	1.712097e+01	1.863727e+02
1.950000e-06	2.285791e-06	2.802108e-09	1.692559e+01	1.856394e+02
1.960000e-06	2.258496e-06	2.797734e-09	1.672348e+01	1.848017e+02
1.970000e-06	2.230508e-06	2.751894e-09	1.651623e+01	1.838618e+02
1.980000e-06	2.201957e-06	2.754984e-09	1.630482e+01	1.828278e+02
1.990000e-06	2.172424e-06	2.750170e-09	1.608613e+01	1.817118e+02
2.000000e-06	2.141878e-06	2.703871e-09	1.585995e+01	1.805284e+02
2.010000e-06	2.110684e-06	2.689444e-09	1.562897e+01	1.792925e+02
2.020000e-06	2.078667e-06	2.697514e-09	1.539189e+01	1.780174e+02
2.030000e-06	2.045831e-06	2.674495e-09	1.514875e+01	1.767131e+02
2.040000e-06	2.012518e-06	2.631402e-09	1.490208e+01	1.753852e+02
2.050000e-06	1.978541e-06	2.616840e-09	1.465049e+01	1.740349e+02
2.060000e-06	1.943709e-06	2.622856e-09	1.439257e+01	1.726585e+02
2.070000e-06	1.908280e-06	2.592778e-09	1.413023e+01	1.712489e+02
2.080000e-06	1.872366e-06	2.555288e-09	1.386430e+01	1.697967e+02
2.090000e-06	1.835931e-06	2.541846e-09	1.359451e+01	1.682912e+02
2.100000e-06	1.798872e-06	2.522836e-09	1.332009e+01	1.667227e+02
2.110000e-06	1.760951e-06	2.490439e-09	1.303930e+01	1.650832e+02
2.120000e-06	1.722131e-06	2.462390e-09	1.275185e+01	1.633678e+02
2.130000e-06	1.682499e-06	2.436731e-09	1.245839e+01	1.615748e+02
2.140000e-06	1.642222e-06	2.408052e-09	1.216015e+01	1.597058e+02
2.150000e-06	1.601519e-06	2.381388e-09	1.185876e+01	1.577655e+02
2.160000e-06	1.560312e-06	2.357035e-09	1.155363e+01	1.557602e+02
2.170000e-06	1.518538e-06	2.323946e-09	1.124431e+01	1.536972e+02
2.180000e-06	1.476302e-06	2.283403e-09	1.093157e+01	1.515835e+02
2.190000e-06	1.433636e-06	2.256609e-09	1.061563e+01	1.494244e+02
2.200000e-06	1.390428e-06	2.228482e-09	1.029570e+01	1.472233e+02
2.210000e-06	1.346652e-06	2.189945e-09	9.971547e+00	1.449807e+02
2.220000e-06	1.302544e-06	2.155355e-09	9.644940e+00	1.426944e+02
2.230000e-06	1.258229e-06	2.121152e-09	9.316799e+00	1.403598e+02
2.240000e-06	1.213617e-06	2.086327e-09	8.986466e+00	1.379703e+02
2.250000e-06	1.168704e-06	2.050692e-09	8.653896e+00	1.355185e+02
2.260000e-06	1.123315e-06	2.011407e-09	8.317805e+00	1.329964e+02
2.270000e-06	1.077267e-06	1.971542e-09	7.976831e+00	1.303970e+02
2.280000e-06	1.030730e-06	1.932896e-09	7.632243e+00	1.277141e+02
2.290000e-06	9.839087e-07	1.891819e-09	7.285543e+00	1.249432e+02
2.300000e-06	9.368024e-07	1.851680e-09	6.936735e+00	1.220813e+02
2.310000e-06	8.894823e-07	1.808040e-09	6.586344e+00	1.191267e+02
2.320000e-06	8.419656e-07	1.757896e-09	6.234498e+00	1.160787e+02
2.330000e-06	7.941841e-07	1.708665e-09	5.880690e+00	1.129372e+02
2.340000e-06	7.459594e-07	1.663977e-09	5.523601e+00	1.097017e+02
2.350000e-06	6.973212e-07	1.617485e-09	5.163450e+00	1.063712e+02
2.360000e-06	6.484562e-07	1.563593e-09	4.801620e+00	1.029440e+02
2.370000e-06	5.992417e-07	1.510414e-09	4.437202e+00	9.941699e+01
2.380000e-06	5.496852e-07	1.456152e-09	4.070251e+00	9.578633e+01
2.390000e-06	5.000059e-07	1.399385e-09	3.702390e+00	9.204725e+01
2.400000e-06	4.502266e-07	1.342408e-09	3.333790e+00	8.819465e+01
2.410000e-06	4.001953e-07	1.281647e-09	2.963324e+00	8.422347e+01
2.420000e-06	3.500225e-07	1.216866e-09	2.591810e+00	8.012917e+01
2.430000e-06	2.998386e-07	1.152942e-09	2.220213e+00	7.590808e+01
2.440000e-06	2.495188e-07	1.091923e-09	1.847610e+00	7.155772e+01
2.450000e-06	1.990427e-07	1.025471e-09	1.473851e+00	6.707693e+01
2.460000e-06	1.485237e-07	9.508965e-10	1.099772e+00	6.246591e+01
2.470000e-06	9.798367e-08	8.772676e-10	7.255391e-01	5.772617e+01
2.480000e-06	4.739016e-08	8.095639e-10	3.509096e-01	5.286039e+01
2.490000e-06	-3.256123e-09	7.389780e-10	-2.411060e-02	4.787235e+01
2.500000e-06	-5.385754e-08	6.590903e-10	-3.987986e-01	4.276682e+01
2.510000e-06	-1.044209e-07	5.745557e-10	-7.732051e-01	3.754955e+01
2.520000e-06	-1.550041e-07	4.932168e-10	-1.147758e+00	3.222736e+01
2.530000e-06	-2.054978e-07	4.154464e-10	-1.521649e+00	2.680824e+01
2.540000e-06	-2.558854e-07	3.359240e-10	-1.894753e+00	2.130151e+01
2.550000e-06	-3.062206e-07	2.510509e-10	-2.267470e+00	1.571798e+01
2.560000e-06	-3.564499e-07	1.620604e-10	-2.639403e+00	1.006994e+01
2.570000e-06	-4.065615e-07	7.688617e-11	-3.010464e+00	4.371188e+00
2.580000e-06	-4.565731e-07	-5.833224e-12	-3.380784e+00	-1.363238e+00
2.590000e-06	-5.064067e-07	-9.192568e-11	-3.749787e+00	-7.117369e+00
2.600000e-06	-5.558413e-07	-1.819479e-10	-4.115835e+00	-1.287480e+01
2.610000e-06	-6.048994e-07	-2.714295e-10	-4.479095e+00	-1.861925e+01
2.620000e-06	-6.536868e-07	-3.566703e-10	-4.840351e+00	-2.433514e+01
2.630000e-06	-7.020588e-07	-4.401182e-10	-5.198531e+00	-3.000813e+01
2.640000e-06	-7.499263e-07	-5.224161e-10	-5.552975e+00	-3.562551e+01
2.650000e-06	-7.974928e-07	-6.055935e-10	-5.905191e+00	-4.117646e+01
2.660000e-06	-8.448537e-07	-6.900045e-10	-6.255883e+00	-4.665208e+01
2.670000e-06	-8.919334e-07	-7.713015e-10	-6.604494e+00	-5.204520e+01
2.680000e-06	-9.387062e-07	-8.487083e-10	-6.950832e+00	-5.735007e+01
2.690000e-06	-9.852342e-07	-9.267254e-10	-7.295358e+00	-6.256189e+01
2.700000e-06	-1.031622e-06	-1.007128e-09	-7.638843e+00	-6.767637e+01
2.710000e-06	-1.077687e-06	-1.085498e-09	-7.979942e+00	-7.268927e+01
2.720000e-06	-1.123314e-06	-1.158993e-09	-8.317794e+00	-7.759614e+01
2.730000e-06	-1.168518e-06	-1.230160e-09	-8.652519e+00	-8.239219e+01
2.740000e-06	-1.213274e-06	-1.302674e-09	-8.983924e+00	-8.707238e+01
2.750000e-06	-1.257672e-06	-1.373917e-09	-9.312679e+00	-9.163174e+01
2.760000e-06	-1.301820e-06	-1.439829e-09	-9.639580e+00	-9.606575e+01
2.770000e-06	-1.345722e-06	-1.502204e-09	-9.964660e+00	-1.003709e+02
2.780000e-06	-1.389230e-06	-1.565244e-09	-1.028683e+01	-1.045451e+02
2.790000e-06	-1.432191e-06	-1.628355e-09	-1.060494e+01	-1.085880e+02
2.800000e-06	-1.474647e-06	-1.689232e-09	-1.091931e+01	-1.125014e+02
2.810000e-06	-1.516626e-06	-1.747904e-09	-1.123015e+01	-1.162888e+02
2.820000e-06	-1.558053e-06	-1.804621e-09	-1.153690e+01	-1.199554e+02
2.830000e-06	-1.598921e-06	-1.858833e-09	-1.183952e+01	-1.235072e+02
2.840000e-06	-1.639357e-06	-1.910704e-09	-1.213894e+01	-1.269504e+02
2.850000e-06	-1.679381e-06	-1.961987e-09	-1.243530e+01	-1.302908e+02
2.860000e-06	-1.718849e-06	-2.012467e-09	-1.272755e+01	-1.335329e+02
2.870000e-06	-1.757474e-06	-2.060663e-09	-1.301356e+01	-1.366790e+02
2.880000e-06	-1.795098e-06	-2.106152e-09	-1.329215e+01	-1.397295e+02
2.890000e-06	-1.831900e-06	-2.151476e-09	-1.356466e+01	-1.426826e+02
2.900000e-06	-1.868157e-06	-2.196493e-09	-1.383313e+01	-1.455347e+02
2.910000e-06	-1.903941e-06	-2.238193e-09	-1.409810e+01	-1.482809e+02
2.920000e-06	-1.939081e-06	-2.277753e-09	-1.435830e+01	-1.509161e+02
2.930000e-06	-1.973566e-06	-2.317476e-09	-1.461366e+01	-1.534359e+02
2.940000e-06	-2.007329e-06	-2.355907e-09	-1.486366e+01	-1.558373e+02
