# Temperatura_=_20.0
# Concentracion g/m^3_=_9000.0
# C_Vs_to_Am_M_A/Vsm_=_65563218390.804596
# pendiente_HvsI_1/m_=_3716.3
# ordenada_HvsI_A/m_=_1297.0
# frecuencia_Hz_=_301062.2295072603

Tiempo_(s)	Campo_(V.s)	Magnetizacion_(V.s)	Campo_(kA/m)	Magnetizacion_(A/m)
0.000000e+00	-2.658619e-06	-2.947629e-09	-1.977400e+01	-1.961899e+02
1.000000e-08	-2.658103e-06	-2.949777e-09	-1.977016e+01	-1.962931e+02
2.000000e-08	-2.656426e-06	-2.951006e-09	-1.975768e+01	-1.963772e+02
3.000000e-08	-2.653570e-06	-2.951348e-09	-1.973644e+01	-1.964389e+02
4.000000e-08	-2.649892e-06	-2.951206e-09	-1.970908e+01	-1.964717e+02
5.000000e-08	-2.645487e-06	-2.949780e-09	-1.967633e+01	-1.964672e+02
6.000000e-08	-2.640259e-06	-2.945284e-09	-1.963743e+01	-1.964158e+02
7.000000e-08	-2.634126e-06	-2.938037e-09	-1.959182e+01	-1.963084e+02
8.000000e-08	-2.627019e-06	-2.958798e-09	-1.953896e+01	-1.961375e+02
9.000000e-08	-2.618871e-06	-2.990462e-09	-1.947836e+01	-1.958986e+02
1.000000e-07	-2.609432e-06	-2.967268e-09	-1.940816e+01	-1.955909e+02
1.100000e-07	-2.598782e-06	-2.872524e-09	-1.932894e+01	-1.952180e+02
1.200000e-07	-2.587331e-06	-2.879936e-09	-1.924377e+01	-1.947877e+02
1.300000e-07	-2.575006e-06	-2.975513e-09	-1.915210e+01	-1.943112e+02
1.400000e-07	-2.561747e-06	-2.983201e-09	-1.905349e+01	-1.938020e+02
1.500000e-07	-2.547776e-06	-2.907507e-09	-1.894958e+01	-1.932745e+02
1.600000e-07	-2.532585e-06	-2.908210e-09	-1.883659e+01	-1.927420e+02
1.700000e-07	-2.515848e-06	-2.926119e-09	-1.871211e+01	-1.922155e+02
1.800000e-07	-2.498385e-06	-2.928527e-09	-1.858222e+01	-1.917019e+02
1.900000e-07	-2.480515e-06	-2.997812e-09	-1.844931e+01	-1.912035e+02
2.000000e-07	-2.461700e-06	-2.917889e-09	-1.830937e+01	-1.907171e+02
2.100000e-07	-2.441995e-06	-2.805774e-09	-1.816281e+01	-1.902348e+02
2.200000e-07	-2.421808e-06	-2.920404e-09	-1.801266e+01	-1.897444e+02
2.300000e-07	-2.400824e-06	-3.035219e-09	-1.785659e+01	-1.892310e+02
2.400000e-07	-2.378674e-06	-2.888962e-09	-1.769185e+01	-1.886785e+02
2.500000e-07	-2.355646e-06	-2.820941e-09	-1.752057e+01	-1.880713e+02
2.600000e-07	-2.332042e-06	-2.939396e-09	-1.734502e+01	-1.873962e+02
2.700000e-07	-2.307848e-06	-2.957773e-09	-1.716506e+01	-1.866432e+02
2.800000e-07	-2.282677e-06	-2.868110e-09	-1.697785e+01	-1.858068e+02
2.900000e-07	-2.256258e-06	-2.832977e-09	-1.678136e+01	-1.848863e+02
3.000000e-07	-2.228896e-06	-2.853381e-09	-1.657785e+01	-1.838853e+02
3.100000e-07	-2.200858e-06	-2.840939e-09	-1.636931e+01	-1.828109e+02
3.200000e-07	-2.172113e-06	-2.819189e-09	-1.615551e+01	-1.816728e+02
3.300000e-07	-2.142672e-06	-2.797680e-09	-1.593654e+01	-1.804819e+02
3.400000e-07	-2.112501e-06	-2.788038e-09	-1.571214e+01	-1.792485e+02
3.500000e-07	-2.081527e-06	-2.719997e-09	-1.548176e+01	-1.779813e+02
3.600000e-07	-2.050013e-06	-2.730198e-09	-1.524737e+01	-1.766864e+02
3.700000e-07	-2.018105e-06	-2.783570e-09	-1.501004e+01	-1.753666e+02
3.800000e-07	-1.985228e-06	-2.679088e-09	-1.476551e+01	-1.740216e+02
3.900000e-07	-1.951055e-06	-2.602691e-09	-1.451135e+01	-1.726478e+02
4.000000e-07	-1.916055e-06	-2.699222e-09	-1.425103e+01	-1.712394e+02
4.100000e-07	-1.880540e-06	-2.687486e-09	-1.398688e+01	-1.697892e+02
4.200000e-07	-1.844401e-06	-2.540022e-09	-1.371809e+01	-1.682897e+02
4.300000e-07	-1.807682e-06	-2.562907e-09	-1.344498e+01	-1.667340e+02
4.400000e-07	-1.770467e-06	-2.604003e-09	-1.316819e+01	-1.651166e+02
4.500000e-07	-1.732583e-06	-2.528267e-09	-1.288642e+01	-1.634339e+02
4.600000e-07	-1.693917e-06	-2.466840e-09	-1.259883e+01	-1.616846e+02
4.700000e-07	-1.654689e-06	-2.477442e-09	-1.230707e+01	-1.598692e+02
4.800000e-07	-1.615125e-06	-2.451472e-09	-1.201281e+01	-1.579901e+02
4.900000e-07	-1.575213e-06	-2.404434e-09	-1.171595e+01	-1.560506e+02
5.000000e-07	-1.534856e-06	-2.388498e-09	-1.141579e+01	-1.540543e+02
5.100000e-07	-1.493784e-06	-2.355655e-09	-1.111031e+01	-1.520046e+02
5.200000e-07	-1.451710e-06	-2.311259e-09	-1.079738e+01	-1.499038e+02
5.300000e-07	-1.408718e-06	-2.279481e-09	-1.047761e+01	-1.477530e+02
5.400000e-07	-1.365229e-06	-2.272228e-09	-1.015415e+01	-1.455520e+02
5.500000e-07	-1.321475e-06	-2.221712e-09	-9.828730e+00	-1.432992e+02
5.600000e-07	-1.277384e-06	-2.158585e-09	-9.500791e+00	-1.409916e+02
5.700000e-07	-1.232905e-06	-2.134083e-09	-9.169968e+00	-1.386259e+02
5.800000e-07	-1.188024e-06	-2.125579e-09	-8.836156e+00	-1.361980e+02
5.900000e-07	-1.142686e-06	-2.070656e-09	-8.498947e+00	-1.337041e+02
6.000000e-07	-1.096885e-06	-2.003509e-09	-8.158292e+00	-1.311406e+02
6.100000e-07	-1.050693e-06	-1.983270e-09	-7.814734e+00	-1.285043e+02
6.200000e-07	-1.004136e-06	-1.954091e-09	-7.468454e+00	-1.257927e+02
6.300000e-07	-9.571894e-07	-1.898751e-09	-7.119281e+00	-1.230033e+02
6.400000e-07	-9.098971e-07	-1.846512e-09	-6.767536e+00	-1.201340e+02
6.500000e-07	-8.623725e-07	-1.813458e-09	-6.414062e+00	-1.171823e+02
6.600000e-07	-8.146840e-07	-1.763651e-09	-6.059370e+00	-1.141455e+02
6.700000e-07	-7.667938e-07	-1.708717e-09	-5.703177e+00	-1.110201e+02
6.800000e-07	-7.187160e-07	-1.665193e-09	-5.345589e+00	-1.078022e+02
6.900000e-07	-6.703622e-07	-1.612858e-09	-4.985949e+00	-1.044870e+02
7.000000e-07	-6.215368e-07	-1.552483e-09	-4.622800e+00	-1.010697e+02
7.100000e-07	-5.722036e-07	-1.501215e-09	-4.255875e+00	-9.754485e+01
7.200000e-07	-5.225657e-07	-1.456643e-09	-3.886683e+00	-9.390745e+01
7.300000e-07	-4.726266e-07	-1.391289e-09	-3.515252e+00	-9.015279e+01
7.400000e-07	-4.223174e-07	-1.324913e-09	-3.141068e+00	-8.627686e+01
7.500000e-07	-3.716607e-07	-1.269621e-09	-2.764298e+00	-8.227648e+01
7.600000e-07	-3.207454e-07	-1.210785e-09	-2.385606e+00	-7.814933e+01
7.700000e-07	-2.697733e-07	-1.136270e-09	-2.006491e+00	-7.389397e+01
7.800000e-07	-2.187075e-07	-1.066791e-09	-1.626680e+00	-6.950965e+01
7.900000e-07	-1.675088e-07	-1.005529e-09	-1.245879e+00	-6.499627e+01
8.000000e-07	-1.162137e-07	-9.321602e-10	-8.643617e-01	-6.035418e+01
8.100000e-07	-6.487750e-08	-8.547962e-10	-4.825389e-01	-5.558423e+01
8.200000e-07	-1.353485e-08	-7.818643e-10	-1.006681e-01	-5.068774e+01
8.300000e-07	3.781862e-08	-7.111895e-10	2.812833e-01	-4.566674e+01
8.400000e-07	8.915609e-08	-6.285358e-10	6.631157e-01	-4.052424e+01
8.500000e-07	1.404198e-07	-5.442534e-10	1.044399e+00	-3.526456e+01
8.600000e-07	1.915755e-07	-4.629248e-10	1.424880e+00	-2.989372e+01
8.700000e-07	2.426343e-07	-3.778455e-10	1.804640e+00	-2.441977e+01
8.800000e-07	2.935787e-07	-2.898738e-10	2.183549e+00	-1.885297e+01
8.900000e-07	3.443155e-07	-2.023181e-10	2.560913e+00	-1.320585e+01
9.000000e-07	3.947742e-07	-1.153251e-10	2.936209e+00	-7.492981e+00
9.100000e-07	4.450252e-07	-2.462655e-11	3.309961e+00	-1.730661e+00
9.200000e-07	4.949661e-07	6.231468e-11	3.681406e+00	4.063728e+00
9.300000e-07	5.445809e-07	1.483238e-10	4.050426e+00	9.872404e+00
9.400000e-07	5.939350e-07	2.376638e-10	4.417506e+00	1.567796e+01
9.500000e-07	6.428620e-07	3.301568e-10	4.781410e+00	2.146407e+01
9.600000e-07	6.913538e-07	4.181694e-10	5.142078e+00	2.721613e+01
9.700000e-07	7.395362e-07	5.032413e-10	5.500443e+00	3.292162e+01
9.800000e-07	7.874845e-07	5.931963e-10	5.857068e+00	3.857027e+01
9.900000e-07	8.352434e-07	6.829370e-10	6.212284e+00	4.415395e+01
1.000000e-06	8.828450e-07	7.670296e-10	6.566331e+00	4.966630e+01
1.010000e-06	9.302504e-07	8.475698e-10	6.918918e+00	5.510222e+01
1.020000e-06	9.773551e-07	9.324511e-10	7.269267e+00	6.045725e+01
1.030000e-06	1.023995e-06	1.015791e-09	7.616158e+00	6.572695e+01
1.040000e-06	1.070154e-06	1.094394e-09	7.959481e+00	7.090639e+01
1.050000e-06	1.115990e-06	1.170190e-09	8.300393e+00	7.598985e+01
1.060000e-06	1.161535e-06	1.245786e-09	8.639138e+00	8.097075e+01
1.070000e-06	1.206711e-06	1.320475e-09	8.975145e+00	8.584180e+01
1.080000e-06	1.251427e-06	1.392691e-09	9.307729e+00	9.059546e+01
1.090000e-06	1.295626e-06	1.464987e-09	9.636470e+00	9.522447e+01
1.100000e-06	1.339474e-06	1.533112e-09	9.962599e+00	9.972254e+01
1.110000e-06	1.383154e-06	1.597103e-09	1.028748e+01	1.040849e+02
1.120000e-06	1.426558e-06	1.661386e-09	1.061030e+01	1.083090e+02
1.130000e-06	1.469403e-06	1.725886e-09	1.092897e+01	1.123943e+02
1.140000e-06	1.511437e-06	1.786608e-09	1.124160e+01	1.163428e+02
1.150000e-06	1.552520e-06	1.843826e-09	1.154716e+01	1.201583e+02
1.160000e-06	1.592789e-06	1.901970e-09	1.184667e+01	1.238461e+02
1.170000e-06	1.632584e-06	1.958395e-09	1.214266e+01	1.274122e+02
1.180000e-06	1.672000e-06	2.011549e-09	1.243582e+01	1.308626e+02
1.190000e-06	1.710915e-06	2.061564e-09	1.272526e+01	1.342021e+02
1.200000e-06	1.749231e-06	2.110406e-09	1.301025e+01	1.374344e+02
1.210000e-06	1.786956e-06	2.157391e-09	1.329083e+01	1.405610e+02
1.220000e-06	1.824023e-06	2.203719e-09	1.356652e+01	1.435818e+02
1.230000e-06	1.860453e-06	2.248310e-09	1.383748e+01	1.464949e+02
1.240000e-06	1.896415e-06	2.289919e-09	1.410495e+01	1.492972e+02
1.250000e-06	1.931977e-06	2.331221e-09	1.436945e+01	1.519854e+02
1.260000e-06	1.966919e-06	2.371542e-09	1.462934e+01	1.545565e+02
1.270000e-06	2.000847e-06	2.409018e-09	1.488169e+01	1.570088e+02
1.280000e-06	2.033681e-06	2.443263e-09	1.512590e+01	1.593424e+02
1.290000e-06	2.065702e-06	2.477358e-09	1.536406e+01	1.615598e+02
1.300000e-06	2.097187e-06	2.508674e-09	1.559823e+01	1.636655e+02
1.310000e-06	2.128046e-06	2.538229e-09	1.582776e+01	1.656665e+02
1.320000e-06	2.158203e-06	2.567071e-09	1.605205e+01	1.675708e+02
1.330000e-06	2.187658e-06	2.595347e-09	1.627113e+01	1.693876e+02
1.340000e-06	2.216300e-06	2.621333e-09	1.648416e+01	1.711257e+02
1.350000e-06	2.244265e-06	2.646147e-09	1.669215e+01	1.727929e+02
1.360000e-06	2.271715e-06	2.671909e-09	1.689632e+01	1.743954e+02
1.370000e-06	2.298316e-06	2.696536e-09	1.709417e+01	1.759374e+02
1.380000e-06	2.323730e-06	2.719575e-09	1.728319e+01	1.774208e+02
1.390000e-06	2.348110e-06	2.741687e-09	1.746452e+01	1.788455e+02
1.400000e-06	2.371668e-06	2.761999e-09	1.763974e+01	1.802098e+02
1.410000e-06	2.394449e-06	2.780002e-09	1.780918e+01	1.815112e+02
1.420000e-06	2.416421e-06	2.798688e-09	1.797260e+01	1.827474e+02
1.430000e-06	2.437520e-06	2.818494e-09	1.812953e+01	1.839166e+02
1.440000e-06	2.457856e-06	2.836509e-09	1.828078e+01	1.850185e+02
1.450000e-06	2.477600e-06	2.852654e-09	1.842763e+01	1.860544e+02
1.460000e-06	2.496649e-06	2.869611e-09	1.856931e+01	1.870275e+02
1.470000e-06	2.514802e-06	2.886358e-09	1.870433e+01	1.879424e+02
1.480000e-06	2.532008e-06	2.900260e-09	1.883230e+01	1.888049e+02
1.490000e-06	2.548288e-06	2.912857e-09	1.895339e+01	1.896209e+02
1.500000e-06	2.563498e-06	2.925342e-09	1.906652e+01	1.903956e+02
1.510000e-06	2.577621e-06	2.937858e-09	1.917156e+01	1.911333e+02
1.520000e-06	2.590829e-06	2.949747e-09	1.926979e+01	1.918361e+02
1.530000e-06	2.603154e-06	2.960582e-09	1.936146e+01	1.925044e+02
1.540000e-06	2.614521e-06	2.971538e-09	1.944601e+01	1.931364e+02
1.550000e-06	2.624683e-06	2.981436e-09	1.952158e+01	1.937288e+02
1.560000e-06	2.633513e-06	2.989884e-09	1.958726e+01	1.942773e+02
1.570000e-06	2.641346e-06	2.997990e-09	1.964552e+01	1.947777e+02
1.580000e-06	2.648386e-06	3.006548e-09	1.969789e+01	1.952265e+02
1.590000e-06	2.654535e-06	3.013480e-09	1.974362e+01	1.956217e+02
1.600000e-06	2.659779e-06	3.017759e-09	1.978262e+01	1.959637e+02
1.610000e-06	2.664186e-06	3.022254e-09	1.981540e+01	1.962548e+02
1.620000e-06	2.667845e-06	3.027378e-09	1.984261e+01	1.964998e+02
1.630000e-06	2.670627e-06	3.033002e-09	1.986330e+01	1.967048e+02
1.640000e-06	2.672214e-06	3.038275e-09	1.987511e+01	1.968766e+02
1.650000e-06	2.672670e-06	3.042538e-09	1.987850e+01	1.970218e+02
1.660000e-06	2.672270e-06	3.046363e-09	1.987553e+01	1.971456e+02
1.670000e-06	2.671044e-06	3.048083e-09	1.986641e+01	1.972506e+02
1.680000e-06	2.668980e-06	3.048331e-09	1.985105e+01	1.973368e+02
1.690000e-06	2.666079e-06	3.046701e-09	1.982948e+01	1.974008e+02
1.700000e-06	2.662427e-06	3.045526e-09	1.980232e+01	1.974365e+02
1.710000e-06	2.658143e-06	3.047307e-09	1.977046e+01	1.974356e+02
1.720000e-06	2.653056e-06	3.053994e-09	1.973262e+01	1.973885e+02
1.730000e-06	2.646853e-06	3.052393e-09	1.968648e+01	1.972859e+02
1.740000e-06	2.639470e-06	3.005940e-09	1.963157e+01	1.971203e+02
1.750000e-06	2.630838e-06	2.982203e-09	1.956737e+01	1.968869e+02
1.760000e-06	2.620819e-06	3.055969e-09	1.949285e+01	1.965846e+02
1.770000e-06	2.610002e-06	3.100704e-09	1.941240e+01	1.962168e+02
1.780000e-06	2.599175e-06	3.042585e-09	1.933187e+01	1.957909e+02
1.790000e-06	2.587729e-06	2.941179e-09	1.924674e+01	1.953178e+02
1.800000e-06	2.574399e-06	2.984643e-09	1.914759e+01	1.948111e+02
1.810000e-06	2.559544e-06	2.977962e-09	1.903710e+01	1.942850e+02
1.820000e-06	2.544351e-06	2.951615e-09	1.892411e+01	1.937530e+02
1.830000e-06	2.528427e-06	2.968074e-09	1.880566e+01	1.932264e+02
1.840000e-06	2.511090e-06	2.899252e-09	1.867672e+01	1.927124e+02
1.850000e-06	2.493018e-06	2.850071e-09	1.854230e+01	1.922135e+02
1.860000e-06	2.474561e-06	2.961315e-09	1.840503e+01	1.917270e+02
1.870000e-06	2.455195e-06	2.993528e-09	1.826099e+01	1.912453e+02
1.880000e-06	2.434990e-06	2.775640e-09	1.811071e+01	1.907566e+02
1.890000e-06	2.414077e-06	2.806602e-09	1.795517e+01	1.902459e+02
1.900000e-06	2.391936e-06	2.976900e-09	1.779049e+01	1.896973e+02
1.910000e-06	2.368540e-06	2.854185e-09	1.761647e+01	1.890952e+02
1.920000e-06	2.344299e-06	2.726315e-09	1.743618e+01	1.884258e+02
1.930000e-06	2.319346e-06	2.863540e-09	1.725058e+01	1.876792e+02
1.940000e-06	2.293679e-06	2.849785e-09	1.705968e+01	1.868495e+02
1.950000e-06	2.267096e-06	2.737823e-09	1.686197e+01	1.859355e+02
1.960000e-06	2.239622e-06	2.776946e-09	1.665762e+01	1.849406e+02
1.970000e-06	2.211635e-06	2.777900e-09	1.644946e+01	1.838717e+02
1.980000e-06	2.182904e-06	2.722129e-09	1.623577e+01	1.827384e+02
1.990000e-06	2.153030e-06	2.715892e-09	1.601358e+01	1.815515e+02
2.000000e-06	2.122413e-06	2.716188e-09	1.578586e+01	1.803214e+02
2.010000e-06	2.091122e-06	2.720772e-09	1.555312e+01	1.790570e+02
2.020000e-06	2.058899e-06	2.639350e-09	1.531346e+01	1.777645e+02
2.030000e-06	2.026066e-06	2.598432e-09	1.506926e+01	1.764471e+02
2.040000e-06	1.992707e-06	2.710281e-09	1.482114e+01	1.751045e+02
2.050000e-06	1.958536e-06	2.631505e-09	1.456699e+01	1.737335e+02
2.060000e-06	1.923615e-06	2.495935e-09	1.430726e+01	1.723284e+02
2.070000e-06	1.888172e-06	2.594310e-09	1.404365e+01	1.708820e+02
2.080000e-06	1.852255e-06	2.616487e-09	1.377651e+01	1.693869e+02
2.090000e-06	1.815702e-06	2.479276e-09	1.350464e+01	1.678360e+02
2.100000e-06	1.778355e-06	2.468651e-09	1.322686e+01	1.662237e+02
2.110000e-06	1.740212e-06	2.498547e-09	1.294317e+01	1.645463e+02
2.120000e-06	1.701228e-06	2.454576e-09	1.265321e+01	1.628023e+02
2.130000e-06	1.661522e-06	2.403605e-09	1.235789e+01	1.609922e+02
2.140000e-06	1.621342e-06	2.379330e-09	1.205905e+01	1.591182e+02
2.150000e-06	1.580727e-06	2.382720e-09	1.175696e+01	1.571835e+02
2.160000e-06	1.539504e-06	2.327923e-09	1.145036e+01	1.551917e+02
2.170000e-06	1.497725e-06	2.285328e-09	1.113962e+01	1.531463e+02
2.180000e-06	1.455564e-06	2.292840e-09	1.082604e+01	1.510496e+02
2.190000e-06	1.412881e-06	2.243189e-09	1.050858e+01	1.489030e+02
2.200000e-06	1.369595e-06	2.177174e-09	1.018663e+01	1.467062e+02
2.210000e-06	1.325879e-06	2.172410e-09	9.861482e+00	1.444577e+02
2.220000e-06	1.281869e-06	2.159793e-09	9.534152e+00	1.421548e+02
2.230000e-06	1.237586e-06	2.086759e-09	9.204784e+00	1.397939e+02
2.240000e-06	1.193013e-06	2.037507e-09	8.873263e+00	1.373712e+02
2.250000e-06	1.148058e-06	2.035513e-09	8.538907e+00	1.348827e+02
2.260000e-06	1.102531e-06	2.003629e-09	8.200289e+00	1.323249e+02
2.270000e-06	1.056464e-06	1.931420e-09	7.857655e+00	1.296945e+02
2.280000e-06	1.010062e-06	1.902062e-09	7.512531e+00	1.269889e+02
2.290000e-06	9.633771e-07	1.881549e-09	7.165303e+00	1.242058e+02
2.300000e-06	9.164686e-07	1.823203e-09	6.816413e+00	1.213428e+02
2.310000e-06	8.693702e-07	1.772609e-09	6.466109e+00	1.183977e+02
2.320000e-06	8.220124e-07	1.736416e-09	6.113876e+00	1.153676e+02
2.330000e-06	7.742964e-07	1.690846e-09	5.758980e+00	1.122493e+02
2.340000e-06	7.262409e-07	1.630160e-09	5.401557e+00	1.090387e+02
2.350000e-06	6.778393e-07	1.588800e-09	5.041561e+00	1.057313e+02
2.360000e-06	6.290972e-07	1.548325e-09	4.679032e+00	1.023220e+02
2.370000e-06	5.800254e-07	1.483372e-09	4.314051e+00	9.880556e+01
2.380000e-06	5.307266e-07	1.425044e-09	3.947382e+00	9.517694e+01
2.390000e-06	4.812937e-07	1.381175e-09	3.579715e+00	9.143138e+01
2.400000e-06	4.315875e-07	1.323241e-09	3.210016e+00	8.756482e+01
2.410000e-06	3.816301e-07	1.252384e-09	2.838447e+00	8.357400e+01
2.420000e-06	3.316083e-07	1.194199e-09	2.466401e+00	7.945655e+01
2.430000e-06	2.815595e-07	1.139535e-09	2.094153e+00	7.521096e+01
2.440000e-06	2.313537e-07	1.069339e-09	1.720738e+00	7.083645e+01
2.450000e-06	1.810949e-07	9.919841e-10	1.346928e+00	6.633287e+01
2.460000e-06	1.308045e-07	9.276963e-10	9.728836e-01	6.170054e+01
2.470000e-06	8.043937e-08	8.609866e-10	5.982834e-01	5.694027e+01
2.480000e-06	3.002417e-08	7.832945e-10	2.233106e-01	5.205334e+01
2.490000e-06	-2.041535e-08	7.073129e-10	-1.518431e-01	4.704174e+01
2.500000e-06	-7.078973e-08	6.326899e-10	-5.265123e-01	4.190838e+01
2.510000e-06	-1.211471e-07	5.531281e-10	-9.010550e-01	3.665747e+01
2.520000e-06	-1.714606e-07	4.680064e-10	-1.275271e+00	3.129492e+01
2.530000e-06	-2.216203e-07	3.882738e-10	-1.648344e+00	2.582861e+01
2.540000e-06	-2.717019e-07	3.073192e-10	-2.020836e+00	2.026864e+01
2.550000e-06	-3.217987e-07	2.201101e-10	-2.393440e+00	1.462737e+01
2.560000e-06	-3.717764e-07	1.355739e-10	-2.765159e+00	8.919262e+00
2.570000e-06	-4.215303e-07	5.311419e-11	-3.135213e+00	3.160492e+00
2.580000e-06	-4.711911e-07	-3.665679e-11	-3.504575e+00	-2.631610e+00
2.590000e-06	-5.207091e-07	-1.265186e-10	-3.872875e+00	-8.439267e+00
2.600000e-06	-5.698934e-07	-2.080845e-10	-4.238693e+00	-1.424501e+01
2.610000e-06	-6.186907e-07	-2.926849e-10	-4.601632e+00	-2.003244e+01
2.620000e-06	-6.671125e-07	-3.843941e-10	-4.961778e+00	-2.578679e+01
2.630000e-06	-7.150265e-07	-4.741189e-10	-5.318148e+00	-3.149539e+01
2.640000e-06	-7.624998e-07	-5.542100e-10	-5.671240e+00	-3.714781e+01
2.650000e-06	-8.097675e-07	-6.361364e-10	-6.022802e+00	-4.273577e+01
2.660000e-06	-8.567497e-07	-7.223905e-10	-6.372242e+00	-4.825281e+01
2.670000e-06	-9.034495e-07	-8.042358e-10	-6.719581e+00	-5.369376e+01
2.680000e-06	-9.499158e-07	-8.822039e-10	-7.065183e+00	-5.905412e+01
2.690000e-06	-9.962083e-07	-9.613300e-10	-7.409492e+00	-6.432949e+01
2.700000e-06	-1.042316e-06	-1.040886e-09	-7.752429e+00	-6.951497e+01
2.710000e-06	-1.088079e-06	-1.117147e-09	-8.092800e+00	-7.460491e+01
2.720000e-06	-1.133397e-06	-1.194014e-09	-8.429863e+00	-7.959278e+01
2.730000e-06	-1.178256e-06	-1.270227e-09	-8.763509e+00	-8.447134e+01
2.740000e-06	-1.222696e-06	-1.343355e-09	-9.094040e+00	-8.923305e+01
2.750000e-06	-1.266844e-06	-1.413316e-09	-9.422395e+00	-9.387060e+01
2.760000e-06	-1.310780e-06	-1.482460e-09	-9.749183e+00	-9.837762e+01
2.770000e-06	-1.354440e-06	-1.550016e-09	-1.007391e+01	-1.027492e+02
2.780000e-06	-1.397637e-06	-1.613518e-09	-1.039519e+01	-1.069826e+02
2.790000e-06	-1.440242e-06	-1.674166e-09	-1.071208e+01	-1.110772e+02
2.800000e-06	-1.482358e-06	-1.733409e-09	-1.102532e+01	-1.150348e+02
2.810000e-06	-1.523967e-06	-1.792631e-09	-1.133480e+01	-1.188590e+02
2.820000e-06	-1.564972e-06	-1.849064e-09	-1.163978e+01	-1.225552e+02
2.830000e-06	-1.605479e-06	-1.903721e-09	-1.194106e+01	-1.261292e+02
2.840000e-06	-1.645617e-06	-1.956425e-09	-1.223959e+01	-1.295871e+02
2.850000e-06	-1.685303e-06	-2.005955e-09	-1.253477e+01	-1.329338e+02
2.860000e-06	-1.724292e-06	-2.055478e-09	-1.282476e+01	-1.361731e+02
2.870000e-06	-1.762362e-06	-2.105225e-09	-1.310791e+01	-1.393067e+02
2.880000e-06	-1.799488e-06	-2.150414e-09	-1.338404e+01	-1.423345e+02
2.890000e-06	-1.835908e-06	-2.192285e-09	-1.365492e+01	-1.452548e+02
2.900000e-06	-1.871873e-06	-2.234652e-09	-1.392242e+01	-1.480645e+02
2.910000e-06	-1.907306e-06	-2.276081e-09	-1.418596e+01	-1.507604e+02
2.920000e-06	-1.942085e-06	-2.316487e-09	-1.444463e+01	-1.533394e+02
2.930000e-06	-1.976225e-06	-2.354961e-09	-1.469855e+01	-1.557996e+02
2.940000e-06	-2.009670e-06	-2.391687e-09	-1.494731e+01	-1.581410e+02
