# Temperatura_=_20.0
# Concentracion g/m^3_=_9000.0
# C_Vs_to_Am_M_A/Vsm_=_65563218390.804596
# pendiente_HvsI_1/m_=_3716.3
# ordenada_HvsI_A/m_=_1297.0
# frecuencia_Hz_=_301060.88887134934

Tiempo_(s)	Campo_(V.s)	Magnetizacion_(V.s)	Campo_(kA/m)	Magnetizacion_(A/m)
0.000000e+00	-2.669061e-06	-2.950234e-09	-1.977495e+01	-1.951217e+02
1.000000e-08	-2.668854e-06	-2.951484e-09	-1.977342e+01	-1.951657e+02
2.000000e-08	-2.667542e-06	-2.951082e-09	-1.976370e+01	-1.951953e+02
3.000000e-08	-2.665027e-06	-2.951030e-09	-1.974507e+01	-1.952095e+02
4.000000e-08	-2.661648e-06	-2.950974e-09	-1.972004e+01	-1.952037e+02
5.000000e-08	-2.657544e-06	-2.948882e-09	-1.968963e+01	-1.951701e+02
6.000000e-08	-2.652635e-06	-2.947233e-09	-1.965325e+01	-1.950991e+02
7.000000e-08	-2.646809e-06	-2.951004e-09	-1.961009e+01	-1.949806e+02
8.000000e-08	-2.640060e-06	-2.962440e-09	-1.956009e+01	-1.948056e+02
9.000000e-08	-2.632341e-06	-2.946783e-09	-1.950290e+01	-1.945679e+02
1.000000e-07	-2.623413e-06	-2.913341e-09	-1.943675e+01	-1.942654e+02
1.100000e-07	-2.613161e-06	-2.916196e-09	-1.936080e+01	-1.939008e+02
1.200000e-07	-2.601922e-06	-2.959393e-09	-1.927752e+01	-1.934821e+02
1.300000e-07	-2.589941e-06	-2.947575e-09	-1.918876e+01	-1.930217e+02
1.400000e-07	-2.577098e-06	-2.872239e-09	-1.909361e+01	-1.925356e+02
1.500000e-07	-2.563425e-06	-2.933695e-09	-1.899230e+01	-1.920416e+02
1.600000e-07	-2.548678e-06	-2.953612e-09	-1.888304e+01	-1.915572e+02
1.700000e-07	-2.532450e-06	-2.914531e-09	-1.876281e+01	-1.910976e+02
1.800000e-07	-2.515196e-06	-2.944653e-09	-1.863498e+01	-1.906737e+02
1.900000e-07	-2.497494e-06	-2.949865e-09	-1.850382e+01	-1.902907e+02
2.000000e-07	-2.479080e-06	-2.856616e-09	-1.836739e+01	-1.899473e+02
2.100000e-07	-2.459650e-06	-2.892257e-09	-1.822344e+01	-1.896355e+02
2.200000e-07	-2.439532e-06	-2.996665e-09	-1.807439e+01	-1.893412e+02
2.300000e-07	-2.418858e-06	-2.869440e-09	-1.792121e+01	-1.890458e+02
2.400000e-07	-2.397145e-06	-2.816592e-09	-1.776034e+01	-1.887277e+02
2.500000e-07	-2.374327e-06	-2.945615e-09	-1.759129e+01	-1.883648e+02
2.600000e-07	-2.350890e-06	-2.957557e-09	-1.741764e+01	-1.879365e+02
2.700000e-07	-2.326904e-06	-2.847372e-09	-1.723993e+01	-1.874257e+02
2.800000e-07	-2.301978e-06	-2.889040e-09	-1.705525e+01	-1.868203e+02
2.900000e-07	-2.275844e-06	-2.888198e-09	-1.686163e+01	-1.861140e+02
3.000000e-07	-2.248674e-06	-2.846652e-09	-1.666033e+01	-1.853063e+02
3.100000e-07	-2.220845e-06	-2.851222e-09	-1.645415e+01	-1.844023e+02
3.200000e-07	-2.192379e-06	-2.836276e-09	-1.624324e+01	-1.834112e+02
3.300000e-07	-2.163184e-06	-2.793515e-09	-1.602694e+01	-1.823447e+02
3.400000e-07	-2.133285e-06	-2.784326e-09	-1.580542e+01	-1.812155e+02
3.500000e-07	-2.102586e-06	-2.790542e-09	-1.557796e+01	-1.800355e+02
3.600000e-07	-2.071234e-06	-2.767360e-09	-1.534568e+01	-1.788141e+02
3.700000e-07	-2.039493e-06	-2.731699e-09	-1.511052e+01	-1.775575e+02
3.800000e-07	-2.006968e-06	-2.687952e-09	-1.486954e+01	-1.762677e+02
3.900000e-07	-1.973108e-06	-2.727870e-09	-1.461867e+01	-1.749433e+02
4.000000e-07	-1.938198e-06	-2.705168e-09	-1.436002e+01	-1.735794e+02
4.100000e-07	-1.902820e-06	-2.635980e-09	-1.409791e+01	-1.721689e+02
4.200000e-07	-1.866933e-06	-2.620574e-09	-1.383203e+01	-1.707037e+02
4.300000e-07	-1.830316e-06	-2.645897e-09	-1.356073e+01	-1.691759e+02
4.400000e-07	-1.793111e-06	-2.596013e-09	-1.328508e+01	-1.675791e+02
4.500000e-07	-1.755353e-06	-2.540589e-09	-1.300533e+01	-1.659087e+02
4.600000e-07	-1.716892e-06	-2.537017e-09	-1.272038e+01	-1.641632e+02
4.700000e-07	-1.677843e-06	-2.511006e-09	-1.243106e+01	-1.623433e+02
4.800000e-07	-1.638422e-06	-2.482463e-09	-1.213899e+01	-1.604524e+02
4.900000e-07	-1.598613e-06	-2.444661e-09	-1.184405e+01	-1.584952e+02
5.000000e-07	-1.558272e-06	-2.416255e-09	-1.154517e+01	-1.564772e+02
5.100000e-07	-1.517198e-06	-2.373580e-09	-1.124086e+01	-1.544036e+02
5.200000e-07	-1.475177e-06	-2.361346e-09	-1.092952e+01	-1.522787e+02
5.300000e-07	-1.432334e-06	-2.330328e-09	-1.061210e+01	-1.501051e+02
5.400000e-07	-1.389027e-06	-2.277058e-09	-1.029124e+01	-1.478833e+02
5.500000e-07	-1.345421e-06	-2.238851e-09	-9.968165e+00	-1.456115e+02
5.600000e-07	-1.301455e-06	-2.213091e-09	-9.642426e+00	-1.432866e+02
5.700000e-07	-1.256975e-06	-2.186259e-09	-9.312876e+00	-1.409036e+02
5.800000e-07	-1.211960e-06	-2.132900e-09	-8.979359e+00	-1.384571e+02
5.900000e-07	-1.166594e-06	-2.086120e-09	-8.643240e+00	-1.359416e+02
6.000000e-07	-1.120825e-06	-2.046357e-09	-8.304140e+00	-1.333519e+02
6.100000e-07	-1.074571e-06	-2.024157e-09	-7.961447e+00	-1.306837e+02
6.200000e-07	-1.027903e-06	-1.974873e-09	-7.615687e+00	-1.279340e+02
6.300000e-07	-9.809250e-07	-1.916442e-09	-7.267630e+00	-1.251007e+02
6.400000e-07	-9.337400e-07	-1.874658e-09	-6.918038e+00	-1.221824e+02
6.500000e-07	-8.863233e-07	-1.835507e-09	-6.566730e+00	-1.191784e+02
6.600000e-07	-8.386704e-07	-1.787709e-09	-6.213672e+00	-1.160880e+02
6.700000e-07	-7.907236e-07	-1.731027e-09	-5.858436e+00	-1.129100e+02
6.800000e-07	-7.423358e-07	-1.679582e-09	-5.499933e+00	-1.096425e+02
6.900000e-07	-6.934736e-07	-1.622358e-09	-5.137915e+00	-1.062828e+02
7.000000e-07	-6.442143e-07	-1.578703e-09	-4.772955e+00	-1.028274e+02
7.100000e-07	-5.945580e-07	-1.528563e-09	-4.405054e+00	-9.927179e+01
7.200000e-07	-5.445597e-07	-1.465547e-09	-4.034619e+00	-9.561132e+01
7.300000e-07	-4.942105e-07	-1.402871e-09	-3.661583e+00	-9.184114e+01
7.400000e-07	-4.435869e-07	-1.350170e-09	-3.286516e+00	-8.795675e+01
7.500000e-07	-3.927904e-07	-1.293605e-09	-2.910167e+00	-8.395433e+01
7.600000e-07	-3.418184e-07	-1.222316e-09	-2.532517e+00	-7.983100e+01
7.700000e-07	-2.907207e-07	-1.154661e-09	-2.153937e+00	-7.558493e+01
7.800000e-07	-2.394780e-07	-1.086609e-09	-1.774282e+00	-7.121533e+01
7.900000e-07	-1.881607e-07	-1.018973e-09	-1.394075e+00	-6.672239e+01
8.000000e-07	-1.368205e-07	-9.468716e-10	-1.013697e+00	-6.210708e+01
8.100000e-07	-8.545438e-08	-8.765961e-10	-6.331277e-01	-5.737100e+01
8.200000e-07	-3.405188e-08	-8.022229e-10	-2.522889e-01	-5.251628e+01
8.300000e-07	1.736493e-08	-7.250329e-10	1.286560e-01	-4.754553e+01
8.400000e-07	6.877308e-08	-6.489749e-10	5.095367e-01	-4.246196e+01
8.500000e-07	1.201817e-07	-5.695406e-10	8.904206e-01	-3.726959e+01
8.600000e-07	1.715371e-07	-4.883121e-10	1.270911e+00	-3.197352e+01
8.700000e-07	2.228718e-07	-4.018302e-10	1.651247e+00	-2.658026e+01
8.800000e-07	2.741361e-07	-3.161990e-10	2.031062e+00	-2.109806e+01
8.900000e-07	3.252190e-07	-2.285009e-10	2.409534e+00	-1.553705e+01
9.000000e-07	3.761524e-07	-1.422915e-10	2.786897e+00	-9.909348e+00
9.100000e-07	4.269481e-07	-5.551781e-11	3.163240e+00	-4.228879e+00
9.200000e-07	4.775144e-07	3.253762e-11	3.537883e+00	1.488968e+00
9.300000e-07	5.277705e-07	1.217080e-10	3.910228e+00	7.227854e+00
9.400000e-07	5.776743e-07	2.100960e-10	4.279963e+00	1.297114e+01
9.500000e-07	6.271802e-07	2.936579e-10	4.646750e+00	1.870257e+01
9.600000e-07	6.762881e-07	3.805190e-10	5.010588e+00	2.440694e+01
9.700000e-07	7.249293e-07	4.709543e-10	5.370969e+00	3.007065e+01
9.800000e-07	7.731602e-07	5.612710e-10	5.728310e+00	3.568200e+01
9.900000e-07	8.210493e-07	6.437219e-10	6.083118e+00	4.123136e+01
1.000000e-06	8.686590e-07	7.255905e-10	6.435856e+00	4.671101e+01
1.010000e-06	9.160988e-07	8.094389e-10	6.787336e+00	5.211482e+01
1.020000e-06	9.633850e-07	8.938301e-10	7.137677e+00	5.743777e+01
1.030000e-06	1.010440e-06	9.752653e-10	7.486305e+00	6.267540e+01
1.040000e-06	1.057114e-06	1.051366e-09	7.832111e+00	6.782331e+01
1.050000e-06	1.103321e-06	1.127601e-09	8.174458e+00	7.287675e+01
1.060000e-06	1.149104e-06	1.201889e-09	8.513659e+00	7.783042e+01
1.070000e-06	1.194478e-06	1.277161e-09	8.849833e+00	8.267850e+01
1.080000e-06	1.239421e-06	1.349974e-09	9.182817e+00	8.741489e+01
1.090000e-06	1.283967e-06	1.419132e-09	9.512853e+00	9.203365e+01
1.100000e-06	1.328037e-06	1.485458e-09	9.839370e+00	9.652953e+01
1.110000e-06	1.371703e-06	1.552505e-09	1.016289e+01	1.008985e+02
1.120000e-06	1.415147e-06	1.617610e-09	1.048476e+01	1.051385e+02
1.130000e-06	1.458361e-06	1.677976e-09	1.080493e+01	1.092490e+02
1.140000e-06	1.501089e-06	1.739054e-09	1.112150e+01	1.132321e+02
1.150000e-06	1.542943e-06	1.798362e-09	1.143160e+01	1.170915e+02
1.160000e-06	1.583788e-06	1.856433e-09	1.173422e+01	1.208324e+02
1.170000e-06	1.623834e-06	1.910929e-09	1.203092e+01	1.244604e+02
1.180000e-06	1.663388e-06	1.964361e-09	1.232397e+01	1.279815e+02
1.190000e-06	1.702593e-06	2.015281e-09	1.261444e+01	1.314005e+02
1.200000e-06	1.741276e-06	2.066055e-09	1.290104e+01	1.347208e+02
1.210000e-06	1.779344e-06	2.116155e-09	1.318308e+01	1.379437e+02
1.220000e-06	1.816858e-06	2.162482e-09	1.346102e+01	1.410686e+02
1.230000e-06	1.853746e-06	2.207085e-09	1.373432e+01	1.440929e+02
1.240000e-06	1.889961e-06	2.249811e-09	1.400264e+01	1.470124e+02
1.250000e-06	1.925627e-06	2.293222e-09	1.426688e+01	1.498225e+02
1.260000e-06	1.960874e-06	2.333473e-09	1.452803e+01	1.525186e+02
1.270000e-06	1.995480e-06	2.370041e-09	1.478442e+01	1.550974e+02
1.280000e-06	2.029077e-06	2.404816e-09	1.503334e+01	1.575572e+02
1.290000e-06	2.061606e-06	2.442183e-09	1.527435e+01	1.598987e+02
1.300000e-06	2.093317e-06	2.478212e-09	1.550929e+01	1.621251e+02
1.310000e-06	2.124440e-06	2.508507e-09	1.573988e+01	1.642422e+02
1.320000e-06	2.154921e-06	2.536103e-09	1.596572e+01	1.662572e+02
1.330000e-06	2.184699e-06	2.565504e-09	1.618634e+01	1.681787e+02
1.340000e-06	2.213763e-06	2.595292e-09	1.640167e+01	1.700152e+02
1.350000e-06	2.242047e-06	2.621676e-09	1.661122e+01	1.717746e+02
1.360000e-06	2.269695e-06	2.647596e-09	1.681607e+01	1.734630e+02
1.370000e-06	2.296764e-06	2.673338e-09	1.701662e+01	1.750843e+02
1.380000e-06	2.322939e-06	2.698382e-09	1.721055e+01	1.766401e+02
1.390000e-06	2.347922e-06	2.720850e-09	1.739565e+01	1.781298e+02
1.400000e-06	2.371833e-06	2.741297e-09	1.757280e+01	1.795508e+02
1.410000e-06	2.394951e-06	2.761744e-09	1.774409e+01	1.808999e+02
1.420000e-06	2.417303e-06	2.782397e-09	1.790969e+01	1.821735e+02
1.430000e-06	2.438798e-06	2.802062e-09	1.806895e+01	1.833693e+02
1.440000e-06	2.459499e-06	2.819263e-09	1.822232e+01	1.844864e+02
1.450000e-06	2.479471e-06	2.835545e-09	1.837029e+01	1.855263e+02
1.460000e-06	2.498790e-06	2.851203e-09	1.851342e+01	1.864928e+02
1.470000e-06	2.517352e-06	2.866912e-09	1.865095e+01	1.873921e+02
1.480000e-06	2.534909e-06	2.881843e-09	1.878103e+01	1.882315e+02
1.490000e-06	2.551554e-06	2.894943e-09	1.890435e+01	1.890193e+02
1.500000e-06	2.567332e-06	2.906837e-09	1.902125e+01	1.897635e+02
1.510000e-06	2.582050e-06	2.918814e-09	1.913030e+01	1.904706e+02
1.520000e-06	2.595709e-06	2.930840e-09	1.923150e+01	1.911449e+02
1.530000e-06	2.608387e-06	2.941344e-09	1.932542e+01	1.917882e+02
1.540000e-06	2.620062e-06	2.951417e-09	1.941192e+01	1.923994e+02
1.550000e-06	2.630739e-06	2.960871e-09	1.949103e+01	1.929750e+02
1.560000e-06	2.640236e-06	2.968958e-09	1.956139e+01	1.935096e+02
1.570000e-06	2.648529e-06	2.976395e-09	1.962283e+01	1.939971e+02
1.580000e-06	2.655898e-06	2.982343e-09	1.967743e+01	1.944317e+02
1.590000e-06	2.662429e-06	2.987225e-09	1.972582e+01	1.948091e+02
1.600000e-06	2.668067e-06	2.992091e-09	1.976759e+01	1.951274e+02
1.610000e-06	2.672837e-06	2.997339e-09	1.980293e+01	1.953875e+02
1.620000e-06	2.676803e-06	3.001743e-09	1.983232e+01	1.955931e+02
1.630000e-06	2.679963e-06	3.004332e-09	1.985573e+01	1.957507e+02
1.640000e-06	2.682123e-06	3.007514e-09	1.987173e+01	1.958684e+02
1.650000e-06	2.683037e-06	3.009635e-09	1.987850e+01	1.959549e+02
1.660000e-06	2.682882e-06	3.009449e-09	1.987736e+01	1.960181e+02
1.670000e-06	2.681948e-06	3.009974e-09	1.987044e+01	1.960639e+02
1.680000e-06	2.680193e-06	3.011442e-09	1.985743e+01	1.960953e+02
1.690000e-06	2.677591e-06	3.009938e-09	1.983816e+01	1.961116e+02
1.700000e-06	2.674198e-06	3.009492e-09	1.981302e+01	1.961085e+02
1.710000e-06	2.670075e-06	3.010714e-09	1.978247e+01	1.960786e+02
1.720000e-06	2.665325e-06	3.009118e-09	1.974728e+01	1.960124e+02
1.730000e-06	2.659645e-06	2.991951e-09	1.970519e+01	1.958997e+02
1.740000e-06	2.652645e-06	2.975793e-09	1.965333e+01	1.957313e+02
1.750000e-06	2.644396e-06	2.995825e-09	1.959221e+01	1.955007e+02
1.760000e-06	2.634858e-06	3.024301e-09	1.952155e+01	1.952054e+02
1.770000e-06	2.624211e-06	2.966369e-09	1.944267e+01	1.948474e+02
1.780000e-06	2.613242e-06	2.959789e-09	1.936140e+01	1.944342e+02
1.790000e-06	2.602052e-06	2.983882e-09	1.927849e+01	1.939778e+02
1.800000e-06	2.589536e-06	2.994527e-09	1.918576e+01	1.934939e+02
1.810000e-06	2.575218e-06	2.904180e-09	1.907968e+01	1.930001e+02
1.820000e-06	2.560068e-06	2.917877e-09	1.896743e+01	1.925142e+02
1.830000e-06	2.544485e-06	2.943750e-09	1.885198e+01	1.920515e+02
1.840000e-06	2.527702e-06	2.825434e-09	1.872763e+01	1.916237e+02
1.850000e-06	2.509790e-06	2.896317e-09	1.859493e+01	1.912365e+02
1.860000e-06	2.491412e-06	2.953962e-09	1.845877e+01	1.908894e+02
1.870000e-06	2.472356e-06	2.827200e-09	1.831757e+01	1.905751e+02
1.880000e-06	2.452360e-06	2.803540e-09	1.816943e+01	1.902800e+02
1.890000e-06	2.431632e-06	2.964571e-09	1.801586e+01	1.899859e+02
1.900000e-06	2.410007e-06	2.875814e-09	1.785564e+01	1.896716e+02
1.910000e-06	2.387053e-06	2.750624e-09	1.768557e+01	1.893147e+02
1.920000e-06	2.362960e-06	2.892098e-09	1.750707e+01	1.888946e+02
1.930000e-06	2.338186e-06	2.912783e-09	1.732352e+01	1.883936e+02
1.940000e-06	2.312749e-06	2.751361e-09	1.713506e+01	1.877990e+02
1.950000e-06	2.286459e-06	2.816987e-09	1.694027e+01	1.871038e+02
1.960000e-06	2.259237e-06	2.855940e-09	1.673859e+01	1.863071e+02
1.970000e-06	2.231288e-06	2.745254e-09	1.653152e+01	1.854133e+02
1.980000e-06	2.202766e-06	2.769589e-09	1.632020e+01	1.844312e+02
1.990000e-06	2.173345e-06	2.797377e-09	1.610222e+01	1.833724e+02
2.000000e-06	2.142942e-06	2.742506e-09	1.587696e+01	1.822496e+02
2.010000e-06	2.111912e-06	2.703406e-09	1.564706e+01	1.810748e+02
2.020000e-06	2.080064e-06	2.708012e-09	1.541110e+01	1.798578e+02
2.030000e-06	2.047337e-06	2.726915e-09	1.516863e+01	1.786050e+02
2.040000e-06	2.014129e-06	2.681330e-09	1.492259e+01	1.773191e+02
2.050000e-06	1.980232e-06	2.597462e-09	1.467145e+01	1.759988e+02
2.060000e-06	1.945504e-06	2.657363e-09	1.441415e+01	1.746397e+02
2.070000e-06	1.910202e-06	2.660441e-09	1.415260e+01	1.732348e+02
2.080000e-06	1.874338e-06	2.553520e-09	1.388689e+01	1.717761e+02
2.090000e-06	1.837799e-06	2.553103e-09	1.361617e+01	1.702556e+02
2.100000e-06	1.800604e-06	2.562261e-09	1.334059e+01	1.686667e+02
2.110000e-06	1.762688e-06	2.520811e-09	1.305968e+01	1.670046e+02
2.120000e-06	1.723896e-06	2.479278e-09	1.277227e+01	1.652673e+02
2.130000e-06	1.684234e-06	2.452993e-09	1.247841e+01	1.634556e+02
2.140000e-06	1.643973e-06	2.436047e-09	1.218012e+01	1.615723e+02
2.150000e-06	1.603372e-06	2.410119e-09	1.187931e+01	1.596222e+02
2.160000e-06	1.562269e-06	2.376466e-09	1.157478e+01	1.576107e+02
2.170000e-06	1.520531e-06	2.356983e-09	1.126555e+01	1.555431e+02
2.180000e-06	1.478339e-06	2.314400e-09	1.095295e+01	1.534238e+02
2.190000e-06	1.435745e-06	2.271751e-09	1.063737e+01	1.512556e+02
2.200000e-06	1.392586e-06	2.265009e-09	1.031761e+01	1.490392e+02
2.210000e-06	1.348849e-06	2.223476e-09	9.993564e+00	1.467732e+02
2.220000e-06	1.304790e-06	2.173852e-09	9.667131e+00	1.444544e+02
2.230000e-06	1.260494e-06	2.133978e-09	9.338944e+00	1.420782e+02
2.240000e-06	1.215894e-06	2.114579e-09	9.008508e+00	1.396390e+02
2.250000e-06	1.170994e-06	2.086009e-09	8.675843e+00	1.371314e+02
2.260000e-06	1.125698e-06	2.025966e-09	8.340244e+00	1.345501e+02
2.270000e-06	1.079789e-06	1.988441e-09	8.000112e+00	1.318908e+02
2.280000e-06	1.033334e-06	1.960680e-09	7.655924e+00	1.291502e+02
2.290000e-06	9.865473e-07	1.917930e-09	7.309286e+00	1.263261e+02
2.300000e-06	9.394549e-07	1.868669e-09	6.960380e+00	1.234172e+02
2.310000e-06	8.921651e-07	1.825371e-09	6.610012e+00	1.204227e+02
2.320000e-06	8.446997e-07	1.773943e-09	6.258343e+00	1.173418e+02
2.330000e-06	7.969154e-07	1.725267e-09	5.904311e+00	1.141735e+02
2.340000e-06	7.488001e-07	1.684310e-09	5.547827e+00	1.109160e+02
2.350000e-06	7.003599e-07	1.637291e-09	5.188936e+00	1.075666e+02
2.360000e-06	6.515477e-07	1.574574e-09	4.827288e+00	1.041219e+02
2.370000e-06	6.024061e-07	1.520315e-09	4.463201e+00	1.005775e+02
2.380000e-06	5.530111e-07	1.478911e-09	4.097235e+00	9.692874e+01
2.390000e-06	5.034202e-07	1.418214e-09	3.729818e+00	9.317079e+01
2.400000e-06	4.536105e-07	1.353502e-09	3.360780e+00	8.929908e+01
2.410000e-06	4.035357e-07	1.290444e-09	2.989778e+00	8.530972e+01
2.420000e-06	3.532965e-07	1.230177e-09	2.617558e+00	8.119970e+01
2.430000e-06	3.030049e-07	1.167549e-09	2.244950e+00	7.696708e+01
2.440000e-06	2.526282e-07	1.102834e-09	1.871712e+00	7.261098e+01
2.450000e-06	2.021757e-07	1.036667e-09	1.497911e+00	6.813147e+01
2.460000e-06	1.517052e-07	9.613878e-10	1.123977e+00	6.352946e+01
2.470000e-06	1.012139e-07	8.891634e-10	7.498892e-01	5.880647e+01
2.480000e-06	5.062499e-08	8.233580e-10	3.750783e-01	5.396460e+01
2.490000e-06	-2.243470e-11	7.537345e-10	-1.662177e-04	4.900639e+01
2.500000e-06	-5.060615e-08	6.715802e-10	-3.749387e-01	4.393498e+01
2.510000e-06	-1.011342e-07	5.890973e-10	-7.492991e-01	3.875430e+01
2.520000e-06	-1.516415e-07	5.110498e-10	-1.123505e+00	3.346931e+01
2.530000e-06	-2.020584e-07	4.328276e-10	-1.497042e+00	2.808635e+01
2.540000e-06	-2.523745e-07	3.488537e-10	-1.869832e+00	2.261347e+01
2.550000e-06	-3.026694e-07	2.639822e-10	-2.242464e+00	1.706062e+01
2.560000e-06	-3.529040e-07	1.817429e-10	-2.614650e+00	1.143968e+01
2.570000e-06	-4.029935e-07	9.715298e-11	-2.985761e+00	5.764397e+00
2.580000e-06	-4.529064e-07	1.355799e-11	-3.355563e+00	5.003593e-02
2.590000e-06	-5.026834e-07	-7.256143e-11	-3.724359e+00	-5.687141e+00
2.600000e-06	-5.521726e-07	-1.605535e-10	-4.091022e+00	-1.143049e+01
2.610000e-06	-6.013274e-07	-2.490331e-10	-4.455208e+00	-1.716369e+01
2.620000e-06	-6.501427e-07	-3.336076e-10	-4.816879e+00	-2.287140e+01
2.630000e-06	-6.984846e-07	-4.173576e-10	-5.175041e+00	-2.853981e+01
2.640000e-06	-7.463784e-07	-5.028491e-10	-5.529885e+00	-3.415701e+01
2.650000e-06	-7.938816e-07	-5.870432e-10	-5.881833e+00	-3.971317e+01
2.660000e-06	-8.411566e-07	-6.692847e-10	-6.232092e+00	-4.520035e+01
2.670000e-06	-8.882305e-07	-7.485529e-10	-6.580860e+00	-5.061229e+01
2.680000e-06	-9.350398e-07	-8.286294e-10	-6.927669e+00	-5.594387e+01
2.690000e-06	-9.816350e-07	-9.068984e-10	-7.272891e+00	-6.119060e+01
2.700000e-06	-1.028019e-06	-9.869130e-10	-7.616550e+00	-6.634809e+01
2.710000e-06	-1.074083e-06	-1.066676e-09	-7.957830e+00	-7.141165e+01
2.720000e-06	-1.119756e-06	-1.140283e-09	-8.296220e+00	-7.637602e+01
2.730000e-06	-1.165014e-06	-1.210915e-09	-8.631537e+00	-8.123545e+01
2.740000e-06	-1.209822e-06	-1.285182e-09	-8.963515e+00	-8.598385e+01
2.750000e-06	-1.254284e-06	-1.359990e-09	-9.292932e+00	-9.061523e+01
2.760000e-06	-1.298540e-06	-1.426035e-09	-9.620825e+00	-9.512425e+01
2.770000e-06	-1.342542e-06	-1.488612e-09	-9.946836e+00	-9.950675e+01
2.780000e-06	-1.386107e-06	-1.553437e-09	-1.026961e+01	-1.037603e+02
2.790000e-06	-1.429160e-06	-1.620508e-09	-1.058858e+01	-1.078844e+02
2.800000e-06	-1.471691e-06	-1.682629e-09	-1.090369e+01	-1.118808e+02
2.810000e-06	-1.513682e-06	-1.739558e-09	-1.121480e+01	-1.157530e+02
2.820000e-06	-1.555094e-06	-1.796566e-09	-1.152162e+01	-1.195060e+02
2.830000e-06	-1.595899e-06	-1.854322e-09	-1.182395e+01	-1.231456e+02
2.840000e-06	-1.636296e-06	-1.909529e-09	-1.212325e+01	-1.266776e+02
2.850000e-06	-1.676368e-06	-1.960396e-09	-1.242014e+01	-1.301071e+02
2.860000e-06	-1.715862e-06	-2.010225e-09	-1.271274e+01	-1.334376e+02
2.870000e-06	-1.754500e-06	-2.060212e-09	-1.299901e+01	-1.366707e+02
2.880000e-06	-1.792131e-06	-2.110233e-09	-1.327782e+01	-1.398060e+02
2.890000e-06	-1.828950e-06	-2.157026e-09	-1.355061e+01	-1.428409e+02
2.900000e-06	-1.865283e-06	-2.200789e-09	-1.381980e+01	-1.457716e+02
2.910000e-06	-1.901131e-06	-2.244360e-09	-1.408540e+01	-1.485934e+02
2.920000e-06	-1.936336e-06	-2.289226e-09	-1.434623e+01	-1.513017e+02
2.930000e-06	-1.970857e-06	-2.331698e-09	-1.460199e+01	-1.538929e+02
2.940000e-06	-2.004692e-06	-2.368752e-09	-1.485267e+01	-1.563652e+02
