# Temperatura_=_20.0
# Concentracion g/m^3_=_9000.0
# C_Vs_to_Am_M_A/Vsm_=_65563218390.804596
# pendiente_HvsI_1/m_=_3716.3
# ordenada_HvsI_A/m_=_1297.0
# frecuencia_Hz_=_301060.0379239072

Tiempo_(s)	Campo_(V.s)	Magnetizacion_(V.s)	Campo_(kA/m)	Magnetizacion_(A/m)
0.000000e+00	-2.659946e-06	-2.963268e-09	-1.977520e+01	-1.979957e+02
1.000000e-08	-2.659702e-06	-2.964929e-09	-1.977339e+01	-1.981004e+02
2.000000e-08	-2.658390e-06	-2.964822e-09	-1.976364e+01	-1.981761e+02
3.000000e-08	-2.655818e-06	-2.965531e-09	-1.974452e+01	-1.982248e+02
4.000000e-08	-2.652339e-06	-2.965407e-09	-1.971865e+01	-1.982469e+02
5.000000e-08	-2.648163e-06	-2.962463e-09	-1.968760e+01	-1.982414e+02
6.000000e-08	-2.643165e-06	-2.959132e-09	-1.965044e+01	-1.982054e+02
7.000000e-08	-2.637218e-06	-2.960891e-09	-1.960623e+01	-1.981342e+02
8.000000e-08	-2.630362e-06	-2.975240e-09	-1.955526e+01	-1.980222e+02
9.000000e-08	-2.622550e-06	-2.965953e-09	-1.949718e+01	-1.978628e+02
1.000000e-07	-2.613536e-06	-2.936885e-09	-1.943017e+01	-1.976496e+02
1.100000e-07	-2.603256e-06	-2.927021e-09	-1.935375e+01	-1.973766e+02
1.200000e-07	-2.592022e-06	-2.963422e-09	-1.927022e+01	-1.970397e+02
1.300000e-07	-2.579966e-06	-2.959970e-09	-1.918060e+01	-1.966363e+02
1.400000e-07	-2.567011e-06	-2.884292e-09	-1.908428e+01	-1.961667e+02
1.500000e-07	-2.553316e-06	-2.944341e-09	-1.898247e+01	-1.956334e+02
1.600000e-07	-2.538598e-06	-2.949660e-09	-1.887305e+01	-1.950414e+02
1.700000e-07	-2.522407e-06	-2.913160e-09	-1.875267e+01	-1.943976e+02
1.800000e-07	-2.505181e-06	-2.928788e-09	-1.862461e+01	-1.937105e+02
1.900000e-07	-2.487465e-06	-2.943385e-09	-1.849290e+01	-1.929888e+02
2.000000e-07	-2.469036e-06	-2.885934e-09	-1.835590e+01	-1.922410e+02
2.100000e-07	-2.449654e-06	-2.901836e-09	-1.821180e+01	-1.914747e+02
2.200000e-07	-2.429642e-06	-2.981298e-09	-1.806302e+01	-1.906954e+02
2.300000e-07	-2.409014e-06	-2.889418e-09	-1.790967e+01	-1.899066e+02
2.400000e-07	-2.387280e-06	-2.867432e-09	-1.774808e+01	-1.891090e+02
2.500000e-07	-2.364416e-06	-2.972599e-09	-1.757810e+01	-1.883010e+02
2.600000e-07	-2.340895e-06	-2.988552e-09	-1.740324e+01	-1.874789e+02
2.700000e-07	-2.316905e-06	-2.883216e-09	-1.722489e+01	-1.866372e+02
2.800000e-07	-2.292121e-06	-2.909397e-09	-1.704063e+01	-1.857693e+02
2.900000e-07	-2.266095e-06	-2.925959e-09	-1.684714e+01	-1.848686e+02
3.000000e-07	-2.238945e-06	-2.911734e-09	-1.664530e+01	-1.839285e+02
3.100000e-07	-2.211119e-06	-2.852170e-09	-1.643842e+01	-1.829435e+02
3.200000e-07	-2.182643e-06	-2.825458e-09	-1.622672e+01	-1.819093e+02
3.300000e-07	-2.153455e-06	-2.864386e-09	-1.600972e+01	-1.808231e+02
3.400000e-07	-2.123547e-06	-2.831607e-09	-1.578737e+01	-1.796837e+02
3.500000e-07	-2.092823e-06	-2.759570e-09	-1.555896e+01	-1.784909e+02
3.600000e-07	-2.061455e-06	-2.779847e-09	-1.532576e+01	-1.772456e+02
3.700000e-07	-2.029693e-06	-2.791330e-09	-1.508963e+01	-1.759491e+02
3.800000e-07	-1.997195e-06	-2.686976e-09	-1.484802e+01	-1.746028e+02
3.900000e-07	-1.963440e-06	-2.727149e-09	-1.459707e+01	-1.732079e+02
4.000000e-07	-1.928631e-06	-2.729824e-09	-1.433829e+01	-1.717646e+02
4.100000e-07	-1.893272e-06	-2.626397e-09	-1.407541e+01	-1.702729e+02
4.200000e-07	-1.857353e-06	-2.608591e-09	-1.380837e+01	-1.687316e+02
4.300000e-07	-1.820780e-06	-2.674361e-09	-1.353647e+01	-1.671393e+02
4.400000e-07	-1.783647e-06	-2.593533e-09	-1.326041e+01	-1.654940e+02
4.500000e-07	-1.745890e-06	-2.505708e-09	-1.297971e+01	-1.637939e+02
4.600000e-07	-1.707462e-06	-2.543227e-09	-1.269402e+01	-1.620374e+02
4.700000e-07	-1.668462e-06	-2.537459e-09	-1.240408e+01	-1.602235e+02
4.800000e-07	-1.629034e-06	-2.473186e-09	-1.211095e+01	-1.583520e+02
4.900000e-07	-1.589257e-06	-2.411520e-09	-1.181523e+01	-1.564234e+02
5.000000e-07	-1.549065e-06	-2.421084e-09	-1.151643e+01	-1.544389e+02
5.100000e-07	-1.508203e-06	-2.394453e-09	-1.121264e+01	-1.524000e+02
5.200000e-07	-1.466393e-06	-2.350457e-09	-1.090181e+01	-1.503085e+02
5.300000e-07	-1.423696e-06	-2.305614e-09	-1.058438e+01	-1.481660e+02
5.400000e-07	-1.380409e-06	-2.281551e-09	-1.026256e+01	-1.459732e+02
5.500000e-07	-1.336816e-06	-2.246236e-09	-9.938475e+00	-1.437302e+02
5.600000e-07	-1.292915e-06	-2.203237e-09	-9.612092e+00	-1.414359e+02
5.700000e-07	-1.248565e-06	-2.184546e-09	-9.282380e+00	-1.390878e+02
5.800000e-07	-1.203720e-06	-2.129917e-09	-8.948979e+00	-1.366824e+02
5.900000e-07	-1.158485e-06	-2.080381e-09	-8.612685e+00	-1.342153e+02
6.000000e-07	-1.112888e-06	-2.054945e-09	-8.273693e+00	-1.316811e+02
6.100000e-07	-1.066811e-06	-2.036699e-09	-7.931141e+00	-1.290742e+02
6.200000e-07	-1.020275e-06	-1.961824e-09	-7.585173e+00	-1.263891e+02
6.300000e-07	-9.733681e-07	-1.904788e-09	-7.236444e+00	-1.236204e+02
6.400000e-07	-9.262076e-07	-1.888466e-09	-6.885832e+00	-1.207634e+02
6.500000e-07	-8.788290e-07	-1.847574e-09	-6.533599e+00	-1.178143e+02
6.600000e-07	-8.312622e-07	-1.779418e-09	-6.179967e+00	-1.147700e+02
6.700000e-07	-7.834549e-07	-1.723691e-09	-5.824546e+00	-1.116282e+02
6.800000e-07	-7.353931e-07	-1.692386e-09	-5.467233e+00	-1.083875e+02
6.900000e-07	-6.870135e-07	-1.634257e-09	-5.107559e+00	-1.050464e+02
7.000000e-07	-6.380683e-07	-1.576651e-09	-4.743679e+00	-1.016038e+02
7.100000e-07	-5.886712e-07	-1.523245e-09	-4.376439e+00	-9.805841e+01
7.200000e-07	-5.390170e-07	-1.469212e-09	-4.007288e+00	-9.440844e+01
7.300000e-07	-4.890479e-07	-1.408390e-09	-3.635796e+00	-9.065155e+01
7.400000e-07	-4.387224e-07	-1.353741e-09	-3.261654e+00	-8.678477e+01
7.500000e-07	-3.880946e-07	-1.296681e-09	-2.885265e+00	-8.280456e+01
7.600000e-07	-3.372713e-07	-1.221977e-09	-2.507422e+00	-7.870696e+01
7.700000e-07	-2.863158e-07	-1.156482e-09	-2.128597e+00	-7.448785e+01
7.800000e-07	-2.352730e-07	-1.094621e-09	-1.749122e+00	-7.014330e+01
7.900000e-07	-1.841197e-07	-1.027302e-09	-1.368826e+00	-6.566994e+01
8.000000e-07	-1.328746e-07	-9.460658e-10	-9.878476e-01	-6.106533e+01
8.100000e-07	-8.159030e-08	-8.750234e-10	-6.065779e-01	-5.632831e+01
8.200000e-07	-3.029178e-08	-8.064659e-10	-2.252023e-01	-5.145931e+01
8.300000e-07	2.104937e-08	-7.278400e-10	1.564902e-01	-4.646058e+01
8.400000e-07	7.241594e-08	-6.449399e-10	5.383718e-01	-4.133628e+01
8.500000e-07	1.237027e-07	-5.657487e-10	9.196601e-01	-3.609257e+01
8.600000e-07	1.749113e-07	-4.891390e-10	1.300367e+00	-3.073749e+01
8.700000e-07	2.260539e-07	-3.980453e-10	1.680584e+00	-2.528084e+01
8.800000e-07	2.771180e-07	-3.080325e-10	2.060216e+00	-1.973394e+01
8.900000e-07	3.280388e-07	-2.223596e-10	2.438784e+00	-1.410937e+01
9.000000e-07	3.787541e-07	-1.377972e-10	2.815824e+00	-8.420639e+00
9.100000e-07	4.291863e-07	-4.656711e-11	3.190758e+00	-2.681852e+00
9.200000e-07	4.793433e-07	4.399172e-11	3.563648e+00	3.092613e+00
9.300000e-07	5.292278e-07	1.313750e-10	3.934511e+00	8.888411e+00
9.400000e-07	5.787516e-07	2.196148e-10	4.302692e+00	1.469151e+01
9.500000e-07	6.278584e-07	3.056555e-10	4.667774e+00	2.048839e+01
9.600000e-07	6.765315e-07	3.956913e-10	5.029631e+00	2.626623e+01
9.700000e-07	7.248302e-07	4.878479e-10	5.388704e+00	3.201302e+01
9.800000e-07	7.728304e-07	5.798751e-10	5.745559e+00	3.771756e+01
9.900000e-07	8.206250e-07	6.630611e-10	6.100885e+00	4.336949e+01
1.000000e-06	8.682497e-07	7.475616e-10	6.454948e+00	4.895920e+01
1.010000e-06	9.156866e-07	8.365405e-10	6.807615e+00	5.447778e+01
1.020000e-06	9.629312e-07	9.237664e-10	7.158851e+00	5.991687e+01
1.030000e-06	1.009870e-06	1.003799e-09	7.507815e+00	6.526859e+01
1.040000e-06	1.056296e-06	1.081180e-09	7.852968e+00	7.052546e+01
1.050000e-06	1.102236e-06	1.164234e-09	8.194502e+00	7.568038e+01
1.060000e-06	1.147867e-06	1.244060e-09	8.533743e+00	8.072662e+01
1.070000e-06	1.193200e-06	1.318594e-09	8.870774e+00	8.565794e+01
1.080000e-06	1.238043e-06	1.389181e-09	9.204156e+00	9.046864e+01
1.090000e-06	1.282374e-06	1.461857e-09	9.533727e+00	9.515379e+01
1.100000e-06	1.326352e-06	1.533420e-09	9.860680e+00	9.970934e+01
1.110000e-06	1.370075e-06	1.601653e-09	1.018574e+01	1.041323e+02
1.120000e-06	1.413545e-06	1.666322e-09	1.050891e+01	1.084210e+02
1.130000e-06	1.456633e-06	1.726835e-09	1.082925e+01	1.125749e+02
1.140000e-06	1.499040e-06	1.790104e-09	1.114452e+01	1.165947e+02
1.150000e-06	1.540519e-06	1.852779e-09	1.145289e+01	1.204823e+02
1.160000e-06	1.581113e-06	1.911061e-09	1.175468e+01	1.242406e+02
1.170000e-06	1.621026e-06	1.962792e-09	1.205142e+01	1.278731e+02
1.180000e-06	1.660521e-06	2.017204e-09	1.234504e+01	1.313836e+02
1.190000e-06	1.699615e-06	2.072681e-09	1.263568e+01	1.347758e+02
1.200000e-06	1.738173e-06	2.124486e-09	1.292234e+01	1.380534e+02
1.210000e-06	1.776123e-06	2.172044e-09	1.320447e+01	1.412189e+02
1.220000e-06	1.813405e-06	2.216617e-09	1.348165e+01	1.442746e+02
1.230000e-06	1.849988e-06	2.263011e-09	1.375362e+01	1.472215e+02
1.240000e-06	1.885995e-06	2.307584e-09	1.402131e+01	1.500599e+02
1.250000e-06	1.921598e-06	2.350066e-09	1.428600e+01	1.527895e+02
1.260000e-06	1.956713e-06	2.389032e-09	1.454706e+01	1.554096e+02
1.270000e-06	1.991037e-06	2.427439e-09	1.480224e+01	1.579196e+02
1.280000e-06	2.024308e-06	2.463722e-09	1.504959e+01	1.603192e+02
1.290000e-06	2.056616e-06	2.498776e-09	1.528978e+01	1.626088e+02
1.300000e-06	2.088255e-06	2.531442e-09	1.552500e+01	1.647899e+02
1.310000e-06	2.119354e-06	2.561854e-09	1.575620e+01	1.668650e+02
1.320000e-06	2.149808e-06	2.591657e-09	1.598262e+01	1.688380e+02
1.330000e-06	2.179497e-06	2.620633e-09	1.620333e+01	1.707135e+02
1.340000e-06	2.208397e-06	2.648293e-09	1.641819e+01	1.724972e+02
1.350000e-06	2.236579e-06	2.673397e-09	1.662771e+01	1.741951e+02
1.360000e-06	2.264186e-06	2.699890e-09	1.683295e+01	1.758133e+02
1.370000e-06	2.291183e-06	2.725523e-09	1.703366e+01	1.773576e+02
1.380000e-06	2.317164e-06	2.748533e-09	1.722681e+01	1.788331e+02
1.390000e-06	2.341931e-06	2.770523e-09	1.741094e+01	1.802437e+02
1.400000e-06	2.365712e-06	2.791473e-09	1.758774e+01	1.815927e+02
1.410000e-06	2.388704e-06	2.810458e-09	1.775867e+01	1.828820e+02
1.420000e-06	2.410929e-06	2.828736e-09	1.792390e+01	1.841127e+02
1.430000e-06	2.432317e-06	2.847823e-09	1.808291e+01	1.852853e+02
1.440000e-06	2.452890e-06	2.866332e-09	1.823586e+01	1.863999e+02
1.450000e-06	2.472791e-06	2.883799e-09	1.838381e+01	1.874567e+02
1.460000e-06	2.492036e-06	2.899378e-09	1.852689e+01	1.884562e+02
1.470000e-06	2.510416e-06	2.914889e-09	1.866353e+01	1.893995e+02
1.480000e-06	2.527812e-06	2.929726e-09	1.879286e+01	1.902882e+02
1.490000e-06	2.544265e-06	2.943547e-09	1.891517e+01	1.911248e+02
1.500000e-06	2.559810e-06	2.956908e-09	1.903074e+01	1.919122e+02
1.510000e-06	2.574383e-06	2.969839e-09	1.913909e+01	1.926533e+02
1.520000e-06	2.587901e-06	2.981877e-09	1.923959e+01	1.933513e+02
1.530000e-06	2.600405e-06	2.992997e-09	1.933255e+01	1.940087e+02
1.540000e-06	2.612004e-06	3.004236e-09	1.941878e+01	1.946275e+02
1.550000e-06	2.622573e-06	3.013748e-09	1.949735e+01	1.952089e+02
1.560000e-06	2.631871e-06	3.021902e-09	1.956648e+01	1.957529e+02
1.570000e-06	2.640055e-06	3.030861e-09	1.962732e+01	1.962591e+02
1.580000e-06	2.647372e-06	3.040595e-09	1.968172e+01	1.967260e+02
1.590000e-06	2.653830e-06	3.048297e-09	1.972973e+01	1.971522e+02
1.600000e-06	2.659396e-06	3.053202e-09	1.977111e+01	1.975361e+02
1.610000e-06	2.664085e-06	3.057853e-09	1.980597e+01	1.978768e+02
1.620000e-06	2.667988e-06	3.063614e-09	1.983499e+01	1.981740e+02
1.630000e-06	2.671060e-06	3.069152e-09	1.985783e+01	1.984284e+02
1.640000e-06	2.673043e-06	3.074697e-09	1.987257e+01	1.986418e+02
1.650000e-06	2.673841e-06	3.079035e-09	1.987850e+01	1.988167e+02
1.660000e-06	2.673698e-06	3.082147e-09	1.987744e+01	1.989563e+02
1.670000e-06	2.672743e-06	3.085818e-09	1.987034e+01	1.990638e+02
1.680000e-06	2.670932e-06	3.089580e-09	1.985688e+01	1.991422e+02
1.690000e-06	2.668262e-06	3.089063e-09	1.983702e+01	1.991934e+02
1.700000e-06	2.664790e-06	3.088532e-09	1.981121e+01	1.992181e+02
1.710000e-06	2.660651e-06	3.090331e-09	1.978044e+01	1.992152e+02
1.720000e-06	2.655796e-06	3.092342e-09	1.974435e+01	1.991821e+02
1.730000e-06	2.650004e-06	3.080660e-09	1.970129e+01	1.991143e+02
1.740000e-06	2.643062e-06	3.063695e-09	1.964968e+01	1.990060e+02
1.750000e-06	2.634820e-06	3.082520e-09	1.958840e+01	1.988509e+02
1.760000e-06	2.625239e-06	3.117438e-09	1.951718e+01	1.986423e+02
1.770000e-06	2.614647e-06	3.061140e-09	1.943843e+01	1.983744e+02
1.780000e-06	2.603824e-06	3.060701e-09	1.935796e+01	1.980428e+02
1.790000e-06	2.592701e-06	3.069247e-09	1.927527e+01	1.976448e+02
1.800000e-06	2.580119e-06	3.079183e-09	1.918174e+01	1.971805e+02
1.810000e-06	2.565706e-06	2.996598e-09	1.907458e+01	1.966522e+02
1.820000e-06	2.550490e-06	3.016680e-09	1.896145e+01	1.960648e+02
1.830000e-06	2.534851e-06	3.051230e-09	1.884519e+01	1.954252e+02
1.840000e-06	2.518024e-06	2.932468e-09	1.872009e+01	1.947414e+02
1.850000e-06	2.500103e-06	2.996137e-09	1.858686e+01	1.940225e+02
1.860000e-06	2.481717e-06	3.025913e-09	1.845017e+01	1.932770e+02
1.870000e-06	2.462617e-06	2.889238e-09	1.830817e+01	1.925124e+02
1.880000e-06	2.442534e-06	2.832963e-09	1.815886e+01	1.917346e+02
1.890000e-06	2.421757e-06	2.944069e-09	1.800440e+01	1.909470e+02
1.900000e-06	2.400112e-06	2.854010e-09	1.784348e+01	1.901507e+02
1.910000e-06	2.377166e-06	2.748403e-09	1.767289e+01	1.893442e+02
1.920000e-06	2.353133e-06	2.859838e-09	1.749422e+01	1.885239e+02
1.930000e-06	2.328424e-06	2.866809e-09	1.731052e+01	1.876844e+02
1.940000e-06	2.303028e-06	2.713970e-09	1.712172e+01	1.868192e+02
1.950000e-06	2.276711e-06	2.750907e-09	1.692606e+01	1.859217e+02
1.960000e-06	2.249457e-06	2.795128e-09	1.672345e+01	1.849853e+02
1.970000e-06	2.221593e-06	2.734268e-09	1.651629e+01	1.840042e+02
1.980000e-06	2.193136e-06	2.721077e-09	1.630473e+01	1.829743e+02
1.990000e-06	2.163691e-06	2.694123e-09	1.608582e+01	1.818925e+02
2.000000e-06	2.133339e-06	2.702295e-09	1.586018e+01	1.807575e+02
2.010000e-06	2.102305e-06	2.688740e-09	1.562945e+01	1.795692e+02
2.020000e-06	2.070420e-06	2.621521e-09	1.539240e+01	1.783282e+02
2.030000e-06	2.037805e-06	2.648679e-09	1.514993e+01	1.770359e+02
2.040000e-06	2.004696e-06	2.660967e-09	1.490379e+01	1.756938e+02
2.050000e-06	1.970868e-06	2.539343e-09	1.465229e+01	1.743030e+02
2.060000e-06	1.936161e-06	2.584734e-09	1.439427e+01	1.728638e+02
2.070000e-06	1.900790e-06	2.629119e-09	1.413130e+01	1.713762e+02
2.080000e-06	1.864939e-06	2.498201e-09	1.386477e+01	1.698391e+02
2.090000e-06	1.828532e-06	2.475680e-09	1.359411e+01	1.682511e+02
2.100000e-06	1.791443e-06	2.527519e-09	1.331837e+01	1.666103e+02
2.110000e-06	1.753618e-06	2.490372e-09	1.303716e+01	1.649148e+02
2.120000e-06	1.714948e-06	2.402765e-09	1.274967e+01	1.631630e+02
2.130000e-06	1.675431e-06	2.383689e-09	1.245588e+01	1.613539e+02
2.140000e-06	1.635335e-06	2.410759e-09	1.215780e+01	1.594871e+02
2.150000e-06	1.594839e-06	2.378053e-09	1.185673e+01	1.575632e+02
2.160000e-06	1.553835e-06	2.294932e-09	1.155189e+01	1.555832e+02
2.170000e-06	1.512239e-06	2.288501e-09	1.124264e+01	1.535488e+02
2.180000e-06	1.470153e-06	2.290922e-09	1.092976e+01	1.514617e+02
2.190000e-06	1.427651e-06	2.224822e-09	1.061378e+01	1.493234e+02
2.200000e-06	1.384593e-06	2.194134e-09	1.029367e+01	1.471348e+02
2.210000e-06	1.340947e-06	2.174593e-09	9.969190e+00	1.448960e+02
2.220000e-06	1.296964e-06	2.131732e-09	9.642196e+00	1.426061e+02
2.230000e-06	1.252746e-06	2.080421e-09	9.313465e+00	1.402625e+02
2.240000e-06	1.208237e-06	2.072509e-09	8.982562e+00	1.378621e+02
2.250000e-06	1.163403e-06	2.043725e-09	8.649247e+00	1.354001e+02
2.260000e-06	1.118101e-06	1.967433e-09	8.312453e+00	1.328715e+02
2.270000e-06	1.072237e-06	1.941787e-09	7.971480e+00	1.302707e+02
2.280000e-06	1.025911e-06	1.933894e-09	7.627072e+00	1.275919e+02
2.290000e-06	9.792620e-07	1.879142e-09	7.280262e+00	1.248300e+02
2.300000e-06	9.323258e-07	1.811919e-09	6.931318e+00	1.219801e+02
2.310000e-06	8.851726e-07	1.784090e-09	6.580760e+00	1.190383e+02
2.320000e-06	8.378372e-07	1.749816e-09	6.228848e+00	1.160015e+02
2.330000e-06	7.902093e-07	1.691719e-09	5.874761e+00	1.128674e+02
2.340000e-06	7.422212e-07	1.637606e-09	5.517997e+00	1.096344e+02
2.350000e-06	6.939179e-07	1.601624e-09	5.158889e+00	1.063011e+02
2.360000e-06	6.453798e-07	1.549959e-09	4.798035e+00	1.028665e+02
2.370000e-06	5.964655e-07	1.488038e-09	4.434385e+00	9.932911e+01
2.380000e-06	5.471725e-07	1.444019e-09	4.067920e+00	9.568731e+01
2.390000e-06	4.977060e-07	1.387949e-09	3.700164e+00	9.193878e+01
2.400000e-06	4.480594e-07	1.323251e-09	3.331069e+00	8.808059e+01
2.410000e-06	3.981865e-07	1.260597e-09	2.960292e+00	8.410924e+01
2.420000e-06	3.481571e-07	1.207506e-09	2.588352e+00	8.002079e+01
2.430000e-06	2.980594e-07	1.143737e-09	2.215904e+00	7.581112e+01
2.440000e-06	2.478383e-07	1.070130e-09	1.842539e+00	7.147629e+01
2.450000e-06	1.974991e-07	1.006485e-09	1.468295e+00	6.701285e+01
2.460000e-06	1.471280e-07	9.407750e-10	1.093814e+00	6.241830e+01
2.470000e-06	9.674395e-08	8.655754e-10	7.192368e-01	5.769138e+01
2.480000e-06	4.634104e-08	7.918927e-10	3.445196e-01	5.283238e+01
2.490000e-06	-4.061861e-09	7.281152e-10	-3.019765e-02	4.784343e+01
2.500000e-06	-5.443241e-08	6.503758e-10	-4.046744e-01	4.272856e+01
2.510000e-06	-1.047879e-07	5.618609e-10	-7.790391e-01	3.749376e+01
2.520000e-06	-1.551893e-07	4.827339e-10	-1.153745e+00	3.214696e+01
2.530000e-06	-2.055098e-07	4.113086e-10	-1.527850e+00	2.669783e+01
2.540000e-06	-2.556912e-07	3.275443e-10	-1.900920e+00	2.115760e+01
2.550000e-06	-3.057990e-07	2.364541e-10	-2.273444e+00	1.553877e+01
2.560000e-06	-3.558151e-07	1.540251e-10	-2.645285e+00	9.854794e+00
2.570000e-06	-4.057113e-07	7.055426e-11	-3.016235e+00	4.119737e+00
2.580000e-06	-4.554278e-07	-1.611222e-11	-3.385849e+00	-1.652026e+00
2.590000e-06	-5.049644e-07	-1.037958e-10	-3.754126e+00	-7.446142e+00
2.600000e-06	-5.541756e-07	-1.887887e-10	-4.119984e+00	-1.324854e+01
2.610000e-06	-6.029412e-07	-2.773992e-10	-4.482528e+00	-1.904567e+01
2.620000e-06	-6.513782e-07	-3.650691e-10	-4.842630e+00	-2.482465e+01
2.630000e-06	-6.995814e-07	-4.495764e-10	-5.200994e+00	-3.057341e+01
2.640000e-06	-7.473566e-07	-5.357264e-10	-5.556176e+00	-3.628069e+01
2.650000e-06	-7.946952e-07	-6.230967e-10	-5.908112e+00	-4.193607e+01
2.660000e-06	-8.418502e-07	-7.058587e-10	-6.258683e+00	-4.752991e+01
2.670000e-06	-8.887501e-07	-7.825617e-10	-6.607357e+00	-5.305322e+01
2.680000e-06	-9.353572e-07	-8.647224e-10	-6.953854e+00	-5.849762e+01
2.690000e-06	-9.818058e-07	-9.482556e-10	-7.299174e+00	-6.385520e+01
2.700000e-06	-1.028041e-06	-1.027633e-09	-7.642905e+00	-6.911846e+01
2.710000e-06	-1.073974e-06	-1.102948e-09	-7.984395e+00	-7.428025e+01
2.720000e-06	-1.119477e-06	-1.180131e-09	-8.322685e+00	-7.933385e+01
2.730000e-06	-1.164531e-06	-1.258184e-09	-8.657629e+00	-8.427294e+01
2.740000e-06	-1.209202e-06	-1.333641e-09	-8.989738e+00	-8.909180e+01
2.750000e-06	-1.253535e-06	-1.405277e-09	-9.319325e+00	-9.378543e+01
2.760000e-06	-1.297629e-06	-1.472128e-09	-9.647144e+00	-9.834972e+01
2.770000e-06	-1.341453e-06	-1.539252e-09	-9.972947e+00	-1.027816e+02
2.780000e-06	-1.384793e-06	-1.605752e-09	-1.029515e+01	-1.070793e+02
2.790000e-06	-1.427547e-06	-1.670350e-09	-1.061301e+01	-1.112422e+02
2.800000e-06	-1.469848e-06	-1.729199e-09	-1.092749e+01	-1.152709e+02
2.810000e-06	-1.511685e-06	-1.786690e-09	-1.123853e+01	-1.191672e+02
2.820000e-06	-1.552912e-06	-1.846326e-09	-1.154503e+01	-1.229340e+02
2.830000e-06	-1.593556e-06	-1.904182e-09	-1.184719e+01	-1.265747e+02
2.840000e-06	-1.633814e-06	-1.956668e-09	-1.214649e+01	-1.300932e+02
2.850000e-06	-1.673724e-06	-2.004365e-09	-1.244320e+01	-1.334931e+02
2.860000e-06	-1.713108e-06	-2.054908e-09	-1.273599e+01	-1.367781e+02
2.870000e-06	-1.751628e-06	-2.105160e-09	-1.302237e+01	-1.399510e+02
2.880000e-06	-1.789092e-06	-2.152383e-09	-1.330089e+01	-1.430138e+02
2.890000e-06	-1.825726e-06	-2.196679e-09	-1.357324e+01	-1.459678e+02
2.900000e-06	-1.861873e-06	-2.239332e-09	-1.384198e+01	-1.488133e+02
2.910000e-06	-1.897526e-06	-2.280535e-09	-1.410704e+01	-1.515501e+02
2.920000e-06	-1.932492e-06	-2.321636e-09	-1.436699e+01	-1.541774e+02
2.930000e-06	-1.966744e-06	-2.361074e-09	-1.462163e+01	-1.566947e+02
2.940000e-06	-2.000279e-06	-2.395977e-09	-1.487095e+01	-1.591015e+02
