# Temperatura_=_20.0
# Concentracion g/m^3_=_9000.0
# C_Vs_to_Am_M_A/Vsm_=_65563218390.804596
# pendiente_HvsI_1/m_=_3716.3
# ordenada_HvsI_A/m_=_1297.0
# frecuencia_Hz_=_301055.7392375949

Tiempo_(s)	Campo_(V.s)	Magnetizacion_(V.s)	Campo_(kA/m)	Magnetizacion_(A/m)
0.000000e+00	-2.668880e-06	-2.956435e-09	-1.977279e+01	-1.964491e+02
1.000000e-08	-2.668342e-06	-2.957459e-09	-1.976881e+01	-1.965466e+02
2.000000e-08	-2.666716e-06	-2.957854e-09	-1.975676e+01	-1.966239e+02
3.000000e-08	-2.663885e-06	-2.958418e-09	-1.973578e+01	-1.966769e+02
4.000000e-08	-2.660159e-06	-2.957582e-09	-1.970818e+01	-1.966988e+02
5.000000e-08	-2.655735e-06	-2.955082e-09	-1.967541e+01	-1.966807e+02
6.000000e-08	-2.650447e-06	-2.951387e-09	-1.963623e+01	-1.966128e+02
7.000000e-08	-2.644259e-06	-2.948198e-09	-1.959038e+01	-1.964860e+02
8.000000e-08	-2.637179e-06	-2.943108e-09	-1.953793e+01	-1.962930e+02
9.000000e-08	-2.629088e-06	-2.963832e-09	-1.947798e+01	-1.960298e+02
1.000000e-07	-2.619786e-06	-2.980536e-09	-1.940907e+01	-1.956964e+02
1.100000e-07	-2.609153e-06	-2.945856e-09	-1.933029e+01	-1.952975e+02
1.200000e-07	-2.597582e-06	-2.884101e-09	-1.924457e+01	-1.948420e+02
1.300000e-07	-2.585227e-06	-2.897126e-09	-1.915303e+01	-1.943425e+02
1.400000e-07	-2.571932e-06	-3.001947e-09	-1.905454e+01	-1.938139e+02
1.500000e-07	-2.557870e-06	-2.945000e-09	-1.895035e+01	-1.932716e+02
1.600000e-07	-2.542728e-06	-2.905617e-09	-1.883818e+01	-1.927303e+02
1.700000e-07	-2.526084e-06	-2.915508e-09	-1.871487e+01	-1.922013e+02
1.800000e-07	-2.508580e-06	-2.915224e-09	-1.858518e+01	-1.916922e+02
1.900000e-07	-2.490705e-06	-2.925862e-09	-1.845276e+01	-1.912050e+02
2.000000e-07	-2.471935e-06	-2.951856e-09	-1.831369e+01	-1.907363e+02
2.100000e-07	-2.452174e-06	-2.890384e-09	-1.816729e+01	-1.902772e+02
2.200000e-07	-2.431891e-06	-2.824781e-09	-1.801702e+01	-1.898146e+02
2.300000e-07	-2.410893e-06	-2.975538e-09	-1.786146e+01	-1.893324e+02
2.400000e-07	-2.388711e-06	-3.009390e-09	-1.769712e+01	-1.888133e+02
2.500000e-07	-2.365547e-06	-2.874084e-09	-1.752550e+01	-1.882406e+02
2.600000e-07	-2.341857e-06	-2.860071e-09	-1.734999e+01	-1.875998e+02
2.700000e-07	-2.317530e-06	-2.981379e-09	-1.716977e+01	-1.868805e+02
2.800000e-07	-2.292150e-06	-2.921642e-09	-1.698173e+01	-1.860765e+02
2.900000e-07	-2.265559e-06	-2.875192e-09	-1.678473e+01	-1.851870e+02
3.000000e-07	-2.238054e-06	-2.861456e-09	-1.658095e+01	-1.842155e+02
3.100000e-07	-2.209938e-06	-2.835895e-09	-1.637265e+01	-1.831696e+02
3.200000e-07	-2.181151e-06	-2.839030e-09	-1.615938e+01	-1.820592e+02
3.300000e-07	-2.151684e-06	-2.841550e-09	-1.594107e+01	-1.808957e+02
3.400000e-07	-2.121517e-06	-2.796809e-09	-1.571757e+01	-1.796896e+02
3.500000e-07	-2.090498e-06	-2.746558e-09	-1.548777e+01	-1.784499e+02
3.600000e-07	-2.058876e-06	-2.749305e-09	-1.525349e+01	-1.771827e+02
3.700000e-07	-2.026864e-06	-2.754591e-09	-1.501632e+01	-1.758908e+02
3.800000e-07	-1.993961e-06	-2.754680e-09	-1.477255e+01	-1.745731e+02
3.900000e-07	-1.959723e-06	-2.650311e-09	-1.451889e+01	-1.732259e+02
4.000000e-07	-1.924573e-06	-2.639927e-09	-1.425848e+01	-1.718425e+02
4.100000e-07	-1.888976e-06	-2.684419e-09	-1.399476e+01	-1.704153e+02
4.200000e-07	-1.852817e-06	-2.649284e-09	-1.372687e+01	-1.689359e+02
4.300000e-07	-1.816029e-06	-2.562158e-09	-1.345432e+01	-1.673972e+02
4.400000e-07	-1.778655e-06	-2.563894e-09	-1.317743e+01	-1.657934e+02
4.500000e-07	-1.740604e-06	-2.568090e-09	-1.289552e+01	-1.641208e+02
4.600000e-07	-1.701880e-06	-2.515113e-09	-1.260863e+01	-1.623784e+02
4.700000e-07	-1.662612e-06	-2.491018e-09	-1.231770e+01	-1.605673e+02
4.800000e-07	-1.622934e-06	-2.451881e-09	-1.202375e+01	-1.586904e+02
4.900000e-07	-1.582952e-06	-2.427696e-09	-1.172753e+01	-1.567518e+02
5.000000e-07	-1.542492e-06	-2.395542e-09	-1.142778e+01	-1.547558e+02
5.100000e-07	-1.501250e-06	-2.382106e-09	-1.112223e+01	-1.527067e+02
5.200000e-07	-1.459005e-06	-2.331716e-09	-1.080925e+01	-1.506075e+02
5.300000e-07	-1.415903e-06	-2.293409e-09	-1.048992e+01	-1.484596e+02
5.400000e-07	-1.372379e-06	-2.270587e-09	-1.016747e+01	-1.462631e+02
5.500000e-07	-1.328558e-06	-2.239512e-09	-9.842816e+00	-1.440162e+02
5.600000e-07	-1.284352e-06	-2.200630e-09	-9.515310e+00	-1.417157e+02
5.700000e-07	-1.239750e-06	-2.146842e-09	-9.184872e+00	-1.393577e+02
5.800000e-07	-1.194699e-06	-2.121279e-09	-8.851106e+00	-1.369373e+02
5.900000e-07	-1.149207e-06	-2.084422e-09	-8.514070e+00	-1.344498e+02
6.000000e-07	-1.103274e-06	-2.041933e-09	-8.173768e+00	-1.318907e+02
6.100000e-07	-1.056912e-06	-1.985505e-09	-7.830286e+00	-1.292557e+02
6.200000e-07	-1.010134e-06	-1.953336e-09	-7.483728e+00	-1.265414e+02
6.300000e-07	-9.629993e-07	-1.913991e-09	-7.134522e+00	-1.237446e+02
6.400000e-07	-9.156294e-07	-1.859112e-09	-6.783575e+00	-1.208626e+02
6.500000e-07	-8.680145e-07	-1.814515e-09	-6.430814e+00	-1.178926e+02
6.600000e-07	-8.201898e-07	-1.773146e-09	-6.076497e+00	-1.148320e+02
6.700000e-07	-7.721537e-07	-1.728262e-09	-5.720615e+00	-1.116775e+02
6.800000e-07	-7.238209e-07	-1.665517e-09	-5.362534e+00	-1.084256e+02
6.900000e-07	-6.750642e-07	-1.615443e-09	-5.001313e+00	-1.050726e+02
7.000000e-07	-6.258669e-07	-1.560741e-09	-4.636827e+00	-1.016142e+02
7.100000e-07	-5.763292e-07	-1.509036e-09	-4.269820e+00	-9.804646e+01
7.200000e-07	-5.264154e-07	-1.453310e-09	-3.900026e+00	-9.436532e+01
7.300000e-07	-4.761033e-07	-1.392636e-09	-3.527281e+00	-9.056727e+01
7.400000e-07	-4.254871e-07	-1.328903e-09	-3.152284e+00	-8.664938e+01
7.500000e-07	-3.745455e-07	-1.268055e-09	-2.774876e+00	-8.260937e+01
7.600000e-07	-3.233624e-07	-1.214231e-09	-2.395678e+00	-7.844562e+01
7.700000e-07	-2.721072e-07	-1.141770e-09	-2.015947e+00	-7.415709e+01
7.800000e-07	-2.208056e-07	-1.065363e-09	-1.635871e+00	-6.974319e+01
7.900000e-07	-1.694277e-07	-9.958183e-10	-1.255230e+00	-6.520361e+01
8.000000e-07	-1.179913e-07	-9.373520e-10	-8.741563e-01	-6.053827e+01
8.100000e-07	-6.654161e-08	-8.632307e-10	-4.929834e-01	-5.574731e+01
8.200000e-07	-1.510666e-08	-7.782533e-10	-1.119199e-01	-5.083117e+01
8.300000e-07	3.630205e-08	-6.990830e-10	2.689491e-01	-4.579091e+01
8.400000e-07	8.774968e-08	-6.246291e-10	6.501064e-01	-4.062854e+01
8.500000e-07	1.391941e-07	-5.471399e-10	1.031240e+00	-3.534746e+01
8.600000e-07	1.905426e-07	-4.573897e-10	1.411663e+00	-2.995294e+01
8.700000e-07	2.418172e-07	-3.678057e-10	1.791539e+00	-2.445250e+01
8.800000e-07	2.930182e-07	-2.781819e-10	2.170869e+00	-1.885616e+01
8.900000e-07	3.440727e-07	-1.953931e-10	2.549113e+00	-1.317649e+01
9.000000e-07	3.949213e-07	-1.091104e-10	2.925833e+00	-7.428426e+00
9.100000e-07	4.454890e-07	-1.757942e-11	3.300471e+00	-1.628870e+00
9.200000e-07	4.957599e-07	7.693804e-11	3.672910e+00	4.203966e+00
9.300000e-07	5.457013e-07	1.655561e-10	4.042909e+00	1.005134e+01
9.400000e-07	5.952521e-07	2.481153e-10	4.410013e+00	1.589482e+01
9.500000e-07	6.444199e-07	3.392404e-10	4.774280e+00	2.171712e+01
9.600000e-07	6.932112e-07	4.335203e-10	5.135757e+00	2.750273e+01
9.700000e-07	7.416355e-07	5.262092e-10	5.494516e+00	3.323844e+01
9.800000e-07	7.897215e-07	6.098196e-10	5.850768e+00	3.891348e+01
9.900000e-07	8.375663e-07	6.947038e-10	6.205233e+00	4.451947e+01
1.000000e-06	8.852745e-07	7.810898e-10	6.558687e+00	5.005002e+01
1.010000e-06	9.328169e-07	8.681713e-10	6.910911e+00	5.550023e+01
1.020000e-06	9.800860e-07	9.537066e-10	7.261112e+00	6.086598e+01
1.030000e-06	1.026992e-06	1.032951e-09	7.608624e+00	6.614331e+01
1.040000e-06	1.073472e-06	1.109623e-09	7.952977e+00	7.132782e+01
1.050000e-06	1.119537e-06	1.186226e-09	8.294255e+00	7.641435e+01
1.060000e-06	1.165202e-06	1.265134e-09	8.632574e+00	8.139681e+01
1.070000e-06	1.210440e-06	1.338158e-09	8.967725e+00	8.626837e+01
1.080000e-06	1.255200e-06	1.408786e-09	9.299334e+00	9.102184e+01
1.090000e-06	1.299538e-06	1.478417e-09	9.627822e+00	9.565025e+01
1.100000e-06	1.343565e-06	1.548106e-09	9.953997e+00	1.001475e+02
1.110000e-06	1.387314e-06	1.616101e-09	1.027812e+01	1.045089e+02
1.120000e-06	1.430802e-06	1.680069e-09	1.060031e+01	1.087319e+02
1.130000e-06	1.473891e-06	1.742985e-09	1.091954e+01	1.128162e+02
1.140000e-06	1.516188e-06	1.802071e-09	1.123290e+01	1.167636e+02
1.150000e-06	1.557529e-06	1.860894e-09	1.153919e+01	1.205781e+02
1.160000e-06	1.598025e-06	1.917314e-09	1.183921e+01	1.242651e+02
1.170000e-06	1.637914e-06	1.972522e-09	1.213472e+01	1.278305e+02
1.180000e-06	1.677429e-06	2.024775e-09	1.242748e+01	1.312804e+02
1.190000e-06	1.716499e-06	2.075290e-09	1.271694e+01	1.346198e+02
1.200000e-06	1.754991e-06	2.125415e-09	1.300211e+01	1.378524e+02
1.210000e-06	1.792851e-06	2.173963e-09	1.328260e+01	1.409798e+02
1.220000e-06	1.830069e-06	2.221262e-09	1.355834e+01	1.440020e+02
1.230000e-06	1.866644e-06	2.264480e-09	1.382931e+01	1.469171e+02
1.240000e-06	1.902653e-06	2.306603e-09	1.409608e+01	1.497223e+02
1.250000e-06	1.938256e-06	2.347223e-09	1.435985e+01	1.524142e+02
1.260000e-06	1.973326e-06	2.387118e-09	1.461967e+01	1.549902e+02
1.270000e-06	2.007490e-06	2.423658e-09	1.487278e+01	1.574485e+02
1.280000e-06	2.040592e-06	2.457902e-09	1.511803e+01	1.597895e+02
1.290000e-06	2.072774e-06	2.490871e-09	1.535645e+01	1.620158e+02
1.300000e-06	2.104338e-06	2.523698e-09	1.559030e+01	1.641321e+02
1.310000e-06	2.135342e-06	2.555428e-09	1.581999e+01	1.661452e+02
1.320000e-06	2.165594e-06	2.584506e-09	1.604413e+01	1.680633e+02
1.330000e-06	2.195110e-06	2.611910e-09	1.626280e+01	1.698952e+02
1.340000e-06	2.223912e-06	2.637430e-09	1.647618e+01	1.716493e+02
1.350000e-06	2.252011e-06	2.663898e-09	1.668436e+01	1.733331e+02
1.360000e-06	2.279518e-06	2.689800e-09	1.688814e+01	1.749521e+02
1.370000e-06	2.306292e-06	2.714312e-09	1.708650e+01	1.765097e+02
1.380000e-06	2.331980e-06	2.736930e-09	1.727682e+01	1.780071e+02
1.390000e-06	2.356517e-06	2.759007e-09	1.745860e+01	1.794432e+02
1.400000e-06	2.380174e-06	2.780732e-09	1.763387e+01	1.808156e+02
1.410000e-06	2.403099e-06	2.800528e-09	1.780372e+01	1.821214e+02
1.420000e-06	2.425195e-06	2.819456e-09	1.796742e+01	1.833574e+02
1.430000e-06	2.446440e-06	2.837692e-09	1.812481e+01	1.845218e+02
1.440000e-06	2.466895e-06	2.855679e-09	1.827636e+01	1.856143e+02
1.450000e-06	2.486679e-06	2.872430e-09	1.842293e+01	1.866363e+02
1.460000e-06	2.505838e-06	2.888527e-09	1.856487e+01	1.875916e+02
1.470000e-06	2.524048e-06	2.902912e-09	1.869978e+01	1.884856e+02
1.480000e-06	2.541225e-06	2.915913e-09	1.882704e+01	1.893247e+02
1.490000e-06	2.557540e-06	2.929665e-09	1.894791e+01	1.901156e+02
1.500000e-06	2.572858e-06	2.943717e-09	1.906140e+01	1.908648e+02
1.510000e-06	2.587105e-06	2.956071e-09	1.916695e+01	1.915771e+02
1.520000e-06	2.600403e-06	2.966928e-09	1.926547e+01	1.922555e+02
1.530000e-06	2.612771e-06	2.978172e-09	1.935710e+01	1.929009e+02
1.540000e-06	2.624169e-06	2.988483e-09	1.944154e+01	1.935120e+02
1.550000e-06	2.634378e-06	2.997001e-09	1.951718e+01	1.940856e+02
1.560000e-06	2.643290e-06	3.003580e-09	1.958320e+01	1.946177e+02
1.570000e-06	2.651206e-06	3.010969e-09	1.964185e+01	1.951039e+02
1.580000e-06	2.658364e-06	3.019204e-09	1.969489e+01	1.955406e+02
1.590000e-06	2.664663e-06	3.025311e-09	1.974155e+01	1.959256e+02
1.600000e-06	2.670013e-06	3.029610e-09	1.978118e+01	1.962590e+02
1.610000e-06	2.674466e-06	3.034613e-09	1.981417e+01	1.965430e+02
1.620000e-06	2.678182e-06	3.039687e-09	1.984171e+01	1.967820e+02
1.630000e-06	2.681069e-06	3.043718e-09	1.986310e+01	1.969818e+02
1.640000e-06	2.682707e-06	3.048230e-09	1.987523e+01	1.971490e+02
1.650000e-06	2.683148e-06	3.052912e-09	1.987850e+01	1.972896e+02
1.660000e-06	2.682764e-06	3.055318e-09	1.987566e+01	1.974086e+02
1.670000e-06	2.681591e-06	3.057340e-09	1.986696e+01	1.975080e+02
1.680000e-06	2.679548e-06	3.057877e-09	1.985182e+01	1.975874e+02
1.690000e-06	2.676687e-06	3.058052e-09	1.983063e+01	1.976429e+02
1.700000e-06	2.673046e-06	3.058145e-09	1.980366e+01	1.976679e+02
1.710000e-06	2.668722e-06	3.058533e-09	1.977162e+01	1.976535e+02
1.720000e-06	2.663585e-06	3.056375e-09	1.973356e+01	1.975901e+02
1.730000e-06	2.657330e-06	3.055997e-09	1.968722e+01	1.974683e+02
1.740000e-06	2.649892e-06	3.048005e-09	1.963211e+01	1.972808e+02
1.750000e-06	2.641271e-06	3.016057e-09	1.956825e+01	1.970232e+02
1.760000e-06	2.631335e-06	2.998444e-09	1.949463e+01	1.966952e+02
1.770000e-06	2.620499e-06	3.079987e-09	1.941436e+01	1.963013e+02
1.780000e-06	2.609567e-06	3.074583e-09	1.933337e+01	1.958501e+02
1.790000e-06	2.598174e-06	3.013547e-09	1.924895e+01	1.953538e+02
1.800000e-06	2.585025e-06	2.941562e-09	1.915154e+01	1.948273e+02
1.810000e-06	2.570125e-06	2.990997e-09	1.904115e+01	1.942861e+02
1.820000e-06	2.554706e-06	2.985262e-09	1.892691e+01	1.937448e+02
1.830000e-06	2.538683e-06	2.927872e-09	1.880821e+01	1.932152e+02
1.840000e-06	2.521335e-06	2.978599e-09	1.867968e+01	1.927051e+02
1.850000e-06	2.503154e-06	2.897551e-09	1.854498e+01	1.922170e+02
1.860000e-06	2.484589e-06	2.877456e-09	1.840745e+01	1.917477e+02
1.870000e-06	2.465158e-06	2.975746e-09	1.826349e+01	1.912889e+02
1.880000e-06	2.444781e-06	2.953975e-09	1.811252e+01	1.908276e+02
1.890000e-06	2.423713e-06	2.795949e-09	1.795643e+01	1.903480e+02
1.900000e-06	2.401545e-06	2.868245e-09	1.779220e+01	1.898326e+02
1.910000e-06	2.378087e-06	2.946090e-09	1.761841e+01	1.892648e+02
1.920000e-06	2.353755e-06	2.776438e-09	1.743814e+01	1.886298e+02
1.930000e-06	2.328725e-06	2.723252e-09	1.725270e+01	1.879169e+02
1.940000e-06	2.302953e-06	2.853511e-09	1.706177e+01	1.871197e+02
1.950000e-06	2.276355e-06	2.777265e-09	1.686471e+01	1.862367e+02
1.960000e-06	2.248886e-06	2.719587e-09	1.666120e+01	1.852714e+02
1.970000e-06	2.220845e-06	2.785018e-09	1.645346e+01	1.842311e+02
1.980000e-06	2.192130e-06	2.718692e-09	1.624072e+01	1.831256e+02
1.990000e-06	2.162241e-06	2.674225e-09	1.601928e+01	1.819660e+02
2.000000e-06	2.131424e-06	2.711581e-09	1.579097e+01	1.807632e+02
2.010000e-06	2.099987e-06	2.709012e-09	1.555806e+01	1.795262e+02
2.020000e-06	2.067662e-06	2.652591e-09	1.531858e+01	1.782614e+02
2.030000e-06	2.034674e-06	2.600616e-09	1.507418e+01	1.769718e+02
2.040000e-06	2.001259e-06	2.614370e-09	1.482662e+01	1.756566e+02
2.050000e-06	1.967053e-06	2.670523e-09	1.457320e+01	1.743122e+02
2.060000e-06	1.932036e-06	2.568626e-09	1.431377e+01	1.729323e+02
2.070000e-06	1.896465e-06	2.510384e-09	1.405024e+01	1.715090e+02
2.080000e-06	1.860387e-06	2.574105e-09	1.378295e+01	1.700342e+02
2.090000e-06	1.823676e-06	2.528271e-09	1.351097e+01	1.685005e+02
2.100000e-06	1.786168e-06	2.473716e-09	1.323309e+01	1.669020e+02
2.110000e-06	1.747846e-06	2.467112e-09	1.294918e+01	1.652350e+02
2.120000e-06	1.708730e-06	2.441008e-09	1.265938e+01	1.634981e+02
2.130000e-06	1.668922e-06	2.406243e-09	1.236445e+01	1.616924e+02
2.140000e-06	1.628677e-06	2.386394e-09	1.206629e+01	1.598206e+02
2.150000e-06	1.588028e-06	2.362065e-09	1.176514e+01	1.578868e+02
2.160000e-06	1.546785e-06	2.336083e-09	1.145958e+01	1.558954e+02
2.170000e-06	1.504955e-06	2.289863e-09	1.114968e+01	1.538505e+02
2.180000e-06	1.462672e-06	2.260346e-09	1.083642e+01	1.517553e+02
2.190000e-06	1.419883e-06	2.251166e-09	1.051942e+01	1.496115e+02
2.200000e-06	1.376479e-06	2.200325e-09	1.019785e+01	1.474190e+02
2.210000e-06	1.332650e-06	2.163817e-09	9.873137e+00	1.451764e+02
2.220000e-06	1.288624e-06	2.134520e-09	9.546962e+00	1.428804e+02
2.230000e-06	1.244324e-06	2.106837e-09	9.218755e+00	1.405272e+02
2.240000e-06	1.199630e-06	2.060568e-09	8.887635e+00	1.381120e+02
2.250000e-06	1.154533e-06	2.019839e-09	8.553526e+00	1.356301e+02
2.260000e-06	1.108934e-06	2.001397e-09	8.215703e+00	1.330767e+02
2.270000e-06	1.062749e-06	1.950556e-09	7.873533e+00	1.304478e+02
2.280000e-06	1.016210e-06	1.898622e-09	7.528745e+00	1.277398e+02
2.290000e-06	9.694101e-07	1.872908e-09	7.182018e+00	1.249496e+02
2.300000e-06	9.223175e-07	1.842417e-09	6.833125e+00	1.220743e+02
2.310000e-06	8.749677e-07	1.781201e-09	6.482327e+00	1.191113e+02
2.320000e-06	8.273380e-07	1.730471e-09	6.129456e+00	1.160578e+02
2.330000e-06	7.794020e-07	1.692289e-09	5.774315e+00	1.129107e+02
2.340000e-06	7.310360e-07	1.649675e-09	5.415988e+00	1.096665e+02
2.350000e-06	6.822679e-07	1.593488e-09	5.054682e+00	1.063213e+02
2.360000e-06	6.332479e-07	1.538882e-09	4.691510e+00	1.028712e+02
2.370000e-06	5.839804e-07	1.487588e-09	4.326505e+00	9.931194e+01
2.380000e-06	5.344323e-07	1.428862e-09	3.959421e+00	9.563957e+01
2.390000e-06	4.847402e-07	1.382955e-09	3.591269e+00	9.185054e+01
2.400000e-06	4.349110e-07	1.325522e-09	3.222102e+00	8.794185e+01
2.410000e-06	3.848111e-07	1.254738e-09	2.850930e+00	8.391119e+01
2.420000e-06	3.346221e-07	1.184685e-09	2.479097e+00	7.975687e+01
2.430000e-06	2.843982e-07	1.129708e-09	2.107006e+00	7.547784e+01
2.440000e-06	2.340107e-07	1.073471e-09	1.733703e+00	7.107347e+01
2.450000e-06	1.835583e-07	9.938404e-10	1.359919e+00	6.654343e+01
2.460000e-06	1.330937e-07	9.142126e-10	9.860442e-01	6.188764e+01
2.470000e-06	8.254085e-08	8.499835e-10	6.115161e-01	5.710619e+01
2.480000e-06	3.188397e-08	7.898990e-10	2.362171e-01	5.219953e+01
2.490000e-06	-1.871896e-08	7.118304e-10	-1.386822e-01	4.716865e+01
2.500000e-06	-6.921559e-08	6.253687e-10	-5.127939e-01	4.201546e+01
2.510000e-06	-1.197502e-07	5.424321e-10	-8.871871e-01	3.674327e+01
2.520000e-06	-1.702797e-07	4.655987e-10	-1.261542e+00	3.135719e+01
2.530000e-06	-2.206918e-07	3.866034e-10	-1.635028e+00	2.586458e+01
2.540000e-06	-2.710297e-07	3.034013e-10	-2.007963e+00	2.027526e+01
2.550000e-06	-3.213268e-07	2.146507e-10	-2.380597e+00	1.460163e+01
2.560000e-06	-3.715084e-07	1.254475e-10	-2.752375e+00	8.858467e+00
2.570000e-06	-4.215267e-07	4.713687e-11	-3.122943e+00	3.062556e+00
2.580000e-06	-4.713963e-07	-3.593232e-11	-3.492409e+00	-2.767964e+00
2.590000e-06	-5.211288e-07	-1.271471e-10	-3.860859e+00	-8.614359e+00
2.600000e-06	-5.705633e-07	-2.196111e-10	-4.227102e+00	-1.445815e+01
2.610000e-06	-6.196131e-07	-3.041756e-10	-4.590495e+00	-2.028194e+01
2.620000e-06	-6.683568e-07	-3.876126e-10	-4.951620e+00	-2.607008e+01
2.630000e-06	-7.166963e-07	-4.752121e-10	-5.309750e+00	-3.180918e+01
2.640000e-06	-7.645637e-07	-5.614644e-10	-5.664383e+00	-3.748830e+01
2.650000e-06	-8.120499e-07	-6.456189e-10	-6.016192e+00	-4.309889e+01
2.660000e-06	-8.592386e-07	-7.280215e-10	-6.365796e+00	-4.863445e+01
2.670000e-06	-9.061564e-07	-8.096548e-10	-6.713393e+00	-5.408998e+01
2.680000e-06	-9.528514e-07	-8.869388e-10	-7.059340e+00	-5.946134e+01
2.690000e-06	-9.993052e-07	-9.677198e-10	-7.403500e+00	-6.474456e+01
2.700000e-06	-1.045505e-06	-1.050794e-09	-7.745775e+00	-6.993530e+01
2.710000e-06	-1.091399e-06	-1.128663e-09	-8.085793e+00	-7.502846e+01
2.720000e-06	-1.136885e-06	-1.200009e-09	-8.422780e+00	-8.001801e+01
2.730000e-06	-1.181966e-06	-1.273630e-09	-8.756768e+00	-8.489717e+01
2.740000e-06	-1.226621e-06	-1.351238e-09	-9.087604e+00	-8.965876e+01
2.750000e-06	-1.270882e-06	-1.423058e-09	-9.415514e+00	-9.429576e+01
2.760000e-06	-1.314858e-06	-1.488381e-09	-9.741318e+00	-9.880197e+01
2.770000e-06	-1.358545e-06	-1.551634e-09	-1.006498e+01	-1.031726e+02
2.780000e-06	-1.401853e-06	-1.618024e-09	-1.038584e+01	-1.074050e+02
2.790000e-06	-1.444646e-06	-1.681638e-09	-1.070288e+01	-1.114986e+02
2.800000e-06	-1.486892e-06	-1.740743e-09	-1.101586e+01	-1.154552e+02
2.810000e-06	-1.528651e-06	-1.796984e-09	-1.132524e+01	-1.192784e+02
2.820000e-06	-1.569862e-06	-1.852474e-09	-1.163055e+01	-1.229738e+02
2.830000e-06	-1.610483e-06	-1.908454e-09	-1.193150e+01	-1.265471e+02
2.840000e-06	-1.650656e-06	-1.963339e-09	-1.222913e+01	-1.300045e+02
2.850000e-06	-1.690502e-06	-2.014143e-09	-1.252434e+01	-1.333511e+02
2.860000e-06	-1.729863e-06	-2.059955e-09	-1.281594e+01	-1.365906e+02
2.870000e-06	-1.768339e-06	-2.107500e-09	-1.310100e+01	-1.397250e+02
2.880000e-06	-1.805774e-06	-2.156024e-09	-1.337835e+01	-1.427542e+02
2.890000e-06	-1.842394e-06	-2.202261e-09	-1.364965e+01	-1.456765e+02
2.900000e-06	-1.878445e-06	-2.243819e-09	-1.391674e+01	-1.484890e+02
2.910000e-06	-1.914024e-06	-2.282794e-09	-1.418033e+01	-1.511886e+02
2.920000e-06	-1.948995e-06	-2.321920e-09	-1.443942e+01	-1.537724e+02
2.930000e-06	-1.983239e-06	-2.361087e-09	-1.469312e+01	-1.562386e+02
2.940000e-06	-2.016781e-06	-2.399101e-09	-1.494162e+01	-1.585874e+02
