# Temperatura_=_20.0
# Concentracion g/m^3_=_9000.0
# C_Vs_to_Am_M_A/Vsm_=_65563218390.804596
# pendiente_HvsI_1/m_=_3716.3
# ordenada_HvsI_A/m_=_1297.0
# frecuencia_Hz_=_301064.3096938393

Tiempo_(s)	Campo_(V.s)	Magnetizacion_(V.s)	Campo_(kA/m)	Magnetizacion_(A/m)
0.000000e+00	-2.663575e-06	-2.958432e-09	-1.977034e+01	-1.954502e+02
1.000000e-08	-2.663389e-06	-2.959516e-09	-1.976896e+01	-1.955561e+02
2.000000e-08	-2.662109e-06	-2.959490e-09	-1.975946e+01	-1.956503e+02
3.000000e-08	-2.659588e-06	-2.960012e-09	-1.974075e+01	-1.957260e+02
4.000000e-08	-2.656187e-06	-2.960929e-09	-1.971550e+01	-1.957732e+02
5.000000e-08	-2.652085e-06	-2.960314e-09	-1.968506e+01	-1.957800e+02
6.000000e-08	-2.647204e-06	-2.957957e-09	-1.964883e+01	-1.957337e+02
7.000000e-08	-2.641397e-06	-2.960260e-09	-1.960573e+01	-1.956232e+02
8.000000e-08	-2.634613e-06	-2.963902e-09	-1.955538e+01	-1.954408e+02
9.000000e-08	-2.626892e-06	-2.963060e-09	-1.949807e+01	-1.951831e+02
1.000000e-07	-2.617986e-06	-2.944498e-09	-1.943196e+01	-1.948523e+02
1.100000e-07	-2.607724e-06	-2.937433e-09	-1.935579e+01	-1.944562e+02
1.200000e-07	-2.596490e-06	-2.940373e-09	-1.927241e+01	-1.940077e+02
1.300000e-07	-2.584486e-06	-2.937726e-09	-1.918331e+01	-1.935233e+02
1.400000e-07	-2.571592e-06	-2.938308e-09	-1.908760e+01	-1.930219e+02
1.500000e-07	-2.557883e-06	-2.947213e-09	-1.898585e+01	-1.925219e+02
1.600000e-07	-2.543223e-06	-2.950627e-09	-1.887703e+01	-1.920393e+02
1.700000e-07	-2.527066e-06	-2.919059e-09	-1.875711e+01	-1.915861e+02
1.800000e-07	-2.509755e-06	-2.948366e-09	-1.862862e+01	-1.911681e+02
1.900000e-07	-2.492078e-06	-2.956664e-09	-1.849741e+01	-1.907846e+02
2.000000e-07	-2.473758e-06	-2.898192e-09	-1.836143e+01	-1.904282e+02
2.100000e-07	-2.454361e-06	-2.897241e-09	-1.821745e+01	-1.900854e+02
2.200000e-07	-2.434273e-06	-2.937415e-09	-1.806836e+01	-1.897383e+02
2.300000e-07	-2.413604e-06	-2.915605e-09	-1.791494e+01	-1.893661e+02
2.400000e-07	-2.391850e-06	-2.888351e-09	-1.775347e+01	-1.889479e+02
2.500000e-07	-2.368977e-06	-2.904690e-09	-1.758369e+01	-1.884642e+02
2.600000e-07	-2.345474e-06	-2.886703e-09	-1.740924e+01	-1.878994e+02
2.700000e-07	-2.321496e-06	-2.872699e-09	-1.723127e+01	-1.872428e+02
2.800000e-07	-2.296631e-06	-2.875245e-09	-1.704670e+01	-1.864897e+02
2.900000e-07	-2.270541e-06	-2.857355e-09	-1.685306e+01	-1.856408e+02
3.000000e-07	-2.243387e-06	-2.823344e-09	-1.665151e+01	-1.847024e+02
3.100000e-07	-2.215525e-06	-2.830976e-09	-1.644470e+01	-1.836843e+02
3.200000e-07	-2.187048e-06	-2.813218e-09	-1.623333e+01	-1.825990e+02
3.300000e-07	-2.157873e-06	-2.782386e-09	-1.601678e+01	-1.814591e+02
3.400000e-07	-2.127994e-06	-2.776634e-09	-1.579500e+01	-1.802763e+02
3.500000e-07	-2.097331e-06	-2.756633e-09	-1.556741e+01	-1.790597e+02
3.600000e-07	-2.065976e-06	-2.728138e-09	-1.533468e+01	-1.778148e+02
3.700000e-07	-2.034180e-06	-2.723638e-09	-1.509867e+01	-1.765434e+02
3.800000e-07	-2.001659e-06	-2.709629e-09	-1.485729e+01	-1.752434e+02
3.900000e-07	-1.967860e-06	-2.664687e-09	-1.460641e+01	-1.739098e+02
4.000000e-07	-1.932987e-06	-2.661899e-09	-1.434756e+01	-1.725355e+02
4.100000e-07	-1.897590e-06	-2.649732e-09	-1.408483e+01	-1.711126e+02
4.200000e-07	-1.861713e-06	-2.609455e-09	-1.381853e+01	-1.696335e+02
4.300000e-07	-1.825263e-06	-2.582307e-09	-1.354799e+01	-1.680920e+02
4.400000e-07	-1.788211e-06	-2.573417e-09	-1.327297e+01	-1.664840e+02
4.500000e-07	-1.750472e-06	-2.532480e-09	-1.299285e+01	-1.648078e+02
4.600000e-07	-1.711986e-06	-2.494694e-09	-1.270719e+01	-1.630642e+02
4.700000e-07	-1.672904e-06	-2.484449e-09	-1.241710e+01	-1.612559e+02
4.800000e-07	-1.633430e-06	-2.456420e-09	-1.212411e+01	-1.593869e+02
4.900000e-07	-1.593604e-06	-2.416880e-09	-1.182850e+01	-1.574616e+02
5.000000e-07	-1.553335e-06	-2.382144e-09	-1.152960e+01	-1.554842e+02
5.100000e-07	-1.512393e-06	-2.368572e-09	-1.122571e+01	-1.534579e+02
5.200000e-07	-1.470526e-06	-2.338397e-09	-1.091495e+01	-1.513843e+02
5.300000e-07	-1.427728e-06	-2.294017e-09	-1.059729e+01	-1.492632e+02
5.400000e-07	-1.384375e-06	-2.257935e-09	-1.027550e+01	-1.470931e+02
5.500000e-07	-1.340765e-06	-2.234085e-09	-9.951810e+00	-1.448709e+02
5.600000e-07	-1.296807e-06	-2.193262e-09	-9.625527e+00	-1.425925e+02
5.700000e-07	-1.252379e-06	-2.148156e-09	-9.295764e+00	-1.402539e+02
5.800000e-07	-1.207501e-06	-2.122017e-09	-8.962657e+00	-1.378507e+02
5.900000e-07	-1.162251e-06	-2.078831e-09	-8.626794e+00	-1.353794e+02
6.000000e-07	-1.116631e-06	-2.031496e-09	-8.288179e+00	-1.328369e+02
6.100000e-07	-1.070574e-06	-1.999211e-09	-7.946318e+00	-1.302209e+02
6.200000e-07	-1.024037e-06	-1.964948e-09	-7.600900e+00	-1.275294e+02
6.300000e-07	-9.771071e-07	-1.906952e-09	-7.252563e+00	-1.247606e+02
6.400000e-07	-9.299236e-07	-1.860319e-09	-6.902343e+00	-1.219124e+02
6.500000e-07	-8.824994e-07	-1.828043e-09	-6.550338e+00	-1.189821e+02
6.600000e-07	-8.348686e-07	-1.779984e-09	-6.196799e+00	-1.159661e+02
6.700000e-07	-7.870399e-07	-1.723863e-09	-5.841791e+00	-1.128600e+02
6.800000e-07	-7.389586e-07	-1.674007e-09	-5.484909e+00	-1.096582e+02
6.900000e-07	-6.905081e-07	-1.628293e-09	-5.125286e+00	-1.063549e+02
7.000000e-07	-6.415439e-07	-1.572345e-09	-4.761850e+00	-1.029441e+02
7.100000e-07	-5.920719e-07	-1.517678e-09	-4.394645e+00	-9.941997e+01
7.200000e-07	-5.422318e-07	-1.463099e-09	-4.024707e+00	-9.577772e+01
7.300000e-07	-4.921472e-07	-1.405043e-09	-3.652955e+00	-9.201366e+01
7.400000e-07	-4.418019e-07	-1.345203e-09	-3.279268e+00	-8.812554e+01
7.500000e-07	-3.911513e-07	-1.287727e-09	-2.903315e+00	-8.411259e+01
7.600000e-07	-3.402509e-07	-1.225895e-09	-2.525507e+00	-7.997528e+01
7.700000e-07	-2.892475e-07	-1.154131e-09	-2.146935e+00	-7.571505e+01
7.800000e-07	-2.381290e-07	-1.085514e-09	-1.767509e+00	-7.133383e+01
7.900000e-07	-1.868768e-07	-1.020616e-09	-1.387090e+00	-6.683362e+01
8.000000e-07	-1.355896e-07	-9.519584e-10	-1.006411e+00	-6.221610e+01
8.100000e-07	-8.427386e-08	-8.742569e-10	-6.255214e-01	-5.748241e+01
8.200000e-07	-3.294488e-08	-8.008451e-10	-2.445329e-01	-5.263315e+01
8.300000e-07	1.839650e-08	-7.295451e-10	1.365477e-01	-4.766862e+01
8.400000e-07	6.976012e-08	-6.522058e-10	5.177934e-01	-4.258922e+01
8.500000e-07	1.210968e-07	-5.705694e-10	8.988392e-01	-3.739608e+01
8.600000e-07	1.723275e-07	-4.885260e-10	1.279099e+00	-3.209175e+01
8.700000e-07	2.234584e-07	-4.055063e-10	1.658617e+00	-2.668079e+01
8.800000e-07	2.745685e-07	-3.170460e-10	2.037980e+00	-2.117030e+01
8.900000e-07	3.256032e-07	-2.309121e-10	2.416785e+00	-1.557024e+01
9.000000e-07	3.764157e-07	-1.442250e-10	2.793940e+00	-9.893352e+00
9.100000e-07	4.269342e-07	-5.477995e-11	3.168913e+00	-4.154931e+00
9.200000e-07	4.771674e-07	3.468897e-11	3.541768e+00	1.627786e+00
9.300000e-07	5.271288e-07	1.203472e-10	3.912605e+00	7.436397e+00
9.400000e-07	5.767857e-07	2.062705e-10	4.281183e+00	1.325222e+01
9.500000e-07	6.260111e-07	2.956129e-10	4.646558e+00	1.905721e+01
9.600000e-07	6.747565e-07	3.839240e-10	5.008370e+00	2.483468e+01
9.700000e-07	7.231611e-07	4.729741e-10	5.367652e+00	3.056993e+01
9.800000e-07	7.712652e-07	5.626689e-10	5.724704e+00	3.625046e+01
9.900000e-07	8.190987e-07	6.525513e-10	6.079748e+00	4.186606e+01
1.000000e-06	8.667499e-07	7.374446e-10	6.433438e+00	4.740844e+01
1.010000e-06	9.142524e-07	8.195127e-10	6.786024e+00	5.287082e+01
1.020000e-06	9.615501e-07	9.025153e-10	7.137091e+00	5.824734e+01
1.030000e-06	1.008532e-06	9.840870e-10	7.485810e+00	6.353250e+01
1.040000e-06	1.055114e-06	1.062778e-09	7.831566e+00	6.872065e+01
1.050000e-06	1.101236e-06	1.139605e-09	8.173907e+00	7.380579e+01
1.060000e-06	1.146933e-06	1.215921e-09	8.513090e+00	7.878148e+01
1.070000e-06	1.192225e-06	1.289550e-09	8.849272e+00	8.364112e+01
1.080000e-06	1.237090e-06	1.361971e-09	9.182281e+00	8.837834e+01
1.090000e-06	1.281568e-06	1.432613e-09	9.512416e+00	9.298757e+01
1.100000e-06	1.325630e-06	1.500012e-09	9.839469e+00	9.746463e+01
1.110000e-06	1.369335e-06	1.564614e-09	1.016387e+01	1.018072e+02
1.120000e-06	1.412805e-06	1.628122e-09	1.048652e+01	1.060152e+02
1.130000e-06	1.455951e-06	1.691345e-09	1.080678e+01	1.100908e+02
1.140000e-06	1.498505e-06	1.751716e-09	1.112263e+01	1.140381e+02
1.150000e-06	1.540145e-06	1.809663e-09	1.143170e+01	1.178626e+02
1.160000e-06	1.580808e-06	1.865996e-09	1.173352e+01	1.215708e+02
1.170000e-06	1.620776e-06	1.921828e-09	1.203018e+01	1.251688e+02
1.180000e-06	1.660347e-06	1.975760e-09	1.232390e+01	1.286618e+02
1.190000e-06	1.699535e-06	2.026781e-09	1.261477e+01	1.320534e+02
1.200000e-06	1.738183e-06	2.076133e-09	1.290163e+01	1.353450e+02
1.210000e-06	1.776197e-06	2.124016e-09	1.318379e+01	1.385357e+02
1.220000e-06	1.813554e-06	2.171148e-09	1.346108e+01	1.416225e+02
1.230000e-06	1.850274e-06	2.216872e-09	1.373363e+01	1.446011e+02
1.240000e-06	1.886416e-06	2.259499e-09	1.400190e+01	1.474665e+02
1.250000e-06	1.922106e-06	2.300340e-09	1.426680e+01	1.502139e+02
1.260000e-06	1.957336e-06	2.340614e-09	1.452830e+01	1.528397e+02
1.270000e-06	1.991795e-06	2.378159e-09	1.478407e+01	1.553425e+02
1.280000e-06	2.025240e-06	2.413502e-09	1.503231e+01	1.577235e+02
1.290000e-06	2.057697e-06	2.448224e-09	1.527322e+01	1.599866e+02
1.300000e-06	2.089397e-06	2.481528e-09	1.550852e+01	1.621384e+02
1.310000e-06	2.120530e-06	2.511557e-09	1.573960e+01	1.641872e+02
1.320000e-06	2.151022e-06	2.539917e-09	1.596593e+01	1.661427e+02
1.330000e-06	2.180766e-06	2.567973e-09	1.618670e+01	1.680148e+02
1.340000e-06	2.209729e-06	2.594035e-09	1.640168e+01	1.698123e+02
1.350000e-06	2.237953e-06	2.618764e-09	1.661117e+01	1.715423e+02
1.360000e-06	2.265613e-06	2.644594e-09	1.681648e+01	1.732096e+02
1.370000e-06	2.292678e-06	2.671100e-09	1.701737e+01	1.748165e+02
1.380000e-06	2.318746e-06	2.695148e-09	1.721086e+01	1.763626e+02
1.390000e-06	2.343628e-06	2.716934e-09	1.739554e+01	1.778459e+02
1.400000e-06	2.367513e-06	2.737349e-09	1.757283e+01	1.792630e+02
1.410000e-06	2.390598e-06	2.756868e-09	1.774417e+01	1.806105e+02
1.420000e-06	2.412873e-06	2.776721e-09	1.790951e+01	1.818859e+02
1.430000e-06	2.434320e-06	2.795824e-09	1.806871e+01	1.830881e+02
1.440000e-06	2.454979e-06	2.813829e-09	1.822204e+01	1.842182e+02
1.450000e-06	2.474882e-06	2.830510e-09	1.836978e+01	1.852793e+02
1.460000e-06	2.494171e-06	2.847187e-09	1.851295e+01	1.862768e+02
1.470000e-06	2.512682e-06	2.863473e-09	1.865035e+01	1.872172e+02
1.480000e-06	2.530194e-06	2.877457e-09	1.878033e+01	1.881076e+02
1.490000e-06	2.546792e-06	2.890479e-09	1.890353e+01	1.889543e+02
1.500000e-06	2.562534e-06	2.903952e-09	1.902037e+01	1.897624e+02
1.510000e-06	2.577259e-06	2.917269e-09	1.912967e+01	1.905347e+02
1.520000e-06	2.590930e-06	2.929025e-09	1.923114e+01	1.912713e+02
1.530000e-06	2.603615e-06	2.939487e-09	1.932529e+01	1.919698e+02
1.540000e-06	2.615326e-06	2.949191e-09	1.941222e+01	1.926256e+02
1.550000e-06	2.626015e-06	2.958218e-09	1.949156e+01	1.932330e+02
1.560000e-06	2.635461e-06	2.966783e-09	1.956167e+01	1.937857e+02
1.570000e-06	2.643719e-06	2.975595e-09	1.962296e+01	1.942787e+02
1.580000e-06	2.651096e-06	2.982757e-09	1.967772e+01	1.947088e+02
1.590000e-06	2.657636e-06	2.988119e-09	1.972626e+01	1.950759e+02
1.600000e-06	2.663235e-06	2.992760e-09	1.976782e+01	1.953826e+02
1.610000e-06	2.667959e-06	2.997013e-09	1.980289e+01	1.956352e+02
1.620000e-06	2.671902e-06	3.000772e-09	1.983215e+01	1.958421e+02
1.630000e-06	2.675072e-06	3.004295e-09	1.985568e+01	1.960132e+02
1.640000e-06	2.677237e-06	3.008670e-09	1.987175e+01	1.961585e+02
1.650000e-06	2.678146e-06	3.012659e-09	1.987850e+01	1.962865e+02
1.660000e-06	2.677994e-06	3.015575e-09	1.987737e+01	1.964030e+02
1.670000e-06	2.677078e-06	3.017741e-09	1.987057e+01	1.965103e+02
1.680000e-06	2.675365e-06	3.018023e-09	1.985785e+01	1.966060e+02
1.690000e-06	2.672804e-06	3.016860e-09	1.983884e+01	1.966839e+02
1.700000e-06	2.669421e-06	3.015557e-09	1.981374e+01	1.967341e+02
1.710000e-06	2.665294e-06	3.014946e-09	1.978310e+01	1.967447e+02
1.720000e-06	2.660485e-06	3.014328e-09	1.974741e+01	1.967032e+02
1.730000e-06	2.654715e-06	3.004962e-09	1.970458e+01	1.965982e+02
1.740000e-06	2.647710e-06	2.995690e-09	1.965258e+01	1.964217e+02
1.750000e-06	2.639480e-06	2.994023e-09	1.959150e+01	1.961700e+02
1.760000e-06	2.629962e-06	3.000368e-09	1.952085e+01	1.958448e+02
1.770000e-06	2.619337e-06	3.006104e-09	1.944199e+01	1.954535e+02
1.780000e-06	2.608368e-06	2.991710e-09	1.936057e+01	1.950088e+02
1.790000e-06	2.597146e-06	2.996972e-09	1.927728e+01	1.945270e+02
1.800000e-06	2.584566e-06	2.956473e-09	1.918390e+01	1.940267e+02
1.810000e-06	2.570122e-06	2.927299e-09	1.907669e+01	1.935266e+02
1.820000e-06	2.554937e-06	2.937443e-09	1.896398e+01	1.930429e+02
1.830000e-06	2.539402e-06	2.920349e-09	1.884867e+01	1.925879e+02
1.840000e-06	2.522567e-06	2.873062e-09	1.872371e+01	1.921679e+02
1.850000e-06	2.504580e-06	2.868042e-09	1.859021e+01	1.917827e+02
1.860000e-06	2.486187e-06	2.913386e-09	1.845368e+01	1.914253e+02
1.870000e-06	2.467132e-06	2.884934e-09	1.831225e+01	1.910827e+02
1.880000e-06	2.447080e-06	2.880315e-09	1.816341e+01	1.907371e+02
1.890000e-06	2.426356e-06	2.922850e-09	1.800959e+01	1.903680e+02
1.900000e-06	2.404782e-06	2.898081e-09	1.784946e+01	1.899543e+02
1.910000e-06	2.381847e-06	2.856633e-09	1.767922e+01	1.894764e+02
1.920000e-06	2.357819e-06	2.878564e-09	1.750088e+01	1.889184e+02
1.930000e-06	2.333116e-06	2.853095e-09	1.731752e+01	1.882692e+02
1.940000e-06	2.307716e-06	2.803290e-09	1.712898e+01	1.875235e+02
1.950000e-06	2.281500e-06	2.819249e-09	1.693440e+01	1.866820e+02
1.960000e-06	2.254347e-06	2.818695e-09	1.673286e+01	1.857502e+02
1.970000e-06	2.226448e-06	2.771353e-09	1.652578e+01	1.847380e+02
1.980000e-06	2.197969e-06	2.765096e-09	1.631439e+01	1.836577e+02
1.990000e-06	2.168459e-06	2.764362e-09	1.609535e+01	1.825218e+02
2.000000e-06	2.137969e-06	2.735478e-09	1.586904e+01	1.813424e+02
2.010000e-06	2.106915e-06	2.724037e-09	1.563854e+01	1.801285e+02
2.020000e-06	2.075082e-06	2.709711e-09	1.540227e+01	1.788861e+02
2.030000e-06	2.042367e-06	2.680679e-09	1.515944e+01	1.776172e+02
2.040000e-06	2.009075e-06	2.659915e-09	1.491233e+01	1.763199e+02
2.050000e-06	1.975221e-06	2.650335e-09	1.466105e+01	1.749895e+02
2.060000e-06	1.940569e-06	2.617916e-09	1.440384e+01	1.736190e+02
2.070000e-06	1.905245e-06	2.594501e-09	1.414165e+01	1.722004e+02
2.080000e-06	1.869436e-06	2.585181e-09	1.387586e+01	1.707261e+02
2.090000e-06	1.833058e-06	2.554667e-09	1.360584e+01	1.691898e+02
2.100000e-06	1.795955e-06	2.524397e-09	1.333045e+01	1.675872e+02
2.110000e-06	1.758057e-06	2.511225e-09	1.304915e+01	1.659164e+02
2.120000e-06	1.719358e-06	2.483386e-09	1.276191e+01	1.641782e+02
2.130000e-06	1.679810e-06	2.440842e-09	1.246837e+01	1.623749e+02
2.140000e-06	1.639658e-06	2.422407e-09	1.217034e+01	1.605106e+02
2.150000e-06	1.599190e-06	2.405872e-09	1.186997e+01	1.585898e+02
2.160000e-06	1.558214e-06	2.371325e-09	1.156582e+01	1.566166e+02
2.170000e-06	1.516550e-06	2.327384e-09	1.125657e+01	1.545943e+02
2.180000e-06	1.474374e-06	2.304416e-09	1.094352e+01	1.525246e+02
2.190000e-06	1.431806e-06	2.287129e-09	1.062756e+01	1.504076e+02
2.200000e-06	1.388670e-06	2.237491e-09	1.030738e+01	1.482416e+02
2.210000e-06	1.344972e-06	2.199155e-09	9.983035e+00	1.460238e+02
2.220000e-06	1.300974e-06	2.176939e-09	9.656460e+00	1.437502e+02
2.230000e-06	1.256734e-06	2.137244e-09	9.328088e+00	1.414165e+02
2.240000e-06	1.212200e-06	2.093479e-09	8.997539e+00	1.390187e+02
2.250000e-06	1.167359e-06	2.066620e-09	8.664708e+00	1.365529e+02
2.260000e-06	1.122098e-06	2.029200e-09	8.328753e+00	1.340162e+02
2.270000e-06	1.076263e-06	1.981157e-09	7.988549e+00	1.314060e+02
2.280000e-06	1.029895e-06	1.946895e-09	7.644379e+00	1.287206e+02
2.290000e-06	9.831960e-07	1.915016e-09	7.297757e+00	1.259579e+02
2.300000e-06	9.363039e-07	1.867810e-09	6.949701e+00	1.231161e+02
2.310000e-06	8.891562e-07	1.813510e-09	6.599748e+00	1.201923e+02
2.320000e-06	8.417421e-07	1.773576e-09	6.247818e+00	1.171832e+02
2.330000e-06	7.940481e-07	1.730695e-09	5.893810e+00	1.140842e+02
2.340000e-06	7.459605e-07	1.679420e-09	5.536881e+00	1.108900e+02
2.350000e-06	6.975645e-07	1.627642e-09	5.177662e+00	1.075948e+02
2.360000e-06	6.488791e-07	1.578515e-09	4.816295e+00	1.041924e+02
2.370000e-06	5.998343e-07	1.527637e-09	4.452261e+00	1.006771e+02
2.380000e-06	5.504564e-07	1.470281e-09	4.085754e+00	9.704403e+01
2.390000e-06	5.009010e-07	1.415524e-09	3.717930e+00	9.328934e+01
2.400000e-06	4.511994e-07	1.356905e-09	3.349021e+00	8.941070e+01
2.410000e-06	4.012351e-07	1.290758e-09	2.978161e+00	8.540724e+01
2.420000e-06	3.511218e-07	1.226598e-09	2.606196e+00	8.127935e+01
2.430000e-06	3.009933e-07	1.169003e-09	2.234118e+00	7.702841e+01
2.440000e-06	2.508154e-07	1.104620e-09	1.861673e+00	7.265634e+01
2.450000e-06	2.004850e-07	1.031292e-09	1.488097e+00	6.816514e+01
2.460000e-06	1.500612e-07	9.598278e-10	1.113827e+00	6.355653e+01
2.470000e-06	9.963179e-08	8.919481e-10	7.395154e-01	5.883168e+01
2.480000e-06	4.918003e-08	8.200263e-10	3.650380e-01	5.399125e+01
2.490000e-06	-1.285840e-09	7.429764e-10	-9.544127e-03	4.903551e+01
2.500000e-06	-5.177557e-08	6.670577e-10	-3.843033e-01	4.396486e+01
2.510000e-06	-1.022685e-07	5.870192e-10	-7.590860e-01	3.878037e+01
2.520000e-06	-1.527407e-07	5.053330e-10	-1.133715e+00	3.348443e+01
2.530000e-06	-2.031429e-07	4.252615e-10	-1.507825e+00	2.808145e+01
2.540000e-06	-2.534162e-07	3.441458e-10	-1.880978e+00	2.257836e+01
2.550000e-06	-3.036190e-07	2.584282e-10	-2.253607e+00	1.698487e+01
2.560000e-06	-3.537580e-07	1.711458e-10	-2.625763e+00	1.131357e+01
2.570000e-06	-4.037126e-07	8.767681e-11	-2.996550e+00	5.579565e+00
2.580000e-06	-4.535286e-07	2.462189e-12	-3.366309e+00	-2.000158e-01
2.590000e-06	-5.032094e-07	-8.606276e-11	-3.735064e+00	-6.006824e+00
2.600000e-06	-5.525514e-07	-1.737893e-10	-4.101304e+00	-1.182217e+01
2.610000e-06	-6.014716e-07	-2.591729e-10	-4.464414e+00	-1.762793e+01
2.620000e-06	-6.500330e-07	-3.479313e-10	-4.824860e+00	-2.340731e+01
2.630000e-06	-6.982004e-07	-4.371419e-10	-5.182382e+00	-2.914543e+01
2.640000e-06	-7.459183e-07	-5.215307e-10	-5.536567e+00	-3.482967e+01
2.650000e-06	-7.933303e-07	-6.037514e-10	-5.888482e+00	-4.044962e+01
2.660000e-06	-8.405442e-07	-6.875641e-10	-6.238926e+00	-4.599690e+01
2.670000e-06	-8.874847e-07	-7.712715e-10	-6.587342e+00	-5.146462e+01
2.680000e-06	-9.341238e-07	-8.509330e-10	-6.933520e+00	-5.684689e+01
2.690000e-06	-9.805677e-07	-9.300069e-10	-7.278248e+00	-6.213818e+01
2.700000e-06	-1.026835e-06	-1.009781e-09	-7.621664e+00	-6.733288e+01
2.710000e-06	-1.072831e-06	-1.089342e-09	-7.963073e+00	-7.242501e+01
2.720000e-06	-1.118440e-06	-1.165057e-09	-8.301600e+00	-7.740816e+01
2.730000e-06	-1.163554e-06	-1.238469e-09	-8.636459e+00	-8.227574e+01
2.740000e-06	-1.208228e-06	-1.310866e-09	-8.968052e+00	-8.702132e+01
2.750000e-06	-1.252599e-06	-1.380065e-09	-9.297394e+00	-9.163928e+01
2.760000e-06	-1.296761e-06	-1.447418e-09	-9.625190e+00	-9.612530e+01
2.770000e-06	-1.340702e-06	-1.513940e-09	-9.951339e+00	-1.004770e+02
2.780000e-06	-1.384175e-06	-1.579270e-09	-1.027401e+01	-1.046940e+02
2.790000e-06	-1.427037e-06	-1.642152e-09	-1.059216e+01	-1.087783e+02
2.800000e-06	-1.469418e-06	-1.703931e-09	-1.090673e+01	-1.127340e+02
2.810000e-06	-1.511375e-06	-1.763679e-09	-1.121816e+01	-1.165665e+02
2.820000e-06	-1.552721e-06	-1.820744e-09	-1.152505e+01	-1.202823e+02
2.830000e-06	-1.593471e-06	-1.875728e-09	-1.182751e+01	-1.238873e+02
2.840000e-06	-1.633836e-06	-1.928146e-09	-1.212712e+01	-1.273872e+02
2.850000e-06	-1.673871e-06	-1.977350e-09	-1.242428e+01	-1.307854e+02
2.860000e-06	-1.713327e-06	-2.027676e-09	-1.271715e+01	-1.340835e+02
2.870000e-06	-1.751880e-06	-2.080488e-09	-1.300330e+01	-1.372809e+02
2.880000e-06	-1.789471e-06	-2.129129e-09	-1.328232e+01	-1.403747e+02
2.890000e-06	-1.826262e-06	-2.172831e-09	-1.355540e+01	-1.433606e+02
2.900000e-06	-1.862514e-06	-2.215637e-09	-1.382448e+01	-1.462337e+02
2.910000e-06	-1.898276e-06	-2.258949e-09	-1.408993e+01	-1.489890e+02
2.920000e-06	-1.933372e-06	-2.300335e-09	-1.435042e+01	-1.516230e+02
2.930000e-06	-1.967764e-06	-2.338237e-09	-1.460569e+01	-1.541341e+02
2.940000e-06	-2.001456e-06	-2.373409e-09	-1.485577e+01	-1.565231e+02
