# Temperatura_=_20.0
# Concentracion g/m^3_=_9000.0
# C_Vs_to_Am_M_A/Vsm_=_65563218390.804596
# pendiente_HvsI_1/m_=_3716.3
# ordenada_HvsI_A/m_=_1297.0
# frecuencia_Hz_=_212911.89349851385

Tiempo_(s)	Campo_(V.s)	Magnetizacion_(V.s)	Campo_(kA/m)	Magnetizacion_(A/m)
0.000000e+00	-6.721665e-06	-4.550422e-09	-4.768049e+01	-2.985171e+02
1.000000e-08	-6.720355e-06	-4.554210e-09	-4.767120e+01	-2.984521e+02
2.000000e-08	-6.717609e-06	-4.556544e-09	-4.765172e+01	-2.983715e+02
3.000000e-08	-6.713818e-06	-4.556527e-09	-4.762483e+01	-2.982746e+02
4.000000e-08	-6.709027e-06	-4.554040e-09	-4.759084e+01	-2.981610e+02
5.000000e-08	-6.703071e-06	-4.551024e-09	-4.754860e+01	-2.980310e+02
6.000000e-08	-6.696057e-06	-4.546026e-09	-4.749884e+01	-2.978853e+02
7.000000e-08	-6.688239e-06	-4.531169e-09	-4.744339e+01	-2.977253e+02
8.000000e-08	-6.679302e-06	-4.524118e-09	-4.737999e+01	-2.975531e+02
9.000000e-08	-6.668667e-06	-4.593015e-09	-4.730455e+01	-2.973716e+02
1.000000e-07	-6.656368e-06	-4.639557e-09	-4.721731e+01	-2.971838e+02
1.100000e-07	-6.642557e-06	-4.618171e-09	-4.711934e+01	-2.969933e+02
1.200000e-07	-6.627162e-06	-4.518423e-09	-4.701013e+01	-2.968035e+02
1.300000e-07	-6.610497e-06	-4.364985e-09	-4.689192e+01	-2.966177e+02
1.400000e-07	-6.592992e-06	-4.542748e-09	-4.676775e+01	-2.964385e+02
1.500000e-07	-6.574567e-06	-4.704624e-09	-4.663705e+01	-2.962678e+02
1.600000e-07	-6.555336e-06	-4.492628e-09	-4.650063e+01	-2.961062e+02
1.700000e-07	-6.535282e-06	-4.477388e-09	-4.635838e+01	-2.959535e+02
1.800000e-07	-6.513948e-06	-4.463832e-09	-4.620704e+01	-2.958078e+02
1.900000e-07	-6.491555e-06	-4.430961e-09	-4.604820e+01	-2.956659e+02
2.000000e-07	-6.468456e-06	-4.696210e-09	-4.588434e+01	-2.955236e+02
2.100000e-07	-6.444095e-06	-4.582092e-09	-4.571153e+01	-2.953753e+02
2.200000e-07	-6.418120e-06	-4.300328e-09	-4.552728e+01	-2.952148e+02
2.300000e-07	-6.390993e-06	-4.528349e-09	-4.533486e+01	-2.950353e+02
2.400000e-07	-6.362954e-06	-4.675369e-09	-4.513596e+01	-2.948301e+02
2.500000e-07	-6.333877e-06	-4.510176e-09	-4.492970e+01	-2.945924e+02
2.600000e-07	-6.303636e-06	-4.399244e-09	-4.471518e+01	-2.943165e+02
2.700000e-07	-6.272316e-06	-4.373202e-09	-4.449301e+01	-2.939975e+02
2.800000e-07	-6.240017e-06	-4.510616e-09	-4.426390e+01	-2.936318e+02
2.900000e-07	-6.206459e-06	-4.561539e-09	-4.402585e+01	-2.932174e+02
3.000000e-07	-6.171533e-06	-4.399473e-09	-4.377810e+01	-2.927540e+02
3.100000e-07	-6.135451e-06	-4.357329e-09	-4.352215e+01	-2.922427e+02
3.200000e-07	-6.098236e-06	-4.417358e-09	-4.325817e+01	-2.916864e+02
3.300000e-07	-6.059872e-06	-4.456970e-09	-4.298603e+01	-2.910891e+02
3.400000e-07	-6.020609e-06	-4.450787e-09	-4.270751e+01	-2.904558e+02
3.500000e-07	-5.980386e-06	-4.374385e-09	-4.242219e+01	-2.897921e+02
3.600000e-07	-5.938798e-06	-4.298635e-09	-4.212718e+01	-2.891038e+02
3.700000e-07	-5.895940e-06	-4.373747e-09	-4.182317e+01	-2.883966e+02
3.800000e-07	-5.852078e-06	-4.482592e-09	-4.151204e+01	-2.876754e+02
3.900000e-07	-5.807081e-06	-4.341014e-09	-4.119284e+01	-2.869442e+02
4.000000e-07	-5.761000e-06	-4.232143e-09	-4.086596e+01	-2.862056e+02
4.100000e-07	-5.714121e-06	-4.360407e-09	-4.053342e+01	-2.854609e+02
4.200000e-07	-5.666328e-06	-4.408146e-09	-4.019441e+01	-2.847099e+02
4.300000e-07	-5.617212e-06	-4.300012e-09	-3.984600e+01	-2.839510e+02
4.400000e-07	-5.566675e-06	-4.240282e-09	-3.948751e+01	-2.831811e+02
4.500000e-07	-5.514939e-06	-4.285341e-09	-3.912052e+01	-2.823963e+02
4.600000e-07	-5.462287e-06	-4.306419e-09	-3.874703e+01	-2.815917e+02
4.700000e-07	-5.408752e-06	-4.266937e-09	-3.836727e+01	-2.807624e+02
4.800000e-07	-5.354250e-06	-4.230383e-09	-3.798066e+01	-2.799032e+02
4.900000e-07	-5.298874e-06	-4.206554e-09	-3.758785e+01	-2.790097e+02
5.000000e-07	-5.242594e-06	-4.220163e-09	-3.718862e+01	-2.780781e+02
5.100000e-07	-5.185345e-06	-4.234223e-09	-3.678252e+01	-2.771057e+02
5.200000e-07	-5.127106e-06	-4.196096e-09	-3.636940e+01	-2.760910e+02
5.300000e-07	-5.067844e-06	-4.146092e-09	-3.594902e+01	-2.750340e+02
5.400000e-07	-5.007660e-06	-4.139971e-09	-3.552211e+01	-2.739357e+02
5.500000e-07	-4.946781e-06	-4.168034e-09	-3.509026e+01	-2.727985e+02
5.600000e-07	-4.885198e-06	-4.148818e-09	-3.465342e+01	-2.716256e+02
5.700000e-07	-4.822785e-06	-4.087011e-09	-3.421069e+01	-2.704208e+02
5.800000e-07	-4.759512e-06	-4.068001e-09	-3.376186e+01	-2.691881e+02
5.900000e-07	-4.695424e-06	-4.096541e-09	-3.330724e+01	-2.679313e+02
6.000000e-07	-4.630471e-06	-4.082448e-09	-3.284650e+01	-2.666538e+02
6.100000e-07	-4.564504e-06	-4.021648e-09	-3.237856e+01	-2.653578e+02
6.200000e-07	-4.497565e-06	-3.998690e-09	-3.190372e+01	-2.640448e+02
6.300000e-07	-4.429824e-06	-4.008128e-09	-3.142320e+01	-2.627146e+02
6.400000e-07	-4.361429e-06	-3.992825e-09	-3.093803e+01	-2.613658e+02
6.500000e-07	-4.292260e-06	-3.953288e-09	-3.044738e+01	-2.599956e+02
6.600000e-07	-4.222251e-06	-3.929200e-09	-2.995077e+01	-2.585999e+02
6.700000e-07	-4.151598e-06	-3.919975e-09	-2.944959e+01	-2.571739e+02
6.800000e-07	-4.080304e-06	-3.905538e-09	-2.894386e+01	-2.557120e+02
6.900000e-07	-4.008177e-06	-3.884075e-09	-2.843222e+01	-2.542084e+02
7.000000e-07	-3.935123e-06	-3.851147e-09	-2.791401e+01	-2.526574e+02
7.100000e-07	-3.861207e-06	-3.817391e-09	-2.738968e+01	-2.510539e+02
7.200000e-07	-3.786485e-06	-3.800948e-09	-2.685964e+01	-2.493935e+02
7.300000e-07	-3.711007e-06	-3.787304e-09	-2.632423e+01	-2.476730e+02
7.400000e-07	-3.634820e-06	-3.748050e-09	-2.578379e+01	-2.458904e+02
7.500000e-07	-3.557815e-06	-3.703774e-09	-2.523755e+01	-2.440451e+02
7.600000e-07	-3.479901e-06	-3.688883e-09	-2.468487e+01	-2.421373e+02
7.700000e-07	-3.401403e-06	-3.675120e-09	-2.412804e+01	-2.401688e+02
7.800000e-07	-3.322427e-06	-3.633477e-09	-2.356782e+01	-2.381416e+02
7.900000e-07	-3.242687e-06	-3.587610e-09	-2.300218e+01	-2.360583e+02
8.000000e-07	-3.162246e-06	-3.564786e-09	-2.243156e+01	-2.339216e+02
8.100000e-07	-3.081292e-06	-3.544865e-09	-2.185731e+01	-2.317335e+02
8.200000e-07	-2.999853e-06	-3.502482e-09	-2.127962e+01	-2.294953e+02
8.300000e-07	-2.917888e-06	-3.455856e-09	-2.069820e+01	-2.272071e+02
8.400000e-07	-2.835448e-06	-3.422925e-09	-2.011341e+01	-2.248677e+02
8.500000e-07	-2.752707e-06	-3.395406e-09	-1.952647e+01	-2.224743e+02
8.600000e-07	-2.669685e-06	-3.361582e-09	-1.893755e+01	-2.200227e+02
8.700000e-07	-2.586261e-06	-3.317346e-09	-1.834578e+01	-2.175070e+02
8.800000e-07	-2.502375e-06	-3.268609e-09	-1.775073e+01	-2.149205e+02
8.900000e-07	-2.418085e-06	-3.226765e-09	-1.715282e+01	-2.122554e+02
9.000000e-07	-2.333558e-06	-3.190438e-09	-1.655322e+01	-2.095036e+02
9.100000e-07	-2.248789e-06	-3.146664e-09	-1.595191e+01	-2.066571e+02
9.200000e-07	-2.163677e-06	-3.090128e-09	-1.534816e+01	-2.037079e+02
9.300000e-07	-2.078177e-06	-3.040009e-09	-1.474166e+01	-2.006490e+02
9.400000e-07	-1.992322e-06	-3.002571e-09	-1.413264e+01	-1.974745e+02
9.500000e-07	-1.906181e-06	-2.957406e-09	-1.352160e+01	-1.941792e+02
9.600000e-07	-1.819723e-06	-2.895934e-09	-1.290830e+01	-1.907594e+02
9.700000e-07	-1.732941e-06	-2.833752e-09	-1.229271e+01	-1.872119e+02
9.800000e-07	-1.645892e-06	-2.783508e-09	-1.167522e+01	-1.835341e+02
9.900000e-07	-1.558603e-06	-2.731594e-09	-1.105603e+01	-1.797234e+02
1.000000e-06	-1.471062e-06	-2.666716e-09	-1.043506e+01	-1.757763e+02
1.010000e-06	-1.383224e-06	-2.597712e-09	-9.811975e+00	-1.716880e+02
1.020000e-06	-1.295007e-06	-2.535680e-09	-9.186199e+00	-1.674515e+02
1.030000e-06	-1.206443e-06	-2.475462e-09	-8.557972e+00	-1.630568e+02
1.040000e-06	-1.117646e-06	-2.405706e-09	-7.928083e+00	-1.584906e+02
1.050000e-06	-1.028633e-06	-2.326741e-09	-7.296662e+00	-1.537354e+02
1.060000e-06	-9.394296e-07	-2.246168e-09	-6.663895e+00	-1.487700e+02
1.070000e-06	-8.500542e-07	-2.168269e-09	-6.029905e+00	-1.435689e+02
1.080000e-06	-7.605370e-07	-2.088300e-09	-5.394911e+00	-1.381029e+02
1.090000e-06	-6.708611e-07	-1.998857e-09	-4.758789e+00	-1.323402e+02
1.100000e-06	-5.810687e-07	-1.902078e-09	-4.121842e+00	-1.262467e+02
1.110000e-06	-4.912501e-07	-1.805509e-09	-3.484709e+00	-1.197881e+02
1.120000e-06	-4.013062e-07	-1.707179e-09	-2.846687e+00	-1.129306e+02
1.130000e-06	-3.112547e-07	-1.597407e-09	-2.207902e+00	-1.056434e+02
1.140000e-06	-2.211000e-07	-1.473185e-09	-1.568385e+00	-9.789980e+01
1.150000e-06	-1.308597e-07	-1.345136e-09	-9.282601e-01	-8.967951e+01
1.160000e-06	-4.057769e-08	-1.217927e-09	-2.878401e-01	-8.096994e+01
1.170000e-06	4.970465e-08	-1.079923e-09	3.525826e-01	-7.176784e+01
1.180000e-06	1.398723e-07	-9.293601e-10	9.921915e-01	-6.208042e+01
1.190000e-06	2.300341e-07	-7.734180e-10	1.631759e+00	-5.192613e+01
1.200000e-06	3.201762e-07	-6.155374e-10	2.271188e+00	-4.133503e+01
1.210000e-06	4.101575e-07	-4.523144e-10	2.909474e+00	-3.034868e+01
1.220000e-06	4.999827e-07	-2.817929e-10	3.546655e+00	-1.901954e+01
1.230000e-06	5.896670e-07	-1.061713e-10	4.182835e+00	-7.409878e+00
1.240000e-06	6.792144e-07	7.382925e-11	4.818044e+00	4.409703e+00
1.250000e-06	7.685948e-07	2.544814e-10	5.452069e+00	1.636217e+01
1.260000e-06	8.578357e-07	4.360876e-10	6.085104e+00	2.836622e+01
1.270000e-06	9.469064e-07	6.180968e-10	6.716932e+00	4.033863e+01
1.280000e-06	1.035790e-06	7.985217e-10	7.347430e+00	5.219672e+01
1.290000e-06	1.124492e-06	9.728233e-10	7.976647e+00	6.386078e+01
1.300000e-06	1.212933e-06	1.142453e-09	8.604009e+00	7.525628e+01
1.310000e-06	1.301125e-06	1.311708e-09	9.229602e+00	8.631598e+01
1.320000e-06	1.389112e-06	1.474083e-09	9.853743e+00	9.698155e+01
1.330000e-06	1.476857e-06	1.626515e-09	1.047616e+01	1.072049e+02
1.340000e-06	1.564295e-06	1.773502e-09	1.109641e+01	1.169491e+02
1.350000e-06	1.651430e-06	1.915562e-09	1.171451e+01	1.261886e+02
1.360000e-06	1.738282e-06	2.045634e-09	1.233060e+01	1.349092e+02
1.370000e-06	1.824884e-06	2.163179e-09	1.294491e+01	1.431076e+02
1.380000e-06	1.911262e-06	2.272442e-09	1.355764e+01	1.507903e+02
1.390000e-06	1.997437e-06	2.375956e-09	1.416893e+01	1.579727e+02
1.400000e-06	2.083359e-06	2.472974e-09	1.477842e+01	1.646770e+02
1.410000e-06	2.168890e-06	2.564150e-09	1.538514e+01	1.709312e+02
1.420000e-06	2.253992e-06	2.650675e-09	1.598882e+01	1.767670e+02
1.430000e-06	2.338727e-06	2.732233e-09	1.658989e+01	1.822185e+02
1.440000e-06	2.423116e-06	2.811076e-09	1.718850e+01	1.873200e+02
1.450000e-06	2.507199e-06	2.887371e-09	1.778495e+01	1.921054e+02
1.460000e-06	2.590930e-06	2.957215e-09	1.837891e+01	1.966065e+02
1.470000e-06	2.674264e-06	3.020902e-09	1.897004e+01	2.008526e+02
1.480000e-06	2.757144e-06	3.082805e-09	1.955795e+01	2.048695e+02
1.490000e-06	2.839491e-06	3.142124e-09	2.014208e+01	2.086793e+02
1.500000e-06	2.921379e-06	3.195284e-09	2.072296e+01	2.123009e+02
1.510000e-06	3.002813e-06	3.244207e-09	2.130061e+01	2.157493e+02
1.520000e-06	3.083723e-06	3.293729e-09	2.187456e+01	2.190368e+02
1.530000e-06	3.164015e-06	3.343846e-09	2.244411e+01	2.221731e+02
1.540000e-06	3.243705e-06	3.389485e-09	2.300940e+01	2.251661e+02
1.550000e-06	3.322838e-06	3.430131e-09	2.357073e+01	2.280223e+02
1.560000e-06	3.401278e-06	3.469771e-09	2.412715e+01	2.307476e+02
1.570000e-06	3.479028e-06	3.508442e-09	2.467867e+01	2.333476e+02
1.580000e-06	3.556111e-06	3.543852e-09	2.522546e+01	2.358282e+02
1.590000e-06	3.632510e-06	3.576408e-09	2.576741e+01	2.381957e+02
1.600000e-06	3.708248e-06	3.608362e-09	2.630466e+01	2.404569e+02
1.610000e-06	3.783266e-06	3.638488e-09	2.683680e+01	2.426193e+02
1.620000e-06	3.857408e-06	3.666964e-09	2.736273e+01	2.446907e+02
1.630000e-06	3.930584e-06	3.696660e-09	2.788181e+01	2.466793e+02
1.640000e-06	4.002930e-06	3.726402e-09	2.839500e+01	2.485933e+02
1.650000e-06	4.074538e-06	3.753938e-09	2.890296e+01	2.504402e+02
1.660000e-06	4.145432e-06	3.780728e-09	2.940585e+01	2.522272e+02
1.670000e-06	4.215663e-06	3.808160e-09	2.990403e+01	2.539606e+02
1.680000e-06	4.285194e-06	3.834501e-09	3.039726e+01	2.556453e+02
1.690000e-06	4.353966e-06	3.858685e-09	3.088509e+01	2.572853e+02
1.700000e-06	4.422067e-06	3.880264e-09	3.136817e+01	2.588831e+02
1.710000e-06	4.489593e-06	3.901508e-09	3.184717e+01	2.604401e+02
1.720000e-06	4.556365e-06	3.924914e-09	3.232082e+01	2.619567e+02
1.730000e-06	4.622141e-06	3.948419e-09	3.278741e+01	2.634322e+02
1.740000e-06	4.686947e-06	3.971041e-09	3.324711e+01	2.648656e+02
1.750000e-06	4.750878e-06	3.991835e-09	3.370061e+01	2.662554e+02
1.760000e-06	4.814027e-06	4.011456e-09	3.414856e+01	2.676003e+02
1.770000e-06	4.876497e-06	4.030387e-09	3.459170e+01	2.688992e+02
1.780000e-06	4.938230e-06	4.048103e-09	3.502960e+01	2.701513e+02
1.790000e-06	4.999101e-06	4.065125e-09	3.546139e+01	2.713568e+02
1.800000e-06	5.059215e-06	4.080617e-09	3.588782e+01	2.725166e+02
1.810000e-06	5.118686e-06	4.095970e-09	3.630968e+01	2.736321e+02
1.820000e-06	5.177228e-06	4.111710e-09	3.672495e+01	2.747057e+02
1.830000e-06	5.234584e-06	4.128430e-09	3.713180e+01	2.757403e+02
1.840000e-06	5.290865e-06	4.146541e-09	3.753104e+01	2.767391e+02
1.850000e-06	5.346220e-06	4.164320e-09	3.792370e+01	2.777057e+02
1.860000e-06	5.400693e-06	4.180433e-09	3.831011e+01	2.786436e+02
1.870000e-06	5.454263e-06	4.194682e-09	3.869011e+01	2.795558e+02
1.880000e-06	5.506884e-06	4.208035e-09	3.906338e+01	2.804451e+02
1.890000e-06	5.558506e-06	4.221305e-09	3.942956e+01	2.813136e+02
1.900000e-06	5.608869e-06	4.233505e-09	3.978682e+01	2.821626e+02
1.910000e-06	5.657768e-06	4.245468e-09	4.013369e+01	2.829928e+02
1.920000e-06	5.705443e-06	4.258272e-09	4.047187e+01	2.838042e+02
1.930000e-06	5.752169e-06	4.271823e-09	4.080333e+01	2.845961e+02
1.940000e-06	5.797927e-06	4.285966e-09	4.112791e+01	2.853673e+02
1.950000e-06	5.842676e-06	4.298184e-09	4.144534e+01	2.861164e+02
1.960000e-06	5.886553e-06	4.307761e-09	4.175658e+01	2.868419e+02
1.970000e-06	5.929556e-06	4.317328e-09	4.206163e+01	2.875425e+02
1.980000e-06	5.971310e-06	4.328717e-09	4.235781e+01	2.882171e+02
1.990000e-06	6.011694e-06	4.338503e-09	4.264428e+01	2.888651e+02
2.000000e-06	6.051012e-06	4.345127e-09	4.292318e+01	2.894864e+02
2.010000e-06	6.089371e-06	4.352569e-09	4.319528e+01	2.900816e+02
2.020000e-06	6.126732e-06	4.361976e-09	4.346030e+01	2.906519e+02
2.030000e-06	6.163119e-06	4.370863e-09	4.371842e+01	2.911988e+02
2.040000e-06	6.198597e-06	4.379152e-09	4.397008e+01	2.917244e+02
2.050000e-06	6.233014e-06	4.387447e-09	4.421422e+01	2.922310e+02
2.060000e-06	6.266046e-06	4.396867e-09	4.444854e+01	2.927209e+02
2.070000e-06	6.297857e-06	4.406943e-09	4.467419e+01	2.931961e+02
2.080000e-06	6.328735e-06	4.415760e-09	4.489323e+01	2.936585e+02
2.090000e-06	6.358638e-06	4.423074e-09	4.510535e+01	2.941094e+02
2.100000e-06	6.387508e-06	4.429939e-09	4.531013e+01	2.945494e+02
2.110000e-06	6.415426e-06	4.437268e-09	4.550817e+01	2.949784e+02
2.120000e-06	6.442384e-06	4.444907e-09	4.569940e+01	2.953957e+02
2.130000e-06	6.468007e-06	4.452587e-09	4.588116e+01	2.958000e+02
2.140000e-06	6.492195e-06	4.459424e-09	4.605274e+01	2.961892e+02
2.150000e-06	6.515246e-06	4.466842e-09	4.621625e+01	2.965610e+02
2.160000e-06	6.537254e-06	4.474488e-09	4.637236e+01	2.969130e+02
2.170000e-06	6.558172e-06	4.480347e-09	4.652075e+01	2.972427e+02
2.180000e-06	6.578096e-06	4.484521e-09	4.666208e+01	2.975476e+02
2.190000e-06	6.597029e-06	4.488516e-09	4.679639e+01	2.978259e+02
2.200000e-06	6.614760e-06	4.492789e-09	4.692216e+01	2.980761e+02
2.210000e-06	6.631215e-06	4.495867e-09	4.703889e+01	2.982975e+02
2.220000e-06	6.646449e-06	4.499269e-09	4.714695e+01	2.984900e+02
2.230000e-06	6.660448e-06	4.504134e-09	4.724625e+01	2.986542e+02
2.240000e-06	6.673244e-06	4.509129e-09	4.733702e+01	2.987912e+02
2.250000e-06	6.684883e-06	4.512244e-09	4.741958e+01	2.989028e+02
2.260000e-06	6.695062e-06	4.514341e-09	4.749178e+01	2.989910e+02
2.270000e-06	6.703690e-06	4.517362e-09	4.755299e+01	2.990580e+02
2.280000e-06	6.711154e-06	4.520152e-09	4.760593e+01	2.991060e+02
2.290000e-06	6.717504e-06	4.522662e-09	4.765098e+01	2.991370e+02
2.300000e-06	6.722626e-06	4.524273e-09	4.768731e+01	2.991526e+02
2.310000e-06	6.726662e-06	4.525102e-09	4.771594e+01	2.991540e+02
2.320000e-06	6.729658e-06	4.525757e-09	4.773719e+01	2.991420e+02
2.330000e-06	6.731315e-06	4.528095e-09	4.774895e+01	2.991166e+02
2.340000e-06	6.731569e-06	4.532291e-09	4.775075e+01	2.990776e+02
2.350000e-06	6.730698e-06	4.531874e-09	4.774457e+01	2.990244e+02
2.360000e-06	6.728791e-06	4.524768e-09	4.773105e+01	2.989563e+02
2.370000e-06	6.725811e-06	4.520370e-09	4.770991e+01	2.988724e+02
2.380000e-06	6.721849e-06	4.518242e-09	4.768180e+01	2.987720e+02
2.390000e-06	6.716981e-06	4.516784e-09	4.764727e+01	2.986551e+02
2.400000e-06	6.710872e-06	4.513904e-09	4.760394e+01	2.985218e+02
2.410000e-06	6.703383e-06	4.520399e-09	4.755081e+01	2.983729e+02
2.420000e-06	6.694856e-06	4.546074e-09	4.749032e+01	2.982102e+02
2.430000e-06	6.685398e-06	4.478786e-09	4.742323e+01	2.980359e+02
2.440000e-06	6.674649e-06	4.400507e-09	4.734698e+01	2.978527e+02
2.450000e-06	6.661965e-06	4.407136e-09	4.725701e+01	2.976641e+02
2.460000e-06	6.647196e-06	4.498880e-09	4.715225e+01	2.974733e+02
2.470000e-06	6.631207e-06	4.698683e-09	4.703883e+01	2.972840e+02
2.480000e-06	6.614841e-06	4.530275e-09	4.692273e+01	2.970992e+02
2.490000e-06	6.597798e-06	4.317795e-09	4.680184e+01	2.969215e+02
2.500000e-06	6.579262e-06	4.544826e-09	4.667035e+01	2.967525e+02
2.510000e-06	6.559683e-06	4.506528e-09	4.653147e+01	2.965927e+02
2.520000e-06	6.539638e-06	4.539151e-09	4.638928e+01	2.964415e+02
2.530000e-06	6.518151e-06	4.673052e-09	4.623686e+01	2.962967e+02
2.540000e-06	6.494833e-06	4.336026e-09	4.607145e+01	2.961551e+02
2.550000e-06	6.470583e-06	4.400879e-09	4.589943e+01	2.960119e+02
2.560000e-06	6.445571e-06	4.742444e-09	4.572201e+01	2.958616e+02
2.570000e-06	6.419443e-06	4.481501e-09	4.553666e+01	2.956978e+02
2.580000e-06	6.392190e-06	4.372931e-09	4.534334e+01	2.955136e+02
2.590000e-06	6.363927e-06	4.626463e-09	4.514286e+01	2.953023e+02
2.600000e-06	6.334722e-06	4.621444e-09	4.493570e+01	2.950573e+02
2.610000e-06	6.304101e-06	4.632164e-09	4.471848e+01	2.947731e+02
2.620000e-06	6.272016e-06	4.491620e-09	4.449089e+01	2.944449e+02
2.630000e-06	6.238986e-06	4.434414e-09	4.425658e+01	2.940694e+02
2.640000e-06	6.204851e-06	4.626799e-09	4.401445e+01	2.936451e+02
2.650000e-06	6.169492e-06	4.516836e-09	4.376363e+01	2.931719e+02
2.660000e-06	6.133243e-06	4.528759e-09	4.350650e+01	2.926513e+02
2.670000e-06	6.095915e-06	4.524170e-09	4.324170e+01	2.920863e+02
2.680000e-06	6.057080e-06	4.380845e-09	4.296623e+01	2.914813e+02
2.690000e-06	6.017029e-06	4.518531e-09	4.268212e+01	2.908413e+02
2.700000e-06	5.976157e-06	4.569026e-09	4.239219e+01	2.901722e+02
2.710000e-06	5.934196e-06	4.458717e-09	4.209454e+01	2.894796e+02
2.720000e-06	5.891000e-06	4.337725e-09	4.178813e+01	2.887692e+02
2.730000e-06	5.846977e-06	4.435123e-09	4.147585e+01	2.880456e+02
2.740000e-06	5.802194e-06	4.578403e-09	4.115818e+01	2.873126e+02
2.750000e-06	5.756303e-06	4.370351e-09	4.083265e+01	2.865726e+02
2.760000e-06	5.709278e-06	4.324724e-09	4.049907e+01	2.858267e+02
2.770000e-06	5.661328e-06	4.422060e-09	4.015894e+01	2.850742e+02
2.780000e-06	5.612457e-06	4.418893e-09	3.981227e+01	2.843133e+02
2.790000e-06	5.562350e-06	4.381403e-09	3.945683e+01	2.835407e+02
2.800000e-06	5.511124e-06	4.311160e-09	3.909346e+01	2.827522e+02
2.810000e-06	5.459048e-06	4.363651e-09	3.872405e+01	2.819430e+02
2.820000e-06	5.405879e-06	4.338768e-09	3.834690e+01	2.811080e+02
2.830000e-06	5.351389e-06	4.307179e-09	3.796037e+01	2.802422e+02
2.840000e-06	5.295726e-06	4.324154e-09	3.756552e+01	2.793413e+02
2.850000e-06	5.239211e-06	4.268522e-09	3.716463e+01	2.784016e+02
2.860000e-06	5.181871e-06	4.258266e-09	3.675788e+01	2.774207e+02
2.870000e-06	5.123690e-06	4.252991e-09	3.634517e+01	2.763975e+02
2.880000e-06	5.064721e-06	4.264154e-09	3.592687e+01	2.753319e+02
2.890000e-06	5.004957e-06	4.208023e-09	3.550293e+01	2.742256e+02
2.900000e-06	4.944404e-06	4.166769e-09	3.507340e+01	2.730809e+02
2.910000e-06	4.883010e-06	4.212907e-09	3.463790e+01	2.719012e+02
2.920000e-06	4.820634e-06	4.188522e-09	3.419543e+01	2.706904e+02
2.930000e-06	4.757171e-06	4.130884e-09	3.374525e+01	2.694525e+02
2.940000e-06	4.692791e-06	4.110734e-09	3.328856e+01	2.681912e+02
2.950000e-06	4.627717e-06	4.136828e-09	3.282696e+01	2.669097e+02
