# Temperatura_=_20.0
# Concentracion g/m^3_=_9000.0
# C_Vs_to_Am_M_A/Vsm_=_65563218390.804596
# pendiente_HvsI_1/m_=_3716.3
# ordenada_HvsI_A/m_=_1297.0
# frecuencia_Hz_=_212911.61660244816

Tiempo_(s)	Campo_(V.s)	Magnetizacion_(V.s)	Campo_(kA/m)	Magnetizacion_(A/m)
0.000000e+00	-6.715582e-06	-4.573795e-09	-4.768207e+01	-3.019129e+02
1.000000e-08	-6.714232e-06	-4.577143e-09	-4.767249e+01	-3.018581e+02
2.000000e-08	-6.711444e-06	-4.579360e-09	-4.765269e+01	-3.017906e+02
3.000000e-08	-6.707596e-06	-4.579591e-09	-4.762537e+01	-3.017110e+02
4.000000e-08	-6.702775e-06	-4.579295e-09	-4.759114e+01	-3.016197e+02
5.000000e-08	-6.696907e-06	-4.577305e-09	-4.754948e+01	-3.015178e+02
6.000000e-08	-6.689988e-06	-4.573201e-09	-4.750035e+01	-3.014063e+02
7.000000e-08	-6.682049e-06	-4.562033e-09	-4.744398e+01	-3.012866e+02
8.000000e-08	-6.672905e-06	-4.558562e-09	-4.737906e+01	-3.011604e+02
9.000000e-08	-6.662132e-06	-4.609314e-09	-4.730257e+01	-3.010293e+02
1.000000e-07	-6.649723e-06	-4.655533e-09	-4.721446e+01	-3.008950e+02
1.100000e-07	-6.635815e-06	-4.636454e-09	-4.711572e+01	-3.007594e+02
1.200000e-07	-6.620366e-06	-4.549633e-09	-4.700602e+01	-3.006235e+02
1.300000e-07	-6.603657e-06	-4.438928e-09	-4.688739e+01	-3.004885e+02
1.400000e-07	-6.586093e-06	-4.550656e-09	-4.676268e+01	-3.003544e+02
1.500000e-07	-6.567628e-06	-4.694584e-09	-4.663157e+01	-3.002208e+02
1.600000e-07	-6.548298e-06	-4.551078e-09	-4.649432e+01	-3.000864e+02
1.700000e-07	-6.528113e-06	-4.504595e-09	-4.635101e+01	-2.999487e+02
1.800000e-07	-6.506727e-06	-4.498694e-09	-4.619916e+01	-2.998048e+02
1.900000e-07	-6.484287e-06	-4.469918e-09	-4.603983e+01	-2.996504e+02
2.000000e-07	-6.461096e-06	-4.663917e-09	-4.587517e+01	-2.994811e+02
2.100000e-07	-6.436655e-06	-4.632709e-09	-4.570163e+01	-2.992915e+02
2.200000e-07	-6.410611e-06	-4.399090e-09	-4.551672e+01	-2.990764e+02
2.300000e-07	-6.383381e-06	-4.536577e-09	-4.532338e+01	-2.988303e+02
2.400000e-07	-6.355250e-06	-4.700873e-09	-4.512364e+01	-2.985483e+02
2.500000e-07	-6.326078e-06	-4.595498e-09	-4.491651e+01	-2.982259e+02
2.600000e-07	-6.295728e-06	-4.512904e-09	-4.470102e+01	-2.978599e+02
2.700000e-07	-6.264340e-06	-4.458502e-09	-4.447816e+01	-2.974477e+02
2.800000e-07	-6.232102e-06	-4.535007e-09	-4.424927e+01	-2.969883e+02
2.900000e-07	-6.198614e-06	-4.611767e-09	-4.401149e+01	-2.964821e+02
3.000000e-07	-6.163657e-06	-4.512905e-09	-4.376329e+01	-2.959307e+02
3.100000e-07	-6.127566e-06	-4.450596e-09	-4.350704e+01	-2.953369e+02
3.200000e-07	-6.090376e-06	-4.467924e-09	-4.324298e+01	-2.947048e+02
3.300000e-07	-6.052030e-06	-4.507503e-09	-4.297071e+01	-2.940389e+02
3.400000e-07	-6.012675e-06	-4.524735e-09	-4.269128e+01	-2.933446e+02
3.500000e-07	-5.972402e-06	-4.461733e-09	-4.240534e+01	-2.926272e+02
3.600000e-07	-5.930855e-06	-4.375241e-09	-4.211035e+01	-2.918919e+02
3.700000e-07	-5.888003e-06	-4.413721e-09	-4.180609e+01	-2.911432e+02
3.800000e-07	-5.844110e-06	-4.516125e-09	-4.149443e+01	-2.903849e+02
3.900000e-07	-5.799102e-06	-4.436871e-09	-4.117487e+01	-2.896196e+02
4.000000e-07	-5.753030e-06	-4.323425e-09	-4.084775e+01	-2.888486e+02
4.100000e-07	-5.706086e-06	-4.394836e-09	-4.051444e+01	-2.880718e+02
4.200000e-07	-5.658239e-06	-4.445611e-09	-4.017471e+01	-2.872877e+02
4.300000e-07	-5.609038e-06	-4.382091e-09	-3.982538e+01	-2.864938e+02
4.400000e-07	-5.558396e-06	-4.327659e-09	-3.946581e+01	-2.856864e+02
4.500000e-07	-5.506605e-06	-4.331613e-09	-3.909808e+01	-2.848611e+02
4.600000e-07	-5.453797e-06	-4.345430e-09	-3.872313e+01	-2.840130e+02
4.700000e-07	-5.400060e-06	-4.332391e-09	-3.834159e+01	-2.831373e+02
4.800000e-07	-5.345436e-06	-4.310233e-09	-3.795375e+01	-2.822293e+02
4.900000e-07	-5.290015e-06	-4.266162e-09	-3.756024e+01	-2.812852e+02
5.000000e-07	-5.233807e-06	-4.257073e-09	-3.716116e+01	-2.803018e+02
5.100000e-07	-5.176614e-06	-4.284834e-09	-3.675507e+01	-2.792773e+02
5.200000e-07	-5.118301e-06	-4.263097e-09	-3.634104e+01	-2.782107e+02
5.300000e-07	-5.058969e-06	-4.209376e-09	-3.591977e+01	-2.771026e+02
5.400000e-07	-4.998779e-06	-4.188479e-09	-3.549241e+01	-2.759545e+02
5.500000e-07	-4.937857e-06	-4.214061e-09	-3.505984e+01	-2.747691e+02
5.600000e-07	-4.876217e-06	-4.212118e-09	-3.462219e+01	-2.735494e+02
5.700000e-07	-4.813733e-06	-4.156727e-09	-3.417854e+01	-2.722991e+02
5.800000e-07	-4.750425e-06	-4.121376e-09	-3.372904e+01	-2.710219e+02
5.900000e-07	-4.686367e-06	-4.133166e-09	-3.327422e+01	-2.697210e+02
6.000000e-07	-4.621403e-06	-4.135778e-09	-3.281295e+01	-2.683992e+02
6.100000e-07	-4.555363e-06	-4.091984e-09	-3.234406e+01	-2.670582e+02
6.200000e-07	-4.488338e-06	-4.051427e-09	-3.186816e+01	-2.656985e+02
6.300000e-07	-4.420614e-06	-4.043834e-09	-3.138731e+01	-2.643196e+02
6.400000e-07	-4.352254e-06	-4.037257e-09	-3.090194e+01	-2.629196e+02
6.500000e-07	-4.283120e-06	-4.014162e-09	-3.041107e+01	-2.614955e+02
6.600000e-07	-4.213162e-06	-3.980081e-09	-2.991435e+01	-2.600432e+02
6.700000e-07	-4.142523e-06	-3.950736e-09	-2.941280e+01	-2.585579e+02
6.800000e-07	-4.071297e-06	-3.937679e-09	-2.890708e+01	-2.570345e+02
6.900000e-07	-3.999302e-06	-3.930518e-09	-2.839591e+01	-2.554678e+02
7.000000e-07	-3.926343e-06	-3.903044e-09	-2.787788e+01	-2.538527e+02
7.100000e-07	-3.852411e-06	-3.858024e-09	-2.735294e+01	-2.521849e+02
7.200000e-07	-3.777621e-06	-3.833573e-09	-2.682192e+01	-2.504611e+02
7.300000e-07	-3.702106e-06	-3.827269e-09	-2.628575e+01	-2.486788e+02
7.400000e-07	-3.625907e-06	-3.797273e-09	-2.574472e+01	-2.468368e+02
7.500000e-07	-3.549007e-06	-3.748857e-09	-2.519871e+01	-2.449351e+02
7.600000e-07	-3.471404e-06	-3.718087e-09	-2.464772e+01	-2.429746e+02
7.700000e-07	-3.393122e-06	-3.700819e-09	-2.409190e+01	-2.409572e+02
7.800000e-07	-3.314182e-06	-3.670307e-09	-2.353140e+01	-2.388853e+02
7.900000e-07	-3.234459e-06	-3.627355e-09	-2.296536e+01	-2.367611e+02
8.000000e-07	-3.154056e-06	-3.593108e-09	-2.239448e+01	-2.345872e+02
8.100000e-07	-3.073226e-06	-3.566892e-09	-2.182057e+01	-2.323650e+02
8.200000e-07	-2.991863e-06	-3.535186e-09	-2.124287e+01	-2.300953e+02
8.300000e-07	-2.909927e-06	-3.495860e-09	-2.066111e+01	-2.277776e+02
8.400000e-07	-2.827570e-06	-3.453515e-09	-2.007636e+01	-2.254098e+02
8.500000e-07	-2.744868e-06	-3.417146e-09	-1.948915e+01	-2.229886e+02
8.600000e-07	-2.661883e-06	-3.385567e-09	-1.889994e+01	-2.205089e+02
8.700000e-07	-2.578552e-06	-3.346891e-09	-1.830827e+01	-2.179645e+02
8.800000e-07	-2.494790e-06	-3.298327e-09	-1.771354e+01	-2.153480e+02
8.900000e-07	-2.410622e-06	-3.251712e-09	-1.711593e+01	-2.126515e+02
9.000000e-07	-2.326148e-06	-3.213237e-09	-1.651615e+01	-2.098666e+02
9.100000e-07	-2.241426e-06	-3.171246e-09	-1.591460e+01	-2.069850e+02
9.200000e-07	-2.156379e-06	-3.117543e-09	-1.531076e+01	-2.039991e+02
9.300000e-07	-2.070973e-06	-3.063887e-09	-1.470435e+01	-2.009017e+02
9.400000e-07	-1.985216e-06	-3.019999e-09	-1.409546e+01	-1.976869e+02
9.500000e-07	-1.899129e-06	-2.974664e-09	-1.348422e+01	-1.943499e+02
9.600000e-07	-1.812729e-06	-2.916185e-09	-1.287076e+01	-1.908867e+02
9.700000e-07	-1.726025e-06	-2.852768e-09	-1.225515e+01	-1.872943e+02
9.800000e-07	-1.639033e-06	-2.796663e-09	-1.163748e+01	-1.835700e+02
9.900000e-07	-1.551772e-06	-2.743952e-09	-1.101791e+01	-1.797107e+02
1.000000e-06	-1.464274e-06	-2.682331e-09	-1.039666e+01	-1.757129e+02
1.010000e-06	-1.376522e-06	-2.612612e-09	-9.773602e+00	-1.715713e+02
1.020000e-06	-1.288445e-06	-2.547200e-09	-9.148236e+00	-1.672784e+02
1.030000e-06	-1.200042e-06	-2.486022e-09	-8.520555e+00	-1.628237e+02
1.040000e-06	-1.111414e-06	-2.418153e-09	-7.891282e+00	-1.581935e+02
1.050000e-06	-1.022586e-06	-2.340027e-09	-7.260583e+00	-1.533699e+02
1.060000e-06	-9.335209e-07	-2.257339e-09	-6.628199e+00	-1.483312e+02
1.070000e-06	-8.442422e-07	-2.176744e-09	-5.994301e+00	-1.430516e+02
1.080000e-06	-7.547509e-07	-2.096789e-09	-5.358894e+00	-1.375022e+02
1.090000e-06	-6.650433e-07	-2.008055e-09	-4.721951e+00	-1.316509e+02
1.100000e-06	-5.752433e-07	-1.910059e-09	-4.084351e+00	-1.254642e+02
1.110000e-06	-4.853554e-07	-1.810155e-09	-3.446127e+00	-1.189080e+02
1.120000e-06	-3.953739e-07	-1.709449e-09	-2.807240e+00	-1.119493e+02
1.130000e-06	-3.053615e-07	-1.599400e-09	-2.168132e+00	-1.045580e+02
1.140000e-06	-2.152865e-07	-1.473136e-09	-1.528580e+00	-9.670829e+01
1.150000e-06	-1.251419e-07	-1.343066e-09	-8.885345e-01	-8.838086e+01
1.160000e-06	-3.496286e-08	-1.214301e-09	-2.482438e-01	-7.956410e+01
1.170000e-06	5.518749e-08	-1.076683e-09	3.918430e-01	-7.025574e+01
1.180000e-06	1.453001e-07	-9.275374e-10	1.031662e+00	-6.046390e+01
1.190000e-06	2.353879e-07	-7.704519e-10	1.671305e+00	-5.020787e+01
1.200000e-06	3.254597e-07	-6.086401e-10	2.310834e+00	-3.951845e+01
1.210000e-06	4.154316e-07	-4.412995e-10	2.949653e+00	-2.843780e+01
1.220000e-06	5.052606e-07	-2.685803e-10	3.587459e+00	-1.701882e+01
1.230000e-06	5.949212e-07	-8.810352e-11	4.224068e+00	-5.324140e+00
1.240000e-06	6.843720e-07	9.738634e-11	4.859188e+00	6.575430e+00
1.250000e-06	7.736757e-07	2.798257e-10	5.493264e+00	1.860273e+01
1.260000e-06	8.628594e-07	4.595924e-10	6.126487e+00	3.067642e+01
1.270000e-06	9.518232e-07	6.399940e-10	6.758149e+00	4.271327e+01
1.280000e-06	1.040569e-06	8.233590e-10	7.388267e+00	5.463063e+01
1.290000e-06	1.129086e-06	1.000879e-09	8.016752e+00	6.634881e+01
1.300000e-06	1.217369e-06	1.171026e-09	8.643584e+00	7.779330e+01
1.310000e-06	1.305395e-06	1.337413e-09	9.268586e+00	8.889684e+01
1.320000e-06	1.393134e-06	1.500536e-09	9.891554e+00	9.960110e+01
1.330000e-06	1.480677e-06	1.656050e-09	1.051312e+01	1.098580e+02
1.340000e-06	1.567969e-06	1.803890e-09	1.113292e+01	1.196305e+02
1.350000e-06	1.655012e-06	1.944860e-09	1.175094e+01	1.288931e+02
1.360000e-06	1.741831e-06	2.076236e-09	1.236738e+01	1.376316e+02
1.370000e-06	1.828425e-06	2.196387e-09	1.298221e+01	1.458431e+02
1.380000e-06	1.914751e-06	2.306085e-09	1.359514e+01	1.535342e+02
1.390000e-06	2.000763e-06	2.408522e-09	1.420585e+01	1.607206e+02
1.400000e-06	2.086463e-06	2.503794e-09	1.481433e+01	1.674252e+02
1.410000e-06	2.171824e-06	2.596709e-09	1.542042e+01	1.736768e+02
1.420000e-06	2.256838e-06	2.686227e-09	1.602403e+01	1.795077e+02
1.430000e-06	2.341508e-06	2.770276e-09	1.662521e+01	1.849529e+02
1.440000e-06	2.425885e-06	2.848719e-09	1.722431e+01	1.900480e+02
1.450000e-06	2.509915e-06	2.925650e-09	1.782094e+01	1.948276e+02
1.460000e-06	2.593519e-06	2.998772e-09	1.841454e+01	1.993247e+02
1.470000e-06	2.676731e-06	3.063065e-09	1.900537e+01	2.035695e+02
1.480000e-06	2.759530e-06	3.123202e-09	1.959326e+01	2.075884e+02
1.490000e-06	2.841845e-06	3.180909e-09	2.017771e+01	2.114045e+02
1.500000e-06	2.923703e-06	3.234607e-09	2.075892e+01	2.150366e+02
1.510000e-06	3.005035e-06	3.285057e-09	2.133639e+01	2.185003e+02
1.520000e-06	3.085811e-06	3.335455e-09	2.190992e+01	2.218076e+02
1.530000e-06	3.165951e-06	3.385609e-09	2.247894e+01	2.249678e+02
1.540000e-06	3.245409e-06	3.430673e-09	2.304310e+01	2.279882e+02
1.550000e-06	3.324300e-06	3.472826e-09	2.360325e+01	2.308746e+02
1.560000e-06	3.402587e-06	3.513953e-09	2.415910e+01	2.336318e+02
1.570000e-06	3.480146e-06	3.553029e-09	2.470978e+01	2.362644e+02
1.580000e-06	3.557049e-06	3.589543e-09	2.525581e+01	2.387773e+02
1.590000e-06	3.633369e-06	3.623925e-09	2.579770e+01	2.411756e+02
1.600000e-06	3.708983e-06	3.655935e-09	2.633458e+01	2.434653e+02
1.610000e-06	3.783794e-06	3.685442e-09	2.686575e+01	2.456532e+02
1.620000e-06	3.857761e-06	3.714931e-09	2.739093e+01	2.477467e+02
1.630000e-06	3.930912e-06	3.745409e-09	2.791032e+01	2.497535e+02
1.640000e-06	4.003249e-06	3.775072e-09	2.842393e+01	2.516819e+02
1.650000e-06	4.074792e-06	3.803165e-09	2.893190e+01	2.535398e+02
1.660000e-06	4.145603e-06	3.829602e-09	2.943467e+01	2.553349e+02
1.670000e-06	4.215678e-06	3.854863e-09	2.993222e+01	2.570740e+02
1.680000e-06	4.285007e-06	3.879544e-09	3.042447e+01	2.587632e+02
1.690000e-06	4.353697e-06	3.902957e-09	3.091218e+01	2.604072e+02
1.700000e-06	4.421766e-06	3.923992e-09	3.139549e+01	2.620095e+02
1.710000e-06	4.489169e-06	3.944039e-09	3.187406e+01	2.635724e+02
1.720000e-06	4.555824e-06	3.966500e-09	3.234733e+01	2.650968e+02
1.730000e-06	4.621567e-06	3.990079e-09	3.281412e+01	2.665829e+02
1.740000e-06	4.686334e-06	4.011379e-09	3.327398e+01	2.680296e+02
1.750000e-06	4.750186e-06	4.031467e-09	3.372734e+01	2.694358e+02
1.760000e-06	4.813271e-06	4.051944e-09	3.417526e+01	2.707997e+02
1.770000e-06	4.875658e-06	4.071829e-09	3.461822e+01	2.721197e+02
1.780000e-06	4.937266e-06	4.089547e-09	3.505565e+01	2.733946e+02
1.790000e-06	4.998076e-06	4.105740e-09	3.548742e+01	2.746236e+02
1.800000e-06	5.058187e-06	4.121085e-09	3.591421e+01	2.758065e+02
1.810000e-06	5.117506e-06	4.137634e-09	3.633539e+01	2.769440e+02
1.820000e-06	5.175802e-06	4.153641e-09	3.674931e+01	2.780376e+02
1.830000e-06	5.232998e-06	4.168980e-09	3.715541e+01	2.790894e+02
1.840000e-06	5.289140e-06	4.186507e-09	3.755403e+01	2.801021e+02
1.850000e-06	5.344404e-06	4.204154e-09	3.794642e+01	2.810791e+02
1.860000e-06	5.398830e-06	4.220122e-09	3.833285e+01	2.820236e+02
1.870000e-06	5.452312e-06	4.232786e-09	3.871259e+01	2.829391e+02
1.880000e-06	5.504789e-06	4.245676e-09	3.908518e+01	2.838288e+02
1.890000e-06	5.556128e-06	4.259666e-09	3.944970e+01	2.846955e+02
1.900000e-06	5.606240e-06	4.272732e-09	3.980551e+01	2.855415e+02
1.910000e-06	5.655089e-06	4.284884e-09	4.015235e+01	2.863684e+02
1.920000e-06	5.702726e-06	4.295021e-09	4.049058e+01	2.871772e+02
1.930000e-06	5.749356e-06	4.306177e-09	4.082166e+01	2.879681e+02
1.940000e-06	5.795039e-06	4.320110e-09	4.114602e+01	2.887408e+02
1.950000e-06	5.839769e-06	4.333905e-09	4.146361e+01	2.894945e+02
1.960000e-06	5.883598e-06	4.344585e-09	4.177481e+01	2.902280e+02
1.970000e-06	5.926437e-06	4.355186e-09	4.207898e+01	2.909400e+02
1.980000e-06	5.968080e-06	4.368457e-09	4.237465e+01	2.916290e+02
1.990000e-06	6.008430e-06	4.380508e-09	4.266115e+01	2.922940e+02
2.000000e-06	6.047663e-06	4.388750e-09	4.293971e+01	2.929339e+02
2.010000e-06	6.085943e-06	4.395567e-09	4.321150e+01	2.935484e+02
2.020000e-06	6.123243e-06	4.404319e-09	4.347634e+01	2.941373e+02
2.030000e-06	6.159575e-06	4.413201e-09	4.373431e+01	2.947009e+02
2.040000e-06	6.194951e-06	4.420762e-09	4.398548e+01	2.952402e+02
2.050000e-06	6.229212e-06	4.429116e-09	4.422875e+01	2.957563e+02
2.060000e-06	6.262166e-06	4.439982e-09	4.446273e+01	2.962505e+02
2.070000e-06	6.293930e-06	4.451479e-09	4.468825e+01	2.967245e+02
2.080000e-06	6.324709e-06	4.461713e-09	4.490679e+01	2.971798e+02
2.090000e-06	6.354483e-06	4.469470e-09	4.511820e+01	2.976176e+02
2.100000e-06	6.383234e-06	4.475589e-09	4.532234e+01	2.980391e+02
2.110000e-06	6.411032e-06	4.481913e-09	4.551971e+01	2.984451e+02
2.120000e-06	6.437783e-06	4.487622e-09	4.570964e+01	2.988359e+02
2.130000e-06	6.463156e-06	4.493757e-09	4.588979e+01	2.992113e+02
2.140000e-06	6.487171e-06	4.501176e-09	4.606031e+01	2.995709e+02
2.150000e-06	6.510095e-06	4.509445e-09	4.622308e+01	2.999138e+02
2.160000e-06	6.531962e-06	4.516594e-09	4.637833e+01	3.002388e+02
2.170000e-06	6.552775e-06	4.522091e-09	4.652611e+01	3.005448e+02
2.180000e-06	6.572630e-06	4.526952e-09	4.666709e+01	3.008305e+02
2.190000e-06	6.591469e-06	4.532420e-09	4.680085e+01	3.010945e+02
2.200000e-06	6.609112e-06	4.538324e-09	4.692611e+01	3.013359e+02
2.210000e-06	6.625548e-06	4.541891e-09	4.704281e+01	3.015539e+02
2.220000e-06	6.640797e-06	4.544886e-09	4.715108e+01	3.017482e+02
2.230000e-06	6.654795e-06	4.549769e-09	4.725048e+01	3.019188e+02
2.240000e-06	6.667538e-06	4.554758e-09	4.734095e+01	3.020660e+02
2.250000e-06	6.679032e-06	4.557455e-09	4.742257e+01	3.021904e+02
2.260000e-06	6.689118e-06	4.559886e-09	4.749417e+01	3.022931e+02
2.270000e-06	6.697692e-06	4.562630e-09	4.755506e+01	3.023752e+02
2.280000e-06	6.705047e-06	4.565733e-09	4.760728e+01	3.024379e+02
2.290000e-06	6.711332e-06	4.569042e-09	4.765190e+01	3.024826e+02
2.300000e-06	6.716471e-06	4.570460e-09	4.768839e+01	3.025103e+02
2.310000e-06	6.720550e-06	4.570894e-09	4.771735e+01	3.025222e+02
2.320000e-06	6.723542e-06	4.571794e-09	4.773860e+01	3.025191e+02
2.330000e-06	6.725110e-06	4.574540e-09	4.774972e+01	3.025018e+02
2.340000e-06	6.725254e-06	4.577602e-09	4.775075e+01	3.024706e+02
2.350000e-06	6.724324e-06	4.576447e-09	4.774414e+01	3.024262e+02
2.360000e-06	6.722371e-06	4.571447e-09	4.773028e+01	3.023688e+02
2.370000e-06	6.719290e-06	4.568182e-09	4.770840e+01	3.022987e+02
2.380000e-06	6.715200e-06	4.568180e-09	4.767937e+01	3.022166e+02
2.390000e-06	6.710188e-06	4.566761e-09	4.764378e+01	3.021231e+02
2.400000e-06	6.703881e-06	4.564340e-09	4.759900e+01	3.020191e+02
2.410000e-06	6.696232e-06	4.571143e-09	4.754468e+01	3.019058e+02
2.420000e-06	6.687619e-06	4.581789e-09	4.748353e+01	3.017846e+02
2.430000e-06	6.678041e-06	4.538219e-09	4.741553e+01	3.016571e+02
2.440000e-06	6.667127e-06	4.460105e-09	4.733803e+01	3.015251e+02
2.450000e-06	6.654319e-06	4.465078e-09	4.724710e+01	3.013904e+02
2.460000e-06	6.639488e-06	4.545548e-09	4.714179e+01	3.012546e+02
2.470000e-06	6.623476e-06	4.701168e-09	4.702810e+01	3.011188e+02
2.480000e-06	6.607103e-06	4.612397e-09	4.691185e+01	3.009838e+02
2.490000e-06	6.590050e-06	4.429150e-09	4.679077e+01	3.008498e+02
2.500000e-06	6.571558e-06	4.577397e-09	4.665947e+01	3.007162e+02
2.510000e-06	6.551971e-06	4.580364e-09	4.652040e+01	3.005812e+02
2.520000e-06	6.531716e-06	4.578288e-09	4.637659e+01	3.004425e+02
2.530000e-06	6.510060e-06	4.698622e-09	4.622282e+01	3.002967e+02
2.540000e-06	6.486731e-06	4.481790e-09	4.605719e+01	3.001397e+02
2.550000e-06	6.462479e-06	4.450133e-09	4.588499e+01	2.999667e+02
2.560000e-06	6.437423e-06	4.728137e-09	4.570709e+01	2.997724e+02
2.570000e-06	6.411275e-06	4.592726e-09	4.552143e+01	2.995514e+02
2.580000e-06	6.384036e-06	4.455695e-09	4.532803e+01	2.992984e+02
2.590000e-06	6.355847e-06	4.630435e-09	4.512788e+01	2.990086e+02
2.600000e-06	6.326719e-06	4.634128e-09	4.492106e+01	2.986776e+02
2.610000e-06	6.296085e-06	4.655948e-09	4.470356e+01	2.983024e+02
2.620000e-06	6.263945e-06	4.596595e-09	4.447536e+01	2.978808e+02
2.630000e-06	6.230877e-06	4.486314e-09	4.424057e+01	2.974119e+02
2.640000e-06	6.196754e-06	4.610589e-09	4.399828e+01	2.968964e+02
2.650000e-06	6.161395e-06	4.582251e-09	4.374723e+01	2.963362e+02
2.660000e-06	6.125141e-06	4.576745e-09	4.348982e+01	2.957343e+02
2.670000e-06	6.087824e-06	4.589589e-09	4.322486e+01	2.950949e+02
2.680000e-06	6.048961e-06	4.448132e-09	4.294893e+01	2.944228e+02
2.690000e-06	6.008824e-06	4.530759e-09	4.266394e+01	2.937234e+02
2.700000e-06	5.967884e-06	4.611961e-09	4.237326e+01	2.930020e+02
2.710000e-06	5.925906e-06	4.522351e-09	4.207521e+01	2.922636e+02
2.720000e-06	5.882710e-06	4.417575e-09	4.176851e+01	2.915126e+02
2.730000e-06	5.838690e-06	4.451499e-09	4.145595e+01	2.907527e+02
2.740000e-06	5.793929e-06	4.586314e-09	4.113814e+01	2.899861e+02
2.750000e-06	5.748038e-06	4.462597e-09	4.081231e+01	2.892139e+02
2.760000e-06	5.700956e-06	4.381514e-09	4.047801e+01	2.884357e+02
2.770000e-06	5.652924e-06	4.450317e-09	4.013698e+01	2.876499e+02
2.780000e-06	5.603891e-06	4.446854e-09	3.978883e+01	2.868535e+02
2.790000e-06	5.553720e-06	4.441219e-09	3.943260e+01	2.860428e+02
2.800000e-06	5.502594e-06	4.383498e-09	3.906960e+01	2.852132e+02
2.810000e-06	5.450623e-06	4.384364e-09	3.870060e+01	2.843599e+02
2.820000e-06	5.397487e-06	4.374421e-09	3.832332e+01	2.834780e+02
2.830000e-06	5.342920e-06	4.354418e-09	3.793588e+01	2.825631e+02
2.840000e-06	5.287187e-06	4.378310e-09	3.754016e+01	2.816113e+02
2.850000e-06	5.230637e-06	4.312580e-09	3.713864e+01	2.806197e+02
2.860000e-06	5.173284e-06	4.288492e-09	3.673143e+01	2.795867e+02
2.870000e-06	5.115106e-06	4.300131e-09	3.631835e+01	2.785116e+02
2.880000e-06	5.056121e-06	4.309335e-09	3.589954e+01	2.773953e+02
2.890000e-06	4.996379e-06	4.262264e-09	3.547536e+01	2.762395e+02
2.900000e-06	4.935964e-06	4.202235e-09	3.504640e+01	2.750468e+02
2.910000e-06	4.874703e-06	4.236609e-09	3.461144e+01	2.738206e+02
2.920000e-06	4.812271e-06	4.229375e-09	3.416816e+01	2.725646e+02
2.930000e-06	4.748726e-06	4.180523e-09	3.371698e+01	2.712823e+02
2.940000e-06	4.684361e-06	4.144836e-09	3.325997e+01	2.699770e+02
2.950000e-06	4.619252e-06	4.150375e-09	3.279768e+01	2.686512e+02
