# Temperatura_=_20.0
# Concentracion g/m^3_=_9000.0
# C_Vs_to_Am_M_A/Vsm_=_65563218390.804596
# pendiente_HvsI_1/m_=_3716.3
# ordenada_HvsI_A/m_=_1297.0
# frecuencia_Hz_=_212910.9472031433

Tiempo_(s)	Campo_(V.s)	Magnetizacion_(V.s)	Campo_(kA/m)	Magnetizacion_(A/m)
0.000000e+00	-6.735974e-06	-4.667429e-09	-4.768060e+01	-3.051626e+02
1.000000e-08	-6.734595e-06	-4.671656e-09	-4.767084e+01	-3.050856e+02
2.000000e-08	-6.731847e-06	-4.673469e-09	-4.765138e+01	-3.049894e+02
3.000000e-08	-6.728096e-06	-4.673492e-09	-4.762484e+01	-3.048748e+02
4.000000e-08	-6.723383e-06	-4.670826e-09	-4.759147e+01	-3.047430e+02
5.000000e-08	-6.717537e-06	-4.667127e-09	-4.755009e+01	-3.045960e+02
6.000000e-08	-6.710597e-06	-4.663059e-09	-4.750097e+01	-3.044368e+02
7.000000e-08	-6.702725e-06	-4.649687e-09	-4.744525e+01	-3.042687e+02
8.000000e-08	-6.693636e-06	-4.648260e-09	-4.738091e+01	-3.040957e+02
9.000000e-08	-6.682853e-06	-4.711461e-09	-4.730459e+01	-3.039221e+02
1.000000e-07	-6.670459e-06	-4.733516e-09	-4.721685e+01	-3.037524e+02
1.100000e-07	-6.656623e-06	-4.708828e-09	-4.711891e+01	-3.035908e+02
1.200000e-07	-6.641245e-06	-4.620235e-09	-4.701006e+01	-3.034410e+02
1.300000e-07	-6.624553e-06	-4.507303e-09	-4.689191e+01	-3.033060e+02
1.400000e-07	-6.606967e-06	-4.697705e-09	-4.676743e+01	-3.031873e+02
1.500000e-07	-6.588464e-06	-4.766006e-09	-4.663645e+01	-3.030856e+02
1.600000e-07	-6.569141e-06	-4.567020e-09	-4.649967e+01	-3.029996e+02
1.700000e-07	-6.548932e-06	-4.619228e-09	-4.635663e+01	-3.029265e+02
1.800000e-07	-6.527403e-06	-4.573314e-09	-4.620423e+01	-3.028618e+02
1.900000e-07	-6.504861e-06	-4.556453e-09	-4.604467e+01	-3.027998e+02
2.000000e-07	-6.481592e-06	-4.798408e-09	-4.587996e+01	-3.027332e+02
2.100000e-07	-6.457003e-06	-4.619185e-09	-4.570591e+01	-3.026538e+02
2.200000e-07	-6.430876e-06	-4.440347e-09	-4.552097e+01	-3.025531e+02
2.300000e-07	-6.403674e-06	-4.707644e-09	-4.532842e+01	-3.024220e+02
2.400000e-07	-6.375499e-06	-4.741066e-09	-4.512898e+01	-3.022523e+02
2.500000e-07	-6.346255e-06	-4.581453e-09	-4.492197e+01	-3.020363e+02
2.600000e-07	-6.315888e-06	-4.537913e-09	-4.470702e+01	-3.017677e+02
2.700000e-07	-6.284524e-06	-4.533071e-09	-4.448501e+01	-3.014417e+02
2.800000e-07	-6.252291e-06	-4.637593e-09	-4.425685e+01	-3.010556e+02
2.900000e-07	-6.218724e-06	-4.638770e-09	-4.401924e+01	-3.006085e+02
3.000000e-07	-6.183708e-06	-4.502784e-09	-4.377138e+01	-3.001017e+02
3.100000e-07	-6.147567e-06	-4.498718e-09	-4.351556e+01	-2.995384e+02
3.200000e-07	-6.110281e-06	-4.541637e-09	-4.325163e+01	-2.989234e+02
3.300000e-07	-6.071850e-06	-4.562400e-09	-4.297960e+01	-2.982630e+02
3.400000e-07	-6.032544e-06	-4.543596e-09	-4.270137e+01	-2.975643e+02
3.500000e-07	-5.992228e-06	-4.475812e-09	-4.241599e+01	-2.968350e+02
3.600000e-07	-5.950496e-06	-4.435312e-09	-4.212059e+01	-2.960826e+02
3.700000e-07	-5.907461e-06	-4.507810e-09	-4.181597e+01	-2.953139e+02
3.800000e-07	-5.863455e-06	-4.564554e-09	-4.150447e+01	-2.945349e+02
3.900000e-07	-5.818418e-06	-4.422867e-09	-4.118568e+01	-2.937499e+02
4.000000e-07	-5.772253e-06	-4.378075e-09	-4.085890e+01	-2.929617e+02
4.100000e-07	-5.725175e-06	-4.496100e-09	-4.052566e+01	-2.921711e+02
4.200000e-07	-5.677154e-06	-4.488862e-09	-4.018574e+01	-2.913773e+02
4.300000e-07	-5.627785e-06	-4.388329e-09	-3.983629e+01	-2.905775e+02
4.400000e-07	-5.577040e-06	-4.365832e-09	-3.947708e+01	-2.897675e+02
4.500000e-07	-5.525204e-06	-4.410262e-09	-3.911016e+01	-2.889419e+02
4.600000e-07	-5.472373e-06	-4.406056e-09	-3.873620e+01	-2.880947e+02
4.700000e-07	-5.418577e-06	-4.365415e-09	-3.835540e+01	-2.872196e+02
4.800000e-07	-5.363803e-06	-4.336552e-09	-3.796769e+01	-2.863105e+02
4.900000e-07	-5.308263e-06	-4.316215e-09	-3.757454e+01	-2.853619e+02
5.000000e-07	-5.252029e-06	-4.331856e-09	-3.717650e+01	-2.843695e+02
5.100000e-07	-5.194713e-06	-4.332417e-09	-3.677078e+01	-2.833303e+02
5.200000e-07	-5.136225e-06	-4.286031e-09	-3.635677e+01	-2.822429e+02
5.300000e-07	-5.076832e-06	-4.247399e-09	-3.593636e+01	-2.811074e+02
5.400000e-07	-5.016585e-06	-4.249465e-09	-3.550991e+01	-2.799256e+02
5.500000e-07	-4.955512e-06	-4.266175e-09	-3.507760e+01	-2.787003e+02
5.600000e-07	-4.893714e-06	-4.235607e-09	-3.464016e+01	-2.774357e+02
5.700000e-07	-4.831143e-06	-4.179028e-09	-3.419725e+01	-2.761366e+02
5.800000e-07	-4.767816e-06	-4.168334e-09	-3.374899e+01	-2.748078e+02
5.900000e-07	-4.703718e-06	-4.191713e-09	-3.329527e+01	-2.734541e+02
6.000000e-07	-4.638591e-06	-4.165946e-09	-3.283427e+01	-2.720796e+02
6.100000e-07	-4.572277e-06	-4.107189e-09	-3.236487e+01	-2.706873e+02
6.200000e-07	-4.505054e-06	-4.090435e-09	-3.188903e+01	-2.692790e+02
6.300000e-07	-4.437250e-06	-4.092793e-09	-3.140908e+01	-2.678548e+02
6.400000e-07	-4.368768e-06	-4.071413e-09	-3.092433e+01	-2.664135e+02
6.500000e-07	-4.299459e-06	-4.034788e-09	-3.043372e+01	-2.649522e+02
6.600000e-07	-4.229298e-06	-4.008324e-09	-2.993709e+01	-2.634668e+02
6.700000e-07	-4.158400e-06	-3.991404e-09	-2.943524e+01	-2.619521e+02
6.800000e-07	-4.086958e-06	-3.976380e-09	-2.892954e+01	-2.604021e+02
6.900000e-07	-4.014808e-06	-3.956571e-09	-2.841882e+01	-2.588108e+02
7.000000e-07	-3.941579e-06	-3.922115e-09	-2.790047e+01	-2.571722e+02
7.100000e-07	-3.867264e-06	-3.888973e-09	-2.737443e+01	-2.554810e+02
7.200000e-07	-3.792200e-06	-3.871942e-09	-2.684309e+01	-2.537325e+02
7.300000e-07	-3.716506e-06	-3.852987e-09	-2.630729e+01	-2.519236e+02
7.400000e-07	-3.640119e-06	-3.811654e-09	-2.576659e+01	-2.500524e+02
7.500000e-07	-3.563028e-06	-3.770791e-09	-2.522090e+01	-2.481183e+02
7.600000e-07	-3.485221e-06	-3.751239e-09	-2.467014e+01	-2.461220e+02
7.700000e-07	-3.406750e-06	-3.729117e-09	-2.411469e+01	-2.440653e+02
7.800000e-07	-3.327512e-06	-3.687384e-09	-2.355380e+01	-2.419508e+02
7.900000e-07	-3.247501e-06	-3.646199e-09	-2.298744e+01	-2.397816e+02
8.000000e-07	-3.166888e-06	-3.621601e-09	-2.241682e+01	-2.375604e+02
8.100000e-07	-3.085735e-06	-3.594898e-09	-2.184238e+01	-2.352898e+02
8.200000e-07	-3.004102e-06	-3.551718e-09	-2.126454e+01	-2.329711e+02
8.300000e-07	-2.921958e-06	-3.508227e-09	-2.068308e+01	-2.306046e+02
8.400000e-07	-2.839347e-06	-3.473244e-09	-2.009832e+01	-2.281891e+02
8.500000e-07	-2.756414e-06	-3.439472e-09	-1.951128e+01	-2.257215e+02
8.600000e-07	-2.673224e-06	-3.400975e-09	-1.892242e+01	-2.231975e+02
8.700000e-07	-2.589696e-06	-3.355889e-09	-1.833117e+01	-2.206109e+02
8.800000e-07	-2.505716e-06	-3.310337e-09	-1.773671e+01	-2.179544e+02
8.900000e-07	-2.421338e-06	-3.269044e-09	-1.713945e+01	-2.152197e+02
9.000000e-07	-2.336681e-06	-3.227863e-09	-1.654020e+01	-2.123983e+02
9.100000e-07	-2.251715e-06	-3.179316e-09	-1.593877e+01	-2.094813e+02
9.200000e-07	-2.166405e-06	-3.125192e-09	-1.533490e+01	-2.064604e+02
9.300000e-07	-2.080769e-06	-3.079134e-09	-1.472873e+01	-2.033280e+02
9.400000e-07	-1.994765e-06	-3.036747e-09	-1.411995e+01	-2.000776e+02
9.500000e-07	-1.908429e-06	-2.982386e-09	-1.350882e+01	-1.967036e+02
9.600000e-07	-1.821796e-06	-2.919088e-09	-1.289559e+01	-1.932017e+02
9.700000e-07	-1.734879e-06	-2.861809e-09	-1.228034e+01	-1.895686e+02
9.800000e-07	-1.647675e-06	-2.811103e-09	-1.166307e+01	-1.858012e+02
9.900000e-07	-1.560204e-06	-2.753070e-09	-1.104390e+01	-1.818967e+02
1.000000e-06	-1.472587e-06	-2.685976e-09	-1.042371e+01	-1.778516e+02
1.010000e-06	-1.384715e-06	-2.619685e-09	-9.801704e+00	-1.736606e+02
1.020000e-06	-1.296447e-06	-2.559323e-09	-9.176900e+00	-1.693168e+02
1.030000e-06	-1.207862e-06	-2.496846e-09	-8.549854e+00	-1.648101e+02
1.040000e-06	-1.119058e-06	-2.424263e-09	-7.921253e+00	-1.601270e+02
1.050000e-06	-1.029994e-06	-2.344818e-09	-7.290811e+00	-1.552502e+02
1.060000e-06	-9.406327e-07	-2.264243e-09	-6.658270e+00	-1.501583e+02
1.070000e-06	-8.509381e-07	-2.183726e-09	-6.023366e+00	-1.448259e+02
1.080000e-06	-7.610026e-07	-2.099746e-09	-5.386757e+00	-1.392241e+02
1.090000e-06	-6.709841e-07	-2.008629e-09	-4.749562e+00	-1.333212e+02
1.100000e-06	-5.808431e-07	-1.912250e-09	-4.111498e+00	-1.270834e+02
1.110000e-06	-4.905369e-07	-1.815712e-09	-3.472266e+00	-1.204769e+02
1.120000e-06	-4.000830e-07	-1.715279e-09	-2.831988e+00	-1.134683e+02
1.130000e-06	-3.095091e-07	-1.602386e-09	-2.190860e+00	-1.060275e+02
1.140000e-06	-2.188839e-07	-1.478311e-09	-1.549370e+00	-9.812854e+01
1.150000e-06	-1.282542e-07	-1.350889e-09	-9.078478e-01	-8.975179e+01
1.160000e-06	-3.758046e-08	-1.220293e-09	-2.660133e-01	-8.088554e+01
1.170000e-06	5.309354e-08	-1.079556e-09	3.758227e-01	-7.152740e+01
1.180000e-06	1.436974e-07	-9.288176e-10	1.017162e+00	-6.168542e+01
1.190000e-06	2.342323e-07	-7.718517e-10	1.658014e+00	-5.137886e+01
1.200000e-06	3.246281e-07	-6.097216e-10	2.297880e+00	-4.063853e+01
1.210000e-06	4.148884e-07	-4.428979e-10	2.936788e+00	-2.950663e+01
1.220000e-06	5.050487e-07	-2.708249e-10	3.574988e+00	-1.803613e+01
1.230000e-06	5.950262e-07	-9.244691e-11	4.211893e+00	-6.289686e+00
1.240000e-06	6.848845e-07	9.131664e-11	4.847955e+00	5.661906e+00
1.250000e-06	7.745672e-07	2.757630e-10	5.482775e+00	1.774155e+01
1.260000e-06	8.640007e-07	4.593451e-10	6.115830e+00	2.986803e+01
1.270000e-06	9.532791e-07	6.414332e-10	6.747788e+00	4.195835e+01
1.280000e-06	1.042336e-06	8.230603e-10	7.378178e+00	5.393017e+01
1.290000e-06	1.131135e-06	1.000549e-09	8.006743e+00	6.570416e+01
1.300000e-06	1.219711e-06	1.172822e-09	8.633725e+00	7.720622e+01
1.310000e-06	1.308016e-06	1.342322e-09	9.258796e+00	8.836953e+01
1.320000e-06	1.396069e-06	1.505748e-09	9.882073e+00	9.913616e+01
1.330000e-06	1.483850e-06	1.660690e-09	1.050343e+01	1.094583e+02
1.340000e-06	1.571401e-06	1.809774e-09	1.112316e+01	1.192993e+02
1.350000e-06	1.658776e-06	1.954229e-09	1.174165e+01	1.286335e+02
1.360000e-06	1.745887e-06	2.086389e-09	1.235827e+01	1.374468e+02
1.370000e-06	1.832717e-06	2.206285e-09	1.297289e+01	1.457356e+02
1.380000e-06	1.919266e-06	2.317810e-09	1.358552e+01	1.535063e+02
1.390000e-06	2.005528e-06	2.422222e-09	1.419613e+01	1.607737e+02
1.400000e-06	2.091521e-06	2.520169e-09	1.480483e+01	1.675597e+02
1.410000e-06	2.177203e-06	2.613743e-09	1.541133e+01	1.738920e+02
1.420000e-06	2.262532e-06	2.702799e-09	1.601534e+01	1.798017e+02
1.430000e-06	2.347512e-06	2.786781e-09	1.661686e+01	1.853225e+02
1.440000e-06	2.432084e-06	2.867733e-09	1.721551e+01	1.904889e+02
1.450000e-06	2.516266e-06	2.945505e-09	1.781139e+01	1.953344e+02
1.460000e-06	2.600107e-06	3.017119e-09	1.840486e+01	1.998913e+02
1.470000e-06	2.683575e-06	3.082731e-09	1.899569e+01	2.041889e+02
1.480000e-06	2.766659e-06	3.145519e-09	1.958380e+01	2.082537e+02
1.490000e-06	2.849308e-06	3.204417e-09	2.016883e+01	2.121086e+02
1.500000e-06	2.931416e-06	3.258559e-09	2.075003e+01	2.157731e+02
1.510000e-06	3.012923e-06	3.309457e-09	2.132698e+01	2.192635e+02
1.520000e-06	3.093890e-06	3.359563e-09	2.190010e+01	2.225930e+02
1.530000e-06	3.174333e-06	3.409454e-09	2.246952e+01	2.257725e+02
1.540000e-06	3.254171e-06	3.454261e-09	2.303465e+01	2.288107e+02
1.550000e-06	3.333353e-06	3.495375e-09	2.359514e+01	2.317151e+02
1.560000e-06	3.411844e-06	3.537412e-09	2.415074e+01	2.344925e+02
1.570000e-06	3.489700e-06	3.578313e-09	2.470184e+01	2.371488e+02
1.580000e-06	3.566943e-06	3.614566e-09	2.524861e+01	2.396905e+02
1.590000e-06	3.643492e-06	3.647530e-09	2.579046e+01	2.421238e+02
1.600000e-06	3.719342e-06	3.682101e-09	2.632736e+01	2.444555e+02
1.610000e-06	3.794519e-06	3.715891e-09	2.685951e+01	2.466926e+02
1.620000e-06	3.868881e-06	3.745996e-09	2.738588e+01	2.488424e+02
1.630000e-06	3.942268e-06	3.775427e-09	2.790535e+01	2.509122e+02
1.640000e-06	4.014752e-06	3.806441e-09	2.841843e+01	2.529093e+02
1.650000e-06	4.086517e-06	3.836248e-09	2.892642e+01	2.548404e+02
1.660000e-06	4.157599e-06	3.862288e-09	2.942957e+01	2.567115e+02
1.670000e-06	4.227921e-06	3.887391e-09	2.992735e+01	2.585279e+02
1.680000e-06	4.297495e-06	3.913524e-09	3.041983e+01	2.602939e+02
1.690000e-06	4.366356e-06	3.938614e-09	3.090726e+01	2.620124e+02
1.700000e-06	4.434543e-06	3.961044e-09	3.138992e+01	2.636854e+02
1.710000e-06	4.502127e-06	3.982590e-09	3.186831e+01	2.653140e+02
1.720000e-06	4.568984e-06	4.004937e-09	3.234156e+01	2.668982e+02
1.730000e-06	4.634867e-06	4.029099e-09	3.280791e+01	2.684373e+02
1.740000e-06	4.699737e-06	4.052264e-09	3.326710e+01	2.699306e+02
1.750000e-06	4.763783e-06	4.072359e-09	3.372045e+01	2.713768e+02
1.760000e-06	4.827138e-06	4.092277e-09	3.416890e+01	2.727749e+02
1.770000e-06	4.889756e-06	4.113691e-09	3.461215e+01	2.741244e+02
1.780000e-06	4.951559e-06	4.133527e-09	3.504962e+01	2.754252e+02
1.790000e-06	5.012501e-06	4.149270e-09	3.548099e+01	2.766778e+02
1.800000e-06	5.072709e-06	4.164166e-09	3.590718e+01	2.778836e+02
1.810000e-06	5.132253e-06	4.179573e-09	3.632866e+01	2.790447e+02
1.820000e-06	5.190916e-06	4.195987e-09	3.674391e+01	2.801637e+02
1.830000e-06	5.248419e-06	4.212901e-09	3.715094e+01	2.812440e+02
1.840000e-06	5.304849e-06	4.228949e-09	3.755038e+01	2.822890e+02
1.850000e-06	5.360362e-06	4.245336e-09	3.794333e+01	2.833023e+02
1.860000e-06	5.414914e-06	4.262449e-09	3.832948e+01	2.842875e+02
1.870000e-06	5.468557e-06	4.277631e-09	3.870919e+01	2.852476e+02
1.880000e-06	5.521239e-06	4.288466e-09	3.908209e+01	2.861854e+02
1.890000e-06	5.572765e-06	4.299971e-09	3.944683e+01	2.871028e+02
1.900000e-06	5.622980e-06	4.314225e-09	3.980227e+01	2.880011e+02
1.910000e-06	5.671892e-06	4.326265e-09	4.014850e+01	2.888808e+02
1.920000e-06	5.719706e-06	4.336603e-09	4.048694e+01	2.897418e+02
1.930000e-06	5.766509e-06	4.349934e-09	4.081824e+01	2.905831e+02
1.940000e-06	5.812307e-06	4.365795e-09	4.114242e+01	2.914037e+02
1.950000e-06	5.857132e-06	4.380910e-09	4.145972e+01	2.922018e+02
1.960000e-06	5.901067e-06	4.392837e-09	4.177071e+01	2.929758e+02
1.970000e-06	5.944118e-06	4.403400e-09	4.207545e+01	2.937242e+02
1.980000e-06	5.985935e-06	4.415806e-09	4.237145e+01	2.944457e+02
1.990000e-06	6.026422e-06	4.428790e-09	4.265803e+01	2.951393e+02
2.000000e-06	6.065849e-06	4.438665e-09	4.293712e+01	2.958046e+02
2.010000e-06	6.104293e-06	4.446211e-09	4.320925e+01	2.964417e+02
2.020000e-06	6.141678e-06	4.455696e-09	4.347387e+01	2.970514e+02
2.030000e-06	6.178088e-06	4.466640e-09	4.373161e+01	2.976348e+02
2.040000e-06	6.213652e-06	4.476701e-09	4.398335e+01	2.981933e+02
2.050000e-06	6.248080e-06	4.486693e-09	4.422704e+01	2.987288e+02
2.060000e-06	6.281113e-06	4.497193e-09	4.446087e+01	2.992432e+02
2.070000e-06	6.312981e-06	4.507276e-09	4.468644e+01	2.997382e+02
2.080000e-06	6.343829e-06	4.515646e-09	4.490480e+01	3.002153e+02
2.090000e-06	6.373675e-06	4.522376e-09	4.511607e+01	3.006760e+02
2.100000e-06	6.402499e-06	4.529401e-09	4.532010e+01	3.011208e+02
2.110000e-06	6.430368e-06	4.537529e-09	4.551737e+01	3.015501e+02
2.120000e-06	6.457217e-06	4.545786e-09	4.570742e+01	3.019638e+02
2.130000e-06	6.482721e-06	4.552309e-09	4.588795e+01	3.023611e+02
2.140000e-06	6.506917e-06	4.559222e-09	4.605922e+01	3.027410e+02
2.150000e-06	6.529981e-06	4.568420e-09	4.622248e+01	3.031022e+02
2.160000e-06	6.551975e-06	4.576088e-09	4.637816e+01	3.034432e+02
2.170000e-06	6.572885e-06	4.579974e-09	4.652618e+01	3.037627e+02
2.180000e-06	6.592816e-06	4.583632e-09	4.666725e+01	3.040593e+02
2.190000e-06	6.611797e-06	4.589412e-09	4.680161e+01	3.043321e+02
2.200000e-06	6.629552e-06	4.594838e-09	4.692729e+01	3.045803e+02
2.210000e-06	6.646026e-06	4.598905e-09	4.704391e+01	3.048036e+02
2.220000e-06	6.661284e-06	4.602483e-09	4.715191e+01	3.050023e+02
2.230000e-06	6.675292e-06	4.606826e-09	4.725106e+01	3.051767e+02
2.240000e-06	6.688080e-06	4.611384e-09	4.734158e+01	3.053278e+02
2.250000e-06	6.699603e-06	4.614194e-09	4.742315e+01	3.054565e+02
2.260000e-06	6.709630e-06	4.616217e-09	4.749412e+01	3.055639e+02
2.270000e-06	6.718196e-06	4.617996e-09	4.755476e+01	3.056512e+02
2.280000e-06	6.725624e-06	4.621435e-09	4.760734e+01	3.057192e+02
2.290000e-06	6.731938e-06	4.624554e-09	4.765203e+01	3.057686e+02
2.300000e-06	6.737047e-06	4.624264e-09	4.768820e+01	3.057999e+02
2.310000e-06	6.741099e-06	4.623139e-09	4.771687e+01	3.058132e+02
2.320000e-06	6.744061e-06	4.622885e-09	4.773784e+01	3.058083e+02
2.330000e-06	6.745629e-06	4.624783e-09	4.774894e+01	3.057849e+02
2.340000e-06	6.745884e-06	4.627645e-09	4.775075e+01	3.057425e+02
2.350000e-06	6.745034e-06	4.626295e-09	4.774473e+01	3.056810e+02
2.360000e-06	6.743067e-06	4.620051e-09	4.773081e+01	3.056000e+02
2.370000e-06	6.740015e-06	4.618463e-09	4.770921e+01	3.054999e+02
2.380000e-06	6.736055e-06	4.617796e-09	4.768117e+01	3.053816e+02
2.390000e-06	6.731136e-06	4.615652e-09	4.764635e+01	3.052464e+02
2.400000e-06	6.724805e-06	4.613256e-09	4.760154e+01	3.050967e+02
2.410000e-06	6.717149e-06	4.619144e-09	4.754735e+01	3.049353e+02
2.420000e-06	6.708593e-06	4.636540e-09	4.748679e+01	3.047658e+02
2.430000e-06	6.699105e-06	4.562656e-09	4.741962e+01	3.045922e+02
2.440000e-06	6.688302e-06	4.512766e-09	4.734316e+01	3.044190e+02
2.450000e-06	6.675497e-06	4.526887e-09	4.725251e+01	3.042505e+02
2.460000e-06	6.660636e-06	4.610001e-09	4.714732e+01	3.040908e+02
2.470000e-06	6.644639e-06	4.766624e-09	4.703408e+01	3.039437e+02
2.480000e-06	6.628276e-06	4.570590e-09	4.691826e+01	3.038117e+02
2.490000e-06	6.611156e-06	4.455886e-09	4.679708e+01	3.036964e+02
2.500000e-06	6.592523e-06	4.673664e-09	4.666518e+01	3.035978e+02
2.510000e-06	6.572921e-06	4.558264e-09	4.652643e+01	3.035145e+02
2.520000e-06	6.552740e-06	4.640798e-09	4.638358e+01	3.034434e+02
2.530000e-06	6.531047e-06	4.747345e-09	4.623003e+01	3.033797e+02
2.540000e-06	6.507713e-06	4.421800e-09	4.606486e+01	3.033173e+02
2.550000e-06	6.483491e-06	4.595937e-09	4.589340e+01	3.032487e+02
2.560000e-06	6.458402e-06	4.849947e-09	4.571580e+01	3.031657e+02
2.570000e-06	6.432233e-06	4.546095e-09	4.553057e+01	3.030594e+02
2.580000e-06	6.404924e-06	4.573410e-09	4.533726e+01	3.029212e+02
2.590000e-06	6.376641e-06	4.798243e-09	4.513706e+01	3.027427e+02
2.600000e-06	6.347403e-06	4.700988e-09	4.493010e+01	3.025165e+02
2.610000e-06	6.316657e-06	4.726890e-09	4.471247e+01	3.022367e+02
2.620000e-06	6.284484e-06	4.607618e-09	4.448472e+01	3.018987e+02
2.630000e-06	6.251371e-06	4.594792e-09	4.425033e+01	3.015003e+02
2.640000e-06	6.217144e-06	4.751885e-09	4.400806e+01	3.010410e+02
2.650000e-06	6.181694e-06	4.611453e-09	4.375713e+01	3.005224e+02
2.660000e-06	6.145362e-06	4.664342e-09	4.349995e+01	2.999482e+02
2.670000e-06	6.107921e-06	4.627173e-09	4.323492e+01	2.993235e+02
2.680000e-06	6.068918e-06	4.520009e-09	4.295884e+01	2.986548e+02
2.690000e-06	6.028720e-06	4.671815e-09	4.267430e+01	2.979493e+02
2.700000e-06	5.987743e-06	4.641089e-09	4.238425e+01	2.972147e+02
2.710000e-06	5.945671e-06	4.548188e-09	4.208644e+01	2.964584e+02
2.720000e-06	5.902378e-06	4.481592e-09	4.177999e+01	2.956871e+02
2.730000e-06	5.858294e-06	4.586039e-09	4.146794e+01	2.949064e+02
2.740000e-06	5.813461e-06	4.660654e-09	4.115059e+01	2.941205e+02
2.750000e-06	5.767494e-06	4.445811e-09	4.082522e+01	2.933317e+02
2.760000e-06	5.720389e-06	4.476966e-09	4.049178e+01	2.925406e+02
2.770000e-06	5.672294e-06	4.550960e-09	4.015134e+01	2.917457e+02
2.780000e-06	5.623155e-06	4.518116e-09	3.980351e+01	2.909441e+02
2.790000e-06	5.572819e-06	4.480835e-09	3.944720e+01	2.901313e+02
2.800000e-06	5.521426e-06	4.418800e-09	3.908342e+01	2.893018e+02
2.810000e-06	5.469154e-06	4.478440e-09	3.871341e+01	2.884495e+02
2.820000e-06	5.415787e-06	4.437313e-09	3.833565e+01	2.875679e+02
2.830000e-06	5.361105e-06	4.420277e-09	3.794859e+01	2.866512e+02
2.840000e-06	5.305292e-06	4.424350e-09	3.755351e+01	2.856941e+02
2.850000e-06	5.248635e-06	4.364406e-09	3.715247e+01	2.846924e+02
2.860000e-06	5.191092e-06	4.377510e-09	3.674515e+01	2.836436e+02
2.870000e-06	5.132734e-06	4.367071e-09	3.633206e+01	2.825464e+02
2.880000e-06	5.073624e-06	4.365800e-09	3.591365e+01	2.814013e+02
2.890000e-06	5.013773e-06	4.301713e-09	3.549000e+01	2.802104e+02
2.900000e-06	4.953153e-06	4.277344e-09	3.506090e+01	2.789768e+02
2.910000e-06	4.891552e-06	4.320319e-09	3.462486e+01	2.777048e+02
2.920000e-06	4.828837e-06	4.280235e-09	3.418093e+01	2.763992e+02
2.930000e-06	4.765084e-06	4.229168e-09	3.372965e+01	2.750650e+02
2.940000e-06	4.700499e-06	4.212428e-09	3.327249e+01	2.737068e+02
2.950000e-06	4.635136e-06	4.232337e-09	3.280982e+01	2.723284e+02
