# Temperatura_=_20.0
# Concentracion g/m^3_=_9000.0
# C_Vs_to_Am_M_A/Vsm_=_65563218390.804596
# pendiente_HvsI_1/m_=_3716.3
# ordenada_HvsI_A/m_=_1297.0
# frecuencia_Hz_=_212913.3797411159

Tiempo_(s)	Campo_(V.s)	Magnetizacion_(V.s)	Campo_(kA/m)	Magnetizacion_(A/m)
0.000000e+00	-6.723238e-06	-4.587787e-09	-4.768311e+01	-3.036617e+02
1.000000e-08	-6.722306e-06	-4.588757e-09	-4.767650e+01	-3.036112e+02
2.000000e-08	-6.719886e-06	-4.590150e-09	-4.765933e+01	-3.035547e+02
3.000000e-08	-6.716323e-06	-4.590196e-09	-4.763407e+01	-3.034929e+02
4.000000e-08	-6.711820e-06	-4.589902e-09	-4.760213e+01	-3.034258e+02
5.000000e-08	-6.706211e-06	-4.589535e-09	-4.756235e+01	-3.033531e+02
6.000000e-08	-6.699542e-06	-4.587616e-09	-4.751506e+01	-3.032737e+02
7.000000e-08	-6.691949e-06	-4.581320e-09	-4.746120e+01	-3.031864e+02
8.000000e-08	-6.683254e-06	-4.575676e-09	-4.739953e+01	-3.030893e+02
9.000000e-08	-6.673024e-06	-4.598157e-09	-4.732698e+01	-3.029804e+02
1.000000e-07	-6.661075e-06	-4.621480e-09	-4.724223e+01	-3.028575e+02
1.100000e-07	-6.647550e-06	-4.618397e-09	-4.714631e+01	-3.027182e+02
1.200000e-07	-6.632504e-06	-4.589232e-09	-4.703960e+01	-3.025600e+02
1.300000e-07	-6.616109e-06	-4.522570e-09	-4.692332e+01	-3.023804e+02
1.400000e-07	-6.598782e-06	-4.542526e-09	-4.680044e+01	-3.021773e+02
1.500000e-07	-6.580528e-06	-4.607894e-09	-4.667097e+01	-3.019483e+02
1.600000e-07	-6.561356e-06	-4.563681e-09	-4.653500e+01	-3.016913e+02
1.700000e-07	-6.541450e-06	-4.565900e-09	-4.639382e+01	-3.014048e+02
1.800000e-07	-6.520419e-06	-4.546716e-09	-4.624466e+01	-3.010872e+02
1.900000e-07	-6.498175e-06	-4.466550e-09	-4.608690e+01	-3.007373e+02
2.000000e-07	-6.475174e-06	-4.548854e-09	-4.592377e+01	-3.003546e+02
2.100000e-07	-6.451148e-06	-4.606283e-09	-4.575337e+01	-2.999389e+02
2.200000e-07	-6.425516e-06	-4.516598e-09	-4.557158e+01	-2.994902e+02
2.300000e-07	-6.398560e-06	-4.508124e-09	-4.538040e+01	-2.990095e+02
2.400000e-07	-6.370678e-06	-4.565610e-09	-4.518266e+01	-2.984980e+02
2.500000e-07	-6.341818e-06	-4.616373e-09	-4.497797e+01	-2.979576e+02
2.600000e-07	-6.311836e-06	-4.631920e-09	-4.476533e+01	-2.973906e+02
2.700000e-07	-6.280762e-06	-4.525572e-09	-4.454494e+01	-2.967997e+02
2.800000e-07	-6.248685e-06	-4.477777e-09	-4.431744e+01	-2.961880e+02
2.900000e-07	-6.215426e-06	-4.542905e-09	-4.408157e+01	-2.955588e+02
3.000000e-07	-6.180846e-06	-4.583879e-09	-4.383632e+01	-2.949156e+02
3.100000e-07	-6.145076e-06	-4.557203e-09	-4.358262e+01	-2.942616e+02
3.200000e-07	-6.108183e-06	-4.459667e-09	-4.332097e+01	-2.936000e+02
3.300000e-07	-6.070116e-06	-4.432039e-09	-4.305098e+01	-2.929333e+02
3.400000e-07	-6.031076e-06	-4.521592e-09	-4.277410e+01	-2.922638e+02
3.500000e-07	-5.991119e-06	-4.551476e-09	-4.249072e+01	-2.915926e+02
3.600000e-07	-5.949854e-06	-4.446694e-09	-4.219806e+01	-2.909203e+02
3.700000e-07	-5.907224e-06	-4.377290e-09	-4.189571e+01	-2.902463e+02
3.800000e-07	-5.863538e-06	-4.450926e-09	-4.158587e+01	-2.895693e+02
3.900000e-07	-5.818849e-06	-4.499435e-09	-4.126893e+01	-2.888868e+02
4.000000e-07	-5.773054e-06	-4.438847e-09	-4.094414e+01	-2.881955e+02
4.100000e-07	-5.726330e-06	-4.370190e-09	-4.061276e+01	-2.874914e+02
4.200000e-07	-5.678767e-06	-4.365407e-09	-4.027543e+01	-2.867701e+02
4.300000e-07	-5.629909e-06	-4.414569e-09	-3.992891e+01	-2.860268e+02
4.400000e-07	-5.579598e-06	-4.420835e-09	-3.957209e+01	-2.852565e+02
4.500000e-07	-5.528088e-06	-4.355546e-09	-3.920676e+01	-2.844547e+02
4.600000e-07	-5.475548e-06	-4.305184e-09	-3.883414e+01	-2.836171e+02
4.700000e-07	-5.422045e-06	-4.333628e-09	-3.845468e+01	-2.827405e+02
4.800000e-07	-5.367618e-06	-4.376099e-09	-3.806867e+01	-2.818223e+02
4.900000e-07	-5.312444e-06	-4.321817e-09	-3.767736e+01	-2.808611e+02
5.000000e-07	-5.256434e-06	-4.241478e-09	-3.728012e+01	-2.798565e+02
5.100000e-07	-5.199367e-06	-4.252511e-09	-3.687538e+01	-2.788095e+02
5.200000e-07	-5.141271e-06	-4.298329e-09	-3.646335e+01	-2.777218e+02
5.300000e-07	-5.082208e-06	-4.273564e-09	-3.604446e+01	-2.765963e+02
5.400000e-07	-5.022270e-06	-4.200881e-09	-3.561937e+01	-2.754363e+02
5.500000e-07	-4.961596e-06	-4.180274e-09	-3.518904e+01	-2.742455e+02
5.600000e-07	-4.900241e-06	-4.211102e-09	-3.475390e+01	-2.730278e+02
5.700000e-07	-4.838053e-06	-4.213490e-09	-3.431284e+01	-2.717868e+02
5.800000e-07	-4.775057e-06	-4.156995e-09	-3.386606e+01	-2.705256e+02
5.900000e-07	-4.711235e-06	-4.102787e-09	-3.341341e+01	-2.692462e+02
6.000000e-07	-4.646331e-06	-4.110512e-09	-3.295310e+01	-2.679500e+02
6.100000e-07	-4.580401e-06	-4.131709e-09	-3.248550e+01	-2.666369e+02
6.200000e-07	-4.513591e-06	-4.095031e-09	-3.201167e+01	-2.653056e+02
6.300000e-07	-4.446001e-06	-4.026542e-09	-3.153230e+01	-2.639538e+02
6.400000e-07	-4.377725e-06	-4.005042e-09	-3.104807e+01	-2.625780e+02
6.500000e-07	-4.308793e-06	-4.028663e-09	-3.055918e+01	-2.611737e+02
6.600000e-07	-4.239091e-06	-4.019714e-09	-3.006484e+01	-2.597359e+02
6.700000e-07	-4.168615e-06	-3.960722e-09	-2.956500e+01	-2.582596e+02
6.800000e-07	-4.097536e-06	-3.917154e-09	-2.906089e+01	-2.567393e+02
6.900000e-07	-4.025726e-06	-3.922526e-09	-2.855159e+01	-2.551705e+02
7.000000e-07	-3.952941e-06	-3.924601e-09	-2.803538e+01	-2.535489e+02
7.100000e-07	-3.879157e-06	-3.875844e-09	-2.751208e+01	-2.518716e+02
7.200000e-07	-3.804524e-06	-3.817385e-09	-2.698276e+01	-2.501364e+02
7.300000e-07	-3.729144e-06	-3.802251e-09	-2.644815e+01	-2.483427e+02
7.400000e-07	-3.653033e-06	-3.802709e-09	-2.590834e+01	-2.464909e+02
7.500000e-07	-3.576279e-06	-3.771161e-09	-2.536398e+01	-2.445824e+02
7.600000e-07	-3.498801e-06	-3.715718e-09	-2.481449e+01	-2.426196e+02
7.700000e-07	-3.420511e-06	-3.678333e-09	-2.425924e+01	-2.406054e+02
7.800000e-07	-3.341522e-06	-3.668620e-09	-2.369902e+01	-2.385426e+02
7.900000e-07	-3.261873e-06	-3.648615e-09	-2.313413e+01	-2.364343e+02
8.000000e-07	-3.181571e-06	-3.598910e-09	-2.256460e+01	-2.342824e+02
8.100000e-07	-3.100703e-06	-3.548284e-09	-2.199106e+01	-2.320883e+02
8.200000e-07	-3.019341e-06	-3.524862e-09	-2.141402e+01	-2.298517e+02
8.300000e-07	-2.937533e-06	-3.508653e-09	-2.083382e+01	-2.275711e+02
8.400000e-07	-2.855281e-06	-3.464998e-09	-2.025046e+01	-2.252432e+02
8.500000e-07	-2.772634e-06	-3.408861e-09	-1.966431e+01	-2.228631e+02
8.600000e-07	-2.689674e-06	-3.375848e-09	-1.907593e+01	-2.204244e+02
8.700000e-07	-2.606386e-06	-3.357759e-09	-1.848523e+01	-2.179196e+02
8.800000e-07	-2.522735e-06	-3.318962e-09	-1.789195e+01	-2.153402e+02
8.900000e-07	-2.438683e-06	-3.259079e-09	-1.729583e+01	-2.126773e+02
9.000000e-07	-2.354312e-06	-3.208599e-09	-1.669745e+01	-2.099218e+02
9.100000e-07	-2.269663e-06	-3.177314e-09	-1.609709e+01	-2.070651e+02
9.200000e-07	-2.184681e-06	-3.139767e-09	-1.549438e+01	-2.040996e+02
9.300000e-07	-2.099315e-06	-3.081124e-09	-1.488893e+01	-2.010184e+02
9.400000e-07	-2.013549e-06	-3.021622e-09	-1.428066e+01	-1.978164e+02
9.500000e-07	-1.927424e-06	-2.976558e-09	-1.366984e+01	-1.944894e+02
9.600000e-07	-1.840981e-06	-2.933040e-09	-1.305676e+01	-1.910347e+02
9.700000e-07	-1.754266e-06	-2.873081e-09	-1.244175e+01	-1.874505e+02
9.800000e-07	-1.667306e-06	-2.801359e-09	-1.182501e+01	-1.837353e+02
9.900000e-07	-1.580149e-06	-2.739606e-09	-1.120686e+01	-1.798877e+02
1.000000e-06	-1.492805e-06	-2.690968e-09	-1.058740e+01	-1.759053e+02
1.010000e-06	-1.405180e-06	-2.634121e-09	-9.965939e+00	-1.717842e+02
1.020000e-06	-1.317243e-06	-2.560273e-09	-9.342264e+00	-1.675180e+02
1.030000e-06	-1.229011e-06	-2.485831e-09	-8.716498e+00	-1.630972e+02
1.040000e-06	-1.140433e-06	-2.421645e-09	-8.088277e+00	-1.585089e+02
1.050000e-06	-1.051534e-06	-2.353863e-09	-7.457780e+00	-1.537358e+02
1.060000e-06	-9.623968e-07	-2.270578e-09	-6.825591e+00	-1.487565e+02
1.070000e-06	-8.729848e-07	-2.180951e-09	-6.191456e+00	-1.435454e+02
1.080000e-06	-7.833476e-07	-2.097303e-09	-5.555724e+00	-1.380733e+02
1.090000e-06	-6.936145e-07	-2.016125e-09	-4.919311e+00	-1.323079e+02
1.100000e-06	-6.037498e-07	-1.924009e-09	-4.281965e+00	-1.262148e+02
1.110000e-06	-5.137196e-07	-1.819975e-09	-3.643445e+00	-1.197592e+02
1.120000e-06	-4.235991e-07	-1.715151e-09	-3.004285e+00	-1.129069e+02
1.130000e-06	-3.334207e-07	-1.610942e-09	-2.364714e+00	-1.056263e+02
1.140000e-06	-2.431670e-07	-1.496815e-09	-1.724610e+00	-9.789034e+01
1.150000e-06	-1.528111e-07	-1.367210e-09	-1.083779e+00	-8.967762e+01
1.160000e-06	-6.236022e-08	-1.229969e-09	-4.422763e-01	-8.097468e+01
1.170000e-06	2.809642e-08	-1.090689e-09	1.992678e-01	-7.177714e+01
1.180000e-06	1.184667e-07	-9.466755e-10	8.401994e-01	-6.209094e+01
1.190000e-06	2.087423e-07	-7.923022e-10	1.480460e+00	-5.193317e+01
1.200000e-06	2.989278e-07	-6.272944e-10	2.120081e+00	-4.133242e+01
1.210000e-06	3.890159e-07	-4.588048e-10	2.759011e+00	-3.032875e+01
1.220000e-06	4.789687e-07	-2.908380e-10	3.396982e+00	-1.897314e+01
1.230000e-06	5.687617e-07	-1.164315e-10	4.033819e+00	-7.326522e+00
1.240000e-06	6.584024e-07	6.757597e-11	4.669576e+00	4.541680e+00
1.250000e-06	7.478682e-07	2.538774e-10	5.304093e+00	1.655531e+01
1.260000e-06	8.371690e-07	4.364381e-10	5.937440e+00	2.863359e+01
1.270000e-06	9.263135e-07	6.167859e-10	6.569678e+00	4.069339e+01
1.280000e-06	1.015259e-06	8.000569e-10	7.200505e+00	5.265167e+01
1.290000e-06	1.103990e-06	9.832633e-10	7.829810e+00	6.442781e+01
1.300000e-06	1.192470e-06	1.158917e-09	8.457333e+00	7.594594e+01
1.310000e-06	1.280673e-06	1.326181e-09	9.082895e+00	8.713697e+01
1.320000e-06	1.368647e-06	1.490431e-09	9.706832e+00	9.794036e+01
1.330000e-06	1.456383e-06	1.650145e-09	1.032908e+01	1.083055e+02
1.340000e-06	1.543820e-06	1.800245e-09	1.094921e+01	1.181927e+02
1.350000e-06	1.630963e-06	1.940211e-09	1.156725e+01	1.275736e+02
1.360000e-06	1.717912e-06	2.072737e-09	1.218392e+01	1.364314e+02
1.370000e-06	1.804703e-06	2.198143e-09	1.279946e+01	1.447602e+02
1.380000e-06	1.891248e-06	2.314330e-09	1.341327e+01	1.525645e+02
1.390000e-06	1.977475e-06	2.419985e-09	1.402481e+01	1.598579e+02
1.400000e-06	2.063416e-06	2.516829e-09	1.463433e+01	1.666615e+02
1.410000e-06	2.149067e-06	2.609550e-09	1.524179e+01	1.730029e+02
1.420000e-06	2.234299e-06	2.700343e-09	1.584628e+01	1.789138e+02
1.430000e-06	2.319097e-06	2.785595e-09	1.644769e+01	1.844288e+02
1.440000e-06	2.403566e-06	2.863167e-09	1.704677e+01	1.895838e+02
1.450000e-06	2.487725e-06	2.939185e-09	1.764365e+01	1.944142e+02
1.460000e-06	2.571541e-06	3.014224e-09	1.823810e+01	1.989538e+02
1.470000e-06	2.654961e-06	3.082246e-09	1.882974e+01	2.032342e+02
1.480000e-06	2.737928e-06	3.144242e-09	1.941816e+01	2.072832e+02
1.490000e-06	2.820423e-06	3.202655e-09	2.000324e+01	2.111255e+02
1.500000e-06	2.902478e-06	3.258352e-09	2.058520e+01	2.147816e+02
1.510000e-06	2.984069e-06	3.310856e-09	2.116386e+01	2.182684e+02
1.520000e-06	3.065094e-06	3.359946e-09	2.173852e+01	2.215992e+02
1.530000e-06	3.145511e-06	3.407364e-09	2.230886e+01	2.247845e+02
1.540000e-06	3.225310e-06	3.453958e-09	2.287481e+01	2.278324e+02
1.550000e-06	3.304460e-06	3.498822e-09	2.343617e+01	2.307492e+02
1.560000e-06	3.382982e-06	3.540708e-09	2.399307e+01	2.335400e+02
1.570000e-06	3.460903e-06	3.580365e-09	2.454570e+01	2.362095e+02
1.580000e-06	3.538121e-06	3.617253e-09	2.509336e+01	2.387623e+02
1.590000e-06	3.614619e-06	3.652594e-09	2.563590e+01	2.412033e+02
1.600000e-06	3.690518e-06	3.687777e-09	2.617420e+01	2.435380e+02
1.610000e-06	3.765773e-06	3.719499e-09	2.670793e+01	2.457726e+02
1.620000e-06	3.840209e-06	3.747293e-09	2.723585e+01	2.479139e+02
1.630000e-06	3.913669e-06	3.776714e-09	2.775685e+01	2.499694e+02
1.640000e-06	3.986261e-06	3.808216e-09	2.827170e+01	2.519468e+02
1.650000e-06	4.058113e-06	3.836585e-09	2.878129e+01	2.538537e+02
1.660000e-06	4.129212e-06	3.862012e-09	2.928554e+01	2.556979e+02
1.670000e-06	4.199649e-06	3.888297e-09	2.978510e+01	2.574859e+02
1.680000e-06	4.269370e-06	3.914921e-09	3.027958e+01	2.592240e+02
1.690000e-06	4.338294e-06	3.941497e-09	3.076841e+01	2.609170e+02
1.700000e-06	4.406507e-06	3.965785e-09	3.125220e+01	2.625687e+02
1.710000e-06	4.474126e-06	3.987246e-09	3.173177e+01	2.641814e+02
1.720000e-06	4.541092e-06	4.009973e-09	3.220671e+01	2.657564e+02
1.730000e-06	4.607205e-06	4.035242e-09	3.267561e+01	2.672938e+02
1.740000e-06	4.672275e-06	4.060419e-09	3.313710e+01	2.687928e+02
1.750000e-06	4.736359e-06	4.082958e-09	3.359160e+01	2.702520e+02
1.760000e-06	4.799745e-06	4.103811e-09	3.404115e+01	2.716694e+02
1.770000e-06	4.862414e-06	4.124873e-09	3.448562e+01	2.730432e+02
1.780000e-06	4.924234e-06	4.143696e-09	3.492406e+01	2.743717e+02
1.790000e-06	4.985226e-06	4.159980e-09	3.535664e+01	2.756536e+02
1.800000e-06	5.045481e-06	4.175129e-09	3.578398e+01	2.768883e+02
1.810000e-06	5.105131e-06	4.190297e-09	3.620704e+01	2.780759e+02
1.820000e-06	5.163944e-06	4.208211e-09	3.662416e+01	2.792173e+02
1.830000e-06	5.221583e-06	4.226305e-09	3.703295e+01	2.803142e+02
1.840000e-06	5.278119e-06	4.243663e-09	3.743391e+01	2.813690e+02
1.850000e-06	5.333720e-06	4.261380e-09	3.782826e+01	2.823846e+02
1.860000e-06	5.388486e-06	4.278562e-09	3.821667e+01	2.833642e+02
1.870000e-06	5.442354e-06	4.293845e-09	3.859872e+01	2.843112e+02
1.880000e-06	5.495213e-06	4.306451e-09	3.897361e+01	2.852287e+02
1.890000e-06	5.547040e-06	4.318837e-09	3.934118e+01	2.861198e+02
1.900000e-06	5.597672e-06	4.332296e-09	3.970028e+01	2.869869e+02
1.910000e-06	5.646966e-06	4.346851e-09	4.004989e+01	2.878317e+02
1.920000e-06	5.694989e-06	4.360271e-09	4.039048e+01	2.886554e+02
1.930000e-06	5.741920e-06	4.373263e-09	4.072333e+01	2.894585e+02
1.940000e-06	5.787894e-06	4.390098e-09	4.104938e+01	2.902406e+02
1.950000e-06	5.832907e-06	4.405974e-09	4.136863e+01	2.910011e+02
1.960000e-06	5.877003e-06	4.417026e-09	4.168137e+01	2.917386e+02
1.970000e-06	5.920292e-06	4.426196e-09	4.198839e+01	2.924518e+02
1.980000e-06	5.962476e-06	4.437846e-09	4.228757e+01	2.931392e+02
1.990000e-06	6.003195e-06	4.450554e-09	4.257636e+01	2.937995e+02
2.000000e-06	6.042754e-06	4.460201e-09	4.285693e+01	2.944318e+02
2.010000e-06	6.081380e-06	4.467865e-09	4.313087e+01	2.950354e+02
2.020000e-06	6.118988e-06	4.476656e-09	4.339760e+01	2.956105e+02
2.030000e-06	6.155589e-06	4.486541e-09	4.365718e+01	2.961577e+02
2.040000e-06	6.191289e-06	4.496299e-09	4.391038e+01	2.966782e+02
2.050000e-06	6.226044e-06	4.504495e-09	4.415687e+01	2.971739e+02
2.060000e-06	6.259469e-06	4.513480e-09	4.439393e+01	2.976469e+02
2.070000e-06	6.291589e-06	4.524554e-09	4.462173e+01	2.980997e+02
2.080000e-06	6.322705e-06	4.534336e-09	4.484242e+01	2.985349e+02
2.090000e-06	6.352829e-06	4.541718e-09	4.505607e+01	2.989550e+02
2.100000e-06	6.381954e-06	4.548112e-09	4.526263e+01	2.993623e+02
2.110000e-06	6.410077e-06	4.555839e-09	4.546209e+01	2.997585e+02
2.120000e-06	6.437155e-06	4.562542e-09	4.565413e+01	3.001448e+02
2.130000e-06	6.462928e-06	4.569208e-09	4.583692e+01	3.005219e+02
2.140000e-06	6.487311e-06	4.576846e-09	4.600985e+01	3.008896e+02
2.150000e-06	6.510588e-06	4.586048e-09	4.617494e+01	3.012472e+02
2.160000e-06	6.532825e-06	4.596456e-09	4.633265e+01	3.015932e+02
2.170000e-06	6.553979e-06	4.604192e-09	4.648268e+01	3.019257e+02
2.180000e-06	6.574150e-06	4.608783e-09	4.662574e+01	3.022424e+02
2.190000e-06	6.593410e-06	4.611886e-09	4.676233e+01	3.025409e+02
2.200000e-06	6.611519e-06	4.617433e-09	4.689077e+01	3.028185e+02
2.210000e-06	6.628378e-06	4.623185e-09	4.701034e+01	3.030729e+02
2.220000e-06	6.644014e-06	4.626797e-09	4.712123e+01	3.033020e+02
2.230000e-06	6.658305e-06	4.631253e-09	4.722259e+01	3.035042e+02
2.240000e-06	6.671362e-06	4.636603e-09	4.731519e+01	3.036786e+02
2.250000e-06	6.683259e-06	4.641343e-09	4.739957e+01	3.038247e+02
2.260000e-06	6.693829e-06	4.645118e-09	4.747453e+01	3.039430e+02
2.270000e-06	6.702840e-06	4.648562e-09	4.753844e+01	3.040342e+02
2.280000e-06	6.710513e-06	4.651595e-09	4.759286e+01	3.041001e+02
2.290000e-06	6.717105e-06	4.654096e-09	4.763961e+01	3.041426e+02
2.300000e-06	6.722482e-06	4.657435e-09	4.767775e+01	3.041642e+02
2.310000e-06	6.726747e-06	4.660612e-09	4.770800e+01	3.041674e+02
2.320000e-06	6.730047e-06	4.661530e-09	4.773140e+01	3.041551e+02
2.330000e-06	6.732154e-06	4.663599e-09	4.774634e+01	3.041297e+02
2.340000e-06	6.732775e-06	4.668324e-09	4.775075e+01	3.040937e+02
2.350000e-06	6.732132e-06	4.669692e-09	4.774619e+01	3.040491e+02
2.360000e-06	6.730488e-06	4.666387e-09	4.773453e+01	3.039976e+02
2.370000e-06	6.727843e-06	4.665161e-09	4.771577e+01	3.039403e+02
2.380000e-06	6.724151e-06	4.664567e-09	4.768958e+01	3.038776e+02
2.390000e-06	6.719463e-06	4.661969e-09	4.765634e+01	3.038097e+02
2.400000e-06	6.713638e-06	4.659277e-09	4.761502e+01	3.037360e+02
2.410000e-06	6.706413e-06	4.661735e-09	4.756379e+01	3.036554e+02
2.420000e-06	6.698084e-06	4.669771e-09	4.750471e+01	3.035667e+02
2.430000e-06	6.688864e-06	4.648100e-09	4.743932e+01	3.034679e+02
2.440000e-06	6.678535e-06	4.608305e-09	4.736607e+01	3.033570e+02
2.450000e-06	6.666508e-06	4.601328e-09	4.728077e+01	3.032317e+02
2.460000e-06	6.652317e-06	4.621667e-09	4.718012e+01	3.030897e+02
2.470000e-06	6.636538e-06	4.698343e-09	4.706821e+01	3.029284e+02
2.480000e-06	6.620193e-06	4.682871e-09	4.695229e+01	3.027454e+02
2.490000e-06	6.603385e-06	4.606355e-09	4.683308e+01	3.025384e+02
2.500000e-06	6.585293e-06	4.663283e-09	4.670476e+01	3.023053e+02
2.510000e-06	6.565929e-06	4.616888e-09	4.656743e+01	3.020440e+02
2.520000e-06	6.546018e-06	4.597539e-09	4.642622e+01	3.017528e+02
2.530000e-06	6.525024e-06	4.736550e-09	4.627732e+01	3.014304e+02
2.540000e-06	6.502197e-06	4.695898e-09	4.611542e+01	3.010756e+02
2.550000e-06	6.478123e-06	4.632670e-09	4.594468e+01	3.006879e+02
2.560000e-06	6.453267e-06	4.715446e-09	4.576840e+01	3.002671e+02
2.570000e-06	6.427381e-06	4.672473e-09	4.558481e+01	2.998135e+02
2.580000e-06	6.400351e-06	4.587617e-09	4.539310e+01	2.993280e+02
2.590000e-06	6.372277e-06	4.545309e-09	4.519399e+01	2.988120e+02
2.600000e-06	6.343382e-06	4.469050e-09	4.498907e+01	2.982674e+02
2.610000e-06	6.313287e-06	4.556520e-09	4.477562e+01	2.976965e+02
2.620000e-06	6.281617e-06	4.604210e-09	4.455101e+01	2.971023e+02
2.630000e-06	6.248832e-06	4.511295e-09	4.431849e+01	2.964877e+02
2.640000e-06	6.214999e-06	4.476749e-09	4.407853e+01	2.958561e+02
2.650000e-06	6.179898e-06	4.453983e-09	4.382959e+01	2.952110e+02
2.660000e-06	6.143836e-06	4.539891e-09	4.357383e+01	2.945556e+02
2.670000e-06	6.106790e-06	4.561473e-09	4.331109e+01	2.938930e+02
2.680000e-06	6.068313e-06	4.417371e-09	4.303820e+01	2.932258e+02
2.690000e-06	6.028473e-06	4.402687e-09	4.275564e+01	2.925558e+02
2.700000e-06	5.987713e-06	4.478143e-09	4.246656e+01	2.918844e+02
2.710000e-06	5.945979e-06	4.514119e-09	4.217057e+01	2.912119e+02
2.720000e-06	5.903027e-06	4.431943e-09	4.186594e+01	2.905375e+02
2.730000e-06	5.859191e-06	4.349055e-09	4.155504e+01	2.898598e+02
2.740000e-06	5.814581e-06	4.412360e-09	4.123866e+01	2.891761e+02
2.750000e-06	5.768883e-06	4.446460e-09	4.091455e+01	2.884831e+02
2.760000e-06	5.722092e-06	4.424589e-09	4.058270e+01	2.877767e+02
2.770000e-06	5.674285e-06	4.347522e-09	4.024364e+01	2.870524e+02
2.780000e-06	5.625484e-06	4.305544e-09	3.989753e+01	2.863052e+02
2.790000e-06	5.575562e-06	4.373983e-09	3.954347e+01	2.855305e+02
2.800000e-06	5.524549e-06	4.387209e-09	3.918167e+01	2.847235e+02
2.810000e-06	5.472706e-06	4.329051e-09	3.881398e+01	2.838802e+02
2.820000e-06	5.419839e-06	4.251359e-09	3.843903e+01	2.829974e+02
2.830000e-06	5.365646e-06	4.274082e-09	3.805469e+01	2.820728e+02
2.840000e-06	5.310235e-06	4.341146e-09	3.766170e+01	2.811050e+02
2.850000e-06	5.253911e-06	4.293272e-09	3.726223e+01	2.800939e+02
2.860000e-06	5.196746e-06	4.219266e-09	3.685680e+01	2.790406e+02
2.870000e-06	5.138728e-06	4.198719e-09	3.644532e+01	2.779470e+02
2.880000e-06	5.079894e-06	4.240629e-09	3.602805e+01	2.768160e+02
2.890000e-06	5.020250e-06	4.233918e-09	3.560504e+01	2.756510e+02
2.900000e-06	4.959887e-06	4.164144e-09	3.517693e+01	2.744559e+02
2.910000e-06	4.898690e-06	4.126878e-09	3.474290e+01	2.732345e+02
2.920000e-06	4.836452e-06	4.135672e-09	3.430149e+01	2.719902e+02
2.930000e-06	4.773193e-06	4.154595e-09	3.385284e+01	2.707261e+02
2.940000e-06	4.709004e-06	4.113905e-09	3.339759e+01	2.694441e+02
2.950000e-06	4.644006e-06	4.061057e-09	3.293661e+01	2.681453e+02
