# Temperatura_=_20.0
# Concentracion g/m^3_=_9000.0
# C_Vs_to_Am_M_A/Vsm_=_65563218390.804596
# pendiente_HvsI_1/m_=_3716.3
# ordenada_HvsI_A/m_=_1297.0
# frecuencia_Hz_=_212912.59424518535

Tiempo_(s)	Campo_(V.s)	Magnetizacion_(V.s)	Campo_(kA/m)	Magnetizacion_(A/m)
0.000000e+00	-6.705464e-06	-4.575010e-09	-4.768519e+01	-3.002843e+02
1.000000e-08	-6.704124e-06	-4.579845e-09	-4.767567e+01	-3.002553e+02
2.000000e-08	-6.701393e-06	-4.581714e-09	-4.765624e+01	-3.002185e+02
3.000000e-08	-6.697655e-06	-4.580273e-09	-4.762966e+01	-3.001724e+02
4.000000e-08	-6.692930e-06	-4.577997e-09	-4.759606e+01	-3.001151e+02
5.000000e-08	-6.687069e-06	-4.575358e-09	-4.755438e+01	-3.000445e+02
6.000000e-08	-6.680124e-06	-4.570001e-09	-4.750499e+01	-2.999584e+02
7.000000e-08	-6.672275e-06	-4.554186e-09	-4.744918e+01	-2.998550e+02
8.000000e-08	-6.663337e-06	-4.543578e-09	-4.738561e+01	-2.997327e+02
9.000000e-08	-6.652785e-06	-4.616910e-09	-4.731058e+01	-2.995902e+02
1.000000e-07	-6.640550e-06	-4.662996e-09	-4.722357e+01	-2.994271e+02
1.100000e-07	-6.626814e-06	-4.638767e-09	-4.712589e+01	-2.992434e+02
1.200000e-07	-6.611485e-06	-4.543451e-09	-4.701687e+01	-2.990395e+02
1.300000e-07	-6.594877e-06	-4.380048e-09	-4.689876e+01	-2.988166e+02
1.400000e-07	-6.577457e-06	-4.574498e-09	-4.677489e+01	-2.985760e+02
1.500000e-07	-6.559102e-06	-4.736746e-09	-4.664436e+01	-2.983193e+02
1.600000e-07	-6.539892e-06	-4.489133e-09	-4.650775e+01	-2.980480e+02
1.700000e-07	-6.519891e-06	-4.512829e-09	-4.636551e+01	-2.977636e+02
1.800000e-07	-6.498631e-06	-4.509106e-09	-4.621432e+01	-2.974672e+02
1.900000e-07	-6.476268e-06	-4.419857e-09	-4.605529e+01	-2.971594e+02
2.000000e-07	-6.453225e-06	-4.694108e-09	-4.589142e+01	-2.968403e+02
2.100000e-07	-6.428976e-06	-4.589342e-09	-4.571898e+01	-2.965095e+02
2.200000e-07	-6.403071e-06	-4.283702e-09	-4.553476e+01	-2.961659e+02
2.300000e-07	-6.375955e-06	-4.516470e-09	-4.534193e+01	-2.958079e+02
2.400000e-07	-6.347958e-06	-4.678317e-09	-4.514283e+01	-2.954334e+02
2.500000e-07	-6.318978e-06	-4.543423e-09	-4.493674e+01	-2.950402e+02
2.600000e-07	-6.288864e-06	-4.451942e-09	-4.472259e+01	-2.946259e+02
2.700000e-07	-6.257675e-06	-4.390938e-09	-4.450079e+01	-2.941884e+02
2.800000e-07	-6.225569e-06	-4.523518e-09	-4.427247e+01	-2.937255e+02
2.900000e-07	-6.192244e-06	-4.577450e-09	-4.403548e+01	-2.932359e+02
3.000000e-07	-6.157507e-06	-4.415931e-09	-4.378846e+01	-2.927184e+02
3.100000e-07	-6.121647e-06	-4.415448e-09	-4.353344e+01	-2.921727e+02
3.200000e-07	-6.084641e-06	-4.439996e-09	-4.327028e+01	-2.915991e+02
3.300000e-07	-6.046418e-06	-4.434529e-09	-4.299846e+01	-2.909985e+02
3.400000e-07	-6.007205e-06	-4.486751e-09	-4.271960e+01	-2.903722e+02
3.500000e-07	-5.967076e-06	-4.436220e-09	-4.243422e+01	-2.897221e+02
3.600000e-07	-5.925696e-06	-4.310682e-09	-4.213996e+01	-2.890499e+02
3.700000e-07	-5.882999e-06	-4.372513e-09	-4.183632e+01	-2.883577e+02
3.800000e-07	-5.839292e-06	-4.509081e-09	-4.152551e+01	-2.876471e+02
3.900000e-07	-5.794510e-06	-4.370261e-09	-4.120704e+01	-2.869195e+02
4.000000e-07	-5.748615e-06	-4.256838e-09	-4.088066e+01	-2.861756e+02
4.100000e-07	-5.701851e-06	-4.378075e-09	-4.054811e+01	-2.854156e+02
4.200000e-07	-5.654226e-06	-4.409337e-09	-4.020943e+01	-2.846388e+02
4.300000e-07	-5.605322e-06	-4.320213e-09	-3.986165e+01	-2.838441e+02
4.400000e-07	-5.554966e-06	-4.282995e-09	-3.950355e+01	-2.830294e+02
4.500000e-07	-5.503453e-06	-4.305291e-09	-3.913722e+01	-2.821923e+02
4.600000e-07	-5.450949e-06	-4.309744e-09	-3.876385e+01	-2.813302e+02
4.700000e-07	-5.397472e-06	-4.287382e-09	-3.838355e+01	-2.804401e+02
4.800000e-07	-5.343022e-06	-4.265466e-09	-3.799633e+01	-2.795193e+02
4.900000e-07	-5.287709e-06	-4.227602e-09	-3.760298e+01	-2.785652e+02
5.000000e-07	-5.231690e-06	-4.224924e-09	-3.720461e+01	-2.775760e+02
5.100000e-07	-5.174829e-06	-4.244003e-09	-3.680025e+01	-2.765503e+02
5.200000e-07	-5.116815e-06	-4.218768e-09	-3.638768e+01	-2.754877e+02
5.300000e-07	-5.057654e-06	-4.172849e-09	-3.596697e+01	-2.743883e+02
5.400000e-07	-4.997639e-06	-4.152480e-09	-3.554018e+01	-2.732532e+02
5.500000e-07	-4.936935e-06	-4.173941e-09	-3.510849e+01	-2.720842e+02
5.600000e-07	-4.875501e-06	-4.168904e-09	-3.467161e+01	-2.708833e+02
5.700000e-07	-4.813180e-06	-4.108966e-09	-3.422842e+01	-2.696530e+02
5.800000e-07	-4.750013e-06	-4.073026e-09	-3.377921e+01	-2.683959e+02
5.900000e-07	-4.686182e-06	-4.095023e-09	-3.332529e+01	-2.671143e+02
6.000000e-07	-4.621571e-06	-4.093526e-09	-3.286581e+01	-2.658099e+02
6.100000e-07	-4.555821e-06	-4.040237e-09	-3.239824e+01	-2.644839e+02
6.200000e-07	-4.488975e-06	-4.010263e-09	-3.192287e+01	-2.631367e+02
6.300000e-07	-4.421404e-06	-4.010024e-09	-3.144234e+01	-2.617677e+02
6.400000e-07	-4.353241e-06	-3.995567e-09	-3.095761e+01	-2.603752e+02
6.500000e-07	-4.284330e-06	-3.966829e-09	-3.046755e+01	-2.589567e+02
6.600000e-07	-4.214555e-06	-3.941358e-09	-2.997136e+01	-2.575091e+02
6.700000e-07	-4.143996e-06	-3.915562e-09	-2.946958e+01	-2.560284e+02
6.800000e-07	-4.072825e-06	-3.897221e-09	-2.896346e+01	-2.545105e+02
6.900000e-07	-4.001082e-06	-3.886797e-09	-2.845327e+01	-2.529510e+02
7.000000e-07	-3.928466e-06	-3.856298e-09	-2.793687e+01	-2.513461e+02
7.100000e-07	-3.854815e-06	-3.815210e-09	-2.741311e+01	-2.496920e+02
7.200000e-07	-3.780234e-06	-3.795216e-09	-2.688273e+01	-2.479860e+02
7.300000e-07	-3.704892e-06	-3.786683e-09	-2.634694e+01	-2.462260e+02
7.400000e-07	-3.628887e-06	-3.752398e-09	-2.580644e+01	-2.444109e+02
7.500000e-07	-3.552131e-06	-3.706916e-09	-2.526060e+01	-2.425407e+02
7.600000e-07	-3.474628e-06	-3.682576e-09	-2.470945e+01	-2.406160e+02
7.700000e-07	-3.396517e-06	-3.664880e-09	-2.415397e+01	-2.386382e+02
7.800000e-07	-3.317753e-06	-3.631774e-09	-2.359385e+01	-2.366090e+02
7.900000e-07	-3.238141e-06	-3.587215e-09	-2.302770e+01	-2.345302e+02
8.000000e-07	-3.157814e-06	-3.556413e-09	-2.245646e+01	-2.324034e+02
8.100000e-07	-3.077012e-06	-3.535555e-09	-2.188184e+01	-2.302297e+02
8.200000e-07	-2.995793e-06	-3.500124e-09	-2.130426e+01	-2.280091e+02
8.300000e-07	-2.914084e-06	-3.454664e-09	-2.072320e+01	-2.257405e+02
8.400000e-07	-2.831840e-06	-3.414059e-09	-2.013833e+01	-2.234217e+02
8.500000e-07	-2.749189e-06	-3.382644e-09	-1.955056e+01	-2.210489e+02
8.600000e-07	-2.666274e-06	-3.352874e-09	-1.896093e+01	-2.186170e+02
8.700000e-07	-2.583058e-06	-3.313020e-09	-1.836914e+01	-2.161198e+02
8.800000e-07	-2.499417e-06	-3.264427e-09	-1.777434e+01	-2.135499e+02
8.900000e-07	-2.415391e-06	-3.219811e-09	-1.717680e+01	-2.108995e+02
9.000000e-07	-2.331105e-06	-3.184702e-09	-1.657741e+01	-2.081603e+02
9.100000e-07	-2.246540e-06	-3.144360e-09	-1.597603e+01	-2.053242e+02
9.200000e-07	-2.161630e-06	-3.087356e-09	-1.537220e+01	-2.023836e+02
9.300000e-07	-2.076404e-06	-3.033903e-09	-1.476613e+01	-1.993313e+02
9.400000e-07	-1.990797e-06	-2.995105e-09	-1.415734e+01	-1.961615e+02
9.500000e-07	-1.904848e-06	-2.951798e-09	-1.354612e+01	-1.928692e+02
9.600000e-07	-1.818562e-06	-2.891875e-09	-1.293251e+01	-1.894503e+02
9.700000e-07	-1.731876e-06	-2.828166e-09	-1.231605e+01	-1.859016e+02
9.800000e-07	-1.644900e-06	-2.774285e-09	-1.169753e+01	-1.822202e+02
9.900000e-07	-1.557747e-06	-2.723267e-09	-1.107775e+01	-1.784031e+02
1.000000e-06	-1.470443e-06	-2.663838e-09	-1.045690e+01	-1.744466e+02
1.010000e-06	-1.382931e-06	-2.595093e-09	-9.834570e+00	-1.703454e+02
1.020000e-06	-1.295180e-06	-2.527453e-09	-9.210536e+00	-1.660923e+02
1.030000e-06	-1.207207e-06	-2.464784e-09	-8.584926e+00	-1.616770e+02
1.040000e-06	-1.119000e-06	-2.399173e-09	-7.957650e+00	-1.570861e+02
1.050000e-06	-1.030547e-06	-2.323822e-09	-7.328627e+00	-1.523023e+02
1.060000e-06	-9.417682e-07	-2.240877e-09	-6.697285e+00	-1.473044e+02
1.070000e-06	-8.526778e-07	-2.159415e-09	-6.063728e+00	-1.420675e+02
1.080000e-06	-7.634344e-07	-2.079973e-09	-5.429083e+00	-1.365630e+02
1.090000e-06	-6.740184e-07	-1.993623e-09	-4.793210e+00	-1.307596e+02
1.100000e-06	-5.844074e-07	-1.896543e-09	-4.155951e+00	-1.246243e+02
1.110000e-06	-4.946084e-07	-1.795769e-09	-3.517355e+00	-1.181233e+02
1.120000e-06	-4.046195e-07	-1.694942e-09	-2.877409e+00	-1.112241e+02
1.130000e-06	-3.145673e-07	-1.587188e-09	-2.237012e+00	-1.038963e+02
1.140000e-06	-2.245354e-07	-1.466905e-09	-1.596759e+00	-9.611401e+01
1.150000e-06	-1.344982e-07	-1.339540e-09	-9.564693e-01	-8.785742e+01
1.160000e-06	-4.440763e-08	-1.209180e-09	-3.158002e-01	-7.911426e+01
1.170000e-06	4.576673e-08	-1.070478e-09	3.254652e-01	-6.988134e+01
1.180000e-06	1.359897e-07	-9.229797e-10	9.670764e-01	-6.016577e+01
1.190000e-06	2.261323e-07	-7.688196e-10	1.608116e+00	-4.998566e+01
1.200000e-06	3.160825e-07	-6.072803e-10	2.247787e+00	-3.937062e+01
1.210000e-06	4.058492e-07	-4.390507e-10	2.886154e+00	-2.836159e+01
1.220000e-06	4.955048e-07	-2.681866e-10	3.523730e+00	-1.701039e+01
1.230000e-06	5.849972e-07	-9.389694e-11	4.160146e+00	-5.378652e+00
1.240000e-06	6.742980e-07	8.810440e-11	4.795199e+00	6.463610e+00
1.250000e-06	7.634326e-07	2.724370e-10	5.429070e+00	1.843980e+01
1.260000e-06	8.523433e-07	4.554808e-10	6.061349e+00	3.046888e+01
1.270000e-06	9.409785e-07	6.363462e-10	6.691668e+00	4.246769e+01
1.280000e-06	1.029437e-06	8.175900e-10	7.320729e+00	5.435335e+01
1.290000e-06	1.117789e-06	9.951097e-10	7.949038e+00	6.604573e+01
1.300000e-06	1.205938e-06	1.167249e-09	8.575903e+00	7.746968e+01
1.310000e-06	1.293832e-06	1.335065e-09	9.200946e+00	8.855713e+01
1.320000e-06	1.381488e-06	1.497935e-09	9.824303e+00	9.924883e+01
1.330000e-06	1.468960e-06	1.654492e-09	1.044635e+01	1.094957e+02
1.340000e-06	1.556210e-06	1.803606e-09	1.106682e+01	1.192598e+02
1.350000e-06	1.643184e-06	1.945718e-09	1.168533e+01	1.285147e+02
1.360000e-06	1.729912e-06	2.076025e-09	1.230209e+01	1.372454e+02
1.370000e-06	1.816404e-06	2.195793e-09	1.291716e+01	1.454481e+02
1.380000e-06	1.902682e-06	2.306160e-09	1.353072e+01	1.531292e+02
1.390000e-06	1.988682e-06	2.408561e-09	1.414230e+01	1.603037e+02
1.400000e-06	2.074365e-06	2.505082e-09	1.475163e+01	1.669944e+02
1.410000e-06	2.159762e-06	2.598690e-09	1.535892e+01	1.732298e+02
1.420000e-06	2.244783e-06	2.688124e-09	1.596354e+01	1.790426e+02
1.430000e-06	2.329372e-06	2.769766e-09	1.656508e+01	1.844676e+02
1.440000e-06	2.413624e-06	2.847362e-09	1.716423e+01	1.895405e+02
1.450000e-06	2.497593e-06	2.924452e-09	1.776137e+01	1.942964e+02
1.460000e-06	2.581180e-06	2.995643e-09	1.835579e+01	1.987685e+02
1.470000e-06	2.664405e-06	3.058537e-09	1.894763e+01	2.029870e+02
1.480000e-06	2.747256e-06	3.118722e-09	1.953682e+01	2.069788e+02
1.490000e-06	2.829518e-06	3.177554e-09	2.012181e+01	2.107671e+02
1.500000e-06	2.911228e-06	3.232118e-09	2.070289e+01	2.143711e+02
1.510000e-06	2.992485e-06	3.282728e-09	2.128074e+01	2.178065e+02
1.520000e-06	3.073170e-06	3.331348e-09	2.185452e+01	2.210855e+02
1.530000e-06	3.153280e-06	3.380547e-09	2.242421e+01	2.242178e+02
1.540000e-06	3.232786e-06	3.427509e-09	2.298961e+01	2.272110e+02
1.550000e-06	3.311602e-06	3.469783e-09	2.355011e+01	2.300712e+02
1.560000e-06	3.389783e-06	3.508846e-09	2.410608e+01	2.328038e+02
1.570000e-06	3.467334e-06	3.545808e-09	2.465758e+01	2.354138e+02
1.580000e-06	3.544199e-06	3.580901e-09	2.520420e+01	2.379065e+02
1.590000e-06	3.620411e-06	3.614469e-09	2.574617e+01	2.402876e+02
1.600000e-06	3.695989e-06	3.646649e-09	2.628363e+01	2.425638e+02
1.610000e-06	3.770847e-06	3.675804e-09	2.681598e+01	2.447420e+02
1.620000e-06	3.844796e-06	3.705251e-09	2.734186e+01	2.468301e+02
1.630000e-06	3.917741e-06	3.737333e-09	2.786060e+01	2.488360e+02
1.640000e-06	3.989811e-06	3.768164e-09	2.837312e+01	2.507681e+02
1.650000e-06	4.061237e-06	3.794702e-09	2.888106e+01	2.526340e+02
1.660000e-06	4.132049e-06	3.820347e-09	2.938463e+01	2.544409e+02
1.670000e-06	4.202162e-06	3.847921e-09	2.988323e+01	2.561953e+02
1.680000e-06	4.271554e-06	3.873792e-09	3.037670e+01	2.579022e+02
1.690000e-06	4.340196e-06	3.896631e-09	3.086484e+01	2.595653e+02
1.700000e-06	4.408196e-06	3.917851e-09	3.134842e+01	2.611870e+02
1.710000e-06	4.475636e-06	3.939430e-09	3.182801e+01	2.627684e+02
1.720000e-06	4.542306e-06	3.962687e-09	3.230213e+01	2.643092e+02
1.730000e-06	4.607914e-06	3.986072e-09	3.276869e+01	2.658083e+02
1.740000e-06	4.672483e-06	4.006744e-09	3.322786e+01	2.672639e+02
1.750000e-06	4.736291e-06	4.025569e-09	3.368163e+01	2.686738e+02
1.760000e-06	4.799434e-06	4.045106e-09	3.413066e+01	2.700360e+02
1.770000e-06	4.861824e-06	4.064540e-09	3.457434e+01	2.713486e+02
1.780000e-06	4.923462e-06	4.080864e-09	3.501268e+01	2.726106e+02
1.790000e-06	4.984343e-06	4.094429e-09	3.544563e+01	2.738218e+02
1.800000e-06	5.044471e-06	4.107960e-09	3.587322e+01	2.749829e+02
1.810000e-06	5.103878e-06	4.123490e-09	3.629568e+01	2.760958e+02
1.820000e-06	5.162344e-06	4.141729e-09	3.671146e+01	2.771634e+02
1.830000e-06	5.219591e-06	4.158259e-09	3.711857e+01	2.781893e+02
1.840000e-06	5.275730e-06	4.173439e-09	3.751779e+01	2.791779e+02
1.850000e-06	5.331003e-06	4.189802e-09	3.791086e+01	2.801337e+02
1.860000e-06	5.385468e-06	4.205474e-09	3.829818e+01	2.810616e+02
1.870000e-06	5.439070e-06	4.220809e-09	3.867937e+01	2.819658e+02
1.880000e-06	5.491665e-06	4.233043e-09	3.905339e+01	2.828503e+02
1.890000e-06	5.543085e-06	4.243480e-09	3.941906e+01	2.837180e+02
1.900000e-06	5.593144e-06	4.255322e-09	3.977505e+01	2.845711e+02
1.910000e-06	5.641855e-06	4.267375e-09	4.012145e+01	2.854103e+02
1.920000e-06	5.689524e-06	4.280322e-09	4.046044e+01	2.862355e+02
1.930000e-06	5.736258e-06	4.293246e-09	4.079279e+01	2.870454e+02
1.940000e-06	5.781937e-06	4.305614e-09	4.111763e+01	2.878380e+02
1.950000e-06	5.826566e-06	4.318058e-09	4.143500e+01	2.886104e+02
1.960000e-06	5.870350e-06	4.330370e-09	4.174637e+01	2.893594e+02
1.970000e-06	5.913267e-06	4.340922e-09	4.205157e+01	2.900818e+02
1.980000e-06	5.954964e-06	4.350471e-09	4.234809e+01	2.907746e+02
1.990000e-06	5.995384e-06	4.359927e-09	4.263554e+01	2.914351e+02
2.000000e-06	6.034713e-06	4.368058e-09	4.291522e+01	2.920615e+02
2.010000e-06	6.073014e-06	4.377418e-09	4.318759e+01	2.926529e+02
2.020000e-06	6.110317e-06	4.387361e-09	4.345287e+01	2.932092e+02
2.030000e-06	6.146644e-06	4.394985e-09	4.371121e+01	2.937315e+02
2.040000e-06	6.182099e-06	4.403215e-09	4.396334e+01	2.942217e+02
2.050000e-06	6.216527e-06	4.412776e-09	4.420817e+01	2.946826e+02
2.060000e-06	6.249553e-06	4.423623e-09	4.444303e+01	2.951173e+02
2.070000e-06	6.281348e-06	4.432970e-09	4.466914e+01	2.955296e+02
2.080000e-06	6.312178e-06	4.439911e-09	4.488838e+01	2.959232e+02
2.090000e-06	6.342014e-06	4.447432e-09	4.510056e+01	2.963014e+02
2.100000e-06	6.370845e-06	4.454925e-09	4.530559e+01	2.966674e+02
2.110000e-06	6.398737e-06	4.460507e-09	4.550394e+01	2.970235e+02
2.120000e-06	6.425621e-06	4.464866e-09	4.569512e+01	2.973711e+02
2.130000e-06	6.451132e-06	4.471517e-09	4.587654e+01	2.977109e+02
2.140000e-06	6.475266e-06	4.479470e-09	4.604817e+01	2.980426e+02
2.150000e-06	6.498317e-06	4.486800e-09	4.621209e+01	2.983650e+02
2.160000e-06	6.520290e-06	4.492761e-09	4.636835e+01	2.986762e+02
2.170000e-06	6.541169e-06	4.497616e-09	4.651683e+01	2.989739e+02
2.180000e-06	6.561103e-06	4.501517e-09	4.665858e+01	2.992554e+02
2.190000e-06	6.580073e-06	4.505905e-09	4.679349e+01	2.995178e+02
2.200000e-06	6.597831e-06	4.512246e-09	4.691978e+01	2.997586e+02
2.210000e-06	6.614291e-06	4.516798e-09	4.703683e+01	2.999757e+02
2.220000e-06	6.629483e-06	4.520579e-09	4.714486e+01	3.001674e+02
2.230000e-06	6.643428e-06	4.525802e-09	4.724403e+01	3.003330e+02
2.240000e-06	6.656200e-06	4.529960e-09	4.733486e+01	3.004724e+02
2.250000e-06	6.667823e-06	4.530768e-09	4.741752e+01	3.005863e+02
2.260000e-06	6.677995e-06	4.531391e-09	4.748985e+01	3.006762e+02
2.270000e-06	6.686577e-06	4.532484e-09	4.755088e+01	3.007441e+02
2.280000e-06	6.693927e-06	4.534399e-09	4.760315e+01	3.007926e+02
2.290000e-06	6.700251e-06	4.537834e-09	4.764813e+01	3.008245e+02
2.300000e-06	6.705505e-06	4.539837e-09	4.768549e+01	3.008424e+02
2.310000e-06	6.709705e-06	4.541297e-09	4.771535e+01	3.008490e+02
2.320000e-06	6.712788e-06	4.542300e-09	4.773728e+01	3.008463e+02
2.330000e-06	6.714438e-06	4.544022e-09	4.774901e+01	3.008359e+02
2.340000e-06	6.714682e-06	4.546168e-09	4.775075e+01	3.008189e+02
2.350000e-06	6.713878e-06	4.545395e-09	4.774503e+01	3.007953e+02
2.360000e-06	6.712062e-06	4.538625e-09	4.773212e+01	3.007648e+02
2.370000e-06	6.709159e-06	4.534600e-09	4.771147e+01	3.007263e+02
2.380000e-06	6.705280e-06	4.532851e-09	4.768388e+01	3.006781e+02
2.390000e-06	6.700533e-06	4.531474e-09	4.765013e+01	3.006182e+02
2.400000e-06	6.694513e-06	4.530529e-09	4.760732e+01	3.005446e+02
2.410000e-06	6.687029e-06	4.539904e-09	4.755409e+01	3.004552e+02
2.420000e-06	6.678504e-06	4.571950e-09	4.749347e+01	3.003481e+02
2.430000e-06	6.669067e-06	4.500682e-09	4.742636e+01	3.002217e+02
2.440000e-06	6.658423e-06	4.414479e-09	4.735067e+01	3.000751e+02
2.450000e-06	6.645920e-06	4.423571e-09	4.726175e+01	2.999078e+02
2.460000e-06	6.631258e-06	4.507791e-09	4.715748e+01	2.997200e+02
2.470000e-06	6.615260e-06	4.723117e-09	4.704372e+01	2.995122e+02
2.480000e-06	6.598892e-06	4.545431e-09	4.692732e+01	2.992856e+02
2.490000e-06	6.581950e-06	4.323541e-09	4.680684e+01	2.990416e+02
2.500000e-06	6.563534e-06	4.602401e-09	4.667587e+01	2.987818e+02
2.510000e-06	6.544011e-06	4.505418e-09	4.653704e+01	2.985077e+02
2.520000e-06	6.524064e-06	4.506401e-09	4.639519e+01	2.982208e+02
2.530000e-06	6.502681e-06	4.733476e-09	4.624313e+01	2.979220e+02
2.540000e-06	6.479461e-06	4.385005e-09	4.607800e+01	2.976120e+02
2.550000e-06	6.455318e-06	4.413249e-09	4.590630e+01	2.972906e+02
2.560000e-06	6.430409e-06	4.799625e-09	4.572917e+01	2.969573e+02
2.570000e-06	6.404465e-06	4.533871e-09	4.554467e+01	2.966109e+02
2.580000e-06	6.377347e-06	4.397326e-09	4.535183e+01	2.962497e+02
2.590000e-06	6.349193e-06	4.639292e-09	4.515161e+01	2.958716e+02
2.600000e-06	6.320258e-06	4.590810e-09	4.494584e+01	2.954743e+02
2.610000e-06	6.289932e-06	4.641708e-09	4.473019e+01	2.950556e+02
2.620000e-06	6.258031e-06	4.525717e-09	4.450332e+01	2.946131e+02
2.630000e-06	6.225157e-06	4.443809e-09	4.426954e+01	2.941449e+02
2.640000e-06	6.191193e-06	4.646566e-09	4.402801e+01	2.936497e+02
2.650000e-06	6.155959e-06	4.488454e-09	4.377745e+01	2.931266e+02
2.660000e-06	6.119840e-06	4.539434e-09	4.352059e+01	2.925752e+02
2.670000e-06	6.082701e-06	4.590334e-09	4.325648e+01	2.919961e+02
2.680000e-06	6.044003e-06	4.373440e-09	4.298129e+01	2.913902e+02
2.690000e-06	6.004026e-06	4.506513e-09	4.269699e+01	2.907590e+02
2.700000e-06	5.963273e-06	4.589999e-09	4.240718e+01	2.901042e+02
2.710000e-06	5.921485e-06	4.485905e-09	4.211001e+01	2.894278e+02
2.720000e-06	5.878436e-06	4.356213e-09	4.180388e+01	2.887317e+02
2.730000e-06	5.834474e-06	4.426592e-09	4.149124e+01	2.880176e+02
2.740000e-06	5.789755e-06	4.594095e-09	4.117323e+01	2.872867e+02
2.750000e-06	5.744028e-06	4.396552e-09	4.084805e+01	2.865395e+02
2.760000e-06	5.697185e-06	4.348920e-09	4.051493e+01	2.857762e+02
2.770000e-06	5.649384e-06	4.436280e-09	4.017499e+01	2.849959e+02
2.780000e-06	5.600562e-06	4.420318e-09	3.982780e+01	2.841973e+02
2.790000e-06	5.550550e-06	4.410950e-09	3.947215e+01	2.833783e+02
2.800000e-06	5.499571e-06	4.330512e-09	3.910962e+01	2.825365e+02
2.810000e-06	5.447747e-06	4.372752e-09	3.874108e+01	2.816689e+02
2.820000e-06	5.394791e-06	4.345439e-09	3.836448e+01	2.807728e+02
2.830000e-06	5.340543e-06	4.315464e-09	3.797870e+01	2.798455e+02
2.840000e-06	5.285118e-06	4.358206e-09	3.758456e+01	2.788845e+02
2.850000e-06	5.228801e-06	4.290215e-09	3.718406e+01	2.778880e+02
2.860000e-06	5.171675e-06	4.269518e-09	3.677782e+01	2.768549e+02
2.870000e-06	5.113643e-06	4.265968e-09	3.636513e+01	2.757849e+02
2.880000e-06	5.054763e-06	4.290954e-09	3.594641e+01	2.746782e+02
2.890000e-06	4.995116e-06	4.237781e-09	3.552224e+01	2.735362e+02
2.900000e-06	4.934771e-06	4.171768e-09	3.509310e+01	2.723605e+02
2.910000e-06	4.873714e-06	4.217032e-09	3.465890e+01	2.711535e+02
2.920000e-06	4.811636e-06	4.201726e-09	3.421744e+01	2.699176e+02
2.930000e-06	4.748309e-06	4.152575e-09	3.376710e+01	2.686554e+02
2.940000e-06	4.684082e-06	4.122601e-09	3.331035e+01	2.673691e+02
2.950000e-06	4.619180e-06	4.137648e-09	3.284880e+01	2.660603e+02
