# Temperatura_=_20.0
# Concentracion g/m^3_=_9000.0
# C_Vs_to_Am_M_A/Vsm_=_65563218390.804596
# pendiente_HvsI_1/m_=_3716.3
# ordenada_HvsI_A/m_=_1297.0
# frecuencia_Hz_=_212912.23656783893

Tiempo_(s)	Campo_(V.s)	Magnetizacion_(V.s)	Campo_(kA/m)	Magnetizacion_(A/m)
0.000000e+00	-6.711980e-06	-4.519371e-09	-4.768313e+01	-2.979685e+02
1.000000e-08	-6.710803e-06	-4.519662e-09	-4.767477e+01	-2.979091e+02
2.000000e-08	-6.708262e-06	-4.518891e-09	-4.765672e+01	-2.978396e+02
3.000000e-08	-6.704564e-06	-4.519021e-09	-4.763045e+01	-2.977606e+02
4.000000e-08	-6.699880e-06	-4.519114e-09	-4.759718e+01	-2.976725e+02
5.000000e-08	-6.694127e-06	-4.517710e-09	-4.755630e+01	-2.975753e+02
6.000000e-08	-6.687307e-06	-4.514827e-09	-4.750786e+01	-2.974690e+02
7.000000e-08	-6.679515e-06	-4.507610e-09	-4.745250e+01	-2.973531e+02
8.000000e-08	-6.670544e-06	-4.512940e-09	-4.738877e+01	-2.972271e+02
9.000000e-08	-6.660053e-06	-4.540743e-09	-4.731423e+01	-2.970905e+02
1.000000e-07	-6.647962e-06	-4.549174e-09	-4.722834e+01	-2.969425e+02
1.100000e-07	-6.634311e-06	-4.540137e-09	-4.713136e+01	-2.967824e+02
1.200000e-07	-6.619087e-06	-4.492829e-09	-4.702320e+01	-2.966093e+02
1.300000e-07	-6.602599e-06	-4.454069e-09	-4.690607e+01	-2.964224e+02
1.400000e-07	-6.585232e-06	-4.530978e-09	-4.678270e+01	-2.962208e+02
1.500000e-07	-6.566904e-06	-4.528598e-09	-4.665249e+01	-2.960034e+02
1.600000e-07	-6.547670e-06	-4.466378e-09	-4.651585e+01	-2.957693e+02
1.700000e-07	-6.527586e-06	-4.500045e-09	-4.637317e+01	-2.955172e+02
1.800000e-07	-6.506340e-06	-4.445087e-09	-4.622223e+01	-2.952459e+02
1.900000e-07	-6.484004e-06	-4.434468e-09	-4.606355e+01	-2.949541e+02
2.000000e-07	-6.460893e-06	-4.532289e-09	-4.589937e+01	-2.946404e+02
2.100000e-07	-6.436646e-06	-4.469309e-09	-4.572711e+01	-2.943035e+02
2.200000e-07	-6.410841e-06	-4.426573e-09	-4.554379e+01	-2.939421e+02
2.300000e-07	-6.383793e-06	-4.512775e-09	-4.535164e+01	-2.935552e+02
2.400000e-07	-6.355786e-06	-4.511423e-09	-4.515267e+01	-2.931419e+02
2.500000e-07	-6.326774e-06	-4.498181e-09	-4.494656e+01	-2.927017e+02
2.600000e-07	-6.296710e-06	-4.496405e-09	-4.473298e+01	-2.922344e+02
2.700000e-07	-6.265570e-06	-4.454611e-09	-4.451176e+01	-2.917402e+02
2.800000e-07	-6.233380e-06	-4.460594e-09	-4.428308e+01	-2.912200e+02
2.900000e-07	-6.200062e-06	-4.460924e-09	-4.404638e+01	-2.906750e+02
3.000000e-07	-6.165451e-06	-4.453592e-09	-4.380049e+01	-2.901066e+02
3.100000e-07	-6.129615e-06	-4.448155e-09	-4.354591e+01	-2.895169e+02
3.200000e-07	-6.092586e-06	-4.397465e-09	-4.328285e+01	-2.889080e+02
3.300000e-07	-6.054420e-06	-4.397315e-09	-4.301171e+01	-2.882822e+02
3.400000e-07	-6.015304e-06	-4.440226e-09	-4.273382e+01	-2.876417e+02
3.500000e-07	-5.975185e-06	-4.411085e-09	-4.244881e+01	-2.869886e+02
3.600000e-07	-5.933801e-06	-4.347240e-09	-4.215481e+01	-2.863244e+02
3.700000e-07	-5.891076e-06	-4.361213e-09	-4.185129e+01	-2.856504e+02
3.800000e-07	-5.847282e-06	-4.392419e-09	-4.154016e+01	-2.849671e+02
3.900000e-07	-5.802514e-06	-4.352207e-09	-4.122212e+01	-2.842744e+02
4.000000e-07	-5.756689e-06	-4.331221e-09	-4.089657e+01	-2.835714e+02
4.100000e-07	-5.709936e-06	-4.332356e-09	-4.056443e+01	-2.828565e+02
4.200000e-07	-5.662282e-06	-4.311627e-09	-4.022589e+01	-2.821277e+02
4.300000e-07	-5.613403e-06	-4.309358e-09	-3.987864e+01	-2.813820e+02
4.400000e-07	-5.563064e-06	-4.309209e-09	-3.952103e+01	-2.806166e+02
4.500000e-07	-5.511434e-06	-4.277562e-09	-3.915424e+01	-2.798280e+02
4.600000e-07	-5.458819e-06	-4.246591e-09	-3.878045e+01	-2.790130e+02
4.700000e-07	-5.405345e-06	-4.258666e-09	-3.840056e+01	-2.781686e+02
4.800000e-07	-5.350992e-06	-4.263621e-09	-3.801443e+01	-2.772922e+02
4.900000e-07	-5.295771e-06	-4.216791e-09	-3.762213e+01	-2.763816e+02
5.000000e-07	-5.239696e-06	-4.185124e-09	-3.722376e+01	-2.754354e+02
5.100000e-07	-5.182648e-06	-4.198978e-09	-3.681848e+01	-2.744532e+02
5.200000e-07	-5.124483e-06	-4.202424e-09	-3.640526e+01	-2.734349e+02
5.300000e-07	-5.065308e-06	-4.164701e-09	-3.598488e+01	-2.723815e+02
5.400000e-07	-5.005367e-06	-4.129219e-09	-3.555904e+01	-2.712943e+02
5.500000e-07	-4.944656e-06	-4.130581e-09	-3.512775e+01	-2.701754e+02
5.600000e-07	-4.883171e-06	-4.134076e-09	-3.469094e+01	-2.690267e+02
5.700000e-07	-4.820917e-06	-4.110243e-09	-3.424868e+01	-2.678505e+02
5.800000e-07	-4.757843e-06	-4.075564e-09	-3.380059e+01	-2.666487e+02
5.900000e-07	-4.693938e-06	-4.055462e-09	-3.334660e+01	-2.654227e+02
6.000000e-07	-4.629116e-06	-4.051819e-09	-3.288609e+01	-2.641735e+02
6.100000e-07	-4.563278e-06	-4.044902e-09	-3.241836e+01	-2.629011e+02
6.200000e-07	-4.496502e-06	-4.014593e-09	-3.194397e+01	-2.616048e+02
6.300000e-07	-4.429000e-06	-3.971168e-09	-3.146443e+01	-2.602830e+02
6.400000e-07	-4.360857e-06	-3.955282e-09	-3.098033e+01	-2.589332e+02
6.500000e-07	-4.291969e-06	-3.963006e-09	-3.049093e+01	-2.575523e+02
6.600000e-07	-4.222241e-06	-3.944950e-09	-2.999557e+01	-2.561367e+02
6.700000e-07	-4.151752e-06	-3.898008e-09	-2.949480e+01	-2.546825e+02
6.800000e-07	-4.080592e-06	-3.868479e-09	-2.898927e+01	-2.531857e+02
6.900000e-07	-4.008734e-06	-3.868230e-09	-2.847878e+01	-2.516426e+02
7.000000e-07	-3.935984e-06	-3.853784e-09	-2.796195e+01	-2.500498e+02
7.100000e-07	-3.862253e-06	-3.810271e-09	-2.743815e+01	-2.484049e+02
7.200000e-07	-3.787664e-06	-3.771535e-09	-2.690826e+01	-2.467059e+02
7.300000e-07	-3.712339e-06	-3.756343e-09	-2.637313e+01	-2.449520e+02
7.400000e-07	-3.636282e-06	-3.740970e-09	-2.583281e+01	-2.431432e+02
7.500000e-07	-3.559515e-06	-3.707712e-09	-2.528744e+01	-2.412803e+02
7.600000e-07	-3.482022e-06	-3.669531e-09	-2.473692e+01	-2.393647e+02
7.700000e-07	-3.403798e-06	-3.638324e-09	-2.418121e+01	-2.373984e+02
7.800000e-07	-3.324954e-06	-3.616545e-09	-2.362108e+01	-2.353833e+02
7.900000e-07	-3.245440e-06	-3.591808e-09	-2.305620e+01	-2.333214e+02
8.000000e-07	-3.165192e-06	-3.554163e-09	-2.248610e+01	-2.312139e+02
8.100000e-07	-3.084362e-06	-3.512754e-09	-2.191188e+01	-2.290614e+02
8.200000e-07	-3.003085e-06	-3.481653e-09	-2.133447e+01	-2.268634e+02
8.300000e-07	-2.921337e-06	-3.456349e-09	-2.075371e+01	-2.246182e+02
8.400000e-07	-2.839076e-06	-3.418540e-09	-2.016932e+01	-2.223225e+02
8.500000e-07	-2.756402e-06	-3.373863e-09	-1.958199e+01	-2.199721e+02
8.600000e-07	-2.673435e-06	-3.338763e-09	-1.899257e+01	-2.175613e+02
8.700000e-07	-2.590148e-06	-3.307654e-09	-1.840089e+01	-2.150834e+02
8.800000e-07	-2.506474e-06	-3.265618e-09	-1.780645e+01	-2.125309e+02
8.900000e-07	-2.422426e-06	-3.217257e-09	-1.720936e+01	-2.098960e+02
9.000000e-07	-2.338092e-06	-3.175267e-09	-1.661023e+01	-2.071706e+02
9.100000e-07	-2.253504e-06	-3.135493e-09	-1.600931e+01	-2.043473e+02
9.200000e-07	-2.168598e-06	-3.086013e-09	-1.540612e+01	-2.014189e+02
9.300000e-07	-2.083319e-06	-3.032391e-09	-1.480028e+01	-1.983794e+02
9.400000e-07	-1.997625e-06	-2.984812e-09	-1.419149e+01	-1.952235e+02
9.500000e-07	-1.911542e-06	-2.940589e-09	-1.357995e+01	-1.919473e+02
9.600000e-07	-1.825144e-06	-2.890538e-09	-1.296615e+01	-1.885476e+02
9.700000e-07	-1.738424e-06	-2.832430e-09	-1.235008e+01	-1.850217e+02
9.800000e-07	-1.651447e-06	-2.773682e-09	-1.173218e+01	-1.813674e+02
9.900000e-07	-1.564325e-06	-2.717800e-09	-1.111325e+01	-1.775820e+02
1.000000e-06	-1.476993e-06	-2.661421e-09	-1.049283e+01	-1.736617e+02
1.010000e-06	-1.389401e-06	-2.596901e-09	-9.870558e+00	-1.696013e+02
1.020000e-06	-1.301526e-06	-2.526985e-09	-9.246278e+00	-1.653931e+02
1.030000e-06	-1.213345e-06	-2.460439e-09	-8.619827e+00	-1.610264e+02
1.040000e-06	-1.124947e-06	-2.397759e-09	-7.991831e+00	-1.564871e+02
1.050000e-06	-1.036291e-06	-2.326573e-09	-7.361999e+00	-1.517573e+02
1.060000e-06	-9.473544e-07	-2.243718e-09	-6.730179e+00	-1.468153e+02
1.070000e-06	-8.581422e-07	-2.160006e-09	-6.096400e+00	-1.416353e+02
1.080000e-06	-7.686611e-07	-2.079022e-09	-5.460709e+00	-1.361886e+02
1.090000e-06	-6.789919e-07	-1.995516e-09	-4.823683e+00	-1.304436e+02
1.100000e-06	-5.892145e-07	-1.901291e-09	-4.185888e+00	-1.243670e+02
1.110000e-06	-4.994050e-07	-1.799226e-09	-3.547865e+00	-1.179255e+02
1.120000e-06	-4.094534e-07	-1.696925e-09	-2.908832e+00	-1.110864e+02
1.130000e-06	-3.193292e-07	-1.592120e-09	-2.268573e+00	-1.038202e+02
1.140000e-06	-2.291549e-07	-1.475112e-09	-1.627959e+00	-9.610141e+01
1.150000e-06	-1.389838e-07	-1.345986e-09	-9.873662e-01	-8.791068e+01
1.160000e-06	-4.875980e-08	-1.212364e-09	-3.463986e-01	-7.923625e+01
1.170000e-06	4.146694e-08	-1.075109e-09	2.945887e-01	-7.007532e+01
1.180000e-06	1.316328e-07	-9.306533e-10	9.351437e-01	-6.043514e+01
1.190000e-06	2.217900e-07	-7.767527e-10	1.575637e+00	-5.033375e+01
1.200000e-06	3.118744e-07	-6.143067e-10	2.215613e+00	-3.980036e+01
1.210000e-06	4.018792e-07	-4.478306e-10	2.855024e+00	-2.887522e+01
1.220000e-06	4.917237e-07	-2.810939e-10	3.493295e+00	-1.760914e+01
1.230000e-06	5.813443e-07	-1.080034e-10	4.129976e+00	-6.062478e+00
1.240000e-06	6.708104e-07	7.336240e-11	4.765560e+00	5.696235e+00
1.250000e-06	7.601130e-07	2.578476e-10	5.399982e+00	1.759205e+01
1.260000e-06	8.492355e-07	4.406710e-10	6.033125e+00	2.954562e+01
1.270000e-06	9.381413e-07	6.199642e-10	6.664728e+00	4.147543e+01
1.280000e-06	1.026820e-06	7.982548e-10	7.294717e+00	5.330015e+01
1.290000e-06	1.115317e-06	9.757535e-10	7.923417e+00	6.494089e+01
1.300000e-06	1.203626e-06	1.149694e-09	8.550782e+00	7.632346e+01
1.310000e-06	1.291664e-06	1.315967e-09	9.176219e+00	8.738039e+01
1.320000e-06	1.379433e-06	1.475849e-09	9.799746e+00	9.805256e+01
1.330000e-06	1.466923e-06	1.631184e-09	1.042129e+01	1.082906e+02
1.340000e-06	1.554164e-06	1.781016e-09	1.104107e+01	1.180559e+02
1.350000e-06	1.641208e-06	1.922094e-09	1.165944e+01	1.273208e+02
1.360000e-06	1.728032e-06	2.053240e-09	1.227626e+01	1.360692e+02
1.370000e-06	1.814700e-06	2.174018e-09	1.289196e+01	1.442953e+02
1.380000e-06	1.901152e-06	2.284614e-09	1.350613e+01	1.520038e+02
1.390000e-06	1.987279e-06	2.388250e-09	1.411799e+01	1.592081e+02
1.400000e-06	2.073046e-06	2.485846e-09	1.472730e+01	1.659292e+02
1.410000e-06	2.158439e-06	2.578853e-09	1.533395e+01	1.721939e+02
1.420000e-06	2.243428e-06	2.667303e-09	1.593772e+01	1.780336e+02
1.430000e-06	2.328090e-06	2.750999e-09	1.653918e+01	1.834823e+02
1.440000e-06	2.412511e-06	2.830567e-09	1.713892e+01	1.885750e+02
1.450000e-06	2.496581e-06	2.907018e-09	1.773617e+01	1.933463e+02
1.460000e-06	2.580238e-06	2.979080e-09	1.833048e+01	1.978295e+02
1.470000e-06	2.663495e-06	3.044832e-09	1.892196e+01	2.020552e+02
1.480000e-06	2.746346e-06	3.106190e-09	1.951055e+01	2.060507e+02
1.490000e-06	2.828817e-06	3.165114e-09	2.009644e+01	2.098399e+02
1.500000e-06	2.910819e-06	3.220663e-09	2.067899e+01	2.134425e+02
1.510000e-06	2.992215e-06	3.272120e-09	2.125725e+01	2.168749e+02
1.520000e-06	3.073046e-06	3.322186e-09	2.183148e+01	2.201499e+02
1.530000e-06	3.153280e-06	3.372654e-09	2.240148e+01	2.232774e+02
1.540000e-06	3.232898e-06	3.418682e-09	2.296710e+01	2.262650e+02
1.550000e-06	3.311893e-06	3.460969e-09	2.352829e+01	2.291187e+02
1.560000e-06	3.390191e-06	3.501741e-09	2.408454e+01	2.318432e+02
1.570000e-06	3.467858e-06	3.539461e-09	2.463630e+01	2.344430e+02
1.580000e-06	3.544896e-06	3.574586e-09	2.518359e+01	2.369223e+02
1.590000e-06	3.621263e-06	3.608342e-09	2.572612e+01	2.392859e+02
1.600000e-06	3.696949e-06	3.641262e-09	2.626380e+01	2.415392e+02
1.610000e-06	3.771837e-06	3.671868e-09	2.679582e+01	2.436885e+02
1.620000e-06	3.845835e-06	3.701565e-09	2.732151e+01	2.457405e+02
1.630000e-06	3.918965e-06	3.733086e-09	2.784104e+01	2.477029e+02
1.640000e-06	3.991285e-06	3.764380e-09	2.835482e+01	2.495834e+02
1.650000e-06	4.062900e-06	3.792562e-09	2.886359e+01	2.513901e+02
1.660000e-06	4.133846e-06	3.818282e-09	2.936760e+01	2.531306e+02
1.670000e-06	4.204099e-06	3.842389e-09	2.986669e+01	2.548122e+02
1.680000e-06	4.273591e-06	3.866756e-09	3.036038e+01	2.564411e+02
1.690000e-06	4.342327e-06	3.890659e-09	3.084869e+01	2.580226e+02
1.700000e-06	4.410391e-06	3.911474e-09	3.133222e+01	2.595609e+02
1.710000e-06	4.477804e-06	3.931735e-09	3.181114e+01	2.610587e+02
1.720000e-06	4.544535e-06	3.954486e-09	3.228521e+01	2.625177e+02
1.730000e-06	4.610339e-06	3.977750e-09	3.275269e+01	2.639383e+02
1.740000e-06	4.675079e-06	3.999760e-09	3.321262e+01	2.653202e+02
1.750000e-06	4.738937e-06	4.019065e-09	3.366628e+01	2.666623e+02
1.760000e-06	4.802100e-06	4.036748e-09	3.411500e+01	2.679633e+02
1.770000e-06	4.864544e-06	4.056018e-09	3.455861e+01	2.692218e+02
1.780000e-06	4.926204e-06	4.075703e-09	3.499666e+01	2.704364e+02
1.790000e-06	4.987125e-06	4.092642e-09	3.542945e+01	2.716065e+02
1.800000e-06	5.047304e-06	4.107442e-09	3.585697e+01	2.727319e+02
1.810000e-06	5.106749e-06	4.123187e-09	3.627928e+01	2.738134e+02
1.820000e-06	5.165385e-06	4.140065e-09	3.669584e+01	2.748524e+02
1.830000e-06	5.222802e-06	4.157138e-09	3.710375e+01	2.758513e+02
1.840000e-06	5.279007e-06	4.171998e-09	3.750304e+01	2.768129e+02
1.850000e-06	5.334390e-06	4.186040e-09	3.789648e+01	2.777407e+02
1.860000e-06	5.388946e-06	4.201928e-09	3.828406e+01	2.786384e+02
1.870000e-06	5.442551e-06	4.217267e-09	3.866488e+01	2.795099e+02
1.880000e-06	5.495201e-06	4.230557e-09	3.903891e+01	2.803586e+02
1.890000e-06	5.546755e-06	4.242421e-09	3.940516e+01	2.811879e+02
1.900000e-06	5.597001e-06	4.253745e-09	3.976212e+01	2.820002e+02
1.910000e-06	5.645919e-06	4.265729e-09	4.010964e+01	2.827974e+02
1.920000e-06	5.693674e-06	4.276840e-09	4.044890e+01	2.835804e+02
1.930000e-06	5.740410e-06	4.288524e-09	4.078092e+01	2.843494e+02
1.940000e-06	5.786164e-06	4.302055e-09	4.110597e+01	2.851037e+02
1.950000e-06	5.830983e-06	4.314778e-09	4.142437e+01	2.858419e+02
1.960000e-06	5.874902e-06	4.326522e-09	4.173638e+01	2.865621e+02
1.970000e-06	5.917883e-06	4.336996e-09	4.204173e+01	2.872620e+02
1.980000e-06	5.959620e-06	4.348749e-09	4.233823e+01	2.879393e+02
1.990000e-06	6.000048e-06	4.359739e-09	4.262544e+01	2.885917e+02
2.000000e-06	6.039472e-06	4.367338e-09	4.290551e+01	2.892173e+02
2.010000e-06	6.077902e-06	4.375426e-09	4.317853e+01	2.898146e+02
2.020000e-06	6.115288e-06	4.384953e-09	4.344412e+01	2.903828e+02
2.030000e-06	6.151691e-06	4.393354e-09	4.370274e+01	2.909217e+02
2.040000e-06	6.187168e-06	4.401089e-09	4.395478e+01	2.914319e+02
2.050000e-06	6.221599e-06	4.409765e-09	4.419938e+01	2.919146e+02
2.060000e-06	6.254730e-06	4.419389e-09	4.443475e+01	2.923716e+02
2.070000e-06	6.286659e-06	4.427832e-09	4.466158e+01	2.928053e+02
2.080000e-06	6.317534e-06	4.435509e-09	4.488092e+01	2.932181e+02
2.090000e-06	6.347387e-06	4.443175e-09	4.509300e+01	2.936127e+02
2.100000e-06	6.376285e-06	4.449802e-09	4.529829e+01	2.939915e+02
2.110000e-06	6.404222e-06	4.456426e-09	4.549677e+01	2.943570e+02
2.120000e-06	6.431181e-06	4.462092e-09	4.568828e+01	2.947108e+02
2.130000e-06	6.456810e-06	4.467733e-09	4.587036e+01	2.950542e+02
2.140000e-06	6.480986e-06	4.473026e-09	4.604211e+01	2.953879e+02
2.150000e-06	6.504029e-06	4.478141e-09	4.620582e+01	2.957118e+02
2.160000e-06	6.526002e-06	4.485632e-09	4.636191e+01	2.960252e+02
2.170000e-06	6.546902e-06	4.492175e-09	4.651039e+01	2.963270e+02
2.180000e-06	6.566840e-06	4.497557e-09	4.665203e+01	2.966155e+02
2.190000e-06	6.585785e-06	4.502047e-09	4.678662e+01	2.968888e+02
2.200000e-06	6.603584e-06	4.507667e-09	4.691307e+01	2.971447e+02
2.210000e-06	6.620196e-06	4.512934e-09	4.703108e+01	2.973813e+02
2.220000e-06	6.635596e-06	4.517807e-09	4.714049e+01	2.975966e+02
2.230000e-06	6.649732e-06	4.523748e-09	4.724091e+01	2.977890e+02
2.240000e-06	6.662573e-06	4.526672e-09	4.733214e+01	2.979574e+02
2.250000e-06	6.674159e-06	4.528800e-09	4.741444e+01	2.981012e+02
2.260000e-06	6.684323e-06	4.531435e-09	4.748666e+01	2.982200e+02
2.270000e-06	6.693019e-06	4.535008e-09	4.754843e+01	2.983144e+02
2.280000e-06	6.700515e-06	4.538758e-09	4.760169e+01	2.983851e+02
2.290000e-06	6.706886e-06	4.542107e-09	4.764695e+01	2.984334e+02
2.300000e-06	6.712135e-06	4.545213e-09	4.768423e+01	2.984609e+02
2.310000e-06	6.716320e-06	4.547794e-09	4.771396e+01	2.984693e+02
2.320000e-06	6.719409e-06	4.549238e-09	4.773592e+01	2.984605e+02
2.330000e-06	6.721156e-06	4.551281e-09	4.774833e+01	2.984363e+02
2.340000e-06	6.721498e-06	4.552751e-09	4.775075e+01	2.983985e+02
2.350000e-06	6.720709e-06	4.550537e-09	4.774515e+01	2.983484e+02
2.360000e-06	6.718912e-06	4.547645e-09	4.773238e+01	2.982874e+02
2.370000e-06	6.716012e-06	4.545464e-09	4.771178e+01	2.982164e+02
2.380000e-06	6.712131e-06	4.544185e-09	4.768421e+01	2.981359e+02
2.390000e-06	6.707342e-06	4.543493e-09	4.765018e+01	2.980464e+02
2.400000e-06	6.701258e-06	4.543293e-09	4.760696e+01	2.979478e+02
2.410000e-06	6.693757e-06	4.547745e-09	4.755368e+01	2.978400e+02
2.420000e-06	6.685260e-06	4.547611e-09	4.749331e+01	2.977226e+02
2.430000e-06	6.675897e-06	4.512732e-09	4.742680e+01	2.975950e+02
2.440000e-06	6.665253e-06	4.487767e-09	4.735118e+01	2.974566e+02
2.450000e-06	6.652718e-06	4.487964e-09	4.726213e+01	2.973068e+02
2.460000e-06	6.638186e-06	4.534956e-09	4.715889e+01	2.971447e+02
2.470000e-06	6.622364e-06	4.593276e-09	4.704649e+01	2.969695e+02
2.480000e-06	6.606019e-06	4.510564e-09	4.693037e+01	2.967804e+02
2.490000e-06	6.589024e-06	4.503547e-09	4.680964e+01	2.965765e+02
2.500000e-06	6.570717e-06	4.567816e-09	4.667958e+01	2.963566e+02
2.510000e-06	6.551323e-06	4.491021e-09	4.654180e+01	2.961198e+02
2.520000e-06	6.531334e-06	4.554647e-09	4.639979e+01	2.958649e+02
2.530000e-06	6.510025e-06	4.599792e-09	4.624841e+01	2.955905e+02
2.540000e-06	6.487001e-06	4.485599e-09	4.608484e+01	2.952954e+02
2.550000e-06	6.462937e-06	4.558932e-09	4.591389e+01	2.949783e+02
2.560000e-06	6.437978e-06	4.604285e-09	4.573657e+01	2.946377e+02
2.570000e-06	6.411922e-06	4.486651e-09	4.555147e+01	2.942725e+02
2.580000e-06	6.384808e-06	4.513115e-09	4.535885e+01	2.938816e+02
2.590000e-06	6.356698e-06	4.515509e-09	4.515915e+01	2.934642e+02
2.600000e-06	6.327629e-06	4.443493e-09	4.495264e+01	2.930199e+02
2.610000e-06	6.297251e-06	4.495524e-09	4.473682e+01	2.925484e+02
2.620000e-06	6.265406e-06	4.479224e-09	4.451059e+01	2.920503e+02
2.630000e-06	6.232488e-06	4.466499e-09	4.427674e+01	2.915262e+02
2.640000e-06	6.198466e-06	4.458492e-09	4.403504e+01	2.909775e+02
2.650000e-06	6.163268e-06	4.414453e-09	4.378498e+01	2.904057e+02
2.660000e-06	6.127123e-06	4.487440e-09	4.352820e+01	2.898129e+02
2.670000e-06	6.089950e-06	4.442004e-09	4.326412e+01	2.892013e+02
2.680000e-06	6.051380e-06	4.368103e-09	4.299011e+01	2.885731e+02
2.690000e-06	6.011495e-06	4.424641e-09	4.270676e+01	2.879305e+02
2.700000e-06	5.970690e-06	4.432402e-09	4.241688e+01	2.872755e+02
2.710000e-06	5.928868e-06	4.400091e-09	4.211976e+01	2.866097e+02
2.720000e-06	5.885834e-06	4.350944e-09	4.181404e+01	2.859343e+02
2.730000e-06	5.841944e-06	4.373613e-09	4.150224e+01	2.852495e+02
2.740000e-06	5.797345e-06	4.390121e-09	4.118540e+01	2.845553e+02
2.750000e-06	5.751652e-06	4.340371e-09	4.086079e+01	2.838505e+02
2.760000e-06	5.704805e-06	4.348651e-09	4.052798e+01	2.831337e+02
2.770000e-06	5.656990e-06	4.316266e-09	4.018829e+01	2.824024e+02
2.780000e-06	5.608183e-06	4.299026e-09	3.984156e+01	2.816540e+02
2.790000e-06	5.558203e-06	4.319312e-09	3.948649e+01	2.808852e+02
2.800000e-06	5.507162e-06	4.308732e-09	3.912389e+01	2.800928e+02
2.810000e-06	5.455270e-06	4.279576e-09	3.875524e+01	2.792735e+02
2.820000e-06	5.402345e-06	4.227809e-09	3.837925e+01	2.784244e+02
2.830000e-06	5.348066e-06	4.260848e-09	3.799364e+01	2.775429e+02
2.840000e-06	5.292587e-06	4.279517e-09	3.759951e+01	2.766270e+02
2.850000e-06	5.236250e-06	4.217842e-09	3.719928e+01	2.756754e+02
2.860000e-06	5.179049e-06	4.178624e-09	3.679291e+01	2.746876e+02
2.870000e-06	5.121039e-06	4.185275e-09	3.638080e+01	2.736639e+02
2.880000e-06	5.062234e-06	4.209296e-09	3.596304e+01	2.726053e+02
2.890000e-06	5.002578e-06	4.168459e-09	3.553923e+01	2.715132e+02
2.900000e-06	4.942169e-06	4.124403e-09	3.511008e+01	2.703896e+02
2.910000e-06	4.880979e-06	4.115522e-09	3.467537e+01	2.692366e+02
2.920000e-06	4.818778e-06	4.113324e-09	3.423348e+01	2.680564e+02
2.930000e-06	4.755478e-06	4.109407e-09	3.378378e+01	2.668508e+02
2.940000e-06	4.691258e-06	4.078409e-09	3.332755e+01	2.656212e+02
2.950000e-06	4.626279e-06	4.042232e-09	3.286594e+01	2.643685e+02
