# Temperatura_=_20.0
# Concentracion g/m^3_=_9000.0
# C_Vs_to_Am_M_A/Vsm_=_65563218390.804596
# pendiente_HvsI_1/m_=_3716.3
# ordenada_HvsI_A/m_=_1297.0
# frecuencia_Hz_=_300877.94602608774

Tiempo_(s)	Campo_(V.s)	Magnetizacion_(V.s)	Campo_(kA/m)	Magnetizacion_(A/m)
0.000000e+00	-5.332713e-06	-8.828601e-09	-5.679563e+01	-5.784586e+02
1.000000e-08	-5.331295e-06	-8.828009e-09	-5.678054e+01	-5.783857e+02
2.000000e-08	-5.328005e-06	-8.825825e-09	-5.674549e+01	-5.782515e+02
3.000000e-08	-5.323073e-06	-8.822904e-09	-5.669297e+01	-5.780580e+02
4.000000e-08	-5.316520e-06	-8.819113e-09	-5.662318e+01	-5.778083e+02
5.000000e-08	-5.308332e-06	-8.815966e-09	-5.653597e+01	-5.775057e+02
6.000000e-08	-5.298156e-06	-8.811669e-09	-5.642759e+01	-5.771534e+02
7.000000e-08	-5.285933e-06	-8.803151e-09	-5.629741e+01	-5.767540e+02
8.000000e-08	-5.271849e-06	-8.793455e-09	-5.614741e+01	-5.763089e+02
9.000000e-08	-5.255641e-06	-8.814592e-09	-5.597479e+01	-5.758181e+02
1.000000e-07	-5.237324e-06	-8.825472e-09	-5.577970e+01	-5.752799e+02
1.100000e-07	-5.217118e-06	-8.809232e-09	-5.556451e+01	-5.746913e+02
1.200000e-07	-5.195035e-06	-8.785345e-09	-5.532931e+01	-5.740483e+02
1.300000e-07	-5.171257e-06	-8.722751e-09	-5.507606e+01	-5.733462e+02
1.400000e-07	-5.145872e-06	-8.693958e-09	-5.480570e+01	-5.725804e+02
1.500000e-07	-5.118904e-06	-8.777231e-09	-5.451849e+01	-5.717471e+02
1.600000e-07	-5.090408e-06	-8.725256e-09	-5.421499e+01	-5.708439e+02
1.700000e-07	-5.060410e-06	-8.673985e-09	-5.389550e+01	-5.698697e+02
1.800000e-07	-5.028682e-06	-8.698252e-09	-5.355758e+01	-5.688251e+02
1.900000e-07	-4.994838e-06	-8.629369e-09	-5.319713e+01	-5.677124e+02
2.000000e-07	-4.959397e-06	-8.678676e-09	-5.281966e+01	-5.665345e+02
2.100000e-07	-4.922525e-06	-8.697887e-09	-5.242696e+01	-5.652947e+02
2.200000e-07	-4.883789e-06	-8.574724e-09	-5.201440e+01	-5.639958e+02
2.300000e-07	-4.843269e-06	-8.569780e-09	-5.158286e+01	-5.626394e+02
2.400000e-07	-4.800838e-06	-8.601591e-09	-5.113095e+01	-5.612255e+02
2.500000e-07	-4.756499e-06	-8.568369e-09	-5.065872e+01	-5.597516e+02
2.600000e-07	-4.710476e-06	-8.545216e-09	-5.016855e+01	-5.582134e+02
2.700000e-07	-4.662567e-06	-8.464786e-09	-4.965830e+01	-5.566047e+02
2.800000e-07	-4.612621e-06	-8.457543e-09	-4.912635e+01	-5.549183e+02
2.900000e-07	-4.560800e-06	-8.473144e-09	-4.857444e+01	-5.531465e+02
3.000000e-07	-4.507265e-06	-8.427330e-09	-4.800427e+01	-5.512824e+02
3.100000e-07	-4.452122e-06	-8.375179e-09	-4.741697e+01	-5.493205e+02
3.200000e-07	-4.395341e-06	-8.344833e-09	-4.681223e+01	-5.472576e+02
3.300000e-07	-4.336836e-06	-8.319789e-09	-4.618913e+01	-5.450934e+02
3.400000e-07	-4.276796e-06	-8.282987e-09	-4.554967e+01	-5.428298e+02
3.500000e-07	-4.215360e-06	-8.266978e-09	-4.489536e+01	-5.404717e+02
3.600000e-07	-4.152462e-06	-8.201675e-09	-4.422547e+01	-5.380251e+02
3.700000e-07	-4.088032e-06	-8.141466e-09	-4.353926e+01	-5.354971e+02
3.800000e-07	-4.021983e-06	-8.145944e-09	-4.283582e+01	-5.328943e+02
3.900000e-07	-3.954393e-06	-8.113334e-09	-4.211595e+01	-5.302218e+02
4.000000e-07	-3.885388e-06	-8.036915e-09	-4.138102e+01	-5.274822e+02
4.100000e-07	-3.815085e-06	-7.994969e-09	-4.063227e+01	-5.246755e+02
4.200000e-07	-3.743668e-06	-7.972459e-09	-3.987164e+01	-5.217980e+02
4.300000e-07	-3.670985e-06	-7.931182e-09	-3.909754e+01	-5.188430e+02
4.400000e-07	-3.596633e-06	-7.865142e-09	-3.830566e+01	-5.158015e+02
4.500000e-07	-3.520658e-06	-7.813961e-09	-3.749649e+01	-5.126625e+02
4.600000e-07	-3.443378e-06	-7.766244e-09	-3.667343e+01	-5.094142e+02
4.700000e-07	-3.364768e-06	-7.711633e-09	-3.583619e+01	-5.060454e+02
4.800000e-07	-3.284652e-06	-7.666888e-09	-3.498293e+01	-5.025456e+02
4.900000e-07	-3.203213e-06	-7.609949e-09	-3.411557e+01	-4.989064e+02
5.000000e-07	-3.120753e-06	-7.546382e-09	-3.323733e+01	-4.951215e+02
5.100000e-07	-3.037362e-06	-7.484092e-09	-3.234918e+01	-4.911862e+02
5.200000e-07	-2.953155e-06	-7.437197e-09	-3.145234e+01	-4.870978e+02
5.300000e-07	-2.868008e-06	-7.372910e-09	-3.054549e+01	-4.828542e+02
5.400000e-07	-2.781798e-06	-7.290304e-09	-2.962732e+01	-4.784535e+02
5.500000e-07	-2.694720e-06	-7.219871e-09	-2.869990e+01	-4.738930e+02
5.600000e-07	-2.606851e-06	-7.158043e-09	-2.776406e+01	-4.691682e+02
5.700000e-07	-2.517978e-06	-7.085502e-09	-2.681752e+01	-4.642730e+02
5.800000e-07	-2.427852e-06	-6.994438e-09	-2.585765e+01	-4.591987e+02
5.900000e-07	-2.336693e-06	-6.913665e-09	-2.488676e+01	-4.539346e+02
6.000000e-07	-2.244834e-06	-6.833945e-09	-2.390842e+01	-4.484681e+02
6.100000e-07	-2.152359e-06	-6.744230e-09	-2.292352e+01	-4.427851e+02
6.200000e-07	-2.059168e-06	-6.648686e-09	-2.193100e+01	-4.368711e+02
6.300000e-07	-1.965120e-06	-6.555109e-09	-2.092935e+01	-4.307109e+02
6.400000e-07	-1.870375e-06	-6.457168e-09	-1.992028e+01	-4.242894e+02
6.500000e-07	-1.775182e-06	-6.353884e-09	-1.890643e+01	-4.175915e+02
6.600000e-07	-1.679510e-06	-6.252698e-09	-1.788748e+01	-4.106018e+02
6.700000e-07	-1.583080e-06	-6.144451e-09	-1.686047e+01	-4.033038e+02
6.800000e-07	-1.485774e-06	-6.026143e-09	-1.582411e+01	-3.956790e+02
6.900000e-07	-1.387768e-06	-5.901830e-09	-1.478031e+01	-3.877064e+02
7.000000e-07	-1.289240e-06	-5.777834e-09	-1.373094e+01	-3.793609e+02
7.100000e-07	-1.190273e-06	-5.642658e-09	-1.267691e+01	-3.706129e+02
7.200000e-07	-1.090978e-06	-5.497422e-09	-1.161937e+01	-3.614277e+02
7.300000e-07	-9.913770e-07	-5.349378e-09	-1.055858e+01	-3.517651e+02
7.400000e-07	-8.915021e-07	-5.194786e-09	-9.494873e+00	-3.415801e+02
7.500000e-07	-7.913398e-07	-5.028354e-09	-8.428102e+00	-3.308231e+02
7.600000e-07	-6.908446e-07	-4.851289e-09	-7.357786e+00	-3.194409e+02
7.700000e-07	-5.901094e-07	-4.666766e-09	-6.284913e+00	-3.073782e+02
7.800000e-07	-4.892191e-07	-4.468483e-09	-5.210389e+00	-2.945784e+02
7.900000e-07	-3.881871e-07	-4.258358e-09	-4.134356e+00	-2.809851e+02
8.000000e-07	-2.869955e-07	-4.039744e-09	-3.056623e+00	-2.665429e+02
8.100000e-07	-1.856764e-07	-3.810332e-09	-1.977532e+00	-2.511989e+02
8.200000e-07	-8.427952e-08	-3.559680e-09	-8.976123e-01	-2.349032e+02
8.300000e-07	1.715098e-08	-3.290289e-09	1.826652e-01	-2.176099e+02
8.400000e-07	1.185659e-07	-3.009502e-09	1.262777e+00	-1.992785e+02
8.500000e-07	2.199194e-07	-2.714187e-09	2.342235e+00	-1.798747e+02
8.600000e-07	3.211864e-07	-2.400285e-09	3.420771e+00	-1.593732e+02
8.700000e-07	4.223545e-07	-2.067523e-09	4.498254e+00	-1.377588e+02
8.800000e-07	5.233866e-07	-1.718584e-09	5.574288e+00	-1.150306e+02
8.900000e-07	6.242462e-07	-1.351747e-09	6.648485e+00	-9.120443e+01
9.000000e-07	7.248780e-07	-9.715943e-10	7.720256e+00	-6.631681e+01
9.100000e-07	8.252526e-07	-5.773325e-10	8.789287e+00	-4.042849e+01
9.200000e-07	9.253819e-07	-1.677688e-10	9.855707e+00	-1.362741e+01
9.300000e-07	1.025218e-06	2.541140e-10	1.091901e+01	1.396915e+01
9.400000e-07	1.124753e-06	6.842260e-10	1.197909e+01	4.221365e+01
9.500000e-07	1.224008e-06	1.117096e-09	1.303620e+01	7.092925e+01
9.600000e-07	1.322890e-06	1.556140e-09	1.408933e+01	9.991248e+01
9.700000e-07	1.421219e-06	1.998829e-09	1.513658e+01	1.289380e+02
9.800000e-07	1.518819e-06	2.437061e-09	1.617606e+01	1.577654e+02
9.900000e-07	1.615647e-06	2.866549e-09	1.720732e+01	1.861473e+02
1.000000e-06	1.711785e-06	3.287923e-09	1.823123e+01	2.138385e+02
1.010000e-06	1.807301e-06	3.697563e-09	1.924852e+01	2.406062e+02
1.020000e-06	1.902231e-06	4.089519e-09	2.025956e+01	2.662395e+02
1.030000e-06	1.996540e-06	4.461455e-09	2.126399e+01	2.905577e+02
1.040000e-06	2.090155e-06	4.809416e-09	2.226103e+01	3.134177e+02
1.050000e-06	2.183045e-06	5.132557e-09	2.325034e+01	3.347187e+02
1.060000e-06	2.275280e-06	5.429411e-09	2.423269e+01	3.544044e+02
1.070000e-06	2.366936e-06	5.699879e-09	2.520886e+01	3.724628e+02
1.080000e-06	2.457822e-06	5.944910e-09	2.617684e+01	3.889236e+02
1.090000e-06	2.547648e-06	6.167784e-09	2.713352e+01	4.038523e+02
1.100000e-06	2.636290e-06	6.372590e-09	2.807759e+01	4.173440e+02
1.110000e-06	2.723906e-06	6.558164e-09	2.901075e+01	4.295151e+02
1.120000e-06	2.810622e-06	6.723716e-09	2.993431e+01	4.404949e+02
1.130000e-06	2.896424e-06	6.873840e-09	3.084813e+01	4.504175e+02
1.140000e-06	2.981248e-06	7.013696e-09	3.175155e+01	4.594145e+02
1.150000e-06	3.065152e-06	7.140711e-09	3.264516e+01	4.676092e+02
1.160000e-06	3.148195e-06	7.255486e-09	3.352960e+01	4.751121e+02
1.170000e-06	3.230060e-06	7.360850e-09	3.440150e+01	4.820186e+02
1.180000e-06	3.310672e-06	7.458974e-09	3.526005e+01	4.884083e+02
1.190000e-06	3.390126e-06	7.549524e-09	3.610627e+01	4.943453e+02
1.200000e-06	3.468344e-06	7.632696e-09	3.693933e+01	4.998804e+02
1.210000e-06	3.545321e-06	7.709774e-09	3.775916e+01	5.050531e+02
1.220000e-06	3.621085e-06	7.781351e-09	3.856608e+01	5.098947e+02
1.230000e-06	3.695460e-06	7.848423e-09	3.935820e+01	5.144307e+02
1.240000e-06	3.768211e-06	7.910368e-09	4.013303e+01	5.186832e+02
1.250000e-06	3.839466e-06	7.969140e-09	4.089193e+01	5.226725e+02
1.260000e-06	3.909411e-06	8.024921e-09	4.163687e+01	5.264179e+02
1.270000e-06	3.978052e-06	8.076696e-09	4.236792e+01	5.299385e+02
1.280000e-06	4.045445e-06	8.124335e-09	4.308569e+01	5.332526e+02
1.290000e-06	4.111355e-06	8.170789e-09	4.378766e+01	5.363778e+02
1.300000e-06	4.175572e-06	8.215040e-09	4.447160e+01	5.393297e+02
1.310000e-06	4.238268e-06	8.254101e-09	4.513934e+01	5.421222e+02
1.320000e-06	4.299581e-06	8.289814e-09	4.579235e+01	5.447667e+02
1.330000e-06	4.359655e-06	8.324497e-09	4.643215e+01	5.472719e+02
1.340000e-06	4.418370e-06	8.358645e-09	4.705750e+01	5.496445e+02
1.350000e-06	4.475310e-06	8.390782e-09	4.766393e+01	5.518896e+02
1.360000e-06	4.530478e-06	8.421204e-09	4.825149e+01	5.540110e+02
1.370000e-06	4.584041e-06	8.450256e-09	4.882197e+01	5.560125e+02
1.380000e-06	4.635835e-06	8.477821e-09	4.937359e+01	5.578979e+02
1.390000e-06	4.685565e-06	8.504224e-09	4.990324e+01	5.596719e+02
1.400000e-06	4.733342e-06	8.528579e-09	5.041208e+01	5.613404e+02
1.410000e-06	4.779485e-06	8.551633e-09	5.090353e+01	5.629099e+02
1.420000e-06	4.824064e-06	8.573895e-09	5.137831e+01	5.643877e+02
1.430000e-06	4.867097e-06	8.594638e-09	5.183663e+01	5.657814e+02
1.440000e-06	4.908288e-06	8.613816e-09	5.227533e+01	5.670983e+02
1.450000e-06	4.947594e-06	8.632868e-09	5.269396e+01	5.683446e+02
1.460000e-06	4.985219e-06	8.651967e-09	5.309468e+01	5.695256e+02
1.470000e-06	5.021256e-06	8.668193e-09	5.347849e+01	5.706448e+02
1.480000e-06	5.055573e-06	8.682193e-09	5.384398e+01	5.717045e+02
1.490000e-06	5.087922e-06	8.696557e-09	5.418851e+01	5.727056e+02
1.500000e-06	5.118466e-06	8.710060e-09	5.451381e+01	5.736478e+02
1.510000e-06	5.147379e-06	8.723575e-09	5.482175e+01	5.745306e+02
1.520000e-06	5.174643e-06	8.736552e-09	5.511212e+01	5.753532e+02
1.530000e-06	5.199904e-06	8.748417e-09	5.538117e+01	5.761150e+02
1.540000e-06	5.223069e-06	8.760605e-09	5.562789e+01	5.768160e+02
1.550000e-06	5.244471e-06	8.771733e-09	5.585582e+01	5.774567e+02
1.560000e-06	5.264295e-06	8.782937e-09	5.606696e+01	5.780382e+02
1.570000e-06	5.282334e-06	8.792331e-09	5.625907e+01	5.785617e+02
1.580000e-06	5.298359e-06	8.798564e-09	5.642975e+01	5.790286e+02
1.590000e-06	5.312411e-06	8.804687e-09	5.657941e+01	5.794397e+02
1.600000e-06	5.324525e-06	8.811700e-09	5.670843e+01	5.797954e+02
1.610000e-06	5.334540e-06	8.817923e-09	5.681509e+01	5.800955e+02
1.620000e-06	5.342422e-06	8.822932e-09	5.689904e+01	5.803387e+02
1.630000e-06	5.348443e-06	8.827046e-09	5.696316e+01	5.805237e+02
1.640000e-06	5.352751e-06	8.829183e-09	5.700905e+01	5.806486e+02
1.650000e-06	5.355274e-06	8.831304e-09	5.703592e+01	5.807119e+02
1.660000e-06	5.355798e-06	8.833607e-09	5.704150e+01	5.807127e+02
1.670000e-06	5.354426e-06	8.832553e-09	5.702689e+01	5.806508e+02
1.680000e-06	5.351418e-06	8.830540e-09	5.699486e+01	5.805273e+02
1.690000e-06	5.346852e-06	8.826365e-09	5.694622e+01	5.803440e+02
1.700000e-06	5.340396e-06	8.823101e-09	5.687747e+01	5.801040e+02
1.710000e-06	5.332036e-06	8.820380e-09	5.678843e+01	5.798105e+02
1.720000e-06	5.322119e-06	8.815742e-09	5.668281e+01	5.794668e+02
1.730000e-06	5.310541e-06	8.814485e-09	5.655950e+01	5.790755e+02
1.740000e-06	5.297123e-06	8.798091e-09	5.641658e+01	5.786384e+02
1.750000e-06	5.281637e-06	8.751312e-09	5.625166e+01	5.781557e+02
1.760000e-06	5.263742e-06	8.743284e-09	5.606107e+01	5.776260e+02
1.770000e-06	5.243264e-06	8.737302e-09	5.584297e+01	5.770466e+02
1.780000e-06	5.220450e-06	8.770281e-09	5.559998e+01	5.764136e+02
1.790000e-06	5.196265e-06	8.826670e-09	5.534241e+01	5.757222e+02
1.800000e-06	5.171390e-06	8.705127e-09	5.507748e+01	5.749680e+02
1.810000e-06	5.145136e-06	8.691345e-09	5.479787e+01	5.741469e+02
1.820000e-06	5.116714e-06	8.735634e-09	5.449516e+01	5.732561e+02
1.830000e-06	5.086586e-06	8.660722e-09	5.417428e+01	5.722945e+02
1.840000e-06	5.054867e-06	8.735663e-09	5.383646e+01	5.712623e+02
1.850000e-06	5.020982e-06	8.682054e-09	5.347557e+01	5.701614e+02
1.860000e-06	4.985359e-06	8.555345e-09	5.309617e+01	5.689947e+02
1.870000e-06	4.948199e-06	8.668936e-09	5.270040e+01	5.677656e+02
1.880000e-06	4.909135e-06	8.631933e-09	5.228436e+01	5.664770e+02
1.890000e-06	4.868274e-06	8.550740e-09	5.184917e+01	5.651308e+02
1.900000e-06	4.825629e-06	8.590911e-09	5.139498e+01	5.637271e+02
1.910000e-06	4.781462e-06	8.544269e-09	5.092458e+01	5.622640e+02
1.920000e-06	4.735865e-06	8.583485e-09	5.043895e+01	5.607376e+02
1.930000e-06	4.688331e-06	8.552210e-09	4.993269e+01	5.591419e+02
1.940000e-06	4.639001e-06	8.464924e-09	4.940732e+01	5.574698e+02
1.950000e-06	4.588086e-06	8.493780e-09	4.886504e+01	5.557137e+02
1.960000e-06	4.535377e-06	8.433831e-09	4.830367e+01	5.538664e+02
1.970000e-06	4.480622e-06	8.423946e-09	4.772051e+01	5.519221e+02
1.980000e-06	4.424021e-06	8.415626e-09	4.711769e+01	5.498773e+02
1.990000e-06	4.365971e-06	8.336626e-09	4.649943e+01	5.477309e+02
2.000000e-06	4.306442e-06	8.305534e-09	4.586542e+01	5.454848e+02
2.010000e-06	4.245617e-06	8.280119e-09	4.521761e+01	5.431430e+02
2.020000e-06	4.183268e-06	8.290985e-09	4.455356e+01	5.407115e+02
2.030000e-06	4.119070e-06	8.194539e-09	4.386982e+01	5.381975e+02
2.040000e-06	4.053308e-06	8.133051e-09	4.316943e+01	5.356075e+02
2.050000e-06	3.986190e-06	8.155347e-09	4.245460e+01	5.329470e+02
2.060000e-06	3.917811e-06	8.092609e-09	4.172633e+01	5.302192e+02
2.070000e-06	3.847874e-06	8.047537e-09	4.098147e+01	5.274245e+02
2.080000e-06	3.776245e-06	7.986050e-09	4.021860e+01	5.245599e+02
2.090000e-06	3.703319e-06	7.955812e-09	3.944190e+01	5.216193e+02
2.100000e-06	3.629150e-06	7.914284e-09	3.865197e+01	5.185939e+02
2.110000e-06	3.553619e-06	7.855274e-09	3.784754e+01	5.154730e+02
2.120000e-06	3.476601e-06	7.831785e-09	3.702726e+01	5.122450e+02
2.130000e-06	3.398100e-06	7.759987e-09	3.619120e+01	5.088984e+02
2.140000e-06	3.318250e-06	7.697122e-09	3.534076e+01	5.054225e+02
2.150000e-06	3.237226e-06	7.653366e-09	3.447782e+01	5.018087e+02
2.160000e-06	3.155149e-06	7.614079e-09	3.360366e+01	4.980500e+02
2.170000e-06	3.071971e-06	7.538313e-09	3.271778e+01	4.941417e+02
2.180000e-06	2.987871e-06	7.455784e-09	3.182208e+01	4.900807e+02
2.190000e-06	2.902820e-06	7.414965e-09	3.091625e+01	4.858648e+02
2.200000e-06	2.816554e-06	7.354737e-09	2.999748e+01	4.814923e+02
2.210000e-06	2.729081e-06	7.275187e-09	2.906586e+01	4.769604e+02
2.220000e-06	2.640653e-06	7.202131e-09	2.812407e+01	4.722652e+02
2.230000e-06	2.551386e-06	7.142274e-09	2.717333e+01	4.674009e+02
2.240000e-06	2.461220e-06	7.064182e-09	2.621303e+01	4.623592e+02
2.250000e-06	2.370230e-06	6.978627e-09	2.524394e+01	4.571298e+02
2.260000e-06	2.278552e-06	6.904400e-09	2.426754e+01	4.517002e+02
2.270000e-06	2.186250e-06	6.815612e-09	2.328448e+01	4.460569e+02
2.280000e-06	2.093141e-06	6.718766e-09	2.229283e+01	4.401851e+02
2.290000e-06	1.999098e-06	6.630623e-09	2.129123e+01	4.340698e+02
2.300000e-06	1.904194e-06	6.543184e-09	2.028046e+01	4.276960e+02
2.310000e-06	1.808520e-06	6.436368e-09	1.926150e+01	4.210485e+02
2.320000e-06	1.712232e-06	6.323023e-09	1.823599e+01	4.141119e+02
2.330000e-06	1.615441e-06	6.218555e-09	1.720512e+01	4.068701e+02
2.340000e-06	1.518141e-06	6.108375e-09	1.616884e+01	3.993050e+02
2.350000e-06	1.420293e-06	5.984141e-09	1.512672e+01	3.913961e+02
2.360000e-06	1.322011e-06	5.857800e-09	1.407998e+01	3.831191e+02
2.370000e-06	1.223349e-06	5.731416e-09	1.302918e+01	3.744453e+02
2.380000e-06	1.124275e-06	5.592507e-09	1.197400e+01	3.653408e+02
2.390000e-06	1.024902e-06	5.443981e-09	1.091563e+01	3.557666e+02
2.400000e-06	9.252869e-07	5.292564e-09	9.854694e+00	3.456782e+02
2.410000e-06	8.254174e-07	5.131427e-09	8.791043e+00	3.350270e+02
2.420000e-06	7.252544e-07	4.957192e-09	7.724265e+00	3.237604e+02
2.430000e-06	6.248912e-07	4.775718e-09	6.655354e+00	3.118232e+02
2.440000e-06	5.244375e-07	4.588450e-09	5.585480e+00	2.991591e+02
2.450000e-06	4.238375e-07	4.385564e-09	4.514048e+00	2.857114e+02
2.460000e-06	3.230352e-07	4.164757e-09	3.440461e+00	2.714247e+02
2.470000e-06	2.220957e-07	3.934927e-09	2.365412e+00	2.562454e+02
2.480000e-06	1.210612e-07	3.694708e-09	1.289353e+00	2.401230e+02
2.490000e-06	1.990102e-08	3.436005e-09	2.119542e-01	2.230109e+02
2.500000e-06	-8.130032e-08	3.160695e-09	-8.658826e-01	2.048674e+02
2.510000e-06	-1.824473e-07	2.871571e-09	-1.943141e+00	1.856572e+02
2.520000e-06	-2.834620e-07	2.563640e-09	-3.018989e+00	1.653530e+02
2.530000e-06	-3.843116e-07	2.236933e-09	-4.093080e+00	1.439378e+02
2.540000e-06	-4.849974e-07	1.893724e-09	-5.165427e+00	1.214077e+02
2.550000e-06	-5.854871e-07	1.533011e-09	-6.235684e+00	9.777542e+01
2.560000e-06	-6.857495e-07	1.153150e-09	-7.303521e+00	7.307351e+01
2.570000e-06	-7.858303e-07	7.596842e-10	-8.369423e+00	4.735814e+01
2.580000e-06	-8.856965e-07	3.571491e-10	-9.433040e+00	2.071220e+01
2.590000e-06	-9.853029e-07	-5.949422e-11	-1.049389e+01	-6.752374e+00
2.600000e-06	-1.084639e-06	-4.905888e-10	-1.155187e+01	-3.489344e+01
2.610000e-06	-1.183635e-06	-9.293770e-10	-1.260621e+01	-6.353924e+01
2.620000e-06	-1.282191e-06	-1.369566e-09	-1.365587e+01	-9.249077e+01
2.630000e-06	-1.380217e-06	-1.811804e-09	-1.469989e+01	-1.215262e+02
2.640000e-06	-1.477766e-06	-2.253900e-09	-1.573883e+01	-1.504072e+02
2.650000e-06	-1.574911e-06	-2.688902e-09	-1.677346e+01	-1.788868e+02
2.660000e-06	-1.671610e-06	-3.113539e-09	-1.780334e+01	-2.067190e+02
2.670000e-06	-1.767820e-06	-3.524958e-09	-1.882802e+01	-2.336680e+02
2.680000e-06	-1.863517e-06	-3.920832e-09	-1.984724e+01	-2.595182e+02
2.690000e-06	-1.958518e-06	-4.299870e-09	-2.085904e+01	-2.840831e+02
2.700000e-06	-2.052556e-06	-4.660503e-09	-2.186058e+01	-3.072122e+02
2.710000e-06	-2.145589e-06	-4.993518e-09	-2.285142e+01	-3.287971e+02
2.720000e-06	-2.237787e-06	-5.294953e-09	-2.383337e+01	-3.487735e+02
2.730000e-06	-2.329323e-06	-5.572438e-09	-2.480827e+01	-3.671217e+02
2.740000e-06	-2.420139e-06	-5.828679e-09	-2.577550e+01	-3.838640e+02
2.750000e-06	-2.510026e-06	-6.062628e-09	-2.673283e+01	-3.990602e+02
2.760000e-06	-2.599021e-06	-6.272161e-09	-2.768067e+01	-4.128006e+02
2.770000e-06	-2.687265e-06	-6.461769e-09	-2.862050e+01	-4.251984e+02
2.780000e-06	-2.774636e-06	-6.636237e-09	-2.955104e+01	-4.363812e+02
2.790000e-06	-2.860860e-06	-6.794119e-09	-3.046936e+01	-4.464829e+02
2.800000e-06	-2.945854e-06	-6.935765e-09	-3.137458e+01	-4.556360e+02
2.810000e-06	-3.029807e-06	-7.063354e-09	-3.226872e+01	-4.639655e+02
2.820000e-06	-3.112800e-06	-7.179711e-09	-3.315263e+01	-4.715846e+02
2.830000e-06	-3.194767e-06	-7.286538e-09	-3.402561e+01	-4.785914e+02
2.840000e-06	-3.275709e-06	-7.384516e-09	-3.488768e+01	-4.850684e+02
2.850000e-06	-3.355598e-06	-7.475233e-09	-3.573853e+01	-4.910823e+02
2.860000e-06	-3.434085e-06	-7.559035e-09	-3.657445e+01	-4.966861e+02
2.870000e-06	-3.511066e-06	-7.638715e-09	-3.739433e+01	-5.019211e+02
2.880000e-06	-3.586674e-06	-7.716022e-09	-3.819959e+01	-5.068200e+02
2.890000e-06	-3.660856e-06	-7.787331e-09	-3.898965e+01	-5.114090e+02
2.900000e-06	-3.733730e-06	-7.852571e-09	-3.976580e+01	-5.157107e+02
2.910000e-06	-3.805407e-06	-7.914940e-09	-4.052919e+01	-5.197457e+02
2.920000e-06	-3.875588e-06	-7.976336e-09	-4.127664e+01	-5.235334e+02
2.930000e-06	-3.944200e-06	-8.034309e-09	-4.200739e+01	-5.270928e+02
2.940000e-06	-4.011475e-06	-8.086959e-09	-4.272389e+01	-5.304426e+02
