# Temperatura_=_20.0
# Concentracion g/m^3_=_9000.0
# C_Vs_to_Am_M_A/Vsm_=_65563218390.804596
# pendiente_HvsI_1/m_=_3716.3
# ordenada_HvsI_A/m_=_1297.0
# frecuencia_Hz_=_300870.43449066737

Tiempo_(s)	Campo_(V.s)	Magnetizacion_(V.s)	Campo_(kA/m)	Magnetizacion_(A/m)
0.000000e+00	-5.339569e-06	-8.798398e-09	-5.679706e+01	-5.767216e+02
1.000000e-08	-5.337789e-06	-8.798322e-09	-5.677811e+01	-5.766284e+02
2.000000e-08	-5.334154e-06	-8.797417e-09	-5.673945e+01	-5.764868e+02
3.000000e-08	-5.328824e-06	-8.794474e-09	-5.668276e+01	-5.762974e+02
4.000000e-08	-5.321916e-06	-8.789238e-09	-5.660928e+01	-5.760605e+02
5.000000e-08	-5.313293e-06	-8.785561e-09	-5.651756e+01	-5.757763e+02
6.000000e-08	-5.302641e-06	-8.783582e-09	-5.640425e+01	-5.754447e+02
7.000000e-08	-5.290103e-06	-8.771284e-09	-5.627088e+01	-5.750648e+02
8.000000e-08	-5.275634e-06	-8.761650e-09	-5.611698e+01	-5.746354e+02
9.000000e-08	-5.259003e-06	-8.802609e-09	-5.594007e+01	-5.741544e+02
1.000000e-07	-5.240292e-06	-8.808261e-09	-5.574104e+01	-5.736192e+02
1.100000e-07	-5.219644e-06	-8.772011e-09	-5.552141e+01	-5.730267e+02
1.200000e-07	-5.197152e-06	-8.741389e-09	-5.528216e+01	-5.723740e+02
1.300000e-07	-5.172999e-06	-8.660938e-09	-5.502524e+01	-5.716585e+02
1.400000e-07	-5.147282e-06	-8.666099e-09	-5.475170e+01	-5.708782e+02
1.500000e-07	-5.120007e-06	-8.793390e-09	-5.446157e+01	-5.700326e+02
1.600000e-07	-5.091199e-06	-8.678275e-09	-5.415513e+01	-5.691221e+02
1.700000e-07	-5.060891e-06	-8.623774e-09	-5.383275e+01	-5.681485e+02
1.800000e-07	-5.028740e-06	-8.674805e-09	-5.349076e+01	-5.671144e+02
1.900000e-07	-4.994516e-06	-8.599336e-09	-5.312672e+01	-5.660232e+02
2.000000e-07	-4.958764e-06	-8.688858e-09	-5.274643e+01	-5.648779e+02
2.100000e-07	-4.921446e-06	-8.661755e-09	-5.234948e+01	-5.636810e+02
2.200000e-07	-4.882289e-06	-8.506438e-09	-5.193296e+01	-5.624335e+02
2.300000e-07	-4.841297e-06	-8.557752e-09	-5.149693e+01	-5.611344e+02
2.400000e-07	-4.798429e-06	-8.596398e-09	-5.104094e+01	-5.597807e+02
2.500000e-07	-4.753843e-06	-8.556596e-09	-5.056667e+01	-5.583671e+02
2.600000e-07	-4.707487e-06	-8.511422e-09	-5.007359e+01	-5.568866e+02
2.700000e-07	-4.659121e-06	-8.408497e-09	-4.955912e+01	-5.553307e+02
2.800000e-07	-4.608687e-06	-8.460649e-09	-4.902265e+01	-5.536910e+02
2.900000e-07	-4.556409e-06	-8.483703e-09	-4.846657e+01	-5.519591e+02
3.000000e-07	-4.502499e-06	-8.383410e-09	-4.789313e+01	-5.501284e+02
3.100000e-07	-4.447016e-06	-8.333054e-09	-4.730295e+01	-5.481945e+02
3.200000e-07	-4.389825e-06	-8.335719e-09	-4.669461e+01	-5.461556e+02
3.300000e-07	-4.330890e-06	-8.316804e-09	-4.606772e+01	-5.440129e+02
3.400000e-07	-4.270452e-06	-8.264115e-09	-4.542485e+01	-5.417703e+02
3.500000e-07	-4.208667e-06	-8.253503e-09	-4.476764e+01	-5.394335e+02
3.600000e-07	-4.145497e-06	-8.175119e-09	-4.409569e+01	-5.370097e+02
3.700000e-07	-4.080742e-06	-8.127898e-09	-4.340689e+01	-5.345058e+02
3.800000e-07	-4.014313e-06	-8.160387e-09	-4.270029e+01	-5.319279e+02
3.900000e-07	-3.946388e-06	-8.097467e-09	-4.197777e+01	-5.292800e+02
4.000000e-07	-3.877095e-06	-8.003947e-09	-4.124070e+01	-5.265635e+02
4.100000e-07	-3.806574e-06	-7.983125e-09	-4.049057e+01	-5.237766e+02
4.200000e-07	-3.734932e-06	-7.980053e-09	-3.972851e+01	-5.209144e+02
4.300000e-07	-3.661821e-06	-7.918098e-09	-3.895083e+01	-5.179692e+02
4.400000e-07	-3.586912e-06	-7.837360e-09	-3.815402e+01	-5.149316e+02
4.500000e-07	-3.510443e-06	-7.805968e-09	-3.734062e+01	-5.117909e+02
4.600000e-07	-3.432708e-06	-7.769127e-09	-3.651375e+01	-5.085366e+02
4.700000e-07	-3.353689e-06	-7.704004e-09	-3.567322e+01	-5.051588e+02
4.800000e-07	-3.273272e-06	-7.650521e-09	-3.481783e+01	-5.016492e+02
4.900000e-07	-3.191578e-06	-7.598738e-09	-3.394885e+01	-4.980014e+02
5.000000e-07	-3.108870e-06	-7.541484e-09	-3.306908e+01	-4.942108e+02
5.100000e-07	-3.025276e-06	-7.479587e-09	-3.217989e+01	-4.902744e+02
5.200000e-07	-2.940784e-06	-7.428393e-09	-3.128115e+01	-4.861898e+02
5.300000e-07	-2.855314e-06	-7.359167e-09	-3.037201e+01	-4.819548e+02
5.400000e-07	-2.768839e-06	-7.281721e-09	-2.945217e+01	-4.775665e+02
5.500000e-07	-2.681501e-06	-7.222239e-09	-2.852315e+01	-4.730200e+02
5.600000e-07	-2.593359e-06	-7.154610e-09	-2.758559e+01	-4.683087e+02
5.700000e-07	-2.504122e-06	-7.070887e-09	-2.663637e+01	-4.634235e+02
5.800000e-07	-2.413676e-06	-6.981461e-09	-2.567429e+01	-4.583529e+02
5.900000e-07	-2.322316e-06	-6.911071e-09	-2.470250e+01	-4.530837e+02
6.000000e-07	-2.230286e-06	-6.827779e-09	-2.372357e+01	-4.476014e+02
6.100000e-07	-2.137567e-06	-6.725716e-09	-2.273732e+01	-4.418908e+02
6.200000e-07	-2.044070e-06	-6.630777e-09	-2.174280e+01	-4.359370e+02
6.300000e-07	-1.949783e-06	-6.547012e-09	-2.073986e+01	-4.297251e+02
6.400000e-07	-1.854858e-06	-6.450154e-09	-1.973015e+01	-4.232413e+02
6.500000e-07	-1.759460e-06	-6.334764e-09	-1.871540e+01	-4.164717e+02
6.600000e-07	-1.663476e-06	-6.228813e-09	-1.769441e+01	-4.094022e+02
6.700000e-07	-1.566663e-06	-6.123446e-09	-1.666461e+01	-4.020176e+02
6.800000e-07	-1.469044e-06	-6.006789e-09	-1.562624e+01	-3.943001e+02
6.900000e-07	-1.370829e-06	-5.878047e-09	-1.458152e+01	-3.862284e+02
7.000000e-07	-1.272092e-06	-5.747352e-09	-1.353126e+01	-3.777764e+02
7.100000e-07	-1.172938e-06	-5.608768e-09	-1.247655e+01	-3.689129e+02
7.200000e-07	-1.073438e-06	-5.464900e-09	-1.141817e+01	-3.596004e+02
7.300000e-07	-9.736358e-07	-5.319467e-09	-1.035657e+01	-3.497959e+02
7.400000e-07	-8.735939e-07	-5.158504e-09	-9.292428e+00	-3.394510e+02
7.500000e-07	-7.732896e-07	-4.983994e-09	-8.225490e+00	-3.285130e+02
7.600000e-07	-6.727091e-07	-4.806139e-09	-7.155614e+00	-3.169257e+02
7.700000e-07	-5.718470e-07	-4.624153e-09	-6.082743e+00	-3.046314e+02
7.800000e-07	-4.707813e-07	-4.421110e-09	-5.007705e+00	-2.915717e+02
7.900000e-07	-3.695821e-07	-4.202217e-09	-3.931248e+00	-2.776889e+02
8.000000e-07	-2.682507e-07	-3.978913e-09	-2.853386e+00	-2.629271e+02
8.100000e-07	-1.668264e-07	-3.745764e-09	-1.774535e+00	-2.472329e+02
8.200000e-07	-6.531468e-08	-3.489872e-09	-6.947530e-01	-2.305567e+02
8.300000e-07	3.627082e-08	-3.213834e-09	3.858131e-01	-2.128528e+02
8.400000e-07	1.378809e-07	-2.928297e-09	1.466641e+00	-1.940811e+02
8.500000e-07	2.394024e-07	-2.627338e-09	2.546526e+00	-1.742081e+02
8.600000e-07	3.408032e-07	-2.306816e-09	3.625128e+00	-1.532092e+02
8.700000e-07	4.421264e-07	-1.965247e-09	4.702904e+00	-1.310714e+02
8.800000e-07	5.432755e-07	-1.606213e-09	5.778827e+00	-1.077963e+02
8.900000e-07	6.442035e-07	-1.231434e-09	6.852400e+00	-8.340423e+01
9.000000e-07	7.449085e-07	-8.425158e-10	7.923599e+00	-5.793787e+01
9.100000e-07	8.453526e-07	-4.390688e-10	8.992025e+00	-3.146644e+01
9.200000e-07	9.455081e-07	-2.049544e-11	1.005738e+01	-4.088733e+00
9.300000e-07	1.045360e-06	4.086875e-10	1.111950e+01	2.406477e+01
9.400000e-07	1.144901e-06	8.440067e-10	1.217833e+01	5.283137e+01
9.500000e-07	1.244107e-06	1.282545e-09	1.323358e+01	8.201753e+01
9.600000e-07	1.342900e-06	1.729557e-09	1.428445e+01	1.114025e+02
9.700000e-07	1.441182e-06	2.177586e-09	1.532987e+01	1.407442e+02
9.800000e-07	1.538855e-06	2.617146e-09	1.636882e+01	1.697866e+02
9.900000e-07	1.635770e-06	3.049583e-09	1.739971e+01	1.982696e+02
1.000000e-06	1.731921e-06	3.474978e-09	1.842246e+01	2.259392e+02
1.010000e-06	1.827430e-06	3.884876e-09	1.943839e+01	2.525581e+02
1.020000e-06	1.922339e-06	4.272067e-09	2.044794e+01	2.779160e+02
1.030000e-06	2.016629e-06	4.637687e-09	2.145090e+01	3.018384e+02
1.040000e-06	2.110222e-06	4.979192e-09	2.244645e+01	3.241934e+02
1.050000e-06	2.203076e-06	5.293366e-09	2.343414e+01	3.448960e+02
1.060000e-06	2.295262e-06	5.577498e-09	2.441473e+01	3.639094e+02
1.070000e-06	2.386791e-06	5.834175e-09	2.538832e+01	3.812437e+02
1.080000e-06	2.477563e-06	6.067249e-09	2.635386e+01	3.969515e+02
1.090000e-06	2.567395e-06	6.278569e-09	2.730941e+01	4.111213e+02
1.100000e-06	2.656084e-06	6.472124e-09	2.825279e+01	4.238692e+02
1.110000e-06	2.743648e-06	6.645472e-09	2.918421e+01	4.353298e+02
1.120000e-06	2.830278e-06	6.801364e-09	3.010570e+01	4.456472e+02
1.130000e-06	2.916031e-06	6.943828e-09	3.101786e+01	4.549656e+02
1.140000e-06	3.000795e-06	7.076183e-09	3.191949e+01	4.634225e+02
1.150000e-06	3.084640e-06	7.196508e-09	3.281135e+01	4.711426e+02
1.160000e-06	3.167590e-06	7.304163e-09	3.369369e+01	4.782341e+02
1.170000e-06	3.249375e-06	7.403725e-09	3.456364e+01	4.847873e+02
1.180000e-06	3.329840e-06	7.496832e-09	3.541955e+01	4.908738e+02
1.190000e-06	3.409124e-06	7.582988e-09	3.626289e+01	4.965491e+02
1.200000e-06	3.487203e-06	7.662023e-09	3.709341e+01	5.018548e+02
1.210000e-06	3.564025e-06	7.736398e-09	3.791058e+01	5.068217e+02
1.220000e-06	3.639645e-06	7.804926e-09	3.871494e+01	5.114737e+02
1.230000e-06	3.713838e-06	7.867490e-09	3.950414e+01	5.158301e+02
1.240000e-06	3.786392e-06	7.926047e-09	4.027590e+01	5.199090e+02
1.250000e-06	3.857472e-06	7.982905e-09	4.103198e+01	5.237280e+02
1.260000e-06	3.927214e-06	8.035342e-09	4.177382e+01	5.273056e+02
1.270000e-06	3.995656e-06	8.083632e-09	4.250183e+01	5.306610e+02
1.280000e-06	4.062864e-06	8.129229e-09	4.321673e+01	5.338138e+02
1.290000e-06	4.128525e-06	8.173687e-09	4.391516e+01	5.367828e+02
1.300000e-06	4.192528e-06	8.214896e-09	4.459597e+01	5.395854e+02
1.310000e-06	4.255076e-06	8.251883e-09	4.526129e+01	5.422368e+02
1.320000e-06	4.316219e-06	8.287214e-09	4.591166e+01	5.447491e+02
1.330000e-06	4.376050e-06	8.320494e-09	4.654809e+01	5.471318e+02
1.340000e-06	4.434491e-06	8.353374e-09	4.716973e+01	5.493914e+02
1.350000e-06	4.491187e-06	8.383943e-09	4.777280e+01	5.515326e+02
1.360000e-06	4.546127e-06	8.412426e-09	4.835720e+01	5.535588e+02
1.370000e-06	4.599467e-06	8.441051e-09	4.892457e+01	5.554729e+02
1.380000e-06	4.651048e-06	8.468934e-09	4.947325e+01	5.572783e+02
1.390000e-06	4.700609e-06	8.495163e-09	5.000043e+01	5.589796e+02
1.400000e-06	4.748197e-06	8.518096e-09	5.050662e+01	5.605825e+02
1.410000e-06	4.794121e-06	8.539939e-09	5.099511e+01	5.620938e+02
1.420000e-06	4.838508e-06	8.561663e-09	5.146726e+01	5.635213e+02
1.430000e-06	4.881225e-06	8.582480e-09	5.192164e+01	5.648731e+02
1.440000e-06	4.922041e-06	8.601417e-09	5.235580e+01	5.661566e+02
1.450000e-06	4.961067e-06	8.618808e-09	5.277092e+01	5.673784e+02
1.460000e-06	4.998468e-06	8.636442e-09	5.316876e+01	5.685433e+02
1.470000e-06	5.034319e-06	8.653329e-09	5.355011e+01	5.696540e+02
1.480000e-06	5.068351e-06	8.669204e-09	5.391211e+01	5.707111e+02
1.490000e-06	5.100415e-06	8.684589e-09	5.425317e+01	5.717136e+02
1.500000e-06	5.130738e-06	8.700196e-09	5.457571e+01	5.726587e+02
1.510000e-06	5.159402e-06	8.714967e-09	5.488062e+01	5.735429e+02
1.520000e-06	5.186356e-06	8.727545e-09	5.516732e+01	5.743627e+02
1.530000e-06	5.211278e-06	8.739895e-09	5.543242e+01	5.751147e+02
1.540000e-06	5.234193e-06	8.753447e-09	5.567617e+01	5.757966e+02
1.550000e-06	5.255375e-06	8.764592e-09	5.590148e+01	5.764073e+02
1.560000e-06	5.274874e-06	8.772627e-09	5.610889e+01	5.769472e+02
1.570000e-06	5.292515e-06	8.779745e-09	5.629654e+01	5.774176e+02
1.580000e-06	5.308175e-06	8.787077e-09	5.646312e+01	5.778212e+02
1.590000e-06	5.321915e-06	8.794408e-09	5.660927e+01	5.781609e+02
1.600000e-06	5.333678e-06	8.799817e-09	5.673439e+01	5.784400e+02
1.610000e-06	5.343254e-06	8.803171e-09	5.683625e+01	5.786617e+02
1.620000e-06	5.350744e-06	8.806108e-09	5.691592e+01	5.788287e+02
1.630000e-06	5.356402e-06	8.810018e-09	5.697611e+01	5.789431e+02
1.640000e-06	5.360379e-06	8.812503e-09	5.701841e+01	5.790064e+02
1.650000e-06	5.362495e-06	8.815222e-09	5.704091e+01	5.790197e+02
1.660000e-06	5.362550e-06	8.817113e-09	5.704150e+01	5.789837e+02
1.670000e-06	5.360807e-06	8.814569e-09	5.702296e+01	5.788989e+02
1.680000e-06	5.357459e-06	8.813225e-09	5.698735e+01	5.787657e+02
1.690000e-06	5.352489e-06	8.809415e-09	5.693449e+01	5.785846e+02
1.700000e-06	5.345678e-06	8.806712e-09	5.686204e+01	5.783559e+02
1.710000e-06	5.337069e-06	8.804582e-09	5.677046e+01	5.780799e+02
1.720000e-06	5.326851e-06	8.800049e-09	5.666177e+01	5.777565e+02
1.730000e-06	5.314934e-06	8.806074e-09	5.653501e+01	5.773851e+02
1.740000e-06	5.301152e-06	8.772208e-09	5.638841e+01	5.769645e+02
1.750000e-06	5.285260e-06	8.715597e-09	5.621936e+01	5.764927e+02
1.760000e-06	5.266931e-06	8.725662e-09	5.602440e+01	5.759671e+02
1.770000e-06	5.246008e-06	8.729560e-09	5.580184e+01	5.753848e+02
1.780000e-06	5.222873e-06	8.795420e-09	5.555575e+01	5.747428e+02
1.790000e-06	5.198494e-06	8.835578e-09	5.529644e+01	5.740384e+02
1.800000e-06	5.173384e-06	8.638484e-09	5.502934e+01	5.732696e+02
1.810000e-06	5.146697e-06	8.691049e-09	5.474547e+01	5.724355e+02
1.820000e-06	5.117860e-06	8.760015e-09	5.443873e+01	5.715362e+02
1.830000e-06	5.087394e-06	8.655918e-09	5.411467e+01	5.705734e+02
1.840000e-06	5.055219e-06	8.762212e-09	5.377242e+01	5.695497e+02
1.850000e-06	5.020970e-06	8.631239e-09	5.340811e+01	5.684682e+02
1.860000e-06	4.985075e-06	8.513254e-09	5.302629e+01	5.673321e+02
1.870000e-06	4.947536e-06	8.717699e-09	5.262700e+01	5.661441e+02
1.880000e-06	4.908094e-06	8.614392e-09	5.220745e+01	5.649054e+02
1.890000e-06	4.866845e-06	8.503035e-09	5.176868e+01	5.636154e+02
1.900000e-06	4.823838e-06	8.547745e-09	5.131122e+01	5.622716e+02
1.910000e-06	4.779412e-06	8.510594e-09	5.083866e+01	5.608689e+02
1.920000e-06	4.733375e-06	8.623051e-09	5.034897e+01	5.594007e+02
1.930000e-06	4.685341e-06	8.501750e-09	4.983802e+01	5.578587e+02
1.940000e-06	4.635612e-06	8.406448e-09	4.930905e+01	5.562343e+02
1.950000e-06	4.584271e-06	8.504749e-09	4.876294e+01	5.545192e+02
1.960000e-06	4.531031e-06	8.403849e-09	4.819663e+01	5.527063e+02
1.970000e-06	4.475791e-06	8.410085e-09	4.760904e+01	5.507908e+02
1.980000e-06	4.418883e-06	8.387409e-09	4.700371e+01	5.487704e+02
1.990000e-06	4.360517e-06	8.294972e-09	4.638287e+01	5.466459e+02
2.000000e-06	4.300653e-06	8.276931e-09	4.574609e+01	5.444205e+02
2.010000e-06	4.239451e-06	8.267581e-09	4.509509e+01	5.420998e+02
2.020000e-06	4.176609e-06	8.292981e-09	4.442663e+01	5.396907e+02
2.030000e-06	4.111980e-06	8.138338e-09	4.373917e+01	5.372004e+02
2.040000e-06	4.045901e-06	8.114274e-09	4.303629e+01	5.346351e+02
2.050000e-06	3.978474e-06	8.164425e-09	4.231907e+01	5.319993e+02
2.060000e-06	3.909735e-06	8.064937e-09	4.158789e+01	5.292949e+02
2.070000e-06	3.839383e-06	8.017870e-09	4.083956e+01	5.265206e+02
2.080000e-06	3.767432e-06	7.957340e-09	4.007421e+01	5.236720e+02
2.090000e-06	3.694245e-06	7.963078e-09	3.929572e+01	5.207421e+02
2.100000e-06	3.619755e-06	7.894531e-09	3.850337e+01	5.177215e+02
2.110000e-06	3.543809e-06	7.821253e-09	3.769553e+01	5.145998e+02
2.120000e-06	3.466333e-06	7.820320e-09	3.687142e+01	5.113663e+02
2.130000e-06	3.387400e-06	7.745580e-09	3.603181e+01	5.080110e+02
2.140000e-06	3.307156e-06	7.685584e-09	3.517826e+01	5.045252e+02
2.150000e-06	3.225797e-06	7.625766e-09	3.431284e+01	5.009023e+02
2.160000e-06	3.143462e-06	7.591971e-09	3.343703e+01	4.971372e+02
2.170000e-06	3.060123e-06	7.514298e-09	3.255056e+01	4.932267e+02
2.180000e-06	2.975815e-06	7.440040e-09	3.165377e+01	4.891685e+02
2.190000e-06	2.890479e-06	7.401828e-09	3.074606e+01	4.849604e+02
2.200000e-06	2.803949e-06	7.322175e-09	2.982563e+01	4.805995e+02
2.210000e-06	2.716169e-06	7.249274e-09	2.889192e+01	4.760815e+02
2.220000e-06	2.627409e-06	7.190202e-09	2.794778e+01	4.714000e+02
2.230000e-06	2.537831e-06	7.137917e-09	2.699493e+01	4.665464e+02
2.240000e-06	2.447380e-06	7.039752e-09	2.603280e+01	4.615095e+02
2.250000e-06	2.356194e-06	6.950772e-09	2.506286e+01	4.562766e+02
2.260000e-06	2.264372e-06	6.892174e-09	2.408615e+01	4.508332e+02
2.270000e-06	2.171858e-06	6.808009e-09	2.310208e+01	4.451643e+02
2.280000e-06	2.078498e-06	6.700353e-09	2.210901e+01	4.392547e+02
2.290000e-06	1.984176e-06	6.604190e-09	2.110570e+01	4.330898e+02
2.300000e-06	1.889024e-06	6.525713e-09	2.009357e+01	4.266553e+02
2.310000e-06	1.793153e-06	6.420934e-09	1.907379e+01	4.199375e+02
2.320000e-06	1.696667e-06	6.305735e-09	1.804747e+01	4.129224e+02
2.330000e-06	1.599679e-06	6.197969e-09	1.701580e+01	4.055951e+02
2.340000e-06	1.502182e-06	6.087072e-09	1.597873e+01	3.979382e+02
2.350000e-06	1.404186e-06	5.965180e-09	1.493634e+01	3.899313e+02
2.360000e-06	1.305743e-06	5.842543e-09	1.388920e+01	3.815491e+02
2.370000e-06	1.206914e-06	5.712484e-09	1.283795e+01	3.727614e+02
2.380000e-06	1.107718e-06	5.562877e-09	1.178281e+01	3.635318e+02
2.390000e-06	1.008213e-06	5.413576e-09	1.072437e+01	3.538184e+02
2.400000e-06	9.083983e-07	5.266776e-09	9.662643e+00	3.435735e+02
2.410000e-06	8.082870e-07	5.102553e-09	8.597758e+00	3.327452e+02
2.420000e-06	7.079436e-07	4.918486e-09	7.530404e+00	3.212778e+02
2.430000e-06	6.073717e-07	4.734123e-09	6.460619e+00	3.091139e+02
2.440000e-06	5.066023e-07	4.548910e-09	5.388734e+00	2.961949e+02
2.450000e-06	4.056752e-07	4.341084e-09	4.315172e+00	2.824630e+02
2.460000e-06	3.045461e-07	4.111515e-09	3.239461e+00	2.678619e+02
2.470000e-06	2.032585e-07	3.876969e-09	2.162063e+00	2.523377e+02
2.480000e-06	1.018970e-07	3.632051e-09	1.083880e+00	2.358401e+02
2.490000e-06	4.759800e-10	3.366253e-09	5.063004e-03	2.183226e+02
2.500000e-06	-1.009367e-07	3.083386e-09	-1.073665e+00	1.997440e+02
2.510000e-06	-2.022920e-07	2.787005e-09	-2.151782e+00	1.800695e+02
2.520000e-06	-3.035231e-07	2.471087e-09	-3.228579e+00	1.592728e+02
2.530000e-06	-4.045897e-07	2.135361e-09	-4.303625e+00	1.373385e+02
2.540000e-06	-5.054381e-07	1.784037e-09	-5.376351e+00	1.142654e+02
2.550000e-06	-6.060633e-07	1.413641e-09	-6.446702e+00	9.007009e+01
2.560000e-06	-7.064967e-07	1.023182e-09	-7.515012e+00	6.479106e+01
2.570000e-06	-8.066776e-07	6.209848e-10	-8.580638e+00	3.849251e+01
2.580000e-06	-9.065433e-07	2.104906e-10	-9.642911e+00	1.126777e+01
2.590000e-06	-1.006123e-06	-2.171076e-10	-1.070214e+01	-1.675845e+01
2.600000e-06	-1.105447e-06	-6.588621e-10	-1.175865e+01	-4.542913e+01
2.610000e-06	-1.204434e-06	-1.102481e-09	-1.281157e+01	-7.455608e+01
2.620000e-06	-1.303013e-06	-1.545995e-09	-1.386016e+01	-1.039230e+02
2.630000e-06	-1.401099e-06	-1.994029e-09	-1.490351e+01	-1.332911e+02
2.640000e-06	-1.498693e-06	-2.441495e-09	-1.594162e+01	-1.624063e+02
2.650000e-06	-1.595823e-06	-2.877333e-09	-1.697478e+01	-1.910084e+02
2.660000e-06	-1.692480e-06	-3.300036e-09	-1.800293e+01	-2.188415e+02
2.670000e-06	-1.788634e-06	-3.710064e-09	-1.902572e+01	-2.456646e+02
2.680000e-06	-1.884231e-06	-4.103865e-09	-2.004258e+01	-2.712618e+02
2.690000e-06	-1.979110e-06	-4.477971e-09	-2.105181e+01	-2.954518e+02
2.700000e-06	-2.073066e-06	-4.828018e-09	-2.205123e+01	-3.180945e+02
2.710000e-06	-2.166070e-06	-5.149708e-09	-2.304051e+01	-3.390965e+02
2.720000e-06	-2.258262e-06	-5.443244e-09	-2.402116e+01	-3.584123e+02
2.730000e-06	-2.349782e-06	-5.712193e-09	-2.499466e+01	-3.760441e+02
2.740000e-06	-2.440515e-06	-5.956978e-09	-2.595978e+01	-3.920370e+02
2.750000e-06	-2.530320e-06	-6.178372e-09	-2.691504e+01	-4.064738e+02
2.760000e-06	-2.619272e-06	-6.378413e-09	-2.786122e+01	-4.194664e+02
2.770000e-06	-2.707451e-06	-6.558826e-09	-2.879918e+01	-4.311467e+02
2.780000e-06	-2.794717e-06	-6.722764e-09	-2.972744e+01	-4.416578e+02
2.790000e-06	-2.880821e-06	-6.869619e-09	-3.064332e+01	-4.511444e+02
2.800000e-06	-2.965730e-06	-7.000566e-09	-3.154650e+01	-4.597458e+02
2.810000e-06	-3.049619e-06	-7.121283e-09	-3.243883e+01	-4.675892e+02
2.820000e-06	-3.132547e-06	-7.232506e-09	-3.332094e+01	-4.747862e+02
2.830000e-06	-3.214375e-06	-7.333018e-09	-3.419134e+01	-4.814299e+02
2.840000e-06	-3.295121e-06	-7.424936e-09	-3.505023e+01	-4.875955e+02
2.850000e-06	-3.374785e-06	-7.511666e-09	-3.589763e+01	-4.933411e+02
2.860000e-06	-3.453084e-06	-7.594409e-09	-3.673049e+01	-4.987104e+02
2.870000e-06	-3.529884e-06	-7.672621e-09	-3.754741e+01	-5.037362e+02
2.880000e-06	-3.605252e-06	-7.746427e-09	-3.834911e+01	-5.084431e+02
2.890000e-06	-3.679273e-06	-7.815152e-09	-3.913646e+01	-5.128512e+02
2.900000e-06	-3.752086e-06	-7.879597e-09	-3.991098e+01	-5.169786e+02
2.910000e-06	-3.823625e-06	-7.941450e-09	-4.067194e+01	-5.208429e+02
2.920000e-06	-3.893625e-06	-7.999971e-09	-4.141653e+01	-5.244625e+02
2.930000e-06	-3.962123e-06	-8.053938e-09	-4.214514e+01	-5.278564e+02
2.940000e-06	-4.029252e-06	-8.104613e-09	-4.285920e+01	-5.310441e+02
