# Temperatura_=_20.0
# Concentracion g/m^3_=_9000.0
# C_Vs_to_Am_M_A/Vsm_=_65563218390.804596
# pendiente_HvsI_1/m_=_3716.3
# ordenada_HvsI_A/m_=_1297.0
# frecuencia_Hz_=_300877.9066400452

Tiempo_(s)	Campo_(V.s)	Magnetizacion_(V.s)	Campo_(kA/m)	Magnetizacion_(A/m)
0.000000e+00	-5.330992e-06	-8.787679e-09	-5.679575e+01	-5.755439e+02
1.000000e-08	-5.329749e-06	-8.786640e-09	-5.678251e+01	-5.754927e+02
2.000000e-08	-5.326625e-06	-8.785784e-09	-5.674922e+01	-5.753855e+02
3.000000e-08	-5.321828e-06	-8.784481e-09	-5.669812e+01	-5.752201e+02
4.000000e-08	-5.315382e-06	-8.780627e-09	-5.662944e+01	-5.749956e+02
5.000000e-08	-5.307305e-06	-8.775659e-09	-5.654339e+01	-5.747119e+02
6.000000e-08	-5.297261e-06	-8.770976e-09	-5.643638e+01	-5.743699e+02
7.000000e-08	-5.285204e-06	-8.765093e-09	-5.630793e+01	-5.739715e+02
8.000000e-08	-5.271322e-06	-8.755263e-09	-5.616004e+01	-5.735187e+02
9.000000e-08	-5.255323e-06	-8.759103e-09	-5.598958e+01	-5.730139e+02
1.000000e-07	-5.237188e-06	-8.778091e-09	-5.579637e+01	-5.724588e+02
1.100000e-07	-5.217149e-06	-8.774433e-09	-5.558288e+01	-5.718549e+02
1.200000e-07	-5.195242e-06	-8.745676e-09	-5.534949e+01	-5.712026e+02
1.300000e-07	-5.171597e-06	-8.698318e-09	-5.509757e+01	-5.705016e+02
1.400000e-07	-5.146323e-06	-8.652555e-09	-5.482831e+01	-5.697510e+02
1.500000e-07	-5.119485e-06	-8.688996e-09	-5.454238e+01	-5.689493e+02
1.600000e-07	-5.091133e-06	-8.710859e-09	-5.424032e+01	-5.680947e+02
1.700000e-07	-5.061266e-06	-8.648450e-09	-5.392212e+01	-5.671855e+02
1.800000e-07	-5.029738e-06	-8.627756e-09	-5.358623e+01	-5.662200e+02
1.900000e-07	-4.996117e-06	-8.613156e-09	-5.322803e+01	-5.651970e+02
2.000000e-07	-4.960796e-06	-8.611077e-09	-5.285173e+01	-5.641152e+02
2.100000e-07	-4.924102e-06	-8.648235e-09	-5.246079e+01	-5.629734e+02
2.200000e-07	-4.885582e-06	-8.585208e-09	-5.205040e+01	-5.617702e+02
2.300000e-07	-4.845200e-06	-8.513029e-09	-5.162018e+01	-5.605038e+02
2.400000e-07	-4.802903e-06	-8.539271e-09	-5.116955e+01	-5.591715e+02
2.500000e-07	-4.758808e-06	-8.552538e-09	-5.069977e+01	-5.577701e+02
2.600000e-07	-4.713055e-06	-8.511342e-09	-5.021232e+01	-5.562954e+02
2.700000e-07	-4.665372e-06	-8.444233e-09	-4.970431e+01	-5.547425e+02
2.800000e-07	-4.615609e-06	-8.417099e-09	-4.917415e+01	-5.531065e+02
2.900000e-07	-4.563922e-06	-8.419317e-09	-4.862348e+01	-5.513825e+02
3.000000e-07	-4.510514e-06	-8.400922e-09	-4.805448e+01	-5.495662e+02
3.100000e-07	-4.455527e-06	-8.368042e-09	-4.746865e+01	-5.476544e+02
3.200000e-07	-4.398915e-06	-8.312106e-09	-4.686551e+01	-5.456456e+02
3.300000e-07	-4.340566e-06	-8.270563e-09	-4.624387e+01	-5.435396e+02
3.400000e-07	-4.280657e-06	-8.273174e-09	-4.560561e+01	-5.413382e+02
3.500000e-07	-4.219361e-06	-8.250523e-09	-4.495257e+01	-5.390444e+02
3.600000e-07	-4.156632e-06	-8.181648e-09	-4.428426e+01	-5.366620e+02
3.700000e-07	-4.092350e-06	-8.125976e-09	-4.359941e+01	-5.341956e+02
3.800000e-07	-4.026468e-06	-8.117268e-09	-4.289751e+01	-5.316491e+02
3.900000e-07	-3.959055e-06	-8.096551e-09	-4.217929e+01	-5.290254e+02
4.000000e-07	-3.890191e-06	-8.031427e-09	-4.144563e+01	-5.263260e+02
4.100000e-07	-3.820059e-06	-7.977164e-09	-4.069845e+01	-5.235504e+02
4.200000e-07	-3.748800e-06	-7.943442e-09	-3.993927e+01	-5.206960e+02
4.300000e-07	-3.676210e-06	-7.912483e-09	-3.916590e+01	-5.177583e+02
4.400000e-07	-3.601931e-06	-7.861743e-09	-3.837454e+01	-5.147312e+02
4.500000e-07	-3.526054e-06	-7.803474e-09	-3.756616e+01	-5.116072e+02
4.600000e-07	-3.448851e-06	-7.746786e-09	-3.674364e+01	-5.083785e+02
4.700000e-07	-3.370285e-06	-7.696890e-09	-3.590661e+01	-5.050372e+02
4.800000e-07	-3.290415e-06	-7.661256e-09	-3.505569e+01	-5.015757e+02
4.900000e-07	-3.209267e-06	-7.604835e-09	-3.419114e+01	-4.979871e+02
5.000000e-07	-3.126933e-06	-7.526554e-09	-3.331397e+01	-4.942654e+02
5.100000e-07	-3.043671e-06	-7.469226e-09	-3.242690e+01	-4.904052e+02
5.200000e-07	-2.959609e-06	-7.433606e-09	-3.153132e+01	-4.864013e+02
5.300000e-07	-2.874594e-06	-7.371129e-09	-3.062558e+01	-4.822483e+02
5.400000e-07	-2.788524e-06	-7.284325e-09	-2.970860e+01	-4.779404e+02
5.500000e-07	-2.701593e-06	-7.211414e-09	-2.878245e+01	-4.734705e+02
5.600000e-07	-2.613877e-06	-7.154861e-09	-2.784793e+01	-4.688304e+02
5.700000e-07	-2.525104e-06	-7.085982e-09	-2.690215e+01	-4.640105e+02
5.800000e-07	-2.435063e-06	-6.997010e-09	-2.594287e+01	-4.589998e+02
5.900000e-07	-2.344031e-06	-6.907604e-09	-2.497303e+01	-4.537866e+02
6.000000e-07	-2.252327e-06	-6.826513e-09	-2.399602e+01	-4.483586e+02
6.100000e-07	-2.159993e-06	-6.745980e-09	-2.301231e+01	-4.427034e+02
6.200000e-07	-2.066901e-06	-6.655820e-09	-2.202051e+01	-4.368090e+02
6.300000e-07	-1.972987e-06	-6.556016e-09	-2.101997e+01	-4.306639e+02
6.400000e-07	-1.878390e-06	-6.452240e-09	-2.001215e+01	-4.242570e+02
6.500000e-07	-1.783260e-06	-6.354874e-09	-1.899864e+01	-4.175770e+02
6.600000e-07	-1.687612e-06	-6.258610e-09	-1.797962e+01	-4.106121e+02
6.700000e-07	-1.591242e-06	-6.145609e-09	-1.695290e+01	-4.033486e+02
6.800000e-07	-1.494013e-06	-6.019818e-09	-1.591704e+01	-3.957702e+02
6.900000e-07	-1.396114e-06	-5.898915e-09	-1.487403e+01	-3.878565e+02
7.000000e-07	-1.297678e-06	-5.781751e-09	-1.382530e+01	-3.795822e+02
7.100000e-07	-1.198774e-06	-5.649613e-09	-1.277159e+01	-3.709166e+02
7.200000e-07	-1.099477e-06	-5.502419e-09	-1.171370e+01	-3.618228e+02
7.300000e-07	-9.998730e-07	-5.353776e-09	-1.065253e+01	-3.522585e+02
7.400000e-07	-9.000297e-07	-5.203152e-09	-9.588808e+00	-3.421758e+02
7.500000e-07	-7.999045e-07	-5.041151e-09	-8.522087e+00	-3.315228e+02
7.600000e-07	-6.995080e-07	-4.865441e-09	-7.452475e+00	-3.202443e+02
7.700000e-07	-5.988193e-07	-4.677063e-09	-6.379749e+00	-3.082836e+02
7.800000e-07	-4.978896e-07	-4.478829e-09	-5.304456e+00	-2.955835e+02
7.900000e-07	-3.968385e-07	-4.274216e-09	-4.227870e+00	-2.820878e+02
8.000000e-07	-2.956525e-07	-4.059188e-09	-3.149846e+00	-2.677422e+02
8.100000e-07	-1.943507e-07	-3.826474e-09	-2.070590e+00	-2.524953e+02
8.200000e-07	-9.300881e-08	-3.575234e-09	-9.909048e-01	-2.362990e+02
8.300000e-07	8.421540e-09	-3.311853e-09	8.972208e-02	-2.191094e+02
8.400000e-07	1.098779e-07	-3.035493e-09	1.170626e+00	-2.008875e+02
8.500000e-07	2.112048e-07	-2.740495e-09	2.250151e+00	-1.816004e+02
8.600000e-07	3.124542e-07	-2.427112e-09	3.328850e+00	-1.612228e+02
8.700000e-07	4.136126e-07	-2.099415e-09	4.406579e+00	-1.397392e+02
8.800000e-07	5.145769e-07	-1.755282e-09	5.482241e+00	-1.171467e+02
8.900000e-07	6.153596e-07	-1.391452e-09	6.555967e+00	-9.345872e+01
9.000000e-07	7.159570e-07	-1.012817e-09	7.627720e+00	-6.870825e+01
9.100000e-07	8.162727e-07	-6.205162e-10	8.696471e+00	-4.295189e+01
9.200000e-07	9.163100e-07	-2.132763e-10	9.762256e+00	-1.627313e+01
9.300000e-07	1.016106e-06	2.067813e-10	1.082547e+01	1.121511e+01
9.400000e-07	1.115600e-06	6.341617e-10	1.188547e+01	3.936932e+01
9.500000e-07	1.214798e-06	1.065338e-09	1.294231e+01	6.801583e+01
9.600000e-07	1.313625e-06	1.504015e-09	1.399520e+01	9.695333e+01
9.700000e-07	1.411956e-06	1.948162e-09	1.504281e+01	1.259574e+02
9.800000e-07	1.509611e-06	2.386117e-09	1.608321e+01	1.547869e+02
9.900000e-07	1.606456e-06	2.815856e-09	1.711499e+01	1.831926e+02
1.000000e-06	1.702580e-06	3.239359e-09	1.813909e+01	2.109264e+02
1.010000e-06	1.798053e-06	3.650140e-09	1.915624e+01	2.377512e+02
1.020000e-06	1.892923e-06	4.044070e-09	2.016698e+01	2.634512e+02
1.030000e-06	1.987222e-06	4.418936e-09	2.117163e+01	2.878410e+02
1.040000e-06	2.080894e-06	4.769847e-09	2.216959e+01	3.107724e+02
1.050000e-06	2.173812e-06	5.094035e-09	2.315954e+01	3.321404e+02
1.060000e-06	2.266013e-06	5.392786e-09	2.414183e+01	3.518853e+02
1.070000e-06	2.357556e-06	5.665895e-09	2.511712e+01	3.699930e+02
1.080000e-06	2.448430e-06	5.911426e-09	2.608528e+01	3.864917e+02
1.090000e-06	2.538438e-06	6.133623e-09	2.704421e+01	4.014473e+02
1.100000e-06	2.627236e-06	6.338055e-09	2.799026e+01	4.149559e+02
1.110000e-06	2.714911e-06	6.524773e-09	2.892433e+01	4.271360e+02
1.120000e-06	2.801679e-06	6.690252e-09	2.984875e+01	4.381193e+02
1.130000e-06	2.887551e-06	6.839244e-09	3.076362e+01	4.480427e+02
1.140000e-06	2.972455e-06	6.977543e-09	3.166818e+01	4.570401e+02
1.150000e-06	3.056425e-06	7.106883e-09	3.256278e+01	4.652370e+02
1.160000e-06	3.139522e-06	7.225103e-09	3.344809e+01	4.727454e+02
1.170000e-06	3.221528e-06	7.330879e-09	3.432177e+01	4.796613e+02
1.180000e-06	3.302239e-06	7.428163e-09	3.518166e+01	4.860642e+02
1.190000e-06	3.381703e-06	7.519162e-09	3.602825e+01	4.920175e+02
1.200000e-06	3.460000e-06	7.603597e-09	3.686243e+01	4.975707e+02
1.210000e-06	3.537097e-06	7.680367e-09	3.768381e+01	5.027620e+02
1.220000e-06	3.612959e-06	7.751221e-09	3.849203e+01	5.076210e+02
1.230000e-06	3.687484e-06	7.816909e-09	3.928601e+01	5.121721e+02
1.240000e-06	3.760388e-06	7.878595e-09	4.006272e+01	5.164364e+02
1.250000e-06	3.831734e-06	7.937901e-09	4.082284e+01	5.204336e+02
1.260000e-06	3.901716e-06	7.995525e-09	4.156841e+01	5.241831e+02
1.270000e-06	3.970373e-06	8.047414e-09	4.229988e+01	5.277044e+02
1.280000e-06	4.037828e-06	8.094746e-09	4.301854e+01	5.310166e+02
1.290000e-06	4.103821e-06	8.141935e-09	4.372162e+01	5.341377e+02
1.300000e-06	4.168108e-06	8.186600e-09	4.440652e+01	5.370843e+02
1.310000e-06	4.230947e-06	8.225433e-09	4.507600e+01	5.398705e+02
1.320000e-06	4.292453e-06	8.260848e-09	4.573128e+01	5.425076e+02
1.330000e-06	4.352568e-06	8.296296e-09	4.637174e+01	5.450043e+02
1.340000e-06	4.411341e-06	8.330890e-09	4.699790e+01	5.473666e+02
1.350000e-06	4.468453e-06	8.363684e-09	4.760636e+01	5.495984e+02
1.360000e-06	4.523741e-06	8.393867e-09	4.819539e+01	5.517029e+02
1.370000e-06	4.577426e-06	8.421719e-09	4.876734e+01	5.536830e+02
1.380000e-06	4.629451e-06	8.449324e-09	4.932161e+01	5.555421e+02
1.390000e-06	4.679451e-06	8.476484e-09	4.985431e+01	5.572852e+02
1.400000e-06	4.727420e-06	8.499563e-09	5.036536e+01	5.589186e+02
1.410000e-06	4.773668e-06	8.520560e-09	5.085809e+01	5.604502e+02
1.420000e-06	4.818324e-06	8.543018e-09	5.133384e+01	5.618890e+02
1.430000e-06	4.861462e-06	8.564404e-09	5.179343e+01	5.632447e+02
1.440000e-06	4.902768e-06	8.582730e-09	5.223350e+01	5.645262e+02
1.450000e-06	4.942193e-06	8.600217e-09	5.265354e+01	5.657416e+02
1.460000e-06	4.979957e-06	8.619359e-09	5.305586e+01	5.668972e+02
1.470000e-06	5.016120e-06	8.636832e-09	5.344114e+01	5.679970e+02
1.480000e-06	5.050657e-06	8.652092e-09	5.380910e+01	5.690426e+02
1.490000e-06	5.083237e-06	8.667122e-09	5.415619e+01	5.700334e+02
1.500000e-06	5.113933e-06	8.681404e-09	5.448323e+01	5.709671e+02
1.510000e-06	5.143004e-06	8.695204e-09	5.479295e+01	5.718405e+02
1.520000e-06	5.170446e-06	8.707752e-09	5.508532e+01	5.726499e+02
1.530000e-06	5.195914e-06	8.718992e-09	5.535665e+01	5.733923e+02
1.540000e-06	5.219246e-06	8.730103e-09	5.560522e+01	5.740657e+02
1.550000e-06	5.240797e-06	8.740735e-09	5.583483e+01	5.746697e+02
1.560000e-06	5.260742e-06	8.749913e-09	5.604731e+01	5.752055e+02
1.570000e-06	5.278926e-06	8.757258e-09	5.624104e+01	5.756759e+02
1.580000e-06	5.295150e-06	8.764128e-09	5.641389e+01	5.760846e+02
1.590000e-06	5.309407e-06	8.771196e-09	5.656579e+01	5.764360e+02
1.600000e-06	5.321761e-06	8.776693e-09	5.669740e+01	5.767345e+02
1.610000e-06	5.332054e-06	8.781854e-09	5.680707e+01	5.769837e+02
1.620000e-06	5.340180e-06	8.787092e-09	5.689364e+01	5.771861e+02
1.630000e-06	5.346364e-06	8.791712e-09	5.695952e+01	5.773428e+02
1.640000e-06	5.350782e-06	8.794939e-09	5.700659e+01	5.774535e+02
1.650000e-06	5.353404e-06	8.796441e-09	5.703453e+01	5.775167e+02
1.660000e-06	5.354059e-06	8.798661e-09	5.704150e+01	5.775300e+02
1.670000e-06	5.352861e-06	8.798963e-09	5.702874e+01	5.774905e+02
1.680000e-06	5.349981e-06	8.796031e-09	5.699806e+01	5.773954e+02
1.690000e-06	5.345505e-06	8.791716e-09	5.695037e+01	5.772426e+02
1.700000e-06	5.339233e-06	8.789109e-09	5.688354e+01	5.770308e+02
1.710000e-06	5.331053e-06	8.787494e-09	5.679640e+01	5.767596e+02
1.720000e-06	5.321279e-06	8.784069e-09	5.669227e+01	5.764300e+02
1.730000e-06	5.309853e-06	8.779489e-09	5.657054e+01	5.760434e+02
1.740000e-06	5.296614e-06	8.772263e-09	5.642949e+01	5.756021e+02
1.750000e-06	5.281335e-06	8.735268e-09	5.626671e+01	5.751082e+02
1.760000e-06	5.263697e-06	8.706288e-09	5.607880e+01	5.745637e+02
1.770000e-06	5.243501e-06	8.703797e-09	5.586363e+01	5.739701e+02
1.780000e-06	5.220864e-06	8.725611e-09	5.562246e+01	5.733282e+02
1.790000e-06	5.196702e-06	8.776263e-09	5.536504e+01	5.726376e+02
1.800000e-06	5.171876e-06	8.734742e-09	5.510054e+01	5.718977e+02
1.810000e-06	5.145818e-06	8.659153e-09	5.482293e+01	5.711070e+02
1.820000e-06	5.117652e-06	8.685085e-09	5.452285e+01	5.702639e+02
1.830000e-06	5.087753e-06	8.675382e-09	5.420432e+01	5.693665e+02
1.840000e-06	5.056253e-06	8.674081e-09	5.386872e+01	5.684131e+02
1.850000e-06	5.022567e-06	8.680106e-09	5.350983e+01	5.674025e+02
1.860000e-06	4.987086e-06	8.591153e-09	5.313181e+01	5.663334e+02
1.870000e-06	4.950151e-06	8.591108e-09	5.273832e+01	5.652045e+02
1.880000e-06	4.911326e-06	8.624278e-09	5.232468e+01	5.640146e+02
1.890000e-06	4.870664e-06	8.560025e-09	5.189146e+01	5.627618e+02
1.900000e-06	4.828221e-06	8.529034e-09	5.143929e+01	5.614439e+02
1.910000e-06	4.784181e-06	8.521655e-09	5.097009e+01	5.600576e+02
1.920000e-06	4.738655e-06	8.524415e-09	5.048507e+01	5.585989e+02
1.930000e-06	4.691172e-06	8.527641e-09	4.997918e+01	5.570631e+02
1.940000e-06	4.641934e-06	8.460590e-09	4.945461e+01	5.554453e+02
1.950000e-06	4.591172e-06	8.433479e-09	4.891379e+01	5.537405e+02
1.960000e-06	4.538606e-06	8.398335e-09	4.835377e+01	5.519443e+02
1.970000e-06	4.484002e-06	8.382557e-09	4.777202e+01	5.500531e+02
1.980000e-06	4.427567e-06	8.396129e-09	4.717077e+01	5.480651e+02
1.990000e-06	4.369682e-06	8.305200e-09	4.655407e+01	5.459798e+02
2.000000e-06	4.310268e-06	8.254191e-09	4.592108e+01	5.437986e+02
2.010000e-06	4.249537e-06	8.262070e-09	4.527405e+01	5.415242e+02
2.020000e-06	4.187381e-06	8.247763e-09	4.461185e+01	5.391604e+02
2.030000e-06	4.123388e-06	8.187796e-09	4.393008e+01	5.367116e+02
2.040000e-06	4.057752e-06	8.110917e-09	4.323080e+01	5.341819e+02
2.050000e-06	3.990711e-06	8.106876e-09	4.251656e+01	5.315745e+02
2.060000e-06	3.922451e-06	8.077370e-09	4.178932e+01	5.288913e+02
2.070000e-06	3.852679e-06	8.023699e-09	4.104598e+01	5.261321e+02
2.080000e-06	3.781181e-06	7.975959e-09	4.028425e+01	5.232949e+02
2.090000e-06	3.708394e-06	7.916716e-09	3.950879e+01	5.203755e+02
2.100000e-06	3.634380e-06	7.883884e-09	3.872025e+01	5.173681e+02
2.110000e-06	3.559011e-06	7.849726e-09	3.791728e+01	5.142655e+02
2.120000e-06	3.482176e-06	7.812605e-09	3.709869e+01	5.110599e+02
2.130000e-06	3.403822e-06	7.734479e-09	3.626391e+01	5.077433e+02
2.140000e-06	3.324106e-06	7.666722e-09	3.541463e+01	5.043081e+02
2.150000e-06	3.243220e-06	7.649802e-09	3.455288e+01	5.007472e+02
2.160000e-06	3.161259e-06	7.599452e-09	3.367968e+01	4.970545e+02
2.170000e-06	3.078171e-06	7.513623e-09	3.279446e+01	4.932244e+02
2.180000e-06	2.994145e-06	7.436172e-09	3.189926e+01	4.892516e+02
2.190000e-06	2.909207e-06	7.396554e-09	3.099434e+01	4.851310e+02
2.200000e-06	2.823100e-06	7.345387e-09	3.007697e+01	4.808568e+02
2.210000e-06	2.735753e-06	7.265137e-09	2.914639e+01	4.764222e+02
2.220000e-06	2.647374e-06	7.192137e-09	2.820480e+01	4.718193e+02
2.230000e-06	2.558182e-06	7.125105e-09	2.725457e+01	4.670388e+02
2.240000e-06	2.468150e-06	7.058890e-09	2.629538e+01	4.620699e+02
2.250000e-06	2.377307e-06	6.981461e-09	2.532754e+01	4.569011e+02
2.260000e-06	2.285718e-06	6.896366e-09	2.435176e+01	4.515201e+02
2.270000e-06	2.193502e-06	6.800803e-09	2.336930e+01	4.459146e+02
2.280000e-06	2.100642e-06	6.711154e-09	2.237999e+01	4.400724e+02
2.290000e-06	2.006858e-06	6.634615e-09	2.138083e+01	4.339820e+02
2.300000e-06	1.912086e-06	6.542528e-09	2.037114e+01	4.276320e+02
2.310000e-06	1.816480e-06	6.427745e-09	1.935256e+01	4.210115e+02
2.320000e-06	1.720270e-06	6.316118e-09	1.832755e+01	4.141086e+02
2.330000e-06	1.623547e-06	6.219612e-09	1.729708e+01	4.069104e+02
2.340000e-06	1.526336e-06	6.111960e-09	1.626141e+01	3.994009e+02
2.350000e-06	1.428621e-06	5.985715e-09	1.522036e+01	3.915610e+02
2.360000e-06	1.330427e-06	5.856887e-09	1.417421e+01	3.833663e+02
2.370000e-06	1.231867e-06	5.732428e-09	1.312417e+01	3.747874e+02
2.380000e-06	1.132930e-06	5.599396e-09	1.207010e+01	3.657887e+02
2.390000e-06	1.033613e-06	5.453340e-09	1.101199e+01	3.563291e+02
2.400000e-06	9.339972e-07	5.299175e-09	9.950694e+00	3.463617e+02
2.410000e-06	8.341358e-07	5.137331e-09	8.886782e+00	3.358354e+02
2.420000e-06	7.340023e-07	4.969937e-09	7.819972e+00	3.246956e+02
2.430000e-06	6.335931e-07	4.795484e-09	6.750225e+00	3.128858e+02
2.440000e-06	5.330263e-07	4.607810e-09	5.678798e+00	3.003489e+02
2.450000e-06	4.323604e-07	4.400896e-09	4.606316e+00	2.870283e+02
2.460000e-06	3.315157e-07	4.183663e-09	3.531929e+00	2.728693e+02
2.470000e-06	2.304909e-07	3.959658e-09	2.455623e+00	2.578196e+02
2.480000e-06	1.294019e-07	3.719426e-09	1.378633e+00	2.418306e+02
2.490000e-06	2.832433e-08	3.459811e-09	3.017640e-01	2.248572e+02
2.500000e-06	-7.276390e-08	3.188054e-09	-7.752178e-01	2.068595e+02
2.510000e-06	-1.738215e-07	2.902714e-09	-1.851874e+00	1.878031e+02
2.520000e-06	-2.748000e-07	2.594796e-09	-2.927687e+00	1.676608e+02
2.530000e-06	-3.756731e-07	2.269447e-09	-4.002377e+00	1.464148e+02
2.540000e-06	-4.764027e-07	1.929631e-09	-5.075537e+00	1.240594e+02
2.550000e-06	-5.769552e-07	1.570532e-09	-6.146811e+00	1.006041e+02
2.560000e-06	-6.772851e-07	1.190840e-09	-7.215714e+00	7.607732e+01
2.570000e-06	-7.774077e-07	7.992031e-10	-8.282408e+00	5.053040e+01
2.580000e-06	-8.773001e-07	3.986647e-10	-9.346650e+00	2.404078e+01
2.590000e-06	-9.768565e-07	-1.741620e-11	-1.040731e+01	-3.285078e+00
2.600000e-06	-1.076095e-06	-4.482056e-10	-1.146459e+01	-3.131024e+01
2.610000e-06	-1.175007e-06	-8.863267e-10	-1.251838e+01	-5.986736e+01
2.620000e-06	-1.273478e-06	-1.325674e-09	-1.356748e+01	-8.876073e+01
2.630000e-06	-1.371472e-06	-1.766182e-09	-1.461149e+01	-1.177704e+02
2.640000e-06	-1.468990e-06	-2.206891e-09	-1.565045e+01	-1.466582e+02
2.650000e-06	-1.566087e-06	-2.644267e-09	-1.668490e+01	-1.751759e+02
2.660000e-06	-1.662823e-06	-3.071677e-09	-1.771552e+01	-2.030742e+02
2.670000e-06	-1.759115e-06	-3.483160e-09	-1.874140e+01	-2.301128e+02
2.680000e-06	-1.854749e-06	-3.878377e-09	-1.976028e+01	-2.560707e+02
2.690000e-06	-1.949583e-06	-4.260115e-09	-2.077062e+01	-2.807551e+02
2.700000e-06	-2.043512e-06	-4.624055e-09	-2.177133e+01	-3.040094e+02
2.710000e-06	-2.136570e-06	-4.957557e-09	-2.276276e+01	-3.257191e+02
2.720000e-06	-2.228853e-06	-5.260135e-09	-2.374593e+01	-3.458146e+02
2.730000e-06	-2.320410e-06	-5.539988e-09	-2.472137e+01	-3.642721e+02
2.740000e-06	-2.411211e-06	-5.799121e-09	-2.568875e+01	-3.811113e+02
2.750000e-06	-2.501093e-06	-6.034412e-09	-2.664635e+01	-3.963904e+02
2.760000e-06	-2.590111e-06	-6.244497e-09	-2.759473e+01	-4.101998e+02
2.770000e-06	-2.678362e-06	-6.433989e-09	-2.853494e+01	-4.226538e+02
2.780000e-06	-2.765747e-06	-6.606822e-09	-2.946594e+01	-4.338822e+02
2.790000e-06	-2.852056e-06	-6.763625e-09	-3.038547e+01	-4.440212e+02
2.800000e-06	-2.937159e-06	-6.904788e-09	-3.129214e+01	-4.532062e+02
2.810000e-06	-3.021187e-06	-7.032366e-09	-3.218736e+01	-4.615648e+02
2.820000e-06	-3.104211e-06	-7.150065e-09	-3.307189e+01	-4.692120e+02
2.830000e-06	-3.186209e-06	-7.258489e-09	-3.394549e+01	-4.762477e+02
2.840000e-06	-3.267215e-06	-7.356219e-09	-3.480852e+01	-4.827547e+02
2.850000e-06	-3.347172e-06	-7.445624e-09	-3.566037e+01	-4.887998e+02
2.860000e-06	-3.425783e-06	-7.529542e-09	-3.649788e+01	-4.944352e+02
2.870000e-06	-3.502847e-06	-7.610241e-09	-3.731892e+01	-4.997014e+02
2.880000e-06	-3.578463e-06	-7.688796e-09	-3.812451e+01	-5.046295e+02
2.890000e-06	-3.652690e-06	-7.760929e-09	-3.891532e+01	-5.092447e+02
2.900000e-06	-3.725627e-06	-7.827130e-09	-3.969238e+01	-5.135688e+02
2.910000e-06	-3.797338e-06	-7.891234e-09	-4.045638e+01	-5.176216e+02
2.920000e-06	-3.867569e-06	-7.952888e-09	-4.120462e+01	-5.214226e+02
2.930000e-06	-3.936289e-06	-8.009222e-09	-4.193675e+01	-5.249913e+02
2.940000e-06	-4.003697e-06	-8.061582e-09	-4.265491e+01	-5.283467e+02
