# Temperatura_=_20.0
# Concentracion g/m^3_=_9000.0
# C_Vs_to_Am_M_A/Vsm_=_65563218390.804596
# pendiente_HvsI_1/m_=_3716.3
# ordenada_HvsI_A/m_=_1297.0
# frecuencia_Hz_=_300868.3660546022

Tiempo_(s)	Campo_(V.s)	Magnetizacion_(V.s)	Campo_(kA/m)	Magnetizacion_(A/m)
0.000000e+00	-5.326186e-06	-8.837130e-09	-5.680121e+01	-5.786055e+02
1.000000e-08	-5.324461e-06	-8.837372e-09	-5.678282e+01	-5.784874e+02
2.000000e-08	-5.320870e-06	-8.833650e-09	-5.674453e+01	-5.783081e+02
3.000000e-08	-5.315625e-06	-8.827494e-09	-5.668858e+01	-5.780682e+02
4.000000e-08	-5.308801e-06	-8.821389e-09	-5.661581e+01	-5.777695e+02
5.000000e-08	-5.300306e-06	-8.815382e-09	-5.652522e+01	-5.774148e+02
6.000000e-08	-5.289802e-06	-8.809556e-09	-5.641319e+01	-5.770076e+02
7.000000e-08	-5.277359e-06	-8.798568e-09	-5.628050e+01	-5.765512e+02
8.000000e-08	-5.263026e-06	-8.789123e-09	-5.612765e+01	-5.760484e+02
9.000000e-08	-5.246497e-06	-8.811240e-09	-5.595137e+01	-5.755010e+02
1.000000e-07	-5.227852e-06	-8.822585e-09	-5.575253e+01	-5.749093e+02
1.100000e-07	-5.207302e-06	-8.802212e-09	-5.553338e+01	-5.742720e+02
1.200000e-07	-5.184929e-06	-8.773203e-09	-5.529477e+01	-5.735865e+02
1.300000e-07	-5.160927e-06	-8.710548e-09	-5.503881e+01	-5.728490e+02
1.400000e-07	-5.135383e-06	-8.698403e-09	-5.476639e+01	-5.720553e+02
1.500000e-07	-5.108270e-06	-8.774785e-09	-5.447724e+01	-5.712008e+02
1.600000e-07	-5.079593e-06	-8.711711e-09	-5.417142e+01	-5.702820e+02
1.700000e-07	-5.049369e-06	-8.651950e-09	-5.384910e+01	-5.692961e+02
1.800000e-07	-5.017325e-06	-8.674988e-09	-5.350736e+01	-5.682417e+02
1.900000e-07	-4.983210e-06	-8.641372e-09	-5.314354e+01	-5.671186e+02
2.000000e-07	-4.947550e-06	-8.676702e-09	-5.276324e+01	-5.659278e+02
2.100000e-07	-4.910411e-06	-8.659034e-09	-5.236717e+01	-5.646712e+02
2.200000e-07	-4.871413e-06	-8.554454e-09	-5.195128e+01	-5.633503e+02
2.300000e-07	-4.830597e-06	-8.559889e-09	-5.151599e+01	-5.619667e+02
2.400000e-07	-4.787934e-06	-8.593383e-09	-5.106102e+01	-5.605208e+02
2.500000e-07	-4.743479e-06	-8.562563e-09	-5.058692e+01	-5.590115e+02
2.600000e-07	-4.697272e-06	-8.499885e-09	-5.009415e+01	-5.574367e+02
2.700000e-07	-4.649082e-06	-8.431906e-09	-4.958023e+01	-5.557927e+02
2.800000e-07	-4.598878e-06	-8.463901e-09	-4.904482e+01	-5.540749e+02
2.900000e-07	-4.546862e-06	-8.466595e-09	-4.849010e+01	-5.522786e+02
3.000000e-07	-4.493109e-06	-8.385266e-09	-4.791685e+01	-5.503993e+02
3.100000e-07	-4.437784e-06	-8.337273e-09	-4.732683e+01	-5.484332e+02
3.200000e-07	-4.380847e-06	-8.331986e-09	-4.671963e+01	-5.463784e+02
3.300000e-07	-4.322174e-06	-8.316667e-09	-4.609391e+01	-5.442343e+02
3.400000e-07	-4.262025e-06	-8.267984e-09	-4.545245e+01	-5.420023e+02
3.500000e-07	-4.200468e-06	-8.230108e-09	-4.479598e+01	-5.396852e+02
3.600000e-07	-4.137455e-06	-8.174025e-09	-4.412397e+01	-5.372865e+02
3.700000e-07	-4.072929e-06	-8.142974e-09	-4.343583e+01	-5.348100e+02
3.800000e-07	-4.006796e-06	-8.148111e-09	-4.273055e+01	-5.322589e+02
3.900000e-07	-3.939098e-06	-8.089172e-09	-4.200859e+01	-5.296347e+02
4.000000e-07	-3.869978e-06	-8.006978e-09	-4.127145e+01	-5.269371e+02
4.100000e-07	-3.799673e-06	-7.986164e-09	-4.052169e+01	-5.241634e+02
4.200000e-07	-3.728205e-06	-7.977692e-09	-3.975951e+01	-5.213087e+02
4.300000e-07	-3.655359e-06	-7.913393e-09	-3.898265e+01	-5.183657e+02
4.400000e-07	-3.580834e-06	-7.835830e-09	-3.818787e+01	-5.153259e+02
4.500000e-07	-3.504694e-06	-7.799782e-09	-3.737588e+01	-5.121801e+02
4.600000e-07	-3.427263e-06	-7.767176e-09	-3.655011e+01	-5.089188e+02
4.700000e-07	-3.348570e-06	-7.709194e-09	-3.571090e+01	-5.055338e+02
4.800000e-07	-3.268446e-06	-7.647561e-09	-3.485641e+01	-5.020177e+02
4.900000e-07	-3.186988e-06	-7.587792e-09	-3.398770e+01	-4.983650e+02
5.000000e-07	-3.104517e-06	-7.537307e-09	-3.310819e+01	-4.945717e+02
5.100000e-07	-3.021143e-06	-7.486223e-09	-3.221904e+01	-4.906347e+02
5.200000e-07	-2.936875e-06	-7.424988e-09	-3.132036e+01	-4.865515e+02
5.300000e-07	-2.851626e-06	-7.352245e-09	-3.041122e+01	-4.823194e+02
5.400000e-07	-2.765366e-06	-7.283318e-09	-2.949130e+01	-4.779345e+02
5.500000e-07	-2.678235e-06	-7.224826e-09	-2.856209e+01	-4.733912e+02
5.600000e-07	-2.590259e-06	-7.155351e-09	-2.762387e+01	-4.686814e+02
5.700000e-07	-2.501287e-06	-7.070578e-09	-2.667502e+01	-4.637951e+02
5.800000e-07	-2.411107e-06	-6.982961e-09	-2.571330e+01	-4.587198e+02
5.900000e-07	-2.319914e-06	-6.909024e-09	-2.474077e+01	-4.534411e+02
6.000000e-07	-2.228113e-06	-6.828294e-09	-2.376175e+01	-4.479440e+02
6.100000e-07	-2.135689e-06	-6.730797e-09	-2.277610e+01	-4.422128e+02
6.200000e-07	-2.042460e-06	-6.635275e-09	-2.178185e+01	-4.362322e+02
6.300000e-07	-1.948433e-06	-6.548458e-09	-2.077910e+01	-4.299876e+02
6.400000e-07	-1.853773e-06	-6.452455e-09	-1.976960e+01	-4.234654e+02
6.500000e-07	-1.758569e-06	-6.340636e-09	-1.875429e+01	-4.166525e+02
6.600000e-07	-1.662786e-06	-6.231764e-09	-1.773281e+01	-4.095358e+02
6.700000e-07	-1.566365e-06	-6.123770e-09	-1.670453e+01	-4.021011e+02
6.800000e-07	-1.469233e-06	-6.005163e-09	-1.566866e+01	-3.943316e+02
6.900000e-07	-1.371427e-06	-5.875830e-09	-1.462561e+01	-3.862072e+02
7.000000e-07	-1.273044e-06	-5.745618e-09	-1.357640e+01	-3.777027e+02
7.100000e-07	-1.174123e-06	-5.611111e-09	-1.252146e+01	-3.687875e+02
7.200000e-07	-1.074790e-06	-5.469053e-09	-1.146212e+01	-3.594245e+02
7.300000e-07	-9.751557e-07	-5.317999e-09	-1.039957e+01	-3.495707e+02
7.400000e-07	-8.753056e-07	-5.152361e-09	-9.334713e+00	-3.391775e+02
7.500000e-07	-7.752361e-07	-4.979402e-09	-8.267521e+00	-3.281913e+02
7.600000e-07	-6.748874e-07	-4.802419e-09	-7.197350e+00	-3.165555e+02
7.700000e-07	-5.743207e-07	-4.614293e-09	-6.124854e+00	-3.042116e+02
7.800000e-07	-4.735817e-07	-4.408185e-09	-5.050521e+00	-2.911004e+02
7.900000e-07	-3.726532e-07	-4.192014e-09	-3.974167e+00	-2.771640e+02
8.000000e-07	-2.715716e-07	-3.971446e-09	-2.896181e+00	-2.623465e+02
8.100000e-07	-1.704198e-07	-3.737820e-09	-1.817445e+00	-2.465950e+02
8.200000e-07	-6.917827e-08	-3.480570e-09	-7.377530e-01	-2.298607e+02
8.300000e-07	3.215598e-08	-3.202717e-09	3.429280e-01	-2.120995e+02
8.400000e-07	1.334556e-07	-2.914605e-09	1.423240e+00	-1.932729e+02
8.500000e-07	2.346497e-07	-2.614329e-09	2.502426e+00	-1.733495e+02
8.600000e-07	3.357745e-07	-2.293496e-09	3.580874e+00	-1.523065e+02
8.700000e-07	4.367999e-07	-1.948777e-09	4.658261e+00	-1.301325e+02
8.800000e-07	5.376637e-07	-1.587983e-09	5.733925e+00	-1.068304e+02
8.900000e-07	6.383650e-07	-1.215536e-09	6.807856e+00	-8.242110e+01
9.000000e-07	7.388522e-07	-8.286377e-10	7.879504e+00	-5.694736e+01
9.100000e-07	8.390906e-07	-4.230131e-10	8.948498e+00	-3.047747e+01
9.200000e-07	9.390468e-07	-2.118628e-12	1.001448e+01	-3.108629e+00
9.300000e-07	1.038705e-06	4.259597e-10	1.107729e+01	2.503090e+01
9.400000e-07	1.138086e-06	8.586175e-10	1.213714e+01	5.378112e+01
9.500000e-07	1.237108e-06	1.297674e-09	1.319317e+01	8.295147e+01
9.600000e-07	1.335700e-06	1.746502e-09	1.424460e+01	1.123242e+02
9.700000e-07	1.433760e-06	2.196002e-09	1.529036e+01	1.416598e+02
9.800000e-07	1.531100e-06	2.635417e-09	1.632844e+01	1.707048e+02
9.900000e-07	1.627692e-06	3.066476e-09	1.735855e+01	1.992006e+02
1.000000e-06	1.723606e-06	3.491006e-09	1.838143e+01	2.268941e+02
1.010000e-06	1.818875e-06	3.901242e-09	1.939743e+01	2.535481e+02
1.020000e-06	1.913553e-06	4.289486e-09	2.040712e+01	2.789516e+02
1.030000e-06	2.007648e-06	4.654324e-09	2.141060e+01	3.029284e+02
1.040000e-06	2.101026e-06	4.994789e-09	2.240644e+01	3.253446e+02
1.050000e-06	2.193672e-06	5.311185e-09	2.339446e+01	3.461125e+02
1.060000e-06	2.285687e-06	5.598864e-09	2.437576e+01	3.651924e+02
1.070000e-06	2.377081e-06	5.856286e-09	2.535043e+01	3.825913e+02
1.080000e-06	2.467698e-06	6.088757e-09	2.631681e+01	3.983587e+02
1.090000e-06	2.557275e-06	6.302056e-09	2.727211e+01	4.125803e+02
1.100000e-06	2.645666e-06	6.497244e-09	2.821476e+01	4.253697e+02
1.110000e-06	2.733049e-06	6.670888e-09	2.914665e+01	4.368598e+02
1.120000e-06	2.819540e-06	6.826540e-09	3.006904e+01	4.471930e+02
1.130000e-06	2.905045e-06	6.969599e-09	3.098091e+01	4.565130e+02
1.140000e-06	2.989624e-06	7.101966e-09	3.188290e+01	4.649573e+02
1.150000e-06	3.073332e-06	7.221444e-09	3.277561e+01	4.726514e+02
1.160000e-06	3.156109e-06	7.328424e-09	3.365838e+01	4.797053e+02
1.170000e-06	3.237712e-06	7.426227e-09	3.452864e+01	4.862111e+02
1.180000e-06	3.318022e-06	7.518039e-09	3.538511e+01	4.922436e+02
1.190000e-06	3.397152e-06	7.603777e-09	3.622900e+01	4.978615e+02
1.200000e-06	3.475107e-06	7.682138e-09	3.706035e+01	5.031101e+02
1.210000e-06	3.551805e-06	7.754703e-09	3.787829e+01	5.080240e+02
1.220000e-06	3.627212e-06	7.822124e-09	3.868248e+01	5.126304e+02
1.230000e-06	3.701184e-06	7.883888e-09	3.947135e+01	5.169521e+02
1.240000e-06	3.773573e-06	7.941655e-09	4.024334e+01	5.210096e+02
1.250000e-06	3.844521e-06	7.997485e-09	4.099997e+01	5.248221e+02
1.260000e-06	3.914192e-06	8.051210e-09	4.174297e+01	5.284088e+02
1.270000e-06	3.982564e-06	8.101261e-09	4.247213e+01	5.317887e+02
1.280000e-06	4.049653e-06	8.146654e-09	4.318760e+01	5.349799e+02
1.290000e-06	4.115186e-06	8.190709e-09	4.388648e+01	5.379988e+02
1.300000e-06	4.179053e-06	8.233597e-09	4.456759e+01	5.408601e+02
1.310000e-06	4.241522e-06	8.273404e-09	4.523379e+01	5.435751e+02
1.320000e-06	4.302630e-06	8.310230e-09	4.588548e+01	5.461527e+02
1.330000e-06	4.362399e-06	8.344595e-09	4.652289e+01	5.485988e+02
1.340000e-06	4.420688e-06	8.378623e-09	4.714452e+01	5.509171e+02
1.350000e-06	4.477239e-06	8.410953e-09	4.774760e+01	5.531101e+02
1.360000e-06	4.532114e-06	8.439353e-09	4.833282e+01	5.551799e+02
1.370000e-06	4.585397e-06	8.466413e-09	4.890105e+01	5.571293e+02
1.380000e-06	4.636910e-06	8.493705e-09	4.945042e+01	5.589622e+02
1.390000e-06	4.686354e-06	8.519183e-09	4.997772e+01	5.606844e+02
1.400000e-06	4.733825e-06	8.541810e-09	5.048397e+01	5.623035e+02
1.410000e-06	4.779661e-06	8.564141e-09	5.097279e+01	5.638283e+02
1.420000e-06	4.823943e-06	8.586068e-09	5.144504e+01	5.652685e+02
1.430000e-06	4.866596e-06	8.606613e-09	5.189990e+01	5.666337e+02
1.440000e-06	4.907386e-06	8.626283e-09	5.233492e+01	5.679324e+02
1.450000e-06	4.946395e-06	8.644819e-09	5.275093e+01	5.691714e+02
1.460000e-06	4.983803e-06	8.662375e-09	5.314987e+01	5.703552e+02
1.470000e-06	5.019619e-06	8.679766e-09	5.353182e+01	5.714855e+02
1.480000e-06	5.053624e-06	8.696418e-09	5.389448e+01	5.725617e+02
1.490000e-06	5.085682e-06	8.711546e-09	5.423635e+01	5.735812e+02
1.500000e-06	5.115988e-06	8.725626e-09	5.455955e+01	5.745400e+02
1.510000e-06	5.144658e-06	8.739186e-09	5.486531e+01	5.754336e+02
1.520000e-06	5.171645e-06	8.750983e-09	5.515311e+01	5.762579e+02
1.530000e-06	5.196678e-06	8.762061e-09	5.542008e+01	5.770100e+02
1.540000e-06	5.219655e-06	8.773517e-09	5.566512e+01	5.776883e+02
1.550000e-06	5.240824e-06	8.783797e-09	5.589087e+01	5.782933e+02
1.560000e-06	5.260376e-06	8.793733e-09	5.609938e+01	5.788270e+02
1.570000e-06	5.278103e-06	8.802429e-09	5.628844e+01	5.792924e+02
1.580000e-06	5.293781e-06	8.809675e-09	5.645563e+01	5.796937e+02
1.590000e-06	5.307526e-06	8.816244e-09	5.660222e+01	5.800349e+02
1.600000e-06	5.319347e-06	8.822416e-09	5.672828e+01	5.803193e+02
1.610000e-06	5.328972e-06	8.827287e-09	5.683093e+01	5.805494e+02
1.620000e-06	5.336507e-06	8.830132e-09	5.691128e+01	5.807263e+02
1.630000e-06	5.342249e-06	8.832303e-09	5.697252e+01	5.808497e+02
1.640000e-06	5.346303e-06	8.834044e-09	5.701575e+01	5.809183e+02
1.650000e-06	5.348510e-06	8.836287e-09	5.703929e+01	5.809302e+02
1.660000e-06	5.348717e-06	8.838066e-09	5.704150e+01	5.808832e+02
1.670000e-06	5.347095e-06	8.835889e-09	5.702420e+01	5.807758e+02
1.680000e-06	5.343818e-06	8.833053e-09	5.698925e+01	5.806071e+02
1.690000e-06	5.338934e-06	8.829782e-09	5.693716e+01	5.803776e+02
1.700000e-06	5.332235e-06	8.826881e-09	5.686572e+01	5.800889e+02
1.710000e-06	5.323682e-06	8.823314e-09	5.677451e+01	5.797437e+02
1.720000e-06	5.313490e-06	8.817830e-09	5.666582e+01	5.793453e+02
1.730000e-06	5.301664e-06	8.818437e-09	5.653970e+01	5.788972e+02
1.740000e-06	5.287999e-06	8.798595e-09	5.639397e+01	5.784022e+02
1.750000e-06	5.272202e-06	8.754521e-09	5.622550e+01	5.778624e+02
1.760000e-06	5.253985e-06	8.741614e-09	5.603122e+01	5.772784e+02
1.770000e-06	5.233227e-06	8.741681e-09	5.580985e+01	5.766491e+02
1.780000e-06	5.210247e-06	8.783232e-09	5.556479e+01	5.759722e+02
1.790000e-06	5.185960e-06	8.811332e-09	5.530578e+01	5.752440e+02
1.800000e-06	5.160957e-06	8.692492e-09	5.503913e+01	5.744603e+02
1.810000e-06	5.134460e-06	8.693184e-09	5.475655e+01	5.736167e+02
1.820000e-06	5.105824e-06	8.746982e-09	5.445116e+01	5.727093e+02
1.830000e-06	5.075619e-06	8.696190e-09	5.412904e+01	5.717352e+02
1.840000e-06	5.043715e-06	8.720241e-09	5.378879e+01	5.706928e+02
1.850000e-06	5.009643e-06	8.646556e-09	5.342544e+01	5.695816e+02
1.860000e-06	4.973880e-06	8.572975e-09	5.304405e+01	5.684025e+02
1.870000e-06	4.936517e-06	8.681345e-09	5.264559e+01	5.671572e+02
1.880000e-06	4.897260e-06	8.649146e-09	5.222693e+01	5.658474e+02
1.890000e-06	4.856192e-06	8.549366e-09	5.178896e+01	5.644746e+02
1.900000e-06	4.813348e-06	8.550033e-09	5.133204e+01	5.630395e+02
1.910000e-06	4.768993e-06	8.561734e-09	5.085902e+01	5.615414e+02
1.920000e-06	4.723126e-06	8.605426e-09	5.036987e+01	5.599783e+02
1.930000e-06	4.675311e-06	8.512560e-09	4.985994e+01	5.583466e+02
1.940000e-06	4.625732e-06	8.435388e-09	4.933121e+01	5.566421e+02
1.950000e-06	4.574544e-06	8.482499e-09	4.878532e+01	5.548599e+02
1.960000e-06	4.521497e-06	8.441428e-09	4.821959e+01	5.529953e+02
1.970000e-06	4.466489e-06	8.410926e-09	4.763296e+01	5.510447e+02
1.980000e-06	4.409804e-06	8.368106e-09	4.702844e+01	5.490055e+02
1.990000e-06	4.351675e-06	8.308953e-09	4.640852e+01	5.468770e+02
2.000000e-06	4.292030e-06	8.303334e-09	4.577244e+01	5.446602e+02
2.010000e-06	4.231061e-06	8.291602e-09	4.512224e+01	5.423578e+02
2.020000e-06	4.168575e-06	8.264965e-09	4.445585e+01	5.399731e+02
2.030000e-06	4.104263e-06	8.159652e-09	4.376999e+01	5.375100e+02
2.040000e-06	4.038379e-06	8.132578e-09	4.306738e+01	5.349717e+02
2.050000e-06	3.971100e-06	8.161618e-09	4.234987e+01	5.323602e+02
2.060000e-06	3.902526e-06	8.088274e-09	4.161857e+01	5.296755e+02
2.070000e-06	3.832425e-06	8.016828e-09	4.087098e+01	5.269155e+02
2.080000e-06	3.760708e-06	7.972757e-09	4.010614e+01	5.240753e+02
2.090000e-06	3.687725e-06	7.965212e-09	3.932782e+01	5.211484e+02
2.100000e-06	3.613472e-06	7.917836e-09	3.853594e+01	5.181263e+02
2.110000e-06	3.537793e-06	7.843641e-09	3.772887e+01	5.149998e+02
2.120000e-06	3.460663e-06	7.805060e-09	3.690631e+01	5.117595e+02
2.130000e-06	3.382109e-06	7.756141e-09	3.606856e+01	5.083968e+02
2.140000e-06	3.302182e-06	7.708300e-09	3.521619e+01	5.049043e+02
2.150000e-06	3.221102e-06	7.646228e-09	3.435151e+01	5.012761e+02
2.160000e-06	3.138984e-06	7.588529e-09	3.347575e+01	4.975078e+02
2.170000e-06	3.055758e-06	7.524260e-09	3.258819e+01	4.935964e+02
2.180000e-06	2.971554e-06	7.460340e-09	3.169019e+01	4.895392e+02
2.190000e-06	2.886431e-06	7.408752e-09	3.078240e+01	4.853336e+02
2.200000e-06	2.800166e-06	7.334706e-09	2.986242e+01	4.809761e+02
2.210000e-06	2.712631e-06	7.259582e-09	2.892891e+01	4.764612e+02
2.220000e-06	2.624089e-06	7.198245e-09	2.798465e+01	4.717816e+02
2.230000e-06	2.534749e-06	7.138060e-09	2.703188e+01	4.669274e+02
2.240000e-06	2.444558e-06	7.051560e-09	2.607004e+01	4.618865e+02
2.250000e-06	2.353606e-06	6.962371e-09	2.510008e+01	4.566449e+02
2.260000e-06	2.261958e-06	6.890425e-09	2.412270e+01	4.511877e+02
2.270000e-06	2.169620e-06	6.805877e-09	2.313795e+01	4.454991e+02
2.280000e-06	2.076553e-06	6.703993e-09	2.214544e+01	4.395638e+02
2.290000e-06	1.982660e-06	6.609867e-09	2.114411e+01	4.333671e+02
2.300000e-06	1.887865e-06	6.524144e-09	2.013318e+01	4.268951e+02
2.310000e-06	1.792214e-06	6.420988e-09	1.911310e+01	4.201348e+02
2.320000e-06	1.695944e-06	6.305641e-09	1.808643e+01	4.130731e+02
2.330000e-06	1.599208e-06	6.194600e-09	1.705478e+01	4.056960e+02
2.340000e-06	1.501991e-06	6.082549e-09	1.601801e+01	3.979873e+02
2.350000e-06	1.404222e-06	5.961345e-09	1.497535e+01	3.899277e+02
2.360000e-06	1.306009e-06	5.833993e-09	1.392796e+01	3.814929e+02
2.370000e-06	1.207384e-06	5.699633e-09	1.287617e+01	3.726532e+02
2.380000e-06	1.108375e-06	5.555570e-09	1.182029e+01	3.633729e+02
2.390000e-06	1.009112e-06	5.410132e-09	1.076170e+01	3.536099e+02
2.400000e-06	9.095729e-07	5.258996e-09	9.700158e+00	3.433165e+02
2.410000e-06	8.097185e-07	5.090524e-09	8.635259e+00	3.324400e+02
2.420000e-06	7.095783e-07	4.910377e-09	7.567312e+00	3.209242e+02
2.430000e-06	6.092450e-07	4.729081e-09	6.497305e+00	3.087107e+02
2.440000e-06	5.087609e-07	4.540052e-09	5.425691e+00	2.957406e+02
2.450000e-06	4.080931e-07	4.327866e-09	4.352116e+00	2.819554e+02
2.460000e-06	3.072405e-07	4.097625e-09	3.276572e+00	2.672989e+02
2.470000e-06	2.062924e-07	3.862166e-09	2.200009e+00	2.517176e+02
2.480000e-06	1.053717e-07	3.618266e-09	1.123738e+00	2.351619e+02
2.490000e-06	4.460571e-09	3.353660e-09	4.756985e-02	2.175868e+02
2.500000e-06	-9.647213e-08	3.067539e-09	-1.028829e+00	1.989527e+02
2.510000e-06	-1.973895e-07	2.768439e-09	-2.105064e+00	1.792267e+02
2.520000e-06	-2.982121e-07	2.455792e-09	-3.180289e+00	1.583845e+02
2.530000e-06	-3.989133e-07	2.123683e-09	-4.254219e+00	1.364124e+02
2.540000e-06	-4.995127e-07	1.767513e-09	-5.327063e+00	1.133106e+02
2.550000e-06	-5.999368e-07	1.391738e-09	-6.398037e+00	8.909625e+01
2.560000e-06	-7.001181e-07	1.003589e-09	-7.466424e+00	6.380806e+01
2.570000e-06	-8.000531e-07	6.057613e-10	-8.532182e+00	3.750950e+01
2.580000e-06	-8.997542e-07	1.947704e-10	-9.595446e+00	1.029240e+01
2.590000e-06	-9.991470e-07	-2.348734e-10	-1.065542e+01	-1.772063e+01
2.600000e-06	-1.098180e-06	-6.761220e-10	-1.171156e+01	-4.637522e+01
2.610000e-06	-1.196892e-06	-1.117000e-09	-1.276427e+01	-7.548610e+01
2.620000e-06	-1.295249e-06	-1.559255e-09	-1.381321e+01	-1.048400e+02
2.630000e-06	-1.393081e-06	-2.008558e-09	-1.485654e+01	-1.342009e+02
2.640000e-06	-1.490402e-06	-2.457000e-09	-1.589442e+01	-1.633170e+02
2.650000e-06	-1.587263e-06	-2.894000e-09	-1.692740e+01	-1.919300e+02
2.660000e-06	-1.683696e-06	-3.316868e-09	-1.795581e+01	-2.197851e+02
2.670000e-06	-1.779746e-06	-3.726692e-09	-1.898013e+01	-2.466414e+02
2.680000e-06	-1.875228e-06	-4.121734e-09	-1.999841e+01	-2.722825e+02
2.690000e-06	-1.969882e-06	-4.497962e-09	-2.100784e+01	-2.965255e+02
2.700000e-06	-2.063558e-06	-4.848067e-09	-2.200685e+01	-3.192284e+02
2.710000e-06	-2.156325e-06	-5.168288e-09	-2.299617e+01	-3.402952e+02
2.720000e-06	-2.248367e-06	-5.462409e-09	-2.397775e+01	-3.596776e+02
2.730000e-06	-2.339691e-06	-5.733403e-09	-2.495169e+01	-3.773745e+02
2.740000e-06	-2.430177e-06	-5.979838e-09	-2.591667e+01	-3.934282e+02
2.750000e-06	-2.519773e-06	-6.201289e-09	-2.687217e+01	-4.079185e+02
2.760000e-06	-2.608499e-06	-6.399925e-09	-2.781839e+01	-4.209547e+02
2.770000e-06	-2.696467e-06	-6.580482e-09	-2.875653e+01	-4.326668e+02
2.780000e-06	-2.783548e-06	-6.744590e-09	-2.968520e+01	-4.431962e+02
2.790000e-06	-2.869436e-06	-6.891277e-09	-3.060116e+01	-4.526871e+02
2.800000e-06	-2.954145e-06	-7.021925e-09	-3.150454e+01	-4.612785e+02
2.810000e-06	-3.037851e-06	-7.142348e-09	-3.239722e+01	-4.690984e+02
2.820000e-06	-3.120583e-06	-7.254734e-09	-3.327952e+01	-4.762595e+02
2.830000e-06	-3.202261e-06	-7.356078e-09	-3.415058e+01	-4.828575e+02
2.840000e-06	-3.282919e-06	-7.447002e-09	-3.501075e+01	-4.889701e+02
2.850000e-06	-3.362466e-06	-7.532126e-09	-3.585908e+01	-4.946587e+02
2.860000e-06	-3.440602e-06	-7.613702e-09	-3.669237e+01	-4.999708e+02
2.870000e-06	-3.517228e-06	-7.691039e-09	-3.750955e+01	-5.049425e+02
2.880000e-06	-3.592453e-06	-7.763182e-09	-3.831179e+01	-5.096024e+02
2.890000e-06	-3.666386e-06	-7.830810e-09	-3.910025e+01	-5.139737e+02
2.900000e-06	-3.739096e-06	-7.896031e-09	-3.987566e+01	-5.180772e+02
2.910000e-06	-3.810516e-06	-7.958030e-09	-4.063732e+01	-5.219323e+02
2.920000e-06	-3.880369e-06	-8.015742e-09	-4.138227e+01	-5.255583e+02
2.930000e-06	-3.948712e-06	-8.069256e-09	-4.211112e+01	-5.289741e+02
2.940000e-06	-4.015760e-06	-8.120853e-09	-4.282615e+01	-5.321979e+02
