# Temperatura_=_20.0
# Concentracion g/m^3_=_9000.0
# C_Vs_to_Am_M_A/Vsm_=_65563218390.804596
# pendiente_HvsI_1/m_=_3716.3
# ordenada_HvsI_A/m_=_1297.0
# frecuencia_Hz_=_300870.57226276223

Tiempo_(s)	Campo_(V.s)	Magnetizacion_(V.s)	Campo_(kA/m)	Magnetizacion_(A/m)
0.000000e+00	-5.332555e-06	-8.762039e-09	-5.678649e+01	-5.745790e+02
1.000000e-08	-5.329653e-06	-8.759616e-09	-5.675558e+01	-5.744096e+02
2.000000e-08	-5.325057e-06	-8.755867e-09	-5.670664e+01	-5.741877e+02
3.000000e-08	-5.318815e-06	-8.752407e-09	-5.664016e+01	-5.739152e+02
4.000000e-08	-5.311004e-06	-8.748598e-09	-5.655699e+01	-5.735946e+02
5.000000e-08	-5.301306e-06	-8.742967e-09	-5.645372e+01	-5.732288e+02
6.000000e-08	-5.289522e-06	-8.738171e-09	-5.632823e+01	-5.728206e+02
7.000000e-08	-5.275852e-06	-8.729713e-09	-5.618265e+01	-5.723719e+02
8.000000e-08	-5.260061e-06	-8.719918e-09	-5.601450e+01	-5.718838e+02
9.000000e-08	-5.242097e-06	-8.745830e-09	-5.582320e+01	-5.713560e+02
1.000000e-07	-5.222233e-06	-8.757132e-09	-5.561166e+01	-5.707865e+02
1.100000e-07	-5.200519e-06	-8.722686e-09	-5.538043e+01	-5.701723e+02
1.200000e-07	-5.177058e-06	-8.682515e-09	-5.513060e+01	-5.695092e+02
1.300000e-07	-5.152007e-06	-8.630326e-09	-5.486382e+01	-5.687925e+02
1.400000e-07	-5.125397e-06	-8.622451e-09	-5.458045e+01	-5.680177e+02
1.500000e-07	-5.097258e-06	-8.703547e-09	-5.428080e+01	-5.671808e+02
1.600000e-07	-5.067595e-06	-8.655541e-09	-5.396492e+01	-5.662790e+02
1.700000e-07	-5.036304e-06	-8.582456e-09	-5.363170e+01	-5.653107e+02
1.800000e-07	-5.002968e-06	-8.600054e-09	-5.327670e+01	-5.642758e+02
1.900000e-07	-4.967856e-06	-8.574716e-09	-5.290280e+01	-5.631752e+02
2.000000e-07	-4.931321e-06	-8.613493e-09	-5.251374e+01	-5.620108e+02
2.100000e-07	-4.892958e-06	-8.599188e-09	-5.210520e+01	-5.607844e+02
2.200000e-07	-4.852785e-06	-8.484776e-09	-5.167740e+01	-5.594975e+02
2.300000e-07	-4.810790e-06	-8.491059e-09	-5.123020e+01	-5.581503e+02
2.400000e-07	-4.766896e-06	-8.527920e-09	-5.076277e+01	-5.567419e+02
2.500000e-07	-4.721286e-06	-8.495720e-09	-5.027707e+01	-5.552696e+02
2.600000e-07	-4.673773e-06	-8.451883e-09	-4.977110e+01	-5.537294e+02
2.700000e-07	-4.624128e-06	-8.378032e-09	-4.924243e+01	-5.521159e+02
2.800000e-07	-4.572616e-06	-8.384564e-09	-4.869388e+01	-5.504234e+02
2.900000e-07	-4.519453e-06	-8.401292e-09	-4.812774e+01	-5.486463e+02
3.000000e-07	-4.464671e-06	-8.349904e-09	-4.754438e+01	-5.467801e+02
3.100000e-07	-4.408282e-06	-8.286600e-09	-4.694388e+01	-5.448214e+02
3.200000e-07	-4.350102e-06	-8.249897e-09	-4.632432e+01	-5.427690e+02
3.300000e-07	-4.290296e-06	-8.253143e-09	-4.568745e+01	-5.406238e+02
3.400000e-07	-4.229129e-06	-8.226294e-09	-4.503608e+01	-5.383882e+02
3.500000e-07	-4.166589e-06	-8.180506e-09	-4.437009e+01	-5.360660e+02
3.600000e-07	-4.102583e-06	-8.120269e-09	-4.368849e+01	-5.336616e+02
3.700000e-07	-4.036952e-06	-8.082565e-09	-4.298958e+01	-5.311790e+02
3.800000e-07	-3.969742e-06	-8.086609e-09	-4.227386e+01	-5.286209e+02
3.900000e-07	-3.901073e-06	-8.043918e-09	-4.154261e+01	-5.259880e+02
4.000000e-07	-3.831038e-06	-7.968216e-09	-4.079680e+01	-5.232789e+02
4.100000e-07	-3.759862e-06	-7.923468e-09	-4.003885e+01	-5.204892e+02
4.200000e-07	-3.687459e-06	-7.904409e-09	-3.926782e+01	-5.176125e+02
4.300000e-07	-3.613397e-06	-7.868511e-09	-3.847913e+01	-5.146402e+02
4.400000e-07	-3.537669e-06	-7.798465e-09	-3.767271e+01	-5.115628e+02
4.500000e-07	-3.460596e-06	-7.742118e-09	-3.685195e+01	-5.083706e+02
4.600000e-07	-3.382111e-06	-7.700454e-09	-3.601617e+01	-5.050543e+02
4.700000e-07	-3.302178e-06	-7.656735e-09	-3.516496e+01	-5.016062e+02
4.800000e-07	-3.221010e-06	-7.607882e-09	-3.430060e+01	-4.980201e+02
4.900000e-07	-3.138733e-06	-7.540078e-09	-3.342443e+01	-4.942918e+02
5.000000e-07	-3.055551e-06	-7.478218e-09	-3.253863e+01	-4.904188e+02
5.100000e-07	-2.971538e-06	-7.428943e-09	-3.164397e+01	-4.863993e+02
5.200000e-07	-2.886548e-06	-7.376980e-09	-3.073890e+01	-4.822321e+02
5.300000e-07	-2.800536e-06	-7.300964e-09	-2.982297e+01	-4.779150e+02
5.400000e-07	-2.713678e-06	-7.221522e-09	-2.889801e+01	-4.734446e+02
5.500000e-07	-2.626082e-06	-7.160715e-09	-2.796520e+01	-4.688152e+02
5.600000e-07	-2.537402e-06	-7.096171e-09	-2.702085e+01	-4.640184e+02
5.700000e-07	-2.447401e-06	-7.014435e-09	-2.606242e+01	-4.590436e+02
5.800000e-07	-2.356423e-06	-6.923089e-09	-2.509359e+01	-4.538775e+02
5.900000e-07	-2.264785e-06	-6.840922e-09	-2.411774e+01	-4.485055e+02
6.000000e-07	-2.172515e-06	-6.759572e-09	-2.313515e+01	-4.429118e+02
6.100000e-07	-2.079546e-06	-6.671193e-09	-2.214513e+01	-4.370806e+02
6.200000e-07	-1.985758e-06	-6.574174e-09	-2.114638e+01	-4.309963e+02
6.300000e-07	-1.891220e-06	-6.474530e-09	-2.013964e+01	-4.246445e+02
6.400000e-07	-1.796144e-06	-6.376553e-09	-1.912717e+01	-4.180112e+02
6.500000e-07	-1.700584e-06	-6.274242e-09	-1.810955e+01	-4.110830e+02
6.600000e-07	-1.604292e-06	-6.163156e-09	-1.708413e+01	-4.038460e+02
6.700000e-07	-1.507127e-06	-6.043330e-09	-1.604943e+01	-3.962846e+02
6.800000e-07	-1.409275e-06	-5.922738e-09	-1.500740e+01	-3.883806e+02
6.900000e-07	-1.310868e-06	-5.799230e-09	-1.395946e+01	-3.801116e+02
7.000000e-07	-1.212005e-06	-5.668150e-09	-1.290667e+01	-3.714501e+02
7.100000e-07	-1.112789e-06	-5.524439e-09	-1.185012e+01	-3.623627e+02
7.200000e-07	-1.013231e-06	-5.375355e-09	-1.078992e+01	-3.528099e+02
7.300000e-07	-9.133430e-07	-5.223544e-09	-9.726208e+00	-3.427465e+02
7.400000e-07	-8.131994e-07	-5.060858e-09	-8.659777e+00	-3.321221e+02
7.500000e-07	-7.128356e-07	-4.884014e-09	-7.591000e+00	-3.208821e+02
7.600000e-07	-6.122401e-07	-4.694387e-09	-6.519757e+00	-3.089694e+02
7.700000e-07	-5.114475e-07	-4.499321e-09	-5.446415e+00	-2.963257e+02
7.800000e-07	-4.104735e-07	-4.295169e-09	-4.371141e+00	-2.828929e+02
7.900000e-07	-3.092889e-07	-4.077611e-09	-3.293623e+00	-2.686142e+02
8.000000e-07	-2.079496e-07	-3.845695e-09	-2.214459e+00	-2.534354e+02
8.100000e-07	-1.065594e-07	-3.600287e-09	-1.134753e+00	-2.373056e+02
8.200000e-07	-5.126434e-09	-3.339849e-09	-5.459149e-02	-2.201779e+02
8.300000e-07	9.627917e-08	-3.062080e-09	1.025279e+00	-2.020104e+02
8.400000e-07	1.976083e-07	-2.767171e-09	2.104334e+00	-1.827672e+02
8.500000e-07	2.988972e-07	-2.453429e-09	3.182962e+00	-1.624201e+02
8.600000e-07	4.000756e-07	-2.124221e-09	4.260413e+00	-1.409506e+02
8.700000e-07	5.010838e-07	-1.778448e-09	5.336051e+00	-1.183529e+02
8.800000e-07	6.019394e-07	-1.412705e-09	6.410065e+00	-9.463742e+01
8.900000e-07	7.026320e-07	-1.029030e-09	7.482343e+00	-6.983430e+01
9.000000e-07	8.030949e-07	-6.333450e-10	8.552173e+00	-4.399781e+01
9.100000e-07	9.032770e-07	-2.270555e-10	9.619015e+00	-1.720976e+01
9.200000e-07	1.003193e-06	1.934834e-10	1.068302e+01	1.041765e+01
9.300000e-07	1.102830e-06	6.259587e-10	1.174406e+01	3.874026e+01
9.400000e-07	1.202148e-06	1.062897e-09	1.280170e+01	6.758219e+01
9.500000e-07	1.301097e-06	1.501946e-09	1.385541e+01	9.673815e+01
9.600000e-07	1.399541e-06	1.945879e-09	1.490374e+01	1.259779e+02
9.700000e-07	1.497373e-06	2.389803e-09	1.594555e+01	1.550532e+02
9.800000e-07	1.594451e-06	2.827272e-09	1.697934e+01	1.837058e+02
9.900000e-07	1.690686e-06	3.254029e-09	1.800415e+01	2.116781e+02
1.000000e-06	1.786209e-06	3.666348e-09	1.902137e+01	2.387234e+02
1.010000e-06	1.881149e-06	4.063189e-09	2.003240e+01	2.646167e+02
1.020000e-06	1.975527e-06	4.440743e-09	2.103742e+01	2.891643e+02
1.030000e-06	2.069300e-06	4.793592e-09	2.203602e+01	3.122121e+02
1.040000e-06	2.162395e-06	5.118120e-09	2.302739e+01	3.336508e+02
1.050000e-06	2.254756e-06	5.414923e-09	2.401095e+01	3.534196e+02
1.060000e-06	2.346411e-06	5.684365e-09	2.498698e+01	3.715055e+02
1.070000e-06	2.437377e-06	5.928766e-09	2.595568e+01	3.879410e+02
1.080000e-06	2.527539e-06	6.151086e-09	2.691581e+01	4.027977e+02
1.090000e-06	2.616595e-06	6.352957e-09	2.786417e+01	4.161798e+02
1.100000e-06	2.704477e-06	6.535576e-09	2.880002e+01	4.282142e+02
1.110000e-06	2.791409e-06	6.698937e-09	2.972577e+01	4.390417e+02
1.120000e-06	2.877442e-06	6.848557e-09	3.064194e+01	4.488076e+02
1.130000e-06	2.962510e-06	6.985860e-09	3.154783e+01	4.576535e+02
1.140000e-06	3.046621e-06	7.111342e-09	3.244352e+01	4.657103e+02
1.150000e-06	3.129828e-06	7.225168e-09	3.332960e+01	4.730944e+02
1.160000e-06	3.212004e-06	7.328898e-09	3.420470e+01	4.799039e+02
1.170000e-06	3.292934e-06	7.424328e-09	3.506652e+01	4.862187e+02
1.180000e-06	3.372625e-06	7.511976e-09	3.591516e+01	4.921012e+02
1.190000e-06	3.451089e-06	7.594621e-09	3.675072e+01	4.975987e+02
1.200000e-06	3.528294e-06	7.672437e-09	3.757287e+01	5.027464e+02
1.210000e-06	3.604283e-06	7.744490e-09	3.838208e+01	5.075709e+02
1.220000e-06	3.678949e-06	7.810297e-09	3.917720e+01	5.120937e+02
1.230000e-06	3.752019e-06	7.872455e-09	3.995533e+01	5.163334e+02
1.240000e-06	3.823569e-06	7.932267e-09	4.071726e+01	5.203081e+02
1.250000e-06	3.893796e-06	7.988188e-09	4.146511e+01	5.240361e+02
1.260000e-06	3.962680e-06	8.038764e-09	4.219866e+01	5.275366e+02
1.270000e-06	4.030324e-06	8.085402e-09	4.291900e+01	5.308289e+02
1.280000e-06	4.096642e-06	8.130614e-09	4.362522e+01	5.339317e+02
1.290000e-06	4.161297e-06	8.174531e-09	4.431373e+01	5.368624e+02
1.300000e-06	4.224381e-06	8.214785e-09	4.498552e+01	5.396359e+02
1.310000e-06	4.286139e-06	8.251877e-09	4.564318e+01	5.422642e+02
1.320000e-06	4.346555e-06	8.286418e-09	4.628655e+01	5.447561e+02
1.330000e-06	4.405590e-06	8.320454e-09	4.691522e+01	5.471175e+02
1.340000e-06	4.462941e-06	8.354713e-09	4.752595e+01	5.493521e+02
1.350000e-06	4.518458e-06	8.386248e-09	4.811715e+01	5.514622e+02
1.360000e-06	4.572352e-06	8.414432e-09	4.869106e+01	5.534498e+02
1.370000e-06	4.624610e-06	8.440550e-09	4.924757e+01	5.553177e+02
1.380000e-06	4.674939e-06	8.467867e-09	4.978352e+01	5.570697e+02
1.390000e-06	4.723227e-06	8.493317e-09	5.029774e+01	5.587115e+02
1.400000e-06	4.769747e-06	8.515504e-09	5.079313e+01	5.602507e+02
1.410000e-06	4.814660e-06	8.536281e-09	5.127141e+01	5.616959e+02
1.420000e-06	4.858028e-06	8.556848e-09	5.173324e+01	5.630564e+02
1.430000e-06	4.899629e-06	8.577588e-09	5.217625e+01	5.643417e+02
1.440000e-06	4.939315e-06	8.595806e-09	5.259886e+01	5.655599e+02
1.450000e-06	4.977322e-06	8.611920e-09	5.300361e+01	5.667176e+02
1.460000e-06	5.013745e-06	8.627743e-09	5.339147e+01	5.678189e+02
1.470000e-06	5.048494e-06	8.645064e-09	5.376152e+01	5.688659e+02
1.480000e-06	5.081290e-06	8.661571e-09	5.411076e+01	5.698581e+02
1.490000e-06	5.112192e-06	8.675504e-09	5.443984e+01	5.707933e+02
1.500000e-06	5.141466e-06	8.689699e-09	5.475157e+01	5.716680e+02
1.510000e-06	5.169134e-06	8.704270e-09	5.504621e+01	5.724786e+02
1.520000e-06	5.194922e-06	8.716956e-09	5.532083e+01	5.732215e+02
1.530000e-06	5.218614e-06	8.727942e-09	5.557313e+01	5.738944e+02
1.540000e-06	5.240438e-06	8.736806e-09	5.580553e+01	5.744960e+02
1.550000e-06	5.260610e-06	8.744786e-09	5.602034e+01	5.750267e+02
1.560000e-06	5.279041e-06	8.752740e-09	5.621661e+01	5.754884e+02
1.570000e-06	5.295525e-06	8.760246e-09	5.639215e+01	5.758837e+02
1.580000e-06	5.310060e-06	8.767709e-09	5.654694e+01	5.762159e+02
1.590000e-06	5.322685e-06	8.774048e-09	5.668138e+01	5.764884e+02
1.600000e-06	5.333229e-06	8.778765e-09	5.679367e+01	5.767042e+02
1.610000e-06	5.341575e-06	8.782372e-09	5.688254e+01	5.768652e+02
1.620000e-06	5.347998e-06	8.785485e-09	5.695094e+01	5.769728e+02
1.630000e-06	5.352668e-06	8.786109e-09	5.700067e+01	5.770273e+02
1.640000e-06	5.355553e-06	8.784744e-09	5.703140e+01	5.770285e+02
1.650000e-06	5.356502e-06	8.786044e-09	5.704150e+01	5.769760e+02
1.660000e-06	5.355531e-06	8.787720e-09	5.703116e+01	5.768694e+02
1.670000e-06	5.352866e-06	8.783644e-09	5.700277e+01	5.767091e+02
1.680000e-06	5.348600e-06	8.779173e-09	5.695735e+01	5.764959e+02
1.690000e-06	5.342511e-06	8.776269e-09	5.689251e+01	5.762317e+02
1.700000e-06	5.334513e-06	8.774177e-09	5.680734e+01	5.759190e+02
1.710000e-06	5.324907e-06	8.770072e-09	5.670504e+01	5.755605e+02
1.720000e-06	5.313672e-06	8.761677e-09	5.658540e+01	5.751592e+02
1.730000e-06	5.300697e-06	8.759863e-09	5.644723e+01	5.747171e+02
1.740000e-06	5.285683e-06	8.736769e-09	5.628735e+01	5.742355e+02
1.750000e-06	5.268314e-06	8.683863e-09	5.610238e+01	5.737144e+02
1.760000e-06	5.248430e-06	8.680693e-09	5.589064e+01	5.731520e+02
1.770000e-06	5.226052e-06	8.698830e-09	5.565233e+01	5.725456e+02
1.780000e-06	5.202025e-06	8.739209e-09	5.539647e+01	5.718910e+02
1.790000e-06	5.177256e-06	8.766977e-09	5.513270e+01	5.711837e+02
1.800000e-06	5.151375e-06	8.641545e-09	5.485709e+01	5.704191e+02
1.810000e-06	5.123482e-06	8.632125e-09	5.456006e+01	5.695931e+02
1.820000e-06	5.093749e-06	8.698997e-09	5.424344e+01	5.687025e+02
1.830000e-06	5.062457e-06	8.644014e-09	5.391021e+01	5.677456e+02
1.840000e-06	5.029094e-06	8.671320e-09	5.355493e+01	5.667220e+02
1.850000e-06	4.993812e-06	8.614783e-09	5.317921e+01	5.656325e+02
1.860000e-06	4.957044e-06	8.515018e-09	5.278767e+01	5.644789e+02
1.870000e-06	4.918452e-06	8.620842e-09	5.237669e+01	5.632629e+02
1.880000e-06	4.878001e-06	8.602560e-09	5.194593e+01	5.619862e+02
1.890000e-06	4.835783e-06	8.510090e-09	5.149635e+01	5.606493e+02
1.900000e-06	4.791926e-06	8.515037e-09	5.102931e+01	5.592514e+02
1.910000e-06	4.746707e-06	8.480318e-09	5.054777e+01	5.577903e+02
1.920000e-06	4.699640e-06	8.538214e-09	5.004656e+01	5.562620e+02
1.930000e-06	4.650643e-06	8.491190e-09	4.952479e+01	5.546615e+02
1.940000e-06	4.600064e-06	8.390195e-09	4.898618e+01	5.529831e+02
1.950000e-06	4.547784e-06	8.422253e-09	4.842945e+01	5.512210e+02
1.960000e-06	4.493563e-06	8.377673e-09	4.785204e+01	5.493704e+02
1.970000e-06	4.437439e-06	8.375767e-09	4.725438e+01	5.474278e+02
1.980000e-06	4.379760e-06	8.333310e-09	4.664015e+01	5.453917e+02
1.990000e-06	4.320561e-06	8.245793e-09	4.600974e+01	5.432624e+02
2.000000e-06	4.259963e-06	8.247462e-09	4.536443e+01	5.410421e+02
2.010000e-06	4.197955e-06	8.222849e-09	4.470411e+01	5.387346e+02
2.020000e-06	4.134134e-06	8.219328e-09	4.402447e+01	5.363441e+02
2.030000e-06	4.068657e-06	8.122089e-09	4.332721e+01	5.338747e+02
2.040000e-06	4.001796e-06	8.067690e-09	4.261520e+01	5.313294e+02
2.050000e-06	3.933685e-06	8.091653e-09	4.188989e+01	5.287094e+02
2.060000e-06	3.864140e-06	8.031760e-09	4.114931e+01	5.260136e+02
2.070000e-06	3.792862e-06	7.989054e-09	4.039026e+01	5.232382e+02
2.080000e-06	3.720230e-06	7.912413e-09	3.961680e+01	5.203771e+02
2.090000e-06	3.646387e-06	7.885541e-09	3.883044e+01	5.174220e+02
2.100000e-06	3.571179e-06	7.859472e-09	3.802956e+01	5.143636e+02
2.110000e-06	3.494540e-06	7.801489e-09	3.721342e+01	5.111921e+02
2.120000e-06	3.416348e-06	7.756149e-09	3.638076e+01	5.078981e+02
2.130000e-06	3.336733e-06	7.671809e-09	3.553294e+01	5.044735e+02
2.140000e-06	3.255912e-06	7.635028e-09	3.467228e+01	5.009119e+02
2.150000e-06	3.174062e-06	7.588517e-09	3.380065e+01	4.972087e+02
2.160000e-06	3.091162e-06	7.526433e-09	3.291785e+01	4.933611e+02
2.170000e-06	3.007262e-06	7.449311e-09	3.202439e+01	4.893674e+02
2.180000e-06	2.922399e-06	7.382289e-09	3.112069e+01	4.852262e+02
2.190000e-06	2.836328e-06	7.339497e-09	3.020412e+01	4.809356e+02
2.200000e-06	2.748957e-06	7.263450e-09	2.927370e+01	4.764924e+02
2.210000e-06	2.660578e-06	7.189848e-09	2.833255e+01	4.718913e+02
2.220000e-06	2.571445e-06	7.116526e-09	2.738337e+01	4.671247e+02
2.230000e-06	2.481471e-06	7.053393e-09	2.642523e+01	4.621820e+02
2.240000e-06	2.390693e-06	6.976129e-09	2.545854e+01	4.570506e+02
2.250000e-06	2.299263e-06	6.888813e-09	2.448490e+01	4.517160e+02
2.260000e-06	2.207167e-06	6.806456e-09	2.350417e+01	4.461625e+02
2.270000e-06	2.114284e-06	6.718007e-09	2.251505e+01	4.403744e+02
2.280000e-06	2.020444e-06	6.628151e-09	2.151575e+01	4.343359e+02
2.290000e-06	1.925676e-06	6.530078e-09	2.050656e+01	4.280324e+02
2.300000e-06	1.830179e-06	6.430867e-09	1.948961e+01	4.214498e+02
2.310000e-06	1.734092e-06	6.324610e-09	1.846638e+01	4.145748e+02
2.320000e-06	1.637468e-06	6.215914e-09	1.743743e+01	4.073934e+02
2.330000e-06	1.540279e-06	6.104112e-09	1.640246e+01	3.998907e+02
2.340000e-06	1.442539e-06	5.985490e-09	1.536163e+01	3.920489e+02
2.350000e-06	1.344386e-06	5.862019e-09	1.431639e+01	3.838464e+02
2.360000e-06	1.245845e-06	5.735976e-09	1.326703e+01	3.752568e+02
2.370000e-06	1.146892e-06	5.601601e-09	1.221327e+01	3.662476e+02
2.380000e-06	1.047614e-06	5.452567e-09	1.115607e+01	3.567806e+02
2.390000e-06	9.479992e-07	5.298761e-09	1.009526e+01	3.468114e+02
2.400000e-06	8.480506e-07	5.143613e-09	9.030908e+00	3.362905e+02
2.410000e-06	7.478691e-07	4.977393e-09	7.964073e+00	3.251640e+02
2.420000e-06	6.475597e-07	4.794472e-09	6.895877e+00	3.133752e+02
2.430000e-06	5.470988e-07	4.603157e-09	5.826066e+00	3.008659e+02
2.440000e-06	4.464390e-07	4.405810e-09	4.754138e+00	2.875777e+02
2.450000e-06	3.455729e-07	4.195978e-09	3.680012e+00	2.734536e+02
2.460000e-06	2.445445e-07	3.966890e-09	2.604159e+00	2.584389e+02
2.470000e-06	1.434560e-07	3.721226e-09	1.527666e+00	2.424819e+02
2.480000e-06	4.234839e-08	3.463152e-09	4.509689e-01	2.255351e+02
2.490000e-06	-5.879608e-08	3.193985e-09	-6.261206e-01	2.075556e+02
2.500000e-06	-1.599418e-07	2.907952e-09	-1.703223e+00	1.885063e+02
2.510000e-06	-2.609729e-07	2.598626e-09	-2.779106e+00	1.683575e+02
2.520000e-06	-3.618519e-07	2.272683e-09	-3.853368e+00	1.470887e+02
2.530000e-06	-4.625943e-07	1.933598e-09	-4.926176e+00	1.246918e+02
2.540000e-06	-5.631885e-07	1.579311e-09	-5.997406e+00	1.011737e+02
2.550000e-06	-6.635734e-07	1.202816e-09	-7.066407e+00	7.656109e+01
2.560000e-06	-7.637265e-07	8.069844e-10	-8.132939e+00	5.090346e+01
2.570000e-06	-8.636509e-07	4.019752e-10	-9.197036e+00	2.427749e+01
2.580000e-06	-9.633116e-07	-1.352111e-11	-1.025832e+01	-3.210198e+00
2.590000e-06	-1.062699e-06	-4.441853e-10	-1.131670e+01	-3.142118e+01
2.600000e-06	-1.161766e-06	-8.875323e-10	-1.237167e+01	-6.018515e+01
2.610000e-06	-1.260427e-06	-1.333425e-09	-1.342232e+01	-8.930179e+01
2.620000e-06	-1.358612e-06	-1.776213e-09	-1.446789e+01	-1.185449e+02
2.630000e-06	-1.456303e-06	-2.217612e-09	-1.550820e+01	-1.476688e+02
2.640000e-06	-1.553570e-06	-2.657431e-09	-1.654400e+01	-1.764165e+02
2.650000e-06	-1.650401e-06	-3.086936e-09	-1.757516e+01	-2.045293e+02
2.660000e-06	-1.746723e-06	-3.501657e-09	-1.860089e+01	-2.317579e+02
2.670000e-06	-1.842492e-06	-3.900444e-09	-1.962073e+01	-2.578727e+02
2.680000e-06	-1.937627e-06	-4.281999e-09	-2.063383e+01	-2.826737e+02
2.690000e-06	-2.031911e-06	-4.644494e-09	-2.163786e+01	-3.059991e+02
2.700000e-06	-2.125195e-06	-4.980228e-09	-2.263124e+01	-3.277316e+02
2.710000e-06	-2.217610e-06	-5.285871e-09	-2.361537e+01	-3.478014e+02
2.720000e-06	-2.309306e-06	-5.563632e-09	-2.459185e+01	-3.661872e+02
2.730000e-06	-2.400275e-06	-5.817463e-09	-2.556058e+01	-3.829137e+02
2.740000e-06	-2.490407e-06	-6.050341e-09	-2.652040e+01	-3.980461e+02
2.750000e-06	-2.579671e-06	-6.261324e-09	-2.747097e+01	-4.116832e+02
2.760000e-06	-2.668114e-06	-6.449363e-09	-2.841280e+01	-4.239487e+02
2.770000e-06	-2.755717e-06	-6.618192e-09	-2.934568e+01	-4.349817e+02
2.780000e-06	-2.842240e-06	-6.772037e-09	-3.026708e+01	-4.449271e+02
2.790000e-06	-2.927520e-06	-6.912626e-09	-3.117522e+01	-4.539277e+02
2.800000e-06	-3.011685e-06	-7.039361e-09	-3.207149e+01	-4.621170e+02
2.810000e-06	-3.094835e-06	-7.154263e-09	-3.295696e+01	-4.696139e+02
2.820000e-06	-3.176938e-06	-7.259922e-09	-3.383128e+01	-4.765202e+02
2.830000e-06	-3.258038e-06	-7.356831e-09	-3.469491e+01	-4.829188e+02
2.840000e-06	-3.338153e-06	-7.446053e-09	-3.554806e+01	-4.888751e+02
2.850000e-06	-3.417044e-06	-7.529084e-09	-3.638817e+01	-4.944390e+02
2.860000e-06	-3.494429e-06	-7.609092e-09	-3.721225e+01	-4.996475e+02
2.870000e-06	-3.570323e-06	-7.684887e-09	-3.802044e+01	-5.045286e+02
2.880000e-06	-3.644842e-06	-7.754625e-09	-3.881400e+01	-5.091044e+02
2.890000e-06	-3.718073e-06	-7.821274e-09	-3.959383e+01	-5.133939e+02
2.900000e-06	-3.790063e-06	-7.885943e-09	-4.036045e+01	-5.174150e+02
2.910000e-06	-3.860606e-06	-7.946404e-09	-4.111167e+01	-5.211862e+02
2.920000e-06	-3.929591e-06	-8.001732e-09	-4.184630e+01	-5.247264e+02
2.930000e-06	-3.997216e-06	-8.054021e-09	-4.256643e+01	-5.280550e+02
2.940000e-06	-4.063503e-06	-8.105127e-09	-4.327233e+01	-5.311908e+02
