# Temperatura_=_20.0
# Concentracion g/m^3_=_9000.0
# C_Vs_to_Am_M_A/Vsm_=_65563218390.804596
# pendiente_HvsI_1/m_=_3716.3
# ordenada_HvsI_A/m_=_1297.0
# frecuencia_Hz_=_300869.6088273888

Tiempo_(s)	Campo_(V.s)	Magnetizacion_(V.s)	Campo_(kA/m)	Magnetizacion_(A/m)
0.000000e+00	-5.335878e-06	-8.789699e-09	-5.679050e+01	-5.761168e+02
1.000000e-08	-5.334400e-06	-8.788015e-09	-5.677478e+01	-5.760286e+02
2.000000e-08	-5.331037e-06	-8.786616e-09	-5.673898e+01	-5.758840e+02
3.000000e-08	-5.326069e-06	-8.783220e-09	-5.668611e+01	-5.756834e+02
4.000000e-08	-5.319520e-06	-8.777764e-09	-5.661640e+01	-5.754279e+02
5.000000e-08	-5.311291e-06	-8.773251e-09	-5.652883e+01	-5.751192e+02
6.000000e-08	-5.301078e-06	-8.769973e-09	-5.642013e+01	-5.747596e+02
7.000000e-08	-5.288933e-06	-8.762133e-09	-5.629086e+01	-5.743517e+02
8.000000e-08	-5.274823e-06	-8.756944e-09	-5.614068e+01	-5.738973e+02
9.000000e-08	-5.258546e-06	-8.771819e-09	-5.596745e+01	-5.733979e+02
1.000000e-07	-5.240233e-06	-8.767837e-09	-5.577254e+01	-5.728540e+02
1.100000e-07	-5.219994e-06	-8.757954e-09	-5.555713e+01	-5.722648e+02
1.200000e-07	-5.197884e-06	-8.740985e-09	-5.532182e+01	-5.716286e+02
1.300000e-07	-5.174045e-06	-8.681139e-09	-5.506809e+01	-5.709429e+02
1.400000e-07	-5.148583e-06	-8.680094e-09	-5.479710e+01	-5.702046e+02
1.500000e-07	-5.121553e-06	-8.721665e-09	-5.450941e+01	-5.694104e+02
1.600000e-07	-5.093003e-06	-8.650392e-09	-5.420555e+01	-5.685573e+02
1.700000e-07	-5.063008e-06	-8.661204e-09	-5.388632e+01	-5.676430e+02
1.800000e-07	-5.031247e-06	-8.659901e-09	-5.354828e+01	-5.666657e+02
1.900000e-07	-4.997399e-06	-8.590290e-09	-5.318803e+01	-5.656244e+02
2.000000e-07	-4.961975e-06	-8.658342e-09	-5.281100e+01	-5.645191e+02
2.100000e-07	-4.925011e-06	-8.631459e-09	-5.241759e+01	-5.633498e+02
2.200000e-07	-4.886235e-06	-8.544534e-09	-5.200489e+01	-5.621165e+02
2.300000e-07	-4.845673e-06	-8.563027e-09	-5.157318e+01	-5.608192e+02
2.400000e-07	-4.803180e-06	-8.564804e-09	-5.112092e+01	-5.594569e+02
2.500000e-07	-4.758875e-06	-8.531288e-09	-5.064938e+01	-5.580277e+02
2.600000e-07	-4.712900e-06	-8.500194e-09	-5.016006e+01	-5.565287e+02
2.700000e-07	-4.664978e-06	-8.455688e-09	-4.965002e+01	-5.549562e+02
2.800000e-07	-4.614946e-06	-8.454565e-09	-4.911752e+01	-5.533059e+02
2.900000e-07	-4.563050e-06	-8.430406e-09	-4.856519e+01	-5.515733e+02
3.000000e-07	-4.509449e-06	-8.395511e-09	-4.799470e+01	-5.497543e+02
3.100000e-07	-4.454246e-06	-8.364154e-09	-4.740717e+01	-5.478454e+02
3.200000e-07	-4.397380e-06	-8.325642e-09	-4.680194e+01	-5.458445e+02
3.300000e-07	-4.338808e-06	-8.300973e-09	-4.617855e+01	-5.437510e+02
3.400000e-07	-4.278756e-06	-8.270995e-09	-4.553941e+01	-5.415653e+02
3.500000e-07	-4.217271e-06	-8.247948e-09	-4.488501e+01	-5.392896e+02
3.600000e-07	-4.154293e-06	-8.182400e-09	-4.421473e+01	-5.369263e+02
3.700000e-07	-4.089757e-06	-8.150474e-09	-4.352786e+01	-5.344787e+02
3.800000e-07	-4.023624e-06	-8.143770e-09	-4.282400e+01	-5.319492e+02
3.900000e-07	-3.955952e-06	-8.088592e-09	-4.210375e+01	-5.293395e+02
4.000000e-07	-3.886821e-06	-8.034022e-09	-4.136798e+01	-5.266501e+02
4.100000e-07	-3.816464e-06	-7.999916e-09	-4.061917e+01	-5.238795e+02
4.200000e-07	-3.745058e-06	-7.968497e-09	-3.985919e+01	-5.210244e+02
4.300000e-07	-3.672329e-06	-7.913479e-09	-3.908511e+01	-5.180799e+02
4.400000e-07	-3.597832e-06	-7.860052e-09	-3.829224e+01	-5.150399e+02
4.500000e-07	-3.521702e-06	-7.814576e-09	-3.748197e+01	-5.118971e+02
4.600000e-07	-3.444245e-06	-7.762361e-09	-3.665759e+01	-5.086441e+02
4.700000e-07	-3.365430e-06	-7.712795e-09	-3.581875e+01	-5.052737e+02
4.800000e-07	-3.285286e-06	-7.668255e-09	-3.496577e+01	-5.017790e+02
4.900000e-07	-3.203877e-06	-7.609542e-09	-3.409932e+01	-4.981539e+02
5.000000e-07	-3.121343e-06	-7.546451e-09	-3.322089e+01	-4.943932e+02
5.100000e-07	-3.037937e-06	-7.490554e-09	-3.233319e+01	-4.904920e+02
5.200000e-07	-2.953731e-06	-7.438724e-09	-3.143698e+01	-4.864459e+02
5.300000e-07	-2.868516e-06	-7.371640e-09	-3.053003e+01	-4.822499e+02
5.400000e-07	-2.782235e-06	-7.293310e-09	-2.961172e+01	-4.778984e+02
5.500000e-07	-2.695140e-06	-7.227760e-09	-2.868476e+01	-4.733849e+02
5.600000e-07	-2.607207e-06	-7.163824e-09	-2.774888e+01	-4.687014e+02
5.700000e-07	-2.518155e-06	-7.089236e-09	-2.680108e+01	-4.638385e+02
5.800000e-07	-2.427926e-06	-7.001060e-09	-2.584076e+01	-4.587858e+02
5.900000e-07	-2.336738e-06	-6.919831e-09	-2.487024e+01	-4.535317e+02
6.000000e-07	-2.244842e-06	-6.835667e-09	-2.389217e+01	-4.480644e+02
6.100000e-07	-2.152329e-06	-6.745344e-09	-2.290755e+01	-4.423718e+02
6.200000e-07	-2.059076e-06	-6.653948e-09	-2.191504e+01	-4.364420e+02
6.300000e-07	-1.964986e-06	-6.557111e-09	-2.091363e+01	-4.302633e+02
6.400000e-07	-1.870205e-06	-6.456897e-09	-1.990486e+01	-4.238242e+02
6.500000e-07	-1.774886e-06	-6.354684e-09	-1.889037e+01	-4.171128e+02
6.600000e-07	-1.679035e-06	-6.253601e-09	-1.787021e+01	-4.101161e+02
6.700000e-07	-1.582462e-06	-6.140062e-09	-1.684237e+01	-4.028190e+02
6.800000e-07	-1.485090e-06	-6.018903e-09	-1.580602e+01	-3.952033e+02
6.900000e-07	-1.387067e-06	-5.897246e-09	-1.476275e+01	-3.872468e+02
7.000000e-07	-1.288562e-06	-5.775525e-09	-1.371435e+01	-3.789222e+02
7.100000e-07	-1.189661e-06	-5.641329e-09	-1.266173e+01	-3.701967e+02
7.200000e-07	-1.090314e-06	-5.494998e-09	-1.160437e+01	-3.610321e+02
7.300000e-07	-9.906053e-07	-5.346647e-09	-1.054315e+01	-3.513844e+02
7.400000e-07	-8.906418e-07	-5.190788e-09	-9.479227e+00	-3.412049e+02
7.500000e-07	-7.904096e-07	-5.026337e-09	-8.412441e+00	-3.304410e+02
7.600000e-07	-6.899223e-07	-4.848987e-09	-7.342941e+00	-3.190371e+02
7.700000e-07	-5.891884e-07	-4.658981e-09	-6.270815e+00	-3.069365e+02
7.800000e-07	-4.882497e-07	-4.458615e-09	-5.196511e+00	-2.940819e+02
7.900000e-07	-3.871535e-07	-4.252865e-09	-4.120530e+00	-2.804168e+02
8.000000e-07	-2.858705e-07	-4.036519e-09	-3.042560e+00	-2.658864e+02
8.100000e-07	-1.844655e-07	-3.800958e-09	-1.963292e+00	-2.504385e+02
8.200000e-07	-8.296344e-08	-3.546269e-09	-8.829917e-01	-2.340238e+02
8.300000e-07	1.855959e-08	-3.278107e-09	1.975323e-01	-2.165971e+02
8.400000e-07	1.200367e-07	-2.998827e-09	1.277567e+00	-1.981178e+02
8.500000e-07	2.214867e-07	-2.699382e-09	2.357315e+00	-1.785518e+02
8.600000e-07	3.228191e-07	-2.379314e-09	3.435810e+00	-1.578729e+02
8.700000e-07	4.240463e-07	-2.042680e-09	4.513185e+00	-1.360659e+02
8.800000e-07	5.251577e-07	-1.692391e-09	5.589328e+00	-1.131294e+02
8.900000e-07	6.260782e-07	-1.324446e-09	6.663439e+00	-8.907957e+01
9.000000e-07	7.267969e-07	-9.390490e-10	7.735403e+00	-6.395430e+01
9.100000e-07	8.272520e-07	-5.395016e-10	8.804560e+00	-3.781667e+01
9.200000e-07	9.273832e-07	-1.264408e-10	9.870271e+00	-1.075838e+01
9.300000e-07	1.027244e-06	2.957635e-10	1.093310e+01	1.709808e+01
9.400000e-07	1.126852e-06	7.277363e-10	1.199325e+01	4.559869e+01
9.500000e-07	1.226118e-06	1.166415e-09	1.304975e+01	7.455891e+01
9.600000e-07	1.324909e-06	1.611224e-09	1.410119e+01	1.037669e+02
9.700000e-07	1.423122e-06	2.056714e-09	1.514649e+01	1.329886e+02
9.800000e-07	1.520697e-06	2.496401e-09	1.618500e+01	1.619753e+02
9.900000e-07	1.617595e-06	2.930899e-09	1.721630e+01	1.904717e+02
1.000000e-06	1.713853e-06	3.356281e-09	1.824078e+01	2.182267e+02
1.010000e-06	1.809520e-06	3.765489e-09	1.925898e+01	2.450030e+02
1.020000e-06	1.904485e-06	4.156076e-09	2.026970e+01	2.705874e+02
1.030000e-06	1.998772e-06	4.528523e-09	2.127322e+01	2.947994e+02
1.040000e-06	2.092405e-06	4.875697e-09	2.226976e+01	3.174986e+02
1.050000e-06	2.185313e-06	5.195638e-09	2.325859e+01	3.385889e+02
1.060000e-06	2.277535e-06	5.488170e-09	2.424013e+01	3.580211e+02
1.070000e-06	2.369089e-06	5.753601e-09	2.521455e+01	3.757916e+02
1.080000e-06	2.459908e-06	5.994454e-09	2.618115e+01	3.919393e+02
1.090000e-06	2.549750e-06	6.213270e-09	2.713735e+01	4.065401e+02
1.100000e-06	2.638508e-06	6.413183e-09	2.808202e+01	4.196987e+02
1.110000e-06	2.726285e-06	6.593210e-09	2.901624e+01	4.315409e+02
1.120000e-06	2.813083e-06	6.755051e-09	2.994004e+01	4.422039e+02
1.130000e-06	2.898927e-06	6.901482e-09	3.085369e+01	4.518285e+02
1.140000e-06	2.983798e-06	7.036716e-09	3.175698e+01	4.605511e+02
1.150000e-06	3.067750e-06	7.161315e-09	3.265050e+01	4.684979e+02
1.160000e-06	3.150809e-06	7.273292e-09	3.353450e+01	4.757806e+02
1.170000e-06	3.232761e-06	7.374635e-09	3.440673e+01	4.824941e+02
1.180000e-06	3.313490e-06	7.468917e-09	3.526594e+01	4.887159e+02
1.190000e-06	3.392971e-06	7.556309e-09	3.611188e+01	4.945073e+02
1.200000e-06	3.471209e-06	7.637424e-09	3.694457e+01	4.999153e+02
1.210000e-06	3.548198e-06	7.713444e-09	3.776397e+01	5.049754e+02
1.220000e-06	3.623966e-06	7.782532e-09	3.857039e+01	5.097151e+02
1.230000e-06	3.698307e-06	7.846851e-09	3.936160e+01	5.141564e+02
1.240000e-06	3.771060e-06	7.908673e-09	4.013593e+01	5.183185e+02
1.250000e-06	3.842353e-06	7.968029e-09	4.089470e+01	5.222196e+02
1.260000e-06	3.912285e-06	8.022804e-09	4.163900e+01	5.258778e+02
1.270000e-06	3.980933e-06	8.072582e-09	4.236963e+01	5.293115e+02
1.280000e-06	4.048338e-06	8.119561e-09	4.308703e+01	5.325395e+02
1.290000e-06	4.114231e-06	8.165187e-09	4.378834e+01	5.355798e+02
1.300000e-06	4.178482e-06	8.207156e-09	4.447218e+01	5.384493e+02
1.310000e-06	4.241287e-06	8.245572e-09	4.514062e+01	5.411627e+02
1.320000e-06	4.302671e-06	8.283418e-09	4.579394e+01	5.437325e+02
1.330000e-06	4.362743e-06	8.319345e-09	4.643329e+01	5.461682e+02
1.340000e-06	4.421434e-06	8.353688e-09	4.705795e+01	5.484769e+02
1.350000e-06	4.478424e-06	8.384981e-09	4.766450e+01	5.506638e+02
1.360000e-06	4.533656e-06	8.413738e-09	4.825234e+01	5.527324e+02
1.370000e-06	4.587249e-06	8.441416e-09	4.882274e+01	5.546858e+02
1.380000e-06	4.639123e-06	8.468213e-09	4.937484e+01	5.565272e+02
1.390000e-06	4.688953e-06	8.494549e-09	4.990519e+01	5.582605e+02
1.400000e-06	4.736809e-06	8.518773e-09	5.041453e+01	5.598907e+02
1.410000e-06	4.782983e-06	8.542832e-09	5.090597e+01	5.614238e+02
1.420000e-06	4.827581e-06	8.565866e-09	5.138063e+01	5.628666e+02
1.430000e-06	4.870557e-06	8.586788e-09	5.183803e+01	5.642262e+02
1.440000e-06	4.911636e-06	8.605515e-09	5.227524e+01	5.655098e+02
1.450000e-06	4.950896e-06	8.623110e-09	5.269309e+01	5.667235e+02
1.460000e-06	4.988524e-06	8.641442e-09	5.309357e+01	5.678723e+02
1.470000e-06	5.024567e-06	8.658246e-09	5.347718e+01	5.689595e+02
1.480000e-06	5.058890e-06	8.672761e-09	5.384249e+01	5.699870e+02
1.490000e-06	5.091294e-06	8.687597e-09	5.418737e+01	5.709549e+02
1.500000e-06	5.121898e-06	8.702948e-09	5.451309e+01	5.718623e+02
1.510000e-06	5.150814e-06	8.717062e-09	5.482084e+01	5.727076e+02
1.520000e-06	5.178031e-06	8.728654e-09	5.511051e+01	5.734890e+02
1.530000e-06	5.203323e-06	8.739633e-09	5.537971e+01	5.742052e+02
1.540000e-06	5.226591e-06	8.751429e-09	5.562735e+01	5.748556e+02
1.550000e-06	5.248062e-06	8.761124e-09	5.585586e+01	5.754407e+02
1.560000e-06	5.267926e-06	8.768148e-09	5.606728e+01	5.759620e+02
1.570000e-06	5.285988e-06	8.774556e-09	5.625952e+01	5.764216e+02
1.580000e-06	5.301990e-06	8.782482e-09	5.642983e+01	5.768223e+02
1.590000e-06	5.316026e-06	8.790443e-09	5.657921e+01	5.771669e+02
1.600000e-06	5.328188e-06	8.796791e-09	5.670866e+01	5.774580e+02
1.610000e-06	5.338241e-06	8.801021e-09	5.681565e+01	5.776974e+02
1.620000e-06	5.346182e-06	8.805695e-09	5.690017e+01	5.778860e+02
1.630000e-06	5.352238e-06	8.810407e-09	5.696462e+01	5.780238e+02
1.640000e-06	5.356537e-06	8.811068e-09	5.701038e+01	5.781101e+02
1.650000e-06	5.359012e-06	8.811402e-09	5.703672e+01	5.781437e+02
1.660000e-06	5.359461e-06	8.812956e-09	5.704150e+01	5.781229e+02
1.670000e-06	5.358039e-06	8.813411e-09	5.702637e+01	5.780465e+02
1.680000e-06	5.354963e-06	8.812047e-09	5.699363e+01	5.779139e+02
1.690000e-06	5.350320e-06	8.807072e-09	5.694422e+01	5.777251e+02
1.700000e-06	5.343853e-06	8.804203e-09	5.687539e+01	5.774810e+02
1.710000e-06	5.335499e-06	8.801756e-09	5.678647e+01	5.771833e+02
1.720000e-06	5.325541e-06	8.796736e-09	5.668049e+01	5.768343e+02
1.730000e-06	5.313947e-06	8.793973e-09	5.655709e+01	5.764364e+02
1.740000e-06	5.300460e-06	8.769534e-09	5.641354e+01	5.759916e+02
1.750000e-06	5.284873e-06	8.744675e-09	5.624766e+01	5.755017e+02
1.760000e-06	5.266927e-06	8.737663e-09	5.605665e+01	5.749671e+02
1.770000e-06	5.246395e-06	8.724960e-09	5.583813e+01	5.743876e+02
1.780000e-06	5.223592e-06	8.762052e-09	5.559543e+01	5.737615e+02
1.790000e-06	5.199407e-06	8.772433e-09	5.533803e+01	5.730865e+02
1.800000e-06	5.174492e-06	8.685649e-09	5.507285e+01	5.723595e+02
1.810000e-06	5.148193e-06	8.729048e-09	5.479295e+01	5.715774e+02
1.820000e-06	5.119755e-06	8.705793e-09	5.449028e+01	5.707370e+02
1.830000e-06	5.089682e-06	8.660172e-09	5.417021e+01	5.698358e+02
1.840000e-06	5.057981e-06	8.735789e-09	5.383281e+01	5.688719e+02
1.850000e-06	5.024044e-06	8.631225e-09	5.347161e+01	5.678443e+02
1.860000e-06	4.988346e-06	8.595411e-09	5.309167e+01	5.667525e+02
1.870000e-06	4.951165e-06	8.671870e-09	5.269595e+01	5.655967e+02
1.880000e-06	4.912123e-06	8.568030e-09	5.228043e+01	5.643770e+02
1.890000e-06	4.871245e-06	8.537905e-09	5.184535e+01	5.630933e+02
1.900000e-06	4.828553e-06	8.559328e-09	5.139098e+01	5.617449e+02
1.910000e-06	4.784348e-06	8.523427e-09	5.092049e+01	5.603301e+02
1.920000e-06	4.738646e-06	8.548681e-09	5.043409e+01	5.588461e+02
1.930000e-06	4.690965e-06	8.470934e-09	4.992661e+01	5.572896e+02
1.940000e-06	4.641527e-06	8.462812e-09	4.940043e+01	5.556562e+02
1.950000e-06	4.590519e-06	8.458965e-09	4.885755e+01	5.539414e+02
1.960000e-06	4.537654e-06	8.377636e-09	4.829489e+01	5.521410e+02
1.970000e-06	4.482734e-06	8.407713e-09	4.771037e+01	5.502515e+02
1.980000e-06	4.426086e-06	8.364679e-09	4.710746e+01	5.482703e+02
1.990000e-06	4.368005e-06	8.296108e-09	4.648929e+01	5.461964e+02
2.000000e-06	4.308419e-06	8.276618e-09	4.585511e+01	5.440302e+02
2.010000e-06	4.247504e-06	8.264755e-09	4.520679e+01	5.417734e+02
2.020000e-06	4.185048e-06	8.241943e-09	4.454206e+01	5.394285e+02
2.030000e-06	4.120773e-06	8.140952e-09	4.385797e+01	5.369985e+02
2.040000e-06	4.054944e-06	8.138422e-09	4.315734e+01	5.344862e+02
2.050000e-06	3.987753e-06	8.126620e-09	4.244222e+01	5.318935e+02
2.060000e-06	3.919290e-06	8.052587e-09	4.171356e+01	5.292210e+02
2.070000e-06	3.849277e-06	8.019453e-09	4.096840e+01	5.264678e+02
2.080000e-06	3.777609e-06	7.969239e-09	4.020563e+01	5.236310e+02
2.090000e-06	3.704663e-06	7.938564e-09	3.942925e+01	5.207061e+02
2.100000e-06	3.630466e-06	7.875646e-09	3.863956e+01	5.176869e+02
2.110000e-06	3.554927e-06	7.843045e-09	3.783560e+01	5.145666e+02
2.120000e-06	3.477899e-06	7.806627e-09	3.701578e+01	5.113377e+02
2.130000e-06	3.399301e-06	7.723198e-09	3.617924e+01	5.079929e+02
2.140000e-06	3.319352e-06	7.677013e-09	3.532833e+01	5.045251e+02
2.150000e-06	3.238261e-06	7.636124e-09	3.446527e+01	5.009283e+02
2.160000e-06	3.156119e-06	7.586105e-09	3.359102e+01	4.971969e+02
2.170000e-06	3.072892e-06	7.500032e-09	3.270523e+01	4.933261e+02
2.180000e-06	2.988716e-06	7.437724e-09	3.180933e+01	4.893112e+02
2.190000e-06	2.903612e-06	7.392953e-09	3.090355e+01	4.851476e+02
2.200000e-06	2.817249e-06	7.323609e-09	2.998438e+01	4.808298e+02
2.210000e-06	2.729622e-06	7.249759e-09	2.905175e+01	4.763515e+02
2.220000e-06	2.641069e-06	7.180935e-09	2.810927e+01	4.717050e+02
2.230000e-06	2.551717e-06	7.120248e-09	2.715829e+01	4.668812e+02
2.240000e-06	2.461504e-06	7.039125e-09	2.619814e+01	4.618700e+02
2.250000e-06	2.370463e-06	6.963366e-09	2.522917e+01	4.566599e+02
2.260000e-06	2.278745e-06	6.884001e-09	2.425300e+01	4.512391e+02
2.270000e-06	2.186410e-06	6.790704e-09	2.327027e+01	4.455956e+02
2.280000e-06	2.093278e-06	6.699990e-09	2.227905e+01	4.397174e+02
2.290000e-06	1.999211e-06	6.617800e-09	2.127789e+01	4.335929e+02
2.300000e-06	1.904242e-06	6.525125e-09	2.026712e+01	4.272104e+02
2.310000e-06	1.808497e-06	6.411369e-09	1.924809e+01	4.205583e+02
2.320000e-06	1.712157e-06	6.304967e-09	1.822273e+01	4.136237e+02
2.330000e-06	1.615313e-06	6.205721e-09	1.719201e+01	4.063922e+02
2.340000e-06	1.517963e-06	6.095056e-09	1.615589e+01	3.988464e+02
2.350000e-06	1.420126e-06	5.968791e-09	1.511461e+01	3.909648e+02
2.360000e-06	1.321863e-06	5.844750e-09	1.406878e+01	3.827214e+02
2.370000e-06	1.223149e-06	5.719883e-09	1.301814e+01	3.740848e+02
2.380000e-06	1.124020e-06	5.581828e-09	1.196311e+01	3.650176e+02
2.390000e-06	1.024569e-06	5.435321e-09	1.090463e+01	3.554772e+02
2.400000e-06	9.248650e-07	5.280969e-09	9.843469e+00	3.454158e+02
2.410000e-06	8.249422e-07	5.117328e-09	8.779977e+00	3.347815e+02
2.420000e-06	7.247854e-07	4.946716e-09	7.713994e+00	3.235194e+02
2.430000e-06	6.244125e-07	4.769844e-09	6.645710e+00	3.115728e+02
2.440000e-06	5.238374e-07	4.579188e-09	5.575276e+00	2.988843e+02
2.450000e-06	4.230526e-07	4.370101e-09	4.502609e+00	2.853974e+02
2.460000e-06	3.220608e-07	4.151156e-09	3.427739e+00	2.710568e+02
2.470000e-06	2.208599e-07	3.925184e-09	2.350643e+00	2.558096e+02
2.480000e-06	1.195473e-07	3.681797e-09	1.272359e+00	2.396059e+02
2.490000e-06	1.821300e-08	3.417407e-09	1.938436e-01	2.223994e+02
2.500000e-06	-8.313370e-08	3.140319e-09	-8.848038e-01	2.041486e+02
2.510000e-06	-1.844108e-07	2.851457e-09	-1.962710e+00	1.848178e+02
2.520000e-06	-2.855888e-07	2.542584e-09	-3.039562e+00	1.643790e+02
2.530000e-06	-3.866210e-07	2.212934e-09	-4.114862e+00	1.428142e+02
2.540000e-06	-4.874352e-07	1.864803e-09	-5.187842e+00	1.201188e+02
2.550000e-06	-5.880364e-07	1.498976e-09	-6.258554e+00	9.630504e+01
2.560000e-06	-6.884184e-07	1.118184e-09	-7.326935e+00	7.140567e+01
2.570000e-06	-7.885633e-07	7.252062e-10	-8.392791e+00	4.547810e+01
2.580000e-06	-8.884711e-07	3.178804e-10	-9.456124e+00	1.860769e+01
2.590000e-06	-9.880989e-07	-1.070002e-10	-1.051648e+01	-9.089798e+00
2.600000e-06	-1.087376e-06	-5.426488e-10	-1.157310e+01	-3.746707e+01
2.610000e-06	-1.186320e-06	-9.812690e-10	-1.262617e+01	-6.634594e+01
2.620000e-06	-1.284914e-06	-1.424195e-09	-1.367552e+01	-9.552004e+01
2.630000e-06	-1.383038e-06	-1.871698e-09	-1.471987e+01	-1.247596e+02
2.640000e-06	-1.480633e-06	-2.317538e-09	-1.575859e+01	-1.538181e+02
2.650000e-06	-1.577775e-06	-2.754602e-09	-1.679248e+01	-1.824412e+02
2.660000e-06	-1.674525e-06	-3.179078e-09	-1.782221e+01	-2.103758e+02
2.670000e-06	-1.770836e-06	-3.589547e-09	-1.884726e+01	-2.373809e+02
2.680000e-06	-1.866537e-06	-3.985950e-09	-1.986582e+01	-2.632373e+02
2.690000e-06	-1.961426e-06	-4.367155e-09	-2.087574e+01	-2.877569e+02
2.700000e-06	-2.055455e-06	-4.724791e-09	-2.187650e+01	-3.107901e+02
2.710000e-06	-2.148619e-06	-5.051812e-09	-2.286805e+01	-3.322311e+02
2.720000e-06	-2.240951e-06	-5.351858e-09	-2.385075e+01	-3.520205e+02
2.730000e-06	-2.332494e-06	-5.629273e-09	-2.482506e+01	-3.701454e+02
2.740000e-06	-2.423261e-06	-5.882023e-09	-2.579111e+01	-3.866358e+02
2.750000e-06	-2.513156e-06	-6.108916e-09	-2.674787e+01	-4.015602e+02
2.760000e-06	-2.602195e-06	-6.312894e-09	-2.769553e+01	-4.150181e+02
2.770000e-06	-2.690529e-06	-6.499317e-09	-2.863568e+01	-4.271312e+02
2.780000e-06	-2.777947e-06	-6.669850e-09	-2.956609e+01	-4.380352e+02
2.790000e-06	-2.864190e-06	-6.821372e-09	-3.048398e+01	-4.478708e+02
2.800000e-06	-2.949270e-06	-6.956687e-09	-3.138950e+01	-4.567758e+02
2.810000e-06	-3.033281e-06	-7.081254e-09	-3.228363e+01	-4.648791e+02
2.820000e-06	-3.116276e-06	-7.196921e-09	-3.316696e+01	-4.722956e+02
2.830000e-06	-3.198208e-06	-7.302173e-09	-3.403898e+01	-4.791241e+02
2.840000e-06	-3.279112e-06	-7.396596e-09	-3.490006e+01	-4.854458e+02
2.850000e-06	-3.358937e-06	-7.483458e-09	-3.574965e+01	-4.913252e+02
2.860000e-06	-3.437385e-06	-7.565679e-09	-3.658458e+01	-4.968122e+02
2.870000e-06	-3.514343e-06	-7.645336e-09	-3.740365e+01	-5.019445e+02
2.880000e-06	-3.589893e-06	-7.720627e-09	-3.820774e+01	-5.067510e+02
2.890000e-06	-3.664094e-06	-7.789595e-09	-3.899747e+01	-5.112547e+02
2.900000e-06	-3.737068e-06	-7.855340e-09	-3.977415e+01	-5.154753e+02
2.910000e-06	-3.808783e-06	-7.919265e-09	-4.053742e+01	-5.194309e+02
2.920000e-06	-3.879007e-06	-7.979905e-09	-4.128482e+01	-5.231398e+02
2.930000e-06	-3.947742e-06	-8.035305e-09	-4.201638e+01	-5.266202e+02
2.940000e-06	-4.015084e-06	-8.085565e-09	-4.273311e+01	-5.298909e+02
