# Temperatura_=_20.0
# Concentracion g/m^3_=_9000.0
# C_Vs_to_Am_M_A/Vsm_=_65563218390.804596
# pendiente_HvsI_1/m_=_3716.3
# ordenada_HvsI_A/m_=_1297.0
# frecuencia_Hz_=_300873.3752202483

Tiempo_(s)	Campo_(V.s)	Magnetizacion_(V.s)	Campo_(kA/m)	Magnetizacion_(A/m)
0.000000e+00	-5.344981e-06	-8.791455e-09	-5.679543e+01	-5.761141e+02
1.000000e-08	-5.343564e-06	-8.789018e-09	-5.678037e+01	-5.760216e+02
2.000000e-08	-5.340272e-06	-8.788123e-09	-5.674539e+01	-5.758806e+02
3.000000e-08	-5.335324e-06	-8.786241e-09	-5.669282e+01	-5.756919e+02
4.000000e-08	-5.328818e-06	-8.782316e-09	-5.662368e+01	-5.754564e+02
5.000000e-08	-5.320639e-06	-8.777975e-09	-5.653677e+01	-5.751746e+02
6.000000e-08	-5.310447e-06	-8.774059e-09	-5.642847e+01	-5.748465e+02
7.000000e-08	-5.298266e-06	-8.767906e-09	-5.629904e+01	-5.744718e+02
8.000000e-08	-5.284141e-06	-8.765052e-09	-5.614895e+01	-5.740493e+02
9.000000e-08	-5.267840e-06	-8.771409e-09	-5.597573e+01	-5.735773e+02
1.000000e-07	-5.249466e-06	-8.776703e-09	-5.578049e+01	-5.730533e+02
1.100000e-07	-5.229220e-06	-8.773864e-09	-5.556536e+01	-5.724747e+02
1.200000e-07	-5.207132e-06	-8.749050e-09	-5.533065e+01	-5.718386e+02
1.300000e-07	-5.183333e-06	-8.696180e-09	-5.507777e+01	-5.711425e+02
1.400000e-07	-5.157859e-06	-8.685590e-09	-5.480708e+01	-5.703846e+02
1.500000e-07	-5.130833e-06	-8.698395e-09	-5.451991e+01	-5.695640e+02
1.600000e-07	-5.102345e-06	-8.682838e-09	-5.421719e+01	-5.686806e+02
1.700000e-07	-5.072314e-06	-8.675031e-09	-5.389809e+01	-5.677355e+02
1.800000e-07	-5.040507e-06	-8.638792e-09	-5.356011e+01	-5.667307e+02
1.900000e-07	-5.006595e-06	-8.610188e-09	-5.319976e+01	-5.656684e+02
2.000000e-07	-4.971087e-06	-8.641381e-09	-5.282246e+01	-5.645508e+02
2.100000e-07	-4.934099e-06	-8.631163e-09	-5.242942e+01	-5.633794e+02
2.200000e-07	-4.895234e-06	-8.578571e-09	-5.201645e+01	-5.621546e+02
2.300000e-07	-4.854579e-06	-8.549628e-09	-5.158445e+01	-5.608750e+02
2.400000e-07	-4.812076e-06	-8.546286e-09	-5.113281e+01	-5.595378e+02
2.500000e-07	-4.767796e-06	-8.542104e-09	-5.066230e+01	-5.581380e+02
2.600000e-07	-4.721820e-06	-8.500199e-09	-5.017376e+01	-5.566695e+02
2.700000e-07	-4.673881e-06	-8.458963e-09	-4.966436e+01	-5.551251e+02
2.800000e-07	-4.623825e-06	-8.438589e-09	-4.913247e+01	-5.534975e+02
2.900000e-07	-4.571866e-06	-8.419413e-09	-4.858035e+01	-5.517799e+02
3.000000e-07	-4.518203e-06	-8.400849e-09	-4.801014e+01	-5.499669e+02
3.100000e-07	-4.462960e-06	-8.368981e-09	-4.742313e+01	-5.480551e+02
3.200000e-07	-4.406000e-06	-8.318903e-09	-4.681787e+01	-5.460433e+02
3.300000e-07	-4.347307e-06	-8.285331e-09	-4.619420e+01	-5.439328e+02
3.400000e-07	-4.287200e-06	-8.275339e-09	-4.555551e+01	-5.417267e+02
3.500000e-07	-4.225745e-06	-8.248117e-09	-4.490250e+01	-5.394298e+02
3.600000e-07	-4.162842e-06	-8.185283e-09	-4.423409e+01	-5.370477e+02
3.700000e-07	-4.098330e-06	-8.145701e-09	-4.354859e+01	-5.345855e+02
3.800000e-07	-4.032178e-06	-8.127373e-09	-4.284566e+01	-5.320473e+02
3.900000e-07	-3.964485e-06	-8.086499e-09	-4.212637e+01	-5.294354e+02
4.000000e-07	-3.895340e-06	-8.037420e-09	-4.139164e+01	-5.267495e+02
4.100000e-07	-3.824932e-06	-7.992678e-09	-4.064349e+01	-5.239868e+02
4.200000e-07	-3.753416e-06	-7.956194e-09	-3.988356e+01	-5.211418e+02
4.300000e-07	-3.680473e-06	-7.910761e-09	-3.910847e+01	-5.182073e+02
4.400000e-07	-3.605846e-06	-7.866007e-09	-3.831549e+01	-5.151746e+02
4.500000e-07	-3.529715e-06	-7.814423e-09	-3.750653e+01	-5.120345e+02
4.600000e-07	-3.452219e-06	-7.754863e-09	-3.668306e+01	-5.087785e+02
4.700000e-07	-3.373297e-06	-7.707647e-09	-3.584444e+01	-5.053989e+02
4.800000e-07	-3.292980e-06	-7.665199e-09	-3.499100e+01	-5.018898e+02
4.900000e-07	-3.211443e-06	-7.608293e-09	-3.412459e+01	-4.982471e+02
5.000000e-07	-3.128867e-06	-7.538788e-09	-3.324714e+01	-4.944680e+02
5.100000e-07	-3.045438e-06	-7.484113e-09	-3.236063e+01	-4.905510e+02
5.200000e-07	-2.961158e-06	-7.435740e-09	-3.146508e+01	-4.864947e+02
5.300000e-07	-2.875875e-06	-7.370463e-09	-3.055886e+01	-4.822972e+02
5.400000e-07	-2.789478e-06	-7.292448e-09	-2.964082e+01	-4.779553e+02
5.500000e-07	-2.702240e-06	-7.222469e-09	-2.871383e+01	-4.734634e+02
5.600000e-07	-2.614214e-06	-7.158463e-09	-2.777847e+01	-4.688138e+02
5.700000e-07	-2.524990e-06	-7.085601e-09	-2.683038e+01	-4.639957e+02
5.800000e-07	-2.434607e-06	-7.001869e-09	-2.586998e+01	-4.589962e+02
5.900000e-07	-2.343365e-06	-6.917471e-09	-2.490045e+01	-4.538005e+02
6.000000e-07	-2.251397e-06	-6.833878e-09	-2.392320e+01	-4.483928e+02
6.100000e-07	-2.158728e-06	-6.747302e-09	-2.293850e+01	-4.427570e+02
6.200000e-07	-2.065308e-06	-6.657976e-09	-2.194583e+01	-4.368771e+02
6.300000e-07	-1.971094e-06	-6.560761e-09	-2.094472e+01	-4.307385e+02
6.400000e-07	-1.876215e-06	-6.460936e-09	-1.993655e+01	-4.243272e+02
6.500000e-07	-1.780874e-06	-6.362629e-09	-1.892346e+01	-4.176301e+02
6.600000e-07	-1.684931e-06	-6.260926e-09	-1.790397e+01	-4.106343e+02
6.700000e-07	-1.588104e-06	-6.145912e-09	-1.687509e+01	-4.033258e+02
6.800000e-07	-1.490446e-06	-6.023244e-09	-1.583739e+01	-3.956884e+02
6.900000e-07	-1.392245e-06	-5.903306e-09	-1.479391e+01	-3.877028e+02
7.000000e-07	-1.293631e-06	-5.780772e-09	-1.374604e+01	-3.793448e+02
7.100000e-07	-1.194586e-06	-5.645632e-09	-1.269360e+01	-3.705849e+02
7.200000e-07	-1.095159e-06	-5.499145e-09	-1.163709e+01	-3.613877e+02
7.300000e-07	-9.953515e-07	-5.350877e-09	-1.057654e+01	-3.517120e+02
7.400000e-07	-8.952060e-07	-5.196107e-09	-9.512402e+00	-3.415111e+02
7.500000e-07	-7.948254e-07	-5.030030e-09	-8.445764e+00	-3.307336e+02
7.600000e-07	-6.942043e-07	-4.851715e-09	-7.376571e+00	-3.193251e+02
7.700000e-07	-5.932972e-07	-4.662272e-09	-6.304339e+00	-3.072289e+02
7.800000e-07	-4.921547e-07	-4.464321e-09	-5.229605e+00	-2.943878e+02
7.900000e-07	-3.908632e-07	-4.258095e-09	-4.153288e+00	-2.807450e+02
8.000000e-07	-2.894367e-07	-4.039874e-09	-3.075536e+00	-2.662454e+02
8.100000e-07	-1.878802e-07	-3.804144e-09	-1.996403e+00	-2.508361e+02
8.200000e-07	-8.625238e-08	-3.553362e-09	-9.165123e-01	-2.344675e+02
8.300000e-07	1.540815e-08	-3.288885e-09	1.637261e-01	-2.170937e+02
8.400000e-07	1.170787e-07	-3.008552e-09	1.244070e+00	-1.986736e+02
8.500000e-07	2.186843e-07	-2.708684e-09	2.323725e+00	-1.791720e+02
8.600000e-07	3.202354e-07	-2.391235e-09	3.402801e+00	-1.585618e+02
8.700000e-07	4.216794e-07	-2.059565e-09	4.480738e+00	-1.368259e+02
8.800000e-07	5.229115e-07	-1.710909e-09	5.556424e+00	-1.139610e+02
8.900000e-07	6.239326e-07	-1.341513e-09	6.629869e+00	-8.998117e+01
9.000000e-07	7.247458e-07	-9.558696e-10	7.701103e+00	-6.492141e+01
9.100000e-07	8.253155e-07	-5.588449e-10	8.769751e+00	-3.884211e+01
9.200000e-07	9.256364e-07	-1.487302e-10	9.835754e+00	-1.183227e+01
9.300000e-07	1.025714e-06	2.745312e-10	1.089918e+01	1.598805e+01
9.400000e-07	1.125482e-06	7.092428e-10	1.195930e+01	4.446676e+01
9.500000e-07	1.224858e-06	1.147640e-09	1.301526e+01	7.342058e+01
9.600000e-07	1.323773e-06	1.589410e-09	1.406632e+01	1.026381e+02
9.700000e-07	1.422128e-06	2.034154e-09	1.511145e+01	1.318850e+02
9.800000e-07	1.519944e-06	2.475543e-09	1.615083e+01	1.609110e+02
9.900000e-07	1.617223e-06	2.910530e-09	1.718451e+01	1.894592e+02
1.000000e-06	1.713792e-06	3.334518e-09	1.821065e+01	2.172757e+02
1.010000e-06	1.809558e-06	3.744148e-09	1.922824e+01	2.441206e+02
1.020000e-06	1.904585e-06	4.138212e-09	2.023799e+01	2.697777e+02
1.030000e-06	1.999007e-06	4.514176e-09	2.124132e+01	2.940637e+02
1.040000e-06	2.092824e-06	4.863433e-09	2.223822e+01	3.168358e+02
1.050000e-06	2.185924e-06	5.184286e-09	2.322749e+01	3.379962e+02
1.060000e-06	2.278322e-06	5.478302e-09	2.420930e+01	3.574943e+02
1.070000e-06	2.370113e-06	5.744842e-09	2.518467e+01	3.753260e+02
1.080000e-06	2.461143e-06	5.987147e-09	2.615195e+01	3.915302e+02
1.090000e-06	2.551155e-06	6.206270e-09	2.710841e+01	4.061831e+02
1.100000e-06	2.640167e-06	6.405542e-09	2.805425e+01	4.193904e+02
1.110000e-06	2.728114e-06	6.585613e-09	2.898877e+01	4.312786e+02
1.120000e-06	2.814995e-06	6.747975e-09	2.991196e+01	4.419858e+02
1.130000e-06	2.901010e-06	6.897200e-09	3.082595e+01	4.516535e+02
1.140000e-06	2.986072e-06	7.034290e-09	3.172981e+01	4.604186e+02
1.150000e-06	3.070174e-06	7.159160e-09	3.262347e+01	4.684072e+02
1.160000e-06	3.153336e-06	7.270617e-09	3.350715e+01	4.757310e+02
1.170000e-06	3.235451e-06	7.373196e-09	3.437970e+01	4.824844e+02
1.180000e-06	3.316410e-06	7.469436e-09	3.523996e+01	4.887444e+02
1.190000e-06	3.396092e-06	7.558368e-09	3.608666e+01	4.945714e+02
1.200000e-06	3.474516e-06	7.639610e-09	3.691998e+01	5.000118e+02
1.210000e-06	3.551650e-06	7.715192e-09	3.773961e+01	5.051007e+02
1.220000e-06	3.627502e-06	7.787098e-09	3.854560e+01	5.098652e+02
1.230000e-06	3.701987e-06	7.853312e-09	3.933708e+01	5.143274e+02
1.240000e-06	3.774923e-06	7.913509e-09	4.011209e+01	5.185065e+02
1.250000e-06	3.846392e-06	7.970132e-09	4.087151e+01	5.224213e+02
1.260000e-06	3.916512e-06	8.024751e-09	4.161661e+01	5.260903e+02
1.270000e-06	3.985304e-06	8.074337e-09	4.234759e+01	5.295328e+02
1.280000e-06	4.052825e-06	8.119660e-09	4.306506e+01	5.327679e+02
1.290000e-06	4.118969e-06	8.165124e-09	4.376790e+01	5.358143e+02
1.300000e-06	4.183493e-06	8.209182e-09	4.445353e+01	5.386892e+02
1.310000e-06	4.246419e-06	8.248093e-09	4.512217e+01	5.414074e+02
1.320000e-06	4.307918e-06	8.285106e-09	4.577566e+01	5.439811e+02
1.330000e-06	4.368048e-06	8.320962e-09	4.641460e+01	5.464197e+02
1.340000e-06	4.426783e-06	8.354700e-09	4.703872e+01	5.487297e+02
1.350000e-06	4.483882e-06	8.385248e-09	4.764544e+01	5.509154e+02
1.360000e-06	4.539210e-06	8.412854e-09	4.823336e+01	5.529799e+02
1.370000e-06	4.592919e-06	8.440990e-09	4.880406e+01	5.549255e+02
1.380000e-06	4.644918e-06	8.468420e-09	4.935660e+01	5.567551e+02
1.390000e-06	4.694937e-06	8.494646e-09	4.988810e+01	5.584723e+02
1.400000e-06	4.742974e-06	8.517880e-09	5.039854e+01	5.600821e+02
1.410000e-06	4.789245e-06	8.539827e-09	5.089021e+01	5.615910e+02
1.420000e-06	4.833952e-06	8.563037e-09	5.136527e+01	5.630066e+02
1.430000e-06	4.877107e-06	8.585367e-09	5.182383e+01	5.643372e+02
1.440000e-06	4.918447e-06	8.604952e-09	5.226310e+01	5.655912e+02
1.450000e-06	4.957906e-06	8.621742e-09	5.268239e+01	5.667762e+02
1.460000e-06	4.995684e-06	8.638183e-09	5.308382e+01	5.678990e+02
1.470000e-06	5.031834e-06	8.654663e-09	5.346795e+01	5.689644e+02
1.480000e-06	5.066237e-06	8.670862e-09	5.383351e+01	5.699753e+02
1.490000e-06	5.098765e-06	8.684895e-09	5.417915e+01	5.709329e+02
1.500000e-06	5.129469e-06	8.697896e-09	5.450541e+01	5.718368e+02
1.510000e-06	5.158473e-06	8.712388e-09	5.481361e+01	5.726852e+02
1.520000e-06	5.185831e-06	8.726478e-09	5.510431e+01	5.734757e+02
1.530000e-06	5.211212e-06	8.738052e-09	5.537401e+01	5.742059e+02
1.540000e-06	5.234496e-06	8.748262e-09	5.562142e+01	5.748735e+02
1.550000e-06	5.255996e-06	8.757927e-09	5.584988e+01	5.754770e+02
1.560000e-06	5.275849e-06	8.767108e-09	5.606083e+01	5.760158e+02
1.570000e-06	5.293936e-06	8.775363e-09	5.625303e+01	5.764902e+02
1.580000e-06	5.310086e-06	8.782850e-09	5.642463e+01	5.769012e+02
1.590000e-06	5.324271e-06	8.789466e-09	5.657537e+01	5.772504e+02
1.600000e-06	5.336494e-06	8.795565e-09	5.670524e+01	5.775400e+02
1.610000e-06	5.346625e-06	8.801025e-09	5.681290e+01	5.777718e+02
1.620000e-06	5.354632e-06	8.805208e-09	5.689798e+01	5.779479e+02
1.630000e-06	5.360703e-06	8.809122e-09	5.696249e+01	5.780700e+02
1.640000e-06	5.365052e-06	8.811099e-09	5.700870e+01	5.781394e+02
1.650000e-06	5.367630e-06	8.812233e-09	5.703609e+01	5.781573e+02
1.660000e-06	5.368139e-06	8.812980e-09	5.704150e+01	5.781247e+02
1.670000e-06	5.366733e-06	8.811985e-09	5.702656e+01	5.780425e+02
1.680000e-06	5.363718e-06	8.808581e-09	5.699453e+01	5.779116e+02
1.690000e-06	5.359129e-06	8.804625e-09	5.694577e+01	5.777329e+02
1.700000e-06	5.352736e-06	8.802427e-09	5.687783e+01	5.775072e+02
1.710000e-06	5.344456e-06	8.800356e-09	5.678985e+01	5.772350e+02
1.720000e-06	5.334565e-06	8.796319e-09	5.668475e+01	5.769167e+02
1.730000e-06	5.323064e-06	8.792462e-09	5.656254e+01	5.765519e+02
1.740000e-06	5.309711e-06	8.769897e-09	5.642065e+01	5.761395e+02
1.750000e-06	5.294240e-06	8.747266e-09	5.625625e+01	5.756781e+02
1.760000e-06	5.276328e-06	8.727532e-09	5.606593e+01	5.751653e+02
1.770000e-06	5.255845e-06	8.719800e-09	5.584828e+01	5.745984e+02
1.780000e-06	5.233060e-06	8.759790e-09	5.560616e+01	5.739746e+02
1.790000e-06	5.208824e-06	8.766913e-09	5.534864e+01	5.732914e+02
1.800000e-06	5.183814e-06	8.723639e-09	5.508288e+01	5.725467e+02
1.810000e-06	5.157463e-06	8.714079e-09	5.480287e+01	5.717393e+02
1.820000e-06	5.129052e-06	8.675742e-09	5.450098e+01	5.708691e+02
1.830000e-06	5.098884e-06	8.679278e-09	5.418041e+01	5.699369e+02
1.840000e-06	5.067074e-06	8.716965e-09	5.384241e+01	5.689445e+02
1.850000e-06	5.033180e-06	8.643618e-09	5.348225e+01	5.678942e+02
1.860000e-06	4.997515e-06	8.610978e-09	5.310328e+01	5.667880e+02
1.870000e-06	4.960302e-06	8.626140e-09	5.270785e+01	5.656279e+02
1.880000e-06	4.921200e-06	8.586193e-09	5.229236e+01	5.644144e+02
1.890000e-06	4.880302e-06	8.571495e-09	5.185778e+01	5.631466e+02
1.900000e-06	4.837638e-06	8.556439e-09	5.140444e+01	5.618218e+02
1.910000e-06	4.793414e-06	8.537450e-09	5.093451e+01	5.604357e+02
1.920000e-06	4.747642e-06	8.535274e-09	5.044814e+01	5.589823e+02
1.930000e-06	4.699940e-06	8.496188e-09	4.994126e+01	5.574546e+02
1.940000e-06	4.650508e-06	8.487066e-09	4.941600e+01	5.558452e+02
1.950000e-06	4.599485e-06	8.445013e-09	4.887383e+01	5.541472e+02
1.960000e-06	4.546651e-06	8.393395e-09	4.831242e+01	5.523548e+02
1.970000e-06	4.491817e-06	8.408061e-09	4.772976e+01	5.504642e+02
1.980000e-06	4.435204e-06	8.378975e-09	4.712820e+01	5.484736e+02
1.990000e-06	4.377111e-06	8.316810e-09	4.651090e+01	5.463838e+02
2.000000e-06	4.317515e-06	8.273436e-09	4.587764e+01	5.441977e+02
2.010000e-06	4.256533e-06	8.268095e-09	4.522965e+01	5.419196e+02
2.020000e-06	4.193986e-06	8.243247e-09	4.456503e+01	5.395551e+02
2.030000e-06	4.129647e-06	8.174520e-09	4.388137e+01	5.371094e+02
2.040000e-06	4.063798e-06	8.146258e-09	4.318166e+01	5.345871e+02
2.050000e-06	3.996608e-06	8.115350e-09	4.246770e+01	5.319907e+02
2.060000e-06	3.928128e-06	8.069577e-09	4.174004e+01	5.293206e+02
2.070000e-06	3.858016e-06	8.029317e-09	4.099503e+01	5.265745e+02
2.080000e-06	3.786243e-06	7.984328e-09	4.023238e+01	5.237476e+02
2.090000e-06	3.713237e-06	7.936992e-09	3.945662e+01	5.208327e+02
2.100000e-06	3.638928e-06	7.881413e-09	3.866702e+01	5.178216e+02
2.110000e-06	3.563239e-06	7.852994e-09	3.786275e+01	5.147051e+02
2.120000e-06	3.486048e-06	7.810304e-09	3.704252e+01	5.114744e+02
2.130000e-06	3.407344e-06	7.737137e-09	3.620622e+01	5.081217e+02
2.140000e-06	3.327359e-06	7.681456e-09	3.535631e+01	5.046406e+02
2.150000e-06	3.246214e-06	7.642754e-09	3.449406e+01	5.010266e+02
2.160000e-06	3.163951e-06	7.590172e-09	3.361994e+01	4.972766e+02
2.170000e-06	3.080626e-06	7.509759e-09	3.273453e+01	4.933891e+02
2.180000e-06	2.996433e-06	7.444914e-09	3.183991e+01	4.893625e+02
2.190000e-06	2.911252e-06	7.396137e-09	3.093478e+01	4.851953e+02
2.200000e-06	2.824769e-06	7.333692e-09	3.001582e+01	4.808846e+02
2.210000e-06	2.737098e-06	7.258410e-09	2.908423e+01	4.764252e+02
2.220000e-06	2.648491e-06	7.189113e-09	2.814270e+01	4.718100e+02
2.230000e-06	2.559026e-06	7.125035e-09	2.719205e+01	4.670288e+02
2.240000e-06	2.468683e-06	7.048587e-09	2.623207e+01	4.620692e+02
2.250000e-06	2.377528e-06	6.972426e-09	2.526346e+01	4.569167e+02
2.260000e-06	2.285721e-06	6.891613e-09	2.428792e+01	4.515556e+02
2.270000e-06	2.193336e-06	6.801321e-09	2.330624e+01	4.459698e+02
2.280000e-06	2.100117e-06	6.712323e-09	2.231571e+01	4.401433e+02
2.290000e-06	2.005849e-06	6.627935e-09	2.131402e+01	4.340611e+02
2.300000e-06	1.910679e-06	6.533732e-09	2.030275e+01	4.277091e+02
2.310000e-06	1.814812e-06	6.424055e-09	1.928408e+01	4.210742e+02
2.320000e-06	1.718369e-06	6.318020e-09	1.825928e+01	4.141433e+02
2.330000e-06	1.621425e-06	6.215947e-09	1.722916e+01	4.069029e+02
2.340000e-06	1.523978e-06	6.103040e-09	1.619369e+01	3.993373e+02
2.350000e-06	1.425990e-06	5.978025e-09	1.515248e+01	3.914280e+02
2.360000e-06	1.327525e-06	5.853473e-09	1.410620e+01	3.831518e+02
2.370000e-06	1.228643e-06	5.726255e-09	1.305549e+01	3.744806e+02
2.380000e-06	1.129388e-06	5.587364e-09	1.200080e+01	3.653803e+02
2.390000e-06	1.029862e-06	5.440380e-09	1.094324e+01	3.558107e+02
2.400000e-06	9.300921e-07	5.286085e-09	9.883100e+00	3.457262e+02
2.410000e-06	8.300287e-07	5.123986e-09	8.819833e+00	3.350766e+02
2.420000e-06	7.296892e-07	4.954317e-09	7.753631e+00	3.238079e+02
2.430000e-06	6.290266e-07	4.776129e-09	6.683997e+00	3.118637e+02
2.440000e-06	5.281098e-07	4.584153e-09	5.611661e+00	2.991868e+02
2.450000e-06	4.270585e-07	4.376889e-09	4.537897e+00	2.857203e+02
2.460000e-06	3.258525e-07	4.160573e-09	3.462488e+00	2.714086e+02
2.470000e-06	2.244828e-07	3.932867e-09	2.385340e+00	2.561984e+02
2.480000e-06	1.229877e-07	3.686530e-09	1.306860e+00	2.400391e+02
2.490000e-06	2.146115e-08	3.422864e-09	2.280448e-01	2.228842e+02
2.500000e-06	-8.006503e-08	3.148835e-09	-8.507659e-01	2.046913e+02
2.510000e-06	-1.815680e-07	2.860071e-09	-1.929330e+00	1.854239e+02
2.520000e-06	-2.829888e-07	2.549434e-09	-3.007021e+00	1.650528e+02
2.530000e-06	-3.842585e-07	2.220854e-09	-4.083106e+00	1.435587e+02
2.540000e-06	-4.853331e-07	1.875997e-09	-5.157118e+00	1.209351e+02
2.550000e-06	-5.861890e-07	1.513437e-09	-6.228807e+00	9.719175e+01
2.560000e-06	-6.867716e-07	1.131813e-09	-7.297591e+00	7.235903e+01
2.570000e-06	-7.870612e-07	7.353736e-10	-8.363262e+00	4.649154e+01
2.580000e-06	-8.870302e-07	3.277261e-10	-9.425526e+00	1.967188e+01
2.590000e-06	-9.867023e-07	-9.360086e-11	-1.048464e+01	-7.986682e+00
2.600000e-06	-1.086125e-06	-5.275519e-10	-1.154109e+01	-3.633890e+01
2.610000e-06	-1.185249e-06	-9.687072e-10	-1.259438e+01	-6.520802e+01
2.620000e-06	-1.283971e-06	-1.413153e-09	-1.364340e+01	-9.438828e+01
2.630000e-06	-1.382198e-06	-1.859092e-09	-1.468715e+01	-1.236497e+02
2.640000e-06	-1.479945e-06	-2.302373e-09	-1.572580e+01	-1.527448e+02
2.650000e-06	-1.577284e-06	-2.740272e-09	-1.676012e+01	-1.814172e+02
2.660000e-06	-1.674254e-06	-3.168770e-09	-1.779051e+01	-2.094116e+02
2.670000e-06	-1.770679e-06	-3.581550e-09	-1.881512e+01	-2.364840e+02
2.680000e-06	-1.866400e-06	-3.977115e-09	-1.983225e+01	-2.624125e+02
2.690000e-06	-1.961422e-06	-4.358476e-09	-2.084194e+01	-2.870060e+02
2.700000e-06	-2.055715e-06	-4.719040e-09	-2.184390e+01	-3.101126e+02
2.710000e-06	-2.149164e-06	-5.048514e-09	-2.283688e+01	-3.316244e+02
2.720000e-06	-2.241618e-06	-5.348781e-09	-2.381929e+01	-3.514807e+02
2.730000e-06	-2.333258e-06	-5.624851e-09	-2.479305e+01	-3.696678e+02
2.740000e-06	-2.424225e-06	-5.876985e-09	-2.575966e+01	-3.862157e+02
2.750000e-06	-2.514333e-06	-6.103949e-09	-2.671714e+01	-4.011933e+02
2.760000e-06	-2.603566e-06	-6.308660e-09	-2.766532e+01	-4.147005e+02
2.770000e-06	-2.691911e-06	-6.495228e-09	-2.860408e+01	-4.268601e+02
2.780000e-06	-2.779300e-06	-6.665525e-09	-2.953266e+01	-4.378087e+02
2.790000e-06	-2.865692e-06	-6.819495e-09	-3.045066e+01	-4.476876e+02
2.800000e-06	-2.950997e-06	-6.956654e-09	-3.135710e+01	-4.566352e+02
2.810000e-06	-3.035164e-06	-7.081356e-09	-3.225146e+01	-4.647804e+02
2.820000e-06	-3.118288e-06	-7.197672e-09	-3.313473e+01	-4.722384e+02
2.830000e-06	-3.200413e-06	-7.303610e-09	-3.400738e+01	-4.791071e+02
2.840000e-06	-3.281506e-06	-7.397147e-09	-3.486907e+01	-4.854674e+02
2.850000e-06	-3.361466e-06	-7.483567e-09	-3.571872e+01	-4.913830e+02
2.860000e-06	-3.440176e-06	-7.566313e-09	-3.655509e+01	-4.969032e+02
2.870000e-06	-3.517462e-06	-7.645349e-09	-3.737633e+01	-5.020651e+02
2.880000e-06	-3.593222e-06	-7.720212e-09	-3.818135e+01	-5.068974e+02
2.890000e-06	-3.667584e-06	-7.790083e-09	-3.897151e+01	-5.114228e+02
2.900000e-06	-3.740672e-06	-7.857425e-09	-3.974814e+01	-5.156612e+02
2.910000e-06	-3.812510e-06	-7.922468e-09	-4.051149e+01	-5.196313e+02
2.920000e-06	-3.882934e-06	-7.982852e-09	-4.125981e+01	-5.233516e+02
2.930000e-06	-3.951830e-06	-8.037462e-09	-4.199190e+01	-5.268412e+02
2.940000e-06	-4.019312e-06	-8.089595e-09	-4.270895e+01	-5.301193e+02
