# Temperatura_=_20.0
# Concentracion g/m^3_=_9000.0
# C_Vs_to_Am_M_A/Vsm_=_65563218390.804596
# pendiente_HvsI_1/m_=_3716.3
# ordenada_HvsI_A/m_=_1297.0
# frecuencia_Hz_=_300870.68573237973

Tiempo_(s)	Campo_(V.s)	Magnetizacion_(V.s)	Campo_(kA/m)	Magnetizacion_(A/m)
0.000000e+00	-5.306511e-06	-8.814881e-09	-5.679622e+01	-5.773323e+02
1.000000e-08	-5.305296e-06	-8.813168e-09	-5.678321e+01	-5.772779e+02
2.000000e-08	-5.302216e-06	-8.814240e-09	-5.675025e+01	-5.771732e+02
3.000000e-08	-5.297495e-06	-8.811571e-09	-5.669972e+01	-5.770165e+02
4.000000e-08	-5.291205e-06	-8.805866e-09	-5.663239e+01	-5.768065e+02
5.000000e-08	-5.283290e-06	-8.801262e-09	-5.654768e+01	-5.765418e+02
6.000000e-08	-5.273411e-06	-8.798077e-09	-5.644194e+01	-5.762211e+02
7.000000e-08	-5.261564e-06	-8.793209e-09	-5.631514e+01	-5.758437e+02
8.000000e-08	-5.247861e-06	-8.783458e-09	-5.616848e+01	-5.754090e+02
9.000000e-08	-5.231969e-06	-8.780172e-09	-5.599838e+01	-5.749167e+02
1.000000e-07	-5.213963e-06	-8.799447e-09	-5.580567e+01	-5.743671e+02
1.100000e-07	-5.194086e-06	-8.804821e-09	-5.559292e+01	-5.737608e+02
1.200000e-07	-5.172308e-06	-8.774635e-09	-5.535983e+01	-5.730987e+02
1.300000e-07	-5.148843e-06	-8.724583e-09	-5.510868e+01	-5.723821e+02
1.400000e-07	-5.123804e-06	-8.684891e-09	-5.484068e+01	-5.716128e+02
1.500000e-07	-5.097157e-06	-8.707446e-09	-5.455548e+01	-5.707926e+02
1.600000e-07	-5.068965e-06	-8.737623e-09	-5.425373e+01	-5.699232e+02
1.700000e-07	-5.039304e-06	-8.689239e-09	-5.393627e+01	-5.690062e+02
1.800000e-07	-5.008019e-06	-8.650245e-09	-5.360142e+01	-5.680428e+02
1.900000e-07	-4.974624e-06	-8.645400e-09	-5.324399e+01	-5.670329e+02
2.000000e-07	-4.939504e-06	-8.647827e-09	-5.286809e+01	-5.659757e+02
2.100000e-07	-4.902982e-06	-8.668927e-09	-5.247720e+01	-5.648685e+02
2.200000e-07	-4.864629e-06	-8.611776e-09	-5.206670e+01	-5.637074e+02
2.300000e-07	-4.824472e-06	-8.544672e-09	-5.163690e+01	-5.624868e+02
2.400000e-07	-4.782480e-06	-8.574018e-09	-5.118746e+01	-5.611997e+02
2.500000e-07	-4.738637e-06	-8.579437e-09	-5.071820e+01	-5.598383e+02
2.600000e-07	-4.693117e-06	-8.532863e-09	-5.023099e+01	-5.583943e+02
2.700000e-07	-4.645811e-06	-8.482189e-09	-4.972467e+01	-5.568600e+02
2.800000e-07	-4.596472e-06	-8.446969e-09	-4.919658e+01	-5.552283e+02
2.900000e-07	-4.545157e-06	-8.461396e-09	-4.864736e+01	-5.534942e+02
3.000000e-07	-4.492111e-06	-8.438225e-09	-4.807960e+01	-5.516545e+02
3.100000e-07	-4.437476e-06	-8.374125e-09	-4.749483e+01	-5.497090e+02
3.200000e-07	-4.381251e-06	-8.341824e-09	-4.689305e+01	-5.476597e+02
3.300000e-07	-4.323258e-06	-8.324000e-09	-4.627235e+01	-5.455109e+02
3.400000e-07	-4.263662e-06	-8.299260e-09	-4.563448e+01	-5.432688e+02
3.500000e-07	-4.202656e-06	-8.258005e-09	-4.498153e+01	-5.409402e+02
3.600000e-07	-4.140209e-06	-8.208740e-09	-4.431315e+01	-5.385323e+02
3.700000e-07	-4.076347e-06	-8.165732e-09	-4.362963e+01	-5.360511e+02
3.800000e-07	-4.010940e-06	-8.149469e-09	-4.292957e+01	-5.335007e+02
3.900000e-07	-3.943926e-06	-8.125247e-09	-4.221231e+01	-5.308831e+02
4.000000e-07	-3.875418e-06	-8.054536e-09	-4.147906e+01	-5.281971e+02
4.100000e-07	-3.805653e-06	-8.003129e-09	-4.073235e+01	-5.254390e+02
4.200000e-07	-3.734796e-06	-7.985433e-09	-3.997396e+01	-5.226025e+02
4.300000e-07	-3.662703e-06	-7.947685e-09	-3.920235e+01	-5.196791e+02
4.400000e-07	-3.588976e-06	-7.881027e-09	-3.841324e+01	-5.166597e+02
4.500000e-07	-3.513558e-06	-7.819315e-09	-3.760603e+01	-5.135345e+02
4.600000e-07	-3.436805e-06	-7.782500e-09	-3.678453e+01	-5.102946e+02
4.700000e-07	-3.358786e-06	-7.739333e-09	-3.594948e+01	-5.069323e+02
4.800000e-07	-3.279305e-06	-7.681747e-09	-3.509879e+01	-5.034414e+02
4.900000e-07	-3.198432e-06	-7.620986e-09	-3.423320e+01	-4.998175e+02
5.000000e-07	-3.116498e-06	-7.562688e-09	-3.335625e+01	-4.960576e+02
5.100000e-07	-3.033623e-06	-7.512945e-09	-3.246923e+01	-4.921595e+02
5.200000e-07	-2.949902e-06	-7.457650e-09	-3.157315e+01	-4.881212e+02
5.300000e-07	-2.865289e-06	-7.389080e-09	-3.066753e+01	-4.839397e+02
5.400000e-07	-2.779653e-06	-7.313771e-09	-2.975096e+01	-4.796107e+02
5.500000e-07	-2.693097e-06	-7.247841e-09	-2.882454e+01	-4.751277e+02
5.600000e-07	-2.605791e-06	-7.186741e-09	-2.789009e+01	-4.704815e+02
5.700000e-07	-2.517574e-06	-7.111259e-09	-2.694589e+01	-4.656610e+02
5.800000e-07	-2.428114e-06	-7.023772e-09	-2.598839e+01	-4.606526e+02
5.900000e-07	-2.337521e-06	-6.940903e-09	-2.501876e+01	-4.554416e+02
6.000000e-07	-2.246185e-06	-6.864034e-09	-2.404118e+01	-4.500125e+02
6.100000e-07	-2.154258e-06	-6.775187e-09	-2.305728e+01	-4.443502e+02
6.200000e-07	-2.061612e-06	-6.675770e-09	-2.206568e+01	-4.384402e+02
6.300000e-07	-1.968149e-06	-6.578143e-09	-2.106533e+01	-4.322697e+02
6.400000e-07	-1.873988e-06	-6.483440e-09	-2.005752e+01	-4.258268e+02
6.500000e-07	-1.779293e-06	-6.382660e-09	-1.904399e+01	-4.191009e+02
6.600000e-07	-1.684117e-06	-6.273753e-09	-1.802530e+01	-4.120813e+02
6.700000e-07	-1.588335e-06	-6.161151e-09	-1.700013e+01	-4.047565e+02
6.800000e-07	-1.491885e-06	-6.044211e-09	-1.596782e+01	-3.971123e+02
6.900000e-07	-1.394771e-06	-5.923553e-09	-1.492840e+01	-3.891309e+02
7.000000e-07	-1.296955e-06	-5.797759e-09	-1.388147e+01	-3.807893e+02
7.100000e-07	-1.198498e-06	-5.663166e-09	-1.282767e+01	-3.720587e+02
7.200000e-07	-1.099565e-06	-5.519971e-09	-1.176877e+01	-3.629035e+02
7.300000e-07	-1.000320e-06	-5.373097e-09	-1.070654e+01	-3.532817e+02
7.400000e-07	-9.008592e-07	-5.217158e-09	-9.642003e+00	-3.431452e+02
7.500000e-07	-8.012126e-07	-5.049599e-09	-8.575474e+00	-3.324408e+02
7.600000e-07	-7.013428e-07	-4.874855e-09	-7.506556e+00	-3.211118e+02
7.700000e-07	-6.012014e-07	-4.689306e-09	-6.434731e+00	-3.090991e+02
7.800000e-07	-5.008373e-07	-4.491277e-09	-5.360521e+00	-2.963430e+02
7.900000e-07	-4.003103e-07	-4.282627e-09	-4.284569e+00	-2.827846e+02
8.000000e-07	-2.996389e-07	-4.065018e-09	-3.207070e+00	-2.683671e+02
8.100000e-07	-1.988605e-07	-3.835364e-09	-2.128428e+00	-2.530365e+02
8.200000e-07	-9.795990e-08	-3.586979e-09	-1.048477e+00	-2.367430e+02
8.300000e-07	3.004207e-09	-3.319363e-09	3.215439e-02	-2.194411e+02
8.400000e-07	1.039127e-07	-3.036896e-09	1.112190e+00	-2.010911e+02
8.500000e-07	2.047119e-07	-2.741673e-09	2.191056e+00	-1.816596e+02
8.600000e-07	3.054377e-07	-2.428497e-09	3.269136e+00	-1.611216e+02
8.700000e-07	4.060898e-07	-2.094326e-09	4.346428e+00	-1.394626e+02
8.800000e-07	5.065589e-07	-1.742964e-09	5.421761e+00	-1.166811e+02
8.900000e-07	6.068569e-07	-1.377342e-09	6.495262e+00	-9.279236e+01
9.000000e-07	7.069700e-07	-9.984522e-10	7.566784e+00	-6.783168e+01
9.100000e-07	8.068349e-07	-6.027626e-10	8.635651e+00	-4.185831e+01
9.200000e-07	9.065112e-07	-1.903515e-10	9.702497e+00	-1.495869e+01
9.300000e-07	1.005994e-06	2.322480e-10	1.076727e+01	1.275115e+01
9.400000e-07	1.105239e-06	6.625354e-10	1.182950e+01	4.112444e+01
9.500000e-07	1.204146e-06	1.098240e-09	1.288812e+01	6.998422e+01
9.600000e-07	1.302586e-06	1.541239e-09	1.394173e+01	9.912589e+01
9.700000e-07	1.400332e-06	1.989094e-09	1.498792e+01	1.283218e+02
9.800000e-07	1.497244e-06	2.429860e-09	1.602518e+01	1.573280e+02
9.900000e-07	1.593498e-06	2.860735e-09	1.705540e+01	1.858923e+02
1.000000e-06	1.689228e-06	3.285552e-09	1.808000e+01	2.137640e+02
1.010000e-06	1.784413e-06	3.699951e-09	1.909879e+01	2.407041e+02
1.020000e-06	1.878968e-06	4.095662e-09	2.011082e+01	2.664951e+02
1.030000e-06	1.972855e-06	4.469778e-09	2.111570e+01	2.909502e+02
1.040000e-06	2.066110e-06	4.820718e-09	2.211382e+01	3.139208e+02
1.050000e-06	2.158662e-06	5.147621e-09	2.310442e+01	3.353017e+02
1.060000e-06	2.250518e-06	5.447201e-09	2.408756e+01	3.550340e+02
1.070000e-06	2.341779e-06	5.716978e-09	2.506434e+01	3.731047e+02
1.080000e-06	2.432309e-06	5.959736e-09	2.603330e+01	3.895442e+02
1.090000e-06	2.521787e-06	6.182048e-09	2.699099e+01	4.044211e+02
1.100000e-06	2.610130e-06	6.386549e-09	2.793653e+01	4.178348e+02
1.110000e-06	2.697478e-06	6.569592e-09	2.887143e+01	4.299076e+02
1.120000e-06	2.783922e-06	6.731206e-09	2.979665e+01	4.407753e+02
1.130000e-06	2.869442e-06	6.879807e-09	3.071197e+01	4.505788e+02
1.140000e-06	2.953995e-06	7.018475e-09	3.161696e+01	4.594562e+02
1.150000e-06	3.037682e-06	7.145811e-09	3.251268e+01	4.675365e+02
1.160000e-06	3.120510e-06	7.260612e-09	3.339919e+01	4.749347e+02
1.170000e-06	3.202204e-06	7.364153e-09	3.427357e+01	4.817490e+02
1.180000e-06	3.282664e-06	7.460377e-09	3.513474e+01	4.880601e+02
1.190000e-06	3.361906e-06	7.550434e-09	3.598288e+01	4.939316e+02
1.200000e-06	3.439859e-06	7.633029e-09	3.681722e+01	4.994122e+02
1.210000e-06	3.516600e-06	7.707768e-09	3.763859e+01	5.045384e+02
1.220000e-06	3.592148e-06	7.776927e-09	3.844719e+01	5.093380e+02
1.230000e-06	3.666293e-06	7.843185e-09	3.924077e+01	5.138328e+02
1.240000e-06	3.738832e-06	7.906094e-09	4.001717e+01	5.180416e+02
1.250000e-06	3.809901e-06	7.964043e-09	4.077782e+01	5.219824e+02
1.260000e-06	3.879686e-06	8.018411e-09	4.152474e+01	5.256734e+02
1.270000e-06	3.948180e-06	8.070165e-09	4.225784e+01	5.291339e+02
1.280000e-06	4.015428e-06	8.118436e-09	4.297761e+01	5.323837e+02
1.290000e-06	4.081206e-06	8.162978e-09	4.368163e+01	5.354429e+02
1.300000e-06	4.145308e-06	8.205302e-09	4.436772e+01	5.383306e+02
1.310000e-06	4.207958e-06	8.243792e-09	4.503827e+01	5.410643e+02
1.320000e-06	4.269218e-06	8.279760e-09	4.569395e+01	5.436589e+02
1.330000e-06	4.329120e-06	8.314618e-09	4.633509e+01	5.461261e+02
1.340000e-06	4.387652e-06	8.348953e-09	4.696156e+01	5.484747e+02
1.350000e-06	4.444457e-06	8.381203e-09	4.756955e+01	5.507103e+02
1.360000e-06	4.499522e-06	8.410791e-09	4.815891e+01	5.528365e+02
1.370000e-06	4.553051e-06	8.440126e-09	4.873185e+01	5.548551e+02
1.380000e-06	4.604905e-06	8.468653e-09	4.928684e+01	5.567675e+02
1.390000e-06	4.654761e-06	8.494982e-09	4.982046e+01	5.585749e+02
1.400000e-06	4.702594e-06	8.518259e-09	5.033243e+01	5.602797e+02
1.410000e-06	4.748730e-06	8.541716e-09	5.082622e+01	5.618849e+02
1.420000e-06	4.793340e-06	8.565590e-09	5.130369e+01	5.633952e+02
1.430000e-06	4.836428e-06	8.587216e-09	5.176487e+01	5.648160e+02
1.440000e-06	4.877721e-06	8.606776e-09	5.220683e+01	5.661532e+02
1.450000e-06	4.917152e-06	8.625698e-09	5.262887e+01	5.674131e+02
1.460000e-06	4.954889e-06	8.645411e-09	5.303277e+01	5.686011e+02
1.470000e-06	4.991036e-06	8.663768e-09	5.341965e+01	5.697221e+02
1.480000e-06	5.025494e-06	8.679633e-09	5.378846e+01	5.707794e+02
1.490000e-06	5.057977e-06	8.694460e-09	5.413613e+01	5.717749e+02
1.500000e-06	5.088653e-06	8.708473e-09	5.446446e+01	5.727094e+02
1.510000e-06	5.117699e-06	8.721832e-09	5.477534e+01	5.735825e+02
1.520000e-06	5.145094e-06	8.733770e-09	5.506855e+01	5.743930e+02
1.530000e-06	5.170587e-06	8.744194e-09	5.534141e+01	5.751396e+02
1.540000e-06	5.194016e-06	8.755580e-09	5.559218e+01	5.758211e+02
1.550000e-06	5.215622e-06	8.766640e-09	5.582342e+01	5.764369e+02
1.560000e-06	5.235618e-06	8.776535e-09	5.603744e+01	5.769873e+02
1.570000e-06	5.253906e-06	8.784777e-09	5.623318e+01	5.774733e+02
1.580000e-06	5.270177e-06	8.792273e-09	5.640733e+01	5.778968e+02
1.590000e-06	5.284469e-06	8.799159e-09	5.656030e+01	5.782602e+02
1.600000e-06	5.296855e-06	8.804180e-09	5.669287e+01	5.785664e+02
1.610000e-06	5.307087e-06	8.808181e-09	5.680239e+01	5.788182e+02
1.620000e-06	5.315148e-06	8.811612e-09	5.688866e+01	5.790180e+02
1.630000e-06	5.321316e-06	8.815760e-09	5.695467e+01	5.791680e+02
1.640000e-06	5.325805e-06	8.818873e-09	5.700272e+01	5.792694e+02
1.650000e-06	5.328598e-06	8.821571e-09	5.703262e+01	5.793227e+02
1.660000e-06	5.329428e-06	8.825352e-09	5.704150e+01	5.793278e+02
1.670000e-06	5.328313e-06	8.827247e-09	5.702957e+01	5.792840e+02
1.680000e-06	5.325536e-06	8.824228e-09	5.699985e+01	5.791901e+02
1.690000e-06	5.321196e-06	8.819965e-09	5.695339e+01	5.790446e+02
1.700000e-06	5.315023e-06	8.817068e-09	5.688732e+01	5.788461e+02
1.710000e-06	5.306928e-06	8.814450e-09	5.680069e+01	5.785931e+02
1.720000e-06	5.297220e-06	8.809991e-09	5.669678e+01	5.782845e+02
1.730000e-06	5.285955e-06	8.804060e-09	5.657620e+01	5.779192e+02
1.740000e-06	5.272929e-06	8.801751e-09	5.643678e+01	5.774967e+02
1.750000e-06	5.257854e-06	8.777307e-09	5.627544e+01	5.770167e+02
1.760000e-06	5.240439e-06	8.739148e-09	5.608905e+01	5.764793e+02
1.770000e-06	5.220517e-06	8.734112e-09	5.587581e+01	5.758850e+02
1.780000e-06	5.198122e-06	8.757282e-09	5.563611e+01	5.752347e+02
1.790000e-06	5.174078e-06	8.794798e-09	5.537877e+01	5.745296e+02
1.800000e-06	5.149375e-06	8.772903e-09	5.511437e+01	5.737714e+02
1.810000e-06	5.123512e-06	8.689042e-09	5.483756e+01	5.729618e+02
1.820000e-06	5.095557e-06	8.695460e-09	5.453835e+01	5.721028e+02
1.830000e-06	5.065952e-06	8.718794e-09	5.422148e+01	5.711958e+02
1.840000e-06	5.034856e-06	8.698759e-09	5.388866e+01	5.702422e+02
1.850000e-06	5.001531e-06	8.698500e-09	5.353199e+01	5.692423e+02
1.860000e-06	4.966295e-06	8.634267e-09	5.315484e+01	5.681953e+02
1.870000e-06	4.929588e-06	8.597286e-09	5.276197e+01	5.670990e+02
1.880000e-06	4.890990e-06	8.647018e-09	5.234884e+01	5.659499e+02
1.890000e-06	4.850518e-06	8.599601e-09	5.191567e+01	5.647425e+02
1.900000e-06	4.808303e-06	8.549853e-09	5.146384e+01	5.634702e+02
1.910000e-06	4.764510e-06	8.566602e-09	5.099512e+01	5.621253e+02
1.920000e-06	4.719282e-06	8.553848e-09	5.051104e+01	5.606997e+02
1.930000e-06	4.672185e-06	8.556773e-09	5.000696e+01	5.591853e+02
1.940000e-06	4.623302e-06	8.491715e-09	4.948375e+01	5.575749e+02
1.950000e-06	4.572854e-06	8.446606e-09	4.894380e+01	5.558630e+02
1.960000e-06	4.520699e-06	8.464689e-09	4.838558e+01	5.540460e+02
1.970000e-06	4.466526e-06	8.415430e-09	4.780576e+01	5.521230e+02
1.980000e-06	4.410503e-06	8.393609e-09	4.720614e+01	5.500956e+02
1.990000e-06	4.353020e-06	8.345210e-09	4.659090e+01	5.479676e+02
2.000000e-06	4.293934e-06	8.296910e-09	4.595849e+01	5.457448e+02
2.010000e-06	4.233528e-06	8.299472e-09	4.531196e+01	5.434341e+02
2.020000e-06	4.171777e-06	8.255372e-09	4.465103e+01	5.410426e+02
2.030000e-06	4.108192e-06	8.209385e-09	4.397047e+01	5.385766e+02
2.040000e-06	4.042985e-06	8.145569e-09	4.327255e+01	5.360407e+02
2.050000e-06	3.976383e-06	8.133295e-09	4.255970e+01	5.334374e+02
2.060000e-06	3.908487e-06	8.117954e-09	4.183300e+01	5.307663e+02
2.070000e-06	3.839183e-06	8.038369e-09	4.109124e+01	5.280240e+02
2.080000e-06	3.768190e-06	7.996384e-09	4.033138e+01	5.252048e+02
2.090000e-06	3.695794e-06	7.951818e-09	3.955652e+01	5.223008e+02
2.100000e-06	3.622184e-06	7.929178e-09	3.876867e+01	5.193027e+02
2.110000e-06	3.547230e-06	7.877614e-09	3.796643e+01	5.162009e+02
2.120000e-06	3.470882e-06	7.810220e-09	3.714927e+01	5.129863e+02
2.130000e-06	3.393102e-06	7.768710e-09	3.631678e+01	5.096507e+02
2.140000e-06	3.313877e-06	7.713627e-09	3.546882e+01	5.061877e+02
2.150000e-06	3.233396e-06	7.673613e-09	3.460742e+01	5.025925e+02
2.160000e-06	3.151902e-06	7.607286e-09	3.373519e+01	4.988619e+02
2.170000e-06	3.069308e-06	7.540031e-09	3.285117e+01	4.949935e+02
2.180000e-06	2.985676e-06	7.474751e-09	3.195604e+01	4.909854e+02
2.190000e-06	2.901165e-06	7.416298e-09	3.105152e+01	4.868348e+02
2.200000e-06	2.815632e-06	7.361618e-09	3.013605e+01	4.825378e+02
2.210000e-06	2.728835e-06	7.281282e-09	2.920704e+01	4.780884e+02
2.220000e-06	2.640854e-06	7.212401e-09	2.826538e+01	4.734780e+02
2.230000e-06	2.552006e-06	7.147189e-09	2.731442e+01	4.686958e+02
2.240000e-06	2.462388e-06	7.079682e-09	2.635523e+01	4.637289e+02
2.250000e-06	2.372011e-06	6.996410e-09	2.538792e+01	4.585625e+02
2.260000e-06	2.280900e-06	6.912222e-09	2.441275e+01	4.531814e+02
2.270000e-06	2.189091e-06	6.830754e-09	2.343010e+01	4.475702e+02
2.280000e-06	2.096613e-06	6.740036e-09	2.244030e+01	4.417144e+02
2.290000e-06	2.003473e-06	6.649040e-09	2.144341e+01	4.356006e+02
2.300000e-06	1.909511e-06	6.553429e-09	2.043773e+01	4.292170e+02
2.310000e-06	1.814553e-06	6.452880e-09	1.942138e+01	4.225526e+02
2.320000e-06	1.718772e-06	6.344024e-09	1.839622e+01	4.155968e+02
2.330000e-06	1.622401e-06	6.236433e-09	1.736475e+01	4.083384e+02
2.340000e-06	1.525603e-06	6.126913e-09	1.632871e+01	4.007639e+02
2.350000e-06	1.428403e-06	6.007909e-09	1.528837e+01	3.928564e+02
2.360000e-06	1.330726e-06	5.880460e-09	1.424291e+01	3.845942e+02
2.370000e-06	1.232621e-06	5.749327e-09	1.319289e+01	3.759496e+02
2.380000e-06	1.134132e-06	5.613651e-09	1.213875e+01	3.668887e+02
2.390000e-06	1.035260e-06	5.468729e-09	1.108051e+01	3.573706e+02
2.400000e-06	9.360822e-07	5.315931e-09	1.001900e+01	3.473486e+02
2.410000e-06	8.365910e-07	5.152829e-09	8.954133e+00	3.367706e+02
2.420000e-06	7.367901e-07	4.981068e-09	7.885952e+00	3.255803e+02
2.430000e-06	6.367521e-07	4.803116e-09	6.815233e+00	3.137190e+02
2.440000e-06	5.365551e-07	4.616574e-09	5.742813e+00	3.011272e+02
2.450000e-06	4.362235e-07	4.414505e-09	4.668952e+00	2.877455e+02
2.460000e-06	3.357108e-07	4.195991e-09	3.593153e+00	2.735167e+02
2.470000e-06	2.350500e-07	3.965359e-09	2.515768e+00	2.583861e+02
2.480000e-06	1.343634e-07	3.724887e-09	1.438107e+00	2.423028e+02
2.490000e-06	3.369953e-08	3.468134e-09	3.606901e-01	2.252205e+02
2.500000e-06	-6.700123e-08	3.191958e-09	-7.171221e-01	2.070980e+02
2.510000e-06	-1.676991e-07	2.899295e-09	-1.794903e+00	1.879006e+02
2.520000e-06	-2.683358e-07	2.590843e-09	-2.872030e+00	1.676013e+02
2.530000e-06	-3.688647e-07	2.267679e-09	-3.948003e+00	1.461831e+02
2.540000e-06	-4.692717e-07	1.923203e-09	-5.022670e+00	1.236414e+02
2.550000e-06	-5.694870e-07	1.557439e-09	-6.095287e+00	9.998763e+01
2.560000e-06	-6.694857e-07	1.177360e-09	-7.165585e+00	7.525246e+01
2.570000e-06	-7.692583e-07	7.864857e-10	-8.233464e+00	4.948973e+01
2.580000e-06	-8.687053e-07	3.826408e-10	-9.297857e+00	2.277979e+01
2.590000e-06	-9.678058e-07	-3.853779e-11	-1.035854e+01	-4.767800e+00
2.600000e-06	-1.066597e-06	-4.737607e-10	-1.141592e+01	-3.301288e+01
2.610000e-06	-1.165099e-06	-9.131095e-10	-1.247019e+01	-6.178482e+01
2.620000e-06	-1.263202e-06	-1.353178e-09	-1.352020e+01	-9.088461e+01
2.630000e-06	-1.360781e-06	-1.797569e-09	-1.456460e+01	-1.200891e+02
2.640000e-06	-1.457909e-06	-2.243841e-09	-1.560417e+01	-1.491571e+02
2.650000e-06	-1.554708e-06	-2.683935e-09	-1.664022e+01	-1.778374e+02
2.660000e-06	-1.651177e-06	-3.109353e-09	-1.767274e+01	-2.058783e+02
2.670000e-06	-1.747137e-06	-3.521015e-09	-1.869982e+01	-2.330373e+02
2.680000e-06	-1.842300e-06	-3.920317e-09	-1.971836e+01	-2.590915e+02
2.690000e-06	-1.936561e-06	-4.305040e-09	-2.072724e+01	-2.838468e+02
2.700000e-06	-2.030003e-06	-4.668183e-09	-2.172736e+01	-3.071460e+02
2.710000e-06	-2.122699e-06	-5.000499e-09	-2.271950e+01	-3.288742e+02
2.720000e-06	-2.214637e-06	-5.305317e-09	-2.370353e+01	-3.489624e+02
2.730000e-06	-2.305806e-06	-5.587400e-09	-2.467932e+01	-3.673881e+02
2.740000e-06	-2.396174e-06	-5.843987e-09	-2.564653e+01	-3.841726e+02
2.750000e-06	-2.485700e-06	-6.074762e-09	-2.660475e+01	-3.993770e+02
2.760000e-06	-2.574491e-06	-6.283595e-09	-2.755508e+01	-4.130947e+02
2.770000e-06	-2.662517e-06	-6.473185e-09	-2.849723e+01	-4.254438e+02
2.780000e-06	-2.749488e-06	-6.644836e-09	-2.942810e+01	-4.365579e+02
2.790000e-06	-2.835281e-06	-6.800043e-09	-3.034635e+01	-4.465777e+02
2.800000e-06	-2.919989e-06	-6.939953e-09	-3.125299e+01	-4.556424e+02
2.810000e-06	-3.003724e-06	-7.066629e-09	-3.214922e+01	-4.638834e+02
2.820000e-06	-3.086493e-06	-7.183014e-09	-3.303510e+01	-4.714189e+02
2.830000e-06	-3.168186e-06	-7.289094e-09	-3.390948e+01	-4.783510e+02
2.840000e-06	-3.248893e-06	-7.385300e-09	-3.477329e+01	-4.847641e+02
2.850000e-06	-3.328467e-06	-7.475205e-09	-3.562498e+01	-4.907253e+02
2.860000e-06	-3.406636e-06	-7.558880e-09	-3.646163e+01	-4.962862e+02
2.870000e-06	-3.483391e-06	-7.636817e-09	-3.728315e+01	-5.014859e+02
2.880000e-06	-3.558730e-06	-7.712070e-09	-3.808951e+01	-5.063536e+02
2.890000e-06	-3.632712e-06	-7.784357e-09	-3.888135e+01	-5.109121e+02
2.900000e-06	-3.705469e-06	-7.852230e-09	-3.966008e+01	-5.151807e+02
2.910000e-06	-3.776949e-06	-7.914851e-09	-4.042514e+01	-5.191775e+02
2.920000e-06	-3.846911e-06	-7.973619e-09	-4.117395e+01	-5.229205e+02
2.930000e-06	-3.915429e-06	-8.030272e-09	-4.190730e+01	-5.264288e+02
2.940000e-06	-3.982602e-06	-8.083908e-09	-4.262626e+01	-5.297221e+02
