# Temperatura_=_20.0
# Concentracion g/m^3_=_9000.0
# C_Vs_to_Am_M_A/Vsm_=_65563218390.804596
# pendiente_HvsI_1/m_=_3716.3
# ordenada_HvsI_A/m_=_1297.0
# frecuencia_Hz_=_212876.40341648817

Tiempo_(s)	Campo_(V.s)	Magnetizacion_(V.s)	Campo_(kA/m)	Magnetizacion_(A/m)
0.000000e+00	-3.952911e-06	-3.556619e-09	-2.913488e+01	-2.351008e+02
1.000000e-08	-3.952786e-06	-3.557957e-09	-2.913396e+01	-2.351129e+02
2.000000e-08	-3.951912e-06	-3.560167e-09	-2.912751e+01	-2.351046e+02
3.000000e-08	-3.950116e-06	-3.560776e-09	-2.911428e+01	-2.350770e+02
4.000000e-08	-3.947394e-06	-3.557489e-09	-2.909422e+01	-2.350316e+02
5.000000e-08	-3.944017e-06	-3.553037e-09	-2.906933e+01	-2.349699e+02
6.000000e-08	-3.940172e-06	-3.544777e-09	-2.904099e+01	-2.348937e+02
7.000000e-08	-3.935726e-06	-3.540278e-09	-2.900822e+01	-2.348049e+02
8.000000e-08	-3.930599e-06	-3.575336e-09	-2.897043e+01	-2.347050e+02
9.000000e-08	-3.924609e-06	-3.622453e-09	-2.892628e+01	-2.345954e+02
1.000000e-07	-3.917701e-06	-3.585082e-09	-2.887537e+01	-2.344768e+02
1.100000e-07	-3.910253e-06	-3.476905e-09	-2.882047e+01	-2.343497e+02
1.200000e-07	-3.902494e-06	-3.466531e-09	-2.876328e+01	-2.342138e+02
1.300000e-07	-3.894158e-06	-3.553522e-09	-2.870184e+01	-2.340682e+02
1.400000e-07	-3.884885e-06	-3.578980e-09	-2.863350e+01	-2.339114e+02
1.500000e-07	-3.874838e-06	-3.582002e-09	-2.855945e+01	-2.337415e+02
1.600000e-07	-3.864013e-06	-3.530761e-09	-2.847966e+01	-2.335561e+02
1.700000e-07	-3.852031e-06	-3.536198e-09	-2.839135e+01	-2.333524e+02
1.800000e-07	-3.839268e-06	-3.571525e-09	-2.829727e+01	-2.331279e+02
1.900000e-07	-3.826155e-06	-3.635817e-09	-2.820063e+01	-2.328799e+02
2.000000e-07	-3.812176e-06	-3.549772e-09	-2.809760e+01	-2.326060e+02
2.100000e-07	-3.796892e-06	-3.464300e-09	-2.798494e+01	-2.323045e+02
2.200000e-07	-3.780782e-06	-3.569147e-09	-2.786621e+01	-2.319740e+02
2.300000e-07	-3.764256e-06	-3.576666e-09	-2.774440e+01	-2.316142e+02
2.400000e-07	-3.747095e-06	-3.522574e-09	-2.761792e+01	-2.312251e+02
2.500000e-07	-3.729255e-06	-3.478214e-09	-2.748642e+01	-2.308079e+02
2.600000e-07	-3.710891e-06	-3.557674e-09	-2.735107e+01	-2.303643e+02
2.700000e-07	-3.691972e-06	-3.566568e-09	-2.721163e+01	-2.298969e+02
2.800000e-07	-3.672466e-06	-3.563269e-09	-2.706786e+01	-2.294084e+02
2.900000e-07	-3.652395e-06	-3.493748e-09	-2.691993e+01	-2.289020e+02
3.000000e-07	-3.631714e-06	-3.436449e-09	-2.676750e+01	-2.283812e+02
3.100000e-07	-3.610396e-06	-3.508936e-09	-2.661038e+01	-2.278490e+02
3.200000e-07	-3.588423e-06	-3.524227e-09	-2.644842e+01	-2.273083e+02
3.300000e-07	-3.565869e-06	-3.490479e-09	-2.628220e+01	-2.267614e+02
3.400000e-07	-3.542739e-06	-3.438763e-09	-2.611172e+01	-2.262097e+02
3.500000e-07	-3.518995e-06	-3.432788e-09	-2.593671e+01	-2.256541e+02
3.600000e-07	-3.494706e-06	-3.486591e-09	-2.575769e+01	-2.250943e+02
3.700000e-07	-3.469806e-06	-3.495540e-09	-2.557416e+01	-2.245293e+02
3.800000e-07	-3.443933e-06	-3.410562e-09	-2.538346e+01	-2.239570e+02
3.900000e-07	-3.416985e-06	-3.395445e-09	-2.518484e+01	-2.233748e+02
4.000000e-07	-3.389500e-06	-3.452693e-09	-2.498227e+01	-2.227794e+02
4.100000e-07	-3.361758e-06	-3.455542e-09	-2.477779e+01	-2.221671e+02
4.200000e-07	-3.333457e-06	-3.386737e-09	-2.456920e+01	-2.215341e+02
4.300000e-07	-3.304448e-06	-3.366734e-09	-2.435540e+01	-2.208766e+02
4.400000e-07	-3.274965e-06	-3.393068e-09	-2.413809e+01	-2.201910e+02
4.500000e-07	-3.245047e-06	-3.394807e-09	-2.391758e+01	-2.194744e+02
4.600000e-07	-3.214549e-06	-3.372579e-09	-2.369279e+01	-2.187245e+02
4.700000e-07	-3.183521e-06	-3.324376e-09	-2.346410e+01	-2.179396e+02
4.800000e-07	-3.152083e-06	-3.316359e-09	-2.323239e+01	-2.171192e+02
4.900000e-07	-3.120277e-06	-3.330669e-09	-2.299796e+01	-2.162634e+02
5.000000e-07	-3.088022e-06	-3.319734e-09	-2.276023e+01	-2.153732e+02
5.100000e-07	-3.055086e-06	-3.284946e-09	-2.251747e+01	-2.144502e+02
5.200000e-07	-3.021175e-06	-3.250916e-09	-2.226754e+01	-2.134967e+02
5.300000e-07	-2.986424e-06	-3.259283e-09	-2.201140e+01	-2.125151e+02
5.400000e-07	-2.951214e-06	-3.268027e-09	-2.175188e+01	-2.115083e+02
5.500000e-07	-2.915653e-06	-3.238759e-09	-2.148978e+01	-2.104788e+02
5.600000e-07	-2.879743e-06	-3.197539e-09	-2.122511e+01	-2.094289e+02
5.700000e-07	-2.843427e-06	-3.178701e-09	-2.095745e+01	-2.083604e+02
5.800000e-07	-2.806534e-06	-3.191575e-09	-2.068552e+01	-2.072746e+02
5.900000e-07	-2.769066e-06	-3.170265e-09	-2.040937e+01	-2.061720e+02
6.000000e-07	-2.731138e-06	-3.127532e-09	-2.012982e+01	-2.050523e+02
6.100000e-07	-2.692748e-06	-3.115347e-09	-1.984686e+01	-2.039144e+02
6.200000e-07	-2.653932e-06	-3.106414e-09	-1.956077e+01	-2.027567e+02
6.300000e-07	-2.614754e-06	-3.093354e-09	-1.927201e+01	-2.015768e+02
6.400000e-07	-2.575225e-06	-3.071001e-09	-1.898066e+01	-2.003719e+02
6.500000e-07	-2.535386e-06	-3.047864e-09	-1.868703e+01	-1.991391e+02
6.600000e-07	-2.495169e-06	-3.025770e-09	-1.839061e+01	-1.978754e+02
6.700000e-07	-2.454267e-06	-3.006230e-09	-1.808914e+01	-1.965777e+02
6.800000e-07	-2.412575e-06	-2.994663e-09	-1.778185e+01	-1.952434e+02
6.900000e-07	-2.370200e-06	-2.960090e-09	-1.746953e+01	-1.938704e+02
7.000000e-07	-2.327243e-06	-2.928656e-09	-1.715292e+01	-1.924570e+02
7.100000e-07	-2.283895e-06	-2.917535e-09	-1.683342e+01	-1.910021e+02
7.200000e-07	-2.240289e-06	-2.898440e-09	-1.651202e+01	-1.895054e+02
7.300000e-07	-2.196414e-06	-2.871683e-09	-1.618864e+01	-1.879669e+02
7.400000e-07	-2.152193e-06	-2.842513e-09	-1.586271e+01	-1.863871e+02
7.500000e-07	-2.107539e-06	-2.824066e-09	-1.553359e+01	-1.847671e+02
7.600000e-07	-2.062493e-06	-2.800083e-09	-1.520158e+01	-1.831079e+02
7.700000e-07	-2.017114e-06	-2.765895e-09	-1.486711e+01	-1.814106e+02
7.800000e-07	-1.971434e-06	-2.740486e-09	-1.453043e+01	-1.796761e+02
7.900000e-07	-1.925472e-06	-2.713442e-09	-1.419167e+01	-1.779050e+02
8.000000e-07	-1.879066e-06	-2.683616e-09	-1.384963e+01	-1.760973e+02
8.100000e-07	-1.832224e-06	-2.651106e-09	-1.350438e+01	-1.742525e+02
8.200000e-07	-1.785134e-06	-2.621423e-09	-1.315731e+01	-1.723694e+02
8.300000e-07	-1.737849e-06	-2.595425e-09	-1.280880e+01	-1.704461e+02
8.400000e-07	-1.690334e-06	-2.562313e-09	-1.245858e+01	-1.684800e+02
8.500000e-07	-1.642620e-06	-2.531725e-09	-1.210691e+01	-1.664682e+02
8.600000e-07	-1.594729e-06	-2.499512e-09	-1.175393e+01	-1.644069e+02
8.700000e-07	-1.546548e-06	-2.465005e-09	-1.139881e+01	-1.622923e+02
8.800000e-07	-1.497929e-06	-2.436352e-09	-1.104046e+01	-1.601203e+02
8.900000e-07	-1.448921e-06	-2.404044e-09	-1.067926e+01	-1.578870e+02
9.000000e-07	-1.399529e-06	-2.367112e-09	-1.031521e+01	-1.555883e+02
9.100000e-07	-1.349686e-06	-2.327597e-09	-9.947844e+00	-1.532208e+02
9.200000e-07	-1.299420e-06	-2.293411e-09	-9.577361e+00	-1.507811e+02
9.300000e-07	-1.248756e-06	-2.259495e-09	-9.203941e+00	-1.482665e+02
9.400000e-07	-1.197816e-06	-2.213470e-09	-8.828490e+00	-1.456746e+02
9.500000e-07	-1.146644e-06	-2.167627e-09	-8.451327e+00	-1.430036e+02
9.600000e-07	-1.095254e-06	-2.127569e-09	-8.072554e+00	-1.402518e+02
9.700000e-07	-1.043720e-06	-2.088372e-09	-7.692725e+00	-1.374178e+02
9.800000e-07	-9.919872e-07	-2.042647e-09	-7.311429e+00	-1.345002e+02
9.900000e-07	-9.400669e-07	-1.992773e-09	-6.928751e+00	-1.314976e+02
1.000000e-06	-8.879513e-07	-1.949640e-09	-6.544634e+00	-1.284081e+02
1.010000e-06	-8.356116e-07	-1.904085e-09	-6.158864e+00	-1.252294e+02
1.020000e-06	-7.831800e-07	-1.854304e-09	-5.772419e+00	-1.219588e+02
1.030000e-06	-7.306863e-07	-1.803079e-09	-5.385514e+00	-1.185926e+02
1.040000e-06	-6.780263e-07	-1.750434e-09	-4.997384e+00	-1.151264e+02
1.050000e-06	-6.251158e-07	-1.697125e-09	-4.607408e+00	-1.115553e+02
1.060000e-06	-5.720156e-07	-1.639652e-09	-4.216034e+00	-1.078735e+02
1.070000e-06	-5.188256e-07	-1.581143e-09	-3.823998e+00	-1.040747e+02
1.080000e-06	-4.655971e-07	-1.518081e-09	-3.431678e+00	-1.001522e+02
1.090000e-06	-4.123427e-07	-1.452367e-09	-3.039167e+00	-9.609922e+01
1.100000e-06	-3.590733e-07	-1.391770e-09	-2.646545e+00	-9.190915e+01
1.110000e-06	-3.057358e-07	-1.328995e-09	-2.253421e+00	-8.757574e+01
1.120000e-06	-2.523142e-07	-1.260604e-09	-1.859679e+00	-8.309348e+01
1.130000e-06	-1.988643e-07	-1.188436e-09	-1.465727e+00	-7.845788e+01
1.140000e-06	-1.454358e-07	-1.115153e-09	-1.071933e+00	-7.366574e+01
1.150000e-06	-9.196828e-08	-1.040337e-09	-6.778510e-01	-6.871537e+01
1.160000e-06	-3.841741e-08	-9.593667e-10	-2.831551e-01	-6.360678e+01
1.170000e-06	1.508589e-08	-8.782159e-10	1.111904e-01	-5.834183e+01
1.180000e-06	6.851090e-08	-7.936393e-10	5.049587e-01	-5.292425e+01
1.190000e-06	1.219238e-07	-7.052670e-10	8.986377e-01	-4.735971e+01
1.200000e-06	1.753669e-07	-6.195761e-10	1.292540e+00	-4.165571e+01
1.210000e-06	2.287916e-07	-5.323583e-10	1.686306e+00	-3.582151e+01
1.220000e-06	2.821780e-07	-4.446624e-10	2.079789e+00	-2.986793e+01
1.230000e-06	3.355086e-07	-3.503279e-10	2.472862e+00	-2.380724e+01
1.240000e-06	3.887312e-07	-2.529998e-10	2.865138e+00	-1.765285e+01
1.250000e-06	4.418518e-07	-1.583214e-10	3.256663e+00	-1.141915e+01
1.260000e-06	4.948017e-07	-6.086498e-11	3.646930e+00	-5.121264e+00
1.270000e-06	5.476178e-07	3.774277e-11	4.036210e+00	1.225206e+00
1.280000e-06	6.003876e-07	1.376711e-10	4.425149e+00	7.604345e+00
1.290000e-06	6.530656e-07	2.348376e-10	4.813411e+00	1.400014e+01
1.300000e-06	7.056038e-07	3.322620e-10	5.200644e+00	2.039662e+01
1.310000e-06	7.579823e-07	4.289274e-10	5.586699e+00	2.677802e+01
1.320000e-06	8.102404e-07	5.224146e-10	5.971867e+00	3.312890e+01
1.330000e-06	8.623768e-07	6.201138e-10	6.356138e+00	3.943421e+01
1.340000e-06	9.143408e-07	7.180375e-10	6.739137e+00	4.567940e+01
1.350000e-06	9.661283e-07	8.118059e-10	7.120836e+00	5.185050e+01
1.360000e-06	1.017756e-06	9.047154e-10	7.501359e+00	5.793417e+01
1.370000e-06	1.069187e-06	9.990895e-10	7.880430e+00	6.391780e+01
1.380000e-06	1.120419e-06	1.091128e-09	8.258037e+00	6.978955e+01
1.390000e-06	1.171492e-06	1.176417e-09	8.634467e+00	7.553851e+01
1.400000e-06	1.222352e-06	1.261958e-09	9.009334e+00	8.115473e+01
1.410000e-06	1.272961e-06	1.346901e-09	9.382342e+00	8.662935e+01
1.420000e-06	1.323251e-06	1.425964e-09	9.753005e+00	9.195469e+01
1.430000e-06	1.373143e-06	1.504127e-09	1.012074e+01	9.712439e+01
1.440000e-06	1.422661e-06	1.580312e-09	1.048571e+01	1.021335e+02
1.450000e-06	1.471706e-06	1.653915e-09	1.084719e+01	1.069784e+02
1.460000e-06	1.520261e-06	1.724830e-09	1.120506e+01	1.116571e+02
1.470000e-06	1.568452e-06	1.792952e-09	1.156025e+01	1.161692e+02
1.480000e-06	1.616324e-06	1.858419e-09	1.191310e+01	1.205157e+02
1.490000e-06	1.663991e-06	1.920632e-09	1.226443e+01	1.246989e+02
1.500000e-06	1.711515e-06	1.983286e-09	1.261470e+01	1.287227e+02
1.510000e-06	1.758841e-06	2.042226e-09	1.296352e+01	1.325921e+02
1.520000e-06	1.805915e-06	2.096890e-09	1.331047e+01	1.363131e+02
1.530000e-06	1.852601e-06	2.150315e-09	1.365458e+01	1.398925e+02
1.540000e-06	1.898826e-06	2.201581e-09	1.399527e+01	1.433376e+02
1.550000e-06	1.944772e-06	2.251503e-09	1.433392e+01	1.466562e+02
1.560000e-06	1.990437e-06	2.298350e-09	1.467049e+01	1.498561e+02
1.570000e-06	2.035732e-06	2.342855e-09	1.500434e+01	1.529449e+02
1.580000e-06	2.080628e-06	2.388219e-09	1.533524e+01	1.559299e+02
1.590000e-06	2.125121e-06	2.431429e-09	1.566317e+01	1.588179e+02
1.600000e-06	2.169250e-06	2.471232e-09	1.598843e+01	1.616149e+02
1.610000e-06	2.213059e-06	2.509565e-09	1.631133e+01	1.643264e+02
1.620000e-06	2.256665e-06	2.548281e-09	1.663272e+01	1.669568e+02
1.630000e-06	2.300107e-06	2.586901e-09	1.695291e+01	1.695098e+02
1.640000e-06	2.343291e-06	2.622794e-09	1.727120e+01	1.719883e+02
1.650000e-06	2.386020e-06	2.657237e-09	1.758613e+01	1.743946e+02
1.660000e-06	2.428025e-06	2.689595e-09	1.789573e+01	1.767302e+02
1.670000e-06	2.469191e-06	2.719721e-09	1.819914e+01	1.789965e+02
1.680000e-06	2.509657e-06	2.749846e-09	1.849740e+01	1.811942e+02
1.690000e-06	2.549596e-06	2.779755e-09	1.879177e+01	1.833241e+02
1.700000e-06	2.589226e-06	2.808455e-09	1.908386e+01	1.853868e+02
1.710000e-06	2.628616e-06	2.835237e-09	1.937418e+01	1.873830e+02
1.720000e-06	2.667650e-06	2.861897e-09	1.966188e+01	1.893137e+02
1.730000e-06	2.706272e-06	2.889705e-09	1.994655e+01	1.911800e+02
1.740000e-06	2.744405e-06	2.917099e-09	2.022760e+01	1.929831e+02
1.750000e-06	2.782039e-06	2.943661e-09	2.050499e+01	1.947249e+02
1.760000e-06	2.819201e-06	2.968844e-09	2.077888e+01	1.964070e+02
1.770000e-06	2.855825e-06	2.993955e-09	2.104882e+01	1.980316e+02
1.780000e-06	2.891925e-06	3.017747e-09	2.131489e+01	1.996009e+02
1.790000e-06	2.927674e-06	3.038968e-09	2.157839e+01	2.011170e+02
1.800000e-06	2.963177e-06	3.060792e-09	2.184006e+01	2.025822e+02
1.810000e-06	2.998353e-06	3.082608e-09	2.209932e+01	2.039987e+02
1.820000e-06	3.033076e-06	3.102836e-09	2.235525e+01	2.053684e+02
1.830000e-06	3.066986e-06	3.123268e-09	2.260518e+01	2.066931e+02
1.840000e-06	3.099815e-06	3.144045e-09	2.284714e+01	2.079744e+02
1.850000e-06	3.131895e-06	3.164592e-09	2.308359e+01	2.092138e+02
1.860000e-06	3.163588e-06	3.184676e-09	2.331718e+01	2.104125e+02
1.870000e-06	3.194925e-06	3.203575e-09	2.354815e+01	2.115715e+02
1.880000e-06	3.225749e-06	3.221039e-09	2.377534e+01	2.126919e+02
1.890000e-06	3.256008e-06	3.237862e-09	2.399837e+01	2.137744e+02
1.900000e-06	3.285745e-06	3.255535e-09	2.421754e+01	2.148199e+02
1.910000e-06	3.314861e-06	3.273076e-09	2.443214e+01	2.158294e+02
1.920000e-06	3.343372e-06	3.287341e-09	2.464228e+01	2.168038e+02
1.930000e-06	3.371342e-06	3.301103e-09	2.484843e+01	2.177442e+02
1.940000e-06	3.398891e-06	3.316572e-09	2.505148e+01	2.186516e+02
1.950000e-06	3.426135e-06	3.330915e-09	2.525228e+01	2.195275e+02
1.960000e-06	3.452748e-06	3.345782e-09	2.544844e+01	2.203729e+02
1.970000e-06	3.478363e-06	3.359532e-09	2.563723e+01	2.211892e+02
1.980000e-06	3.502968e-06	3.371815e-09	2.581858e+01	2.219777e+02
1.990000e-06	3.526846e-06	3.384346e-09	2.599457e+01	2.227395e+02
2.000000e-06	3.550204e-06	3.397971e-09	2.616674e+01	2.234757e+02
2.010000e-06	3.573019e-06	3.409945e-09	2.633489e+01	2.241871e+02
2.020000e-06	3.595248e-06	3.418545e-09	2.649873e+01	2.248743e+02
2.030000e-06	3.616871e-06	3.429016e-09	2.665810e+01	2.255377e+02
2.040000e-06	3.637908e-06	3.440598e-09	2.681316e+01	2.261773e+02
2.050000e-06	3.658299e-06	3.451333e-09	2.696344e+01	2.267932e+02
2.060000e-06	3.678174e-06	3.461824e-09	2.710994e+01	2.273849e+02
2.070000e-06	3.697664e-06	3.471592e-09	2.725358e+01	2.279522e+02
2.080000e-06	3.716668e-06	3.481171e-09	2.739365e+01	2.284945e+02
2.090000e-06	3.734929e-06	3.492730e-09	2.752825e+01	2.290114e+02
2.100000e-06	3.752427e-06	3.502604e-09	2.765721e+01	2.295025e+02
2.110000e-06	3.769336e-06	3.508354e-09	2.778184e+01	2.299678e+02
2.120000e-06	3.785636e-06	3.514121e-09	2.790199e+01	2.304073e+02
2.130000e-06	3.801302e-06	3.521227e-09	2.801745e+01	2.308214e+02
2.140000e-06	3.816152e-06	3.529065e-09	2.812690e+01	2.312107e+02
2.150000e-06	3.830128e-06	3.536326e-09	2.822991e+01	2.315763e+02
2.160000e-06	3.843403e-06	3.544010e-09	2.832775e+01	2.319194e+02
2.170000e-06	3.855999e-06	3.552597e-09	2.842059e+01	2.322413e+02
2.180000e-06	3.867947e-06	3.560741e-09	2.850866e+01	2.325439e+02
2.190000e-06	3.879205e-06	3.565562e-09	2.859163e+01	2.328285e+02
2.200000e-06	3.889621e-06	3.567778e-09	2.866841e+01	2.330969e+02
2.210000e-06	3.899001e-06	3.572084e-09	2.873754e+01	2.333506e+02
2.220000e-06	3.907400e-06	3.576126e-09	2.879944e+01	2.335905e+02
2.230000e-06	3.915138e-06	3.578241e-09	2.885648e+01	2.338177e+02
2.240000e-06	3.922398e-06	3.581017e-09	2.890999e+01	2.340327e+02
2.250000e-06	3.929018e-06	3.584944e-09	2.895878e+01	2.342354e+02
2.260000e-06	3.934899e-06	3.587725e-09	2.900213e+01	2.344255e+02
2.270000e-06	3.940069e-06	3.590003e-09	2.904023e+01	2.346023e+02
2.280000e-06	3.944530e-06	3.595086e-09	2.907311e+01	2.347649e+02
2.290000e-06	3.948459e-06	3.599732e-09	2.910207e+01	2.349119e+02
2.300000e-06	3.951915e-06	3.602227e-09	2.912754e+01	2.350420e+02
2.310000e-06	3.954801e-06	3.604078e-09	2.914881e+01	2.351540e+02
2.320000e-06	3.956722e-06	3.607066e-09	2.916297e+01	2.352465e+02
2.330000e-06	3.957540e-06	3.610652e-09	2.916900e+01	2.353186e+02
2.340000e-06	3.957574e-06	3.611791e-09	2.916925e+01	2.353698e+02
2.350000e-06	3.957041e-06	3.611602e-09	2.916532e+01	2.353997e+02
2.360000e-06	3.955945e-06	3.610016e-09	2.915724e+01	2.354088e+02
2.370000e-06	3.954232e-06	3.608939e-09	2.914461e+01	2.353976e+02
2.380000e-06	3.951921e-06	3.607595e-09	2.912758e+01	2.353673e+02
2.390000e-06	3.948968e-06	3.608939e-09	2.910582e+01	2.353193e+02
2.400000e-06	3.945321e-06	3.617600e-09	2.907894e+01	2.352553e+02
2.410000e-06	3.941162e-06	3.632393e-09	2.904828e+01	2.351772e+02
2.420000e-06	3.936644e-06	3.601147e-09	2.901499e+01	2.350867e+02
2.430000e-06	3.931536e-06	3.528804e-09	2.897734e+01	2.349853e+02
2.440000e-06	3.925271e-06	3.545212e-09	2.893116e+01	2.348743e+02
2.450000e-06	3.917644e-06	3.651901e-09	2.887495e+01	2.347545e+02
2.460000e-06	3.909278e-06	3.676565e-09	2.881329e+01	2.346262e+02
2.470000e-06	3.900792e-06	3.597543e-09	2.875074e+01	2.344889e+02
2.480000e-06	3.891908e-06	3.530687e-09	2.868526e+01	2.343418e+02
2.490000e-06	3.882002e-06	3.516882e-09	2.861225e+01	2.341832e+02
2.500000e-06	3.871390e-06	3.538604e-09	2.853403e+01	2.340112e+02
2.510000e-06	3.860587e-06	3.563106e-09	2.845441e+01	2.338232e+02
2.520000e-06	3.849023e-06	3.544437e-09	2.836918e+01	2.336166e+02
2.530000e-06	3.836159e-06	3.445210e-09	2.827436e+01	2.333888e+02
2.540000e-06	3.822685e-06	3.556965e-09	2.817505e+01	2.331370e+02
2.550000e-06	3.808960e-06	3.663708e-09	2.807389e+01	2.328592e+02
2.560000e-06	3.794137e-06	3.555265e-09	2.796464e+01	2.325534e+02
2.570000e-06	3.778087e-06	3.474246e-09	2.784634e+01	2.322186e+02
2.580000e-06	3.761488e-06	3.512223e-09	2.772400e+01	2.318544e+02
2.590000e-06	3.744404e-06	3.505436e-09	2.759808e+01	2.314610e+02
2.600000e-06	3.726565e-06	3.416496e-09	2.746660e+01	2.310398e+02
2.610000e-06	3.708062e-06	3.471529e-09	2.733023e+01	2.305925e+02
2.620000e-06	3.689004e-06	3.463360e-09	2.718975e+01	2.301217e+02
2.630000e-06	3.669365e-06	3.457379e-09	2.704501e+01	2.296304e+02
2.640000e-06	3.649198e-06	3.510368e-09	2.689637e+01	2.291217e+02
2.650000e-06	3.628545e-06	3.459137e-09	2.674415e+01	2.285990e+02
2.660000e-06	3.607361e-06	3.398457e-09	2.658801e+01	2.280654e+02
2.670000e-06	3.585250e-06	3.432584e-09	2.642504e+01	2.275237e+02
2.680000e-06	3.561886e-06	3.480911e-09	2.625283e+01	2.269760e+02
2.690000e-06	3.537786e-06	3.443241e-09	2.607521e+01	2.264238e+02
2.700000e-06	3.513247e-06	3.393744e-09	2.589434e+01	2.258676e+02
2.710000e-06	3.487980e-06	3.378596e-09	2.570811e+01	2.253071e+02
2.720000e-06	3.462164e-06	3.428215e-09	2.551784e+01	2.247412e+02
2.730000e-06	3.435986e-06	3.450647e-09	2.532489e+01	2.241677e+02
2.740000e-06	3.409132e-06	3.363743e-09	2.512697e+01	2.235838e+02
2.750000e-06	3.381507e-06	3.357203e-09	2.492335e+01	2.229861e+02
2.760000e-06	3.353455e-06	3.386932e-09	2.471659e+01	2.223710e+02
2.770000e-06	3.325116e-06	3.370978e-09	2.450772e+01	2.217346e+02
2.780000e-06	3.296287e-06	3.368469e-09	2.429524e+01	2.210731e+02
2.790000e-06	3.266720e-06	3.321900e-09	2.407732e+01	2.203831e+02
2.800000e-06	3.236395e-06	3.306182e-09	2.385381e+01	2.196616e+02
2.810000e-06	3.205234e-06	3.332324e-09	2.362414e+01	2.189066e+02
2.820000e-06	3.173302e-06	3.308810e-09	2.338879e+01	2.181165e+02
2.830000e-06	3.140949e-06	3.293115e-09	2.315033e+01	2.172908e+02
2.840000e-06	3.108273e-06	3.264797e-09	2.290949e+01	2.164298e+02
2.850000e-06	3.075059e-06	3.255625e-09	2.266468e+01	2.155346e+02
2.860000e-06	3.041198e-06	3.274961e-09	2.241511e+01	2.146069e+02
2.870000e-06	3.006913e-06	3.245700e-09	2.216241e+01	2.136490e+02
2.880000e-06	2.972195e-06	3.218682e-09	2.190652e+01	2.126635e+02
2.890000e-06	2.936831e-06	3.203818e-09	2.164587e+01	2.116532e+02
2.900000e-06	2.900983e-06	3.205336e-09	2.138166e+01	2.106205e+02
2.910000e-06	2.864854e-06	3.196845e-09	2.111537e+01	2.095677e+02
2.920000e-06	2.828408e-06	3.156259e-09	2.084675e+01	2.084966e+02
2.930000e-06	2.791552e-06	3.147664e-09	2.057510e+01	2.074084e+02
2.940000e-06	2.754126e-06	3.140061e-09	2.029925e+01	2.063033e+02
2.950000e-06	2.715934e-06	3.116861e-09	2.001776e+01	2.051809e+02
