# Temperatura_=_20.0
# Concentracion g/m^3_=_9000.0
# C_Vs_to_Am_M_A/Vsm_=_65563218390.804596
# pendiente_HvsI_1/m_=_3716.3
# ordenada_HvsI_A/m_=_1297.0
# frecuencia_Hz_=_212878.00316831286

Tiempo_(s)	Campo_(V.s)	Magnetizacion_(V.s)	Campo_(kA/m)	Magnetizacion_(A/m)
0.000000e+00	-3.959648e-06	-3.499439e-09	-2.913475e+01	-2.344699e+02
1.000000e-08	-3.959674e-06	-3.502779e-09	-2.913494e+01	-2.345385e+02
2.000000e-08	-3.958953e-06	-3.502538e-09	-2.912963e+01	-2.345740e+02
3.000000e-08	-3.957271e-06	-3.502653e-09	-2.911726e+01	-2.345739e+02
4.000000e-08	-3.954665e-06	-3.503720e-09	-2.909808e+01	-2.345367e+02
5.000000e-08	-3.951410e-06	-3.501190e-09	-2.907413e+01	-2.344625e+02
6.000000e-08	-3.947670e-06	-3.490901e-09	-2.904661e+01	-2.343533e+02
7.000000e-08	-3.943334e-06	-3.486076e-09	-2.901471e+01	-2.342123e+02
8.000000e-08	-3.938318e-06	-3.529078e-09	-2.897780e+01	-2.340448e+02
9.000000e-08	-3.932498e-06	-3.557846e-09	-2.893498e+01	-2.338572e+02
1.000000e-07	-3.925812e-06	-3.491166e-09	-2.888579e+01	-2.336569e+02
1.100000e-07	-3.918514e-06	-3.399998e-09	-2.883208e+01	-2.334523e+02
1.200000e-07	-3.910774e-06	-3.500831e-09	-2.877514e+01	-2.332515e+02
1.300000e-07	-3.902417e-06	-3.551314e-09	-2.871365e+01	-2.330626e+02
1.400000e-07	-3.893212e-06	-3.444483e-09	-2.864591e+01	-2.328930e+02
1.500000e-07	-3.883274e-06	-3.465915e-09	-2.857279e+01	-2.327485e+02
1.600000e-07	-3.872532e-06	-3.510913e-09	-2.849376e+01	-2.326333e+02
1.700000e-07	-3.860774e-06	-3.500766e-09	-2.840724e+01	-2.325499e+02
1.800000e-07	-3.848254e-06	-3.477319e-09	-2.831512e+01	-2.324981e+02
1.900000e-07	-3.835235e-06	-3.621578e-09	-2.821933e+01	-2.324759e+02
2.000000e-07	-3.821318e-06	-3.467543e-09	-2.811693e+01	-2.324788e+02
2.100000e-07	-3.806182e-06	-3.450748e-09	-2.800556e+01	-2.325003e+02
2.200000e-07	-3.790252e-06	-3.726014e-09	-2.788835e+01	-2.325323e+02
2.300000e-07	-3.773818e-06	-3.636485e-09	-2.776742e+01	-2.325652e+02
2.400000e-07	-3.756783e-06	-3.454150e-09	-2.764209e+01	-2.325888e+02
2.500000e-07	-3.739063e-06	-3.571877e-09	-2.751170e+01	-2.325924e+02
2.600000e-07	-3.720731e-06	-3.805283e-09	-2.737681e+01	-2.325659e+02
2.700000e-07	-3.701808e-06	-3.588071e-09	-2.723758e+01	-2.324995e+02
2.800000e-07	-3.682338e-06	-3.560299e-09	-2.709432e+01	-2.323850e+02
2.900000e-07	-3.662354e-06	-3.671715e-09	-2.694728e+01	-2.322159e+02
3.000000e-07	-3.641762e-06	-3.607147e-09	-2.679577e+01	-2.319872e+02
3.100000e-07	-3.620562e-06	-3.578423e-09	-2.663978e+01	-2.316963e+02
3.200000e-07	-3.598677e-06	-3.596989e-09	-2.647875e+01	-2.313428e+02
3.300000e-07	-3.576172e-06	-3.611475e-09	-2.631316e+01	-2.309280e+02
3.400000e-07	-3.553122e-06	-3.534971e-09	-2.614356e+01	-2.304552e+02
3.500000e-07	-3.529495e-06	-3.526255e-09	-2.596972e+01	-2.299291e+02
3.600000e-07	-3.505379e-06	-3.626094e-09	-2.579228e+01	-2.293556e+02
3.700000e-07	-3.480637e-06	-3.583151e-09	-2.561023e+01	-2.287413e+02
3.800000e-07	-3.454924e-06	-3.418812e-09	-2.542103e+01	-2.280929e+02
3.900000e-07	-3.428210e-06	-3.539035e-09	-2.522447e+01	-2.274169e+02
4.000000e-07	-3.400914e-06	-3.649865e-09	-2.502363e+01	-2.267193e+02
4.100000e-07	-3.373215e-06	-3.456917e-09	-2.481983e+01	-2.260052e+02
4.200000e-07	-3.344925e-06	-3.390393e-09	-2.461167e+01	-2.252783e+02
4.300000e-07	-3.316032e-06	-3.573249e-09	-2.439908e+01	-2.245411e+02
4.400000e-07	-3.286633e-06	-3.522465e-09	-2.418276e+01	-2.237947e+02
4.500000e-07	-3.256717e-06	-3.384036e-09	-2.396264e+01	-2.230389e+02
4.600000e-07	-3.226232e-06	-3.455662e-09	-2.373834e+01	-2.222723e+02
4.700000e-07	-3.195250e-06	-3.466319e-09	-2.351037e+01	-2.214923e+02
4.800000e-07	-3.163858e-06	-3.404994e-09	-2.327939e+01	-2.206960e+02
4.900000e-07	-3.132107e-06	-3.403473e-09	-2.304577e+01	-2.198799e+02
5.000000e-07	-3.099913e-06	-3.406998e-09	-2.280889e+01	-2.190402e+02
5.100000e-07	-3.066988e-06	-3.368993e-09	-2.256663e+01	-2.181737e+02
5.200000e-07	-3.033117e-06	-3.347870e-09	-2.231741e+01	-2.172774e+02
5.300000e-07	-2.998425e-06	-3.376150e-09	-2.206215e+01	-2.163491e+02
5.400000e-07	-2.963250e-06	-3.357531e-09	-2.180334e+01	-2.153873e+02
5.500000e-07	-2.927704e-06	-3.301524e-09	-2.154179e+01	-2.143913e+02
5.600000e-07	-2.891744e-06	-3.293332e-09	-2.127720e+01	-2.133613e+02
5.700000e-07	-2.855342e-06	-3.311020e-09	-2.100936e+01	-2.122983e+02
5.800000e-07	-2.818442e-06	-3.301945e-09	-2.073785e+01	-2.112037e+02
5.900000e-07	-2.781033e-06	-3.228316e-09	-2.046260e+01	-2.100793e+02
6.000000e-07	-2.743090e-06	-3.213318e-09	-2.018342e+01	-2.089272e+02
6.100000e-07	-2.704710e-06	-3.252436e-09	-1.990102e+01	-2.077493e+02
6.200000e-07	-2.665881e-06	-3.208897e-09	-1.961532e+01	-2.065470e+02
6.300000e-07	-2.626626e-06	-3.160747e-09	-1.932649e+01	-2.053216e+02
6.400000e-07	-2.587087e-06	-3.162416e-09	-1.903556e+01	-2.040734e+02
6.500000e-07	-2.547207e-06	-3.160570e-09	-1.874212e+01	-2.028021e+02
6.600000e-07	-2.506860e-06	-3.122469e-09	-1.844526e+01	-2.015066e+02
6.700000e-07	-2.465893e-06	-3.098461e-09	-1.814383e+01	-2.001853e+02
6.800000e-07	-2.424258e-06	-3.096403e-09	-1.783748e+01	-1.988355e+02
6.900000e-07	-2.381960e-06	-3.050935e-09	-1.752626e+01	-1.974546e+02
7.000000e-07	-2.339067e-06	-3.025722e-09	-1.721065e+01	-1.960393e+02
7.100000e-07	-2.295727e-06	-3.028417e-09	-1.689176e+01	-1.945864e+02
7.200000e-07	-2.252129e-06	-2.993924e-09	-1.657097e+01	-1.930926e+02
7.300000e-07	-2.208270e-06	-2.954758e-09	-1.624826e+01	-1.915553e+02
7.400000e-07	-2.164028e-06	-2.936771e-09	-1.592273e+01	-1.899719e+02
7.500000e-07	-2.119432e-06	-2.929101e-09	-1.559460e+01	-1.883407e+02
7.600000e-07	-2.074474e-06	-2.890097e-09	-1.526380e+01	-1.866607e+02
7.700000e-07	-2.029126e-06	-2.846349e-09	-1.493013e+01	-1.849312e+02
7.800000e-07	-1.983437e-06	-2.832130e-09	-1.459396e+01	-1.831524e+02
7.900000e-07	-1.937394e-06	-2.805060e-09	-1.425518e+01	-1.813250e+02
8.000000e-07	-1.891008e-06	-2.767639e-09	-1.391387e+01	-1.794500e+02
8.100000e-07	-1.844312e-06	-2.734909e-09	-1.357029e+01	-1.775287e+02
8.200000e-07	-1.797301e-06	-2.712544e-09	-1.322438e+01	-1.755621e+02
8.300000e-07	-1.750045e-06	-2.684612e-09	-1.287668e+01	-1.735513e+02
8.400000e-07	-1.702550e-06	-2.641678e-09	-1.252721e+01	-1.714970e+02
8.500000e-07	-1.654820e-06	-2.615006e-09	-1.217602e+01	-1.693992e+02
8.600000e-07	-1.606863e-06	-2.587332e-09	-1.182316e+01	-1.672574e+02
8.700000e-07	-1.558555e-06	-2.547020e-09	-1.146772e+01	-1.650703e+02
8.800000e-07	-1.509884e-06	-2.511828e-09	-1.110959e+01	-1.628360e+02
8.900000e-07	-1.460872e-06	-2.478657e-09	-1.074897e+01	-1.605517e+02
9.000000e-07	-1.411451e-06	-2.444135e-09	-1.038533e+01	-1.582142e+02
9.100000e-07	-1.361598e-06	-2.402688e-09	-1.001852e+01	-1.558196e+02
9.200000e-07	-1.311322e-06	-2.367322e-09	-9.648595e+00	-1.533637e+02
9.300000e-07	-1.260610e-06	-2.330459e-09	-9.275460e+00	-1.508421e+02
9.400000e-07	-1.209601e-06	-2.280000e-09	-8.900136e+00	-1.482503e+02
9.500000e-07	-1.158480e-06	-2.239975e-09	-8.523998e+00	-1.455840e+02
9.600000e-07	-1.107148e-06	-2.200408e-09	-8.146301e+00	-1.428389e+02
9.700000e-07	-1.055571e-06	-2.152966e-09	-7.766798e+00	-1.400110e+02
9.800000e-07	-1.003842e-06	-2.102617e-09	-7.386181e+00	-1.370968e+02
9.900000e-07	-9.519751e-07	-2.056808e-09	-7.004550e+00	-1.340928e+02
1.000000e-06	-8.998987e-07	-2.019578e-09	-6.621377e+00	-1.309959e+02
1.010000e-06	-8.475213e-07	-1.967375e-09	-6.235988e+00	-1.278030e+02
1.020000e-06	-7.949505e-07	-1.911095e-09	-5.849177e+00	-1.245112e+02
1.030000e-06	-7.422658e-07	-1.861375e-09	-5.461527e+00	-1.211175e+02
1.040000e-06	-6.894784e-07	-1.810886e-09	-5.073122e+00	-1.176186e+02
1.050000e-06	-6.365351e-07	-1.756178e-09	-4.683570e+00	-1.140109e+02
1.060000e-06	-5.834130e-07	-1.692059e-09	-4.292702e+00	-1.102907e+02
1.070000e-06	-5.302438e-07	-1.632961e-09	-3.901488e+00	-1.064536e+02
1.080000e-06	-4.770467e-07	-1.573360e-09	-3.510068e+00	-1.024950e+02
1.090000e-06	-4.237836e-07	-1.508331e-09	-3.118163e+00	-9.840993e+01
1.100000e-06	-3.704363e-07	-1.445210e-09	-2.725638e+00	-9.419344e+01
1.110000e-06	-3.169908e-07	-1.375253e-09	-2.332391e+00	-8.984052e+01
1.120000e-06	-2.634905e-07	-1.303116e-09	-1.938740e+00	-8.534648e+01
1.130000e-06	-2.099796e-07	-1.232921e-09	-1.545011e+00	-8.070720e+01
1.140000e-06	-1.564447e-07	-1.162959e-09	-1.151107e+00	-7.591939e+01
1.150000e-06	-1.029045e-07	-1.085891e-09	-7.571621e-01	-7.098091e+01
1.160000e-06	-4.934704e-08	-1.000982e-09	-3.630913e-01	-6.589099e+01
1.170000e-06	4.210509e-09	-9.229444e-10	3.098056e-02	-6.065048e+01
1.180000e-06	5.773033e-08	-8.419653e-10	4.247748e-01	-5.526203e+01
1.190000e-06	1.112076e-07	-7.526180e-10	8.182558e-01	-4.973020e+01
1.200000e-06	1.646472e-07	-6.651349e-10	1.211460e+00	-4.406149e+01
1.210000e-06	2.180592e-07	-5.774475e-10	1.604461e+00	-3.826435e+01
1.220000e-06	2.714399e-07	-4.907474e-10	1.997231e+00	-3.234902e+01
1.230000e-06	3.248076e-07	-3.981852e-10	2.389906e+00	-2.632743e+01
1.240000e-06	3.781368e-07	-3.040941e-10	2.782298e+00	-2.021291e+01
1.250000e-06	4.313571e-07	-2.127789e-10	3.173888e+00	-1.401995e+01
1.260000e-06	4.844399e-07	-1.146977e-10	3.564466e+00	-7.763912e+00
1.270000e-06	5.374632e-07	-1.742846e-11	3.954608e+00	-1.460716e+00
1.280000e-06	5.904268e-07	8.067764e-11	4.344309e+00	4.873475e+00
1.290000e-06	6.432205e-07	1.793653e-10	4.732761e+00	1.122252e+01
1.300000e-06	6.958258e-07	2.787091e-10	5.119826e+00	1.757056e+01
1.310000e-06	7.483055e-07	3.764561e-10	5.505967e+00	2.390222e+01
1.320000e-06	8.007125e-07	4.706445e-10	5.891573e+00	3.020275e+01
1.330000e-06	8.529799e-07	5.703277e-10	6.276152e+00	3.645814e+01
1.340000e-06	9.050759e-07	6.671976e-10	6.659470e+00	4.265519e+01
1.350000e-06	9.570140e-07	7.618099e-10	7.041626e+00	4.878153e+01
1.360000e-06	1.008790e-06	8.551784e-10	7.422586e+00	5.482557e+01
1.370000e-06	1.060396e-06	9.473485e-10	7.802299e+00	6.077651e+01
1.380000e-06	1.111812e-06	1.036542e-09	8.180617e+00	6.662427e+01
1.390000e-06	1.163055e-06	1.120434e-09	8.557655e+00	7.235947e+01
1.400000e-06	1.214106e-06	1.206805e-09	8.933287e+00	7.797341e+01
1.410000e-06	1.264887e-06	1.291799e-09	9.306931e+00	8.345804e+01
1.420000e-06	1.315293e-06	1.372500e-09	9.677811e+00	8.880603e+01
1.430000e-06	1.365269e-06	1.453756e-09	1.004553e+01	9.401081e+01
1.440000e-06	1.414761e-06	1.532491e-09	1.040969e+01	9.906664e+01
1.450000e-06	1.463872e-06	1.608151e-09	1.077104e+01	1.039687e+02
1.460000e-06	1.512623e-06	1.680061e-09	1.112975e+01	1.087134e+02
1.470000e-06	1.560991e-06	1.749352e-09	1.148564e+01	1.132982e+02
1.480000e-06	1.609057e-06	1.817540e-09	1.183930e+01	1.177217e+02
1.490000e-06	1.656832e-06	1.880540e-09	1.219083e+01	1.219843e+02
1.500000e-06	1.704398e-06	1.942938e-09	1.254081e+01	1.260874e+02
1.510000e-06	1.751767e-06	2.003337e-09	1.288935e+01	1.300341e+02
1.520000e-06	1.798907e-06	2.060783e-09	1.323620e+01	1.338286e+02
1.530000e-06	1.845760e-06	2.117270e-09	1.358094e+01	1.374766e+02
1.540000e-06	1.892272e-06	2.170922e-09	1.392318e+01	1.409846e+02
1.550000e-06	1.938388e-06	2.221872e-09	1.426249e+01	1.443601e+02
1.560000e-06	1.984116e-06	2.269370e-09	1.459896e+01	1.476111e+02
1.570000e-06	2.029530e-06	2.316119e-09	1.493310e+01	1.507460e+02
1.580000e-06	2.074573e-06	2.362572e-09	1.526453e+01	1.537730e+02
1.590000e-06	2.119225e-06	2.405153e-09	1.559307e+01	1.566999e+02
1.600000e-06	2.163489e-06	2.447196e-09	1.591876e+01	1.595343e+02
1.610000e-06	2.207406e-06	2.489830e-09	1.624190e+01	1.622825e+02
1.620000e-06	2.251083e-06	2.531499e-09	1.656327e+01	1.649501e+02
1.630000e-06	2.294562e-06	2.571293e-09	1.688319e+01	1.675415e+02
1.640000e-06	2.337766e-06	2.608840e-09	1.720108e+01	1.700599e+02
1.650000e-06	2.380558e-06	2.644270e-09	1.751594e+01	1.725076e+02
1.660000e-06	2.422811e-06	2.676991e-09	1.782683e+01	1.748857e+02
1.670000e-06	2.464321e-06	2.709339e-09	1.813226e+01	1.771944e+02
1.680000e-06	2.505043e-06	2.742939e-09	1.843189e+01	1.794335e+02
1.690000e-06	2.545188e-06	2.774202e-09	1.872727e+01	1.816024e+02
1.700000e-06	2.584955e-06	2.803462e-09	1.901987e+01	1.837002e+02
1.710000e-06	2.624445e-06	2.831309e-09	1.931044e+01	1.857264e+02
1.720000e-06	2.663632e-06	2.859669e-09	1.959877e+01	1.876806e+02
1.730000e-06	2.702372e-06	2.889303e-09	1.988382e+01	1.895633e+02
1.740000e-06	2.740612e-06	2.917954e-09	2.016518e+01	1.913752e+02
1.750000e-06	2.778397e-06	2.946137e-09	2.044320e+01	1.931183e+02
1.760000e-06	2.815673e-06	2.972683e-09	2.071748e+01	1.947949e+02
1.770000e-06	2.852454e-06	2.997127e-09	2.098811e+01	1.964083e+02
1.780000e-06	2.888740e-06	3.018964e-09	2.125510e+01	1.979622e+02
1.790000e-06	2.924593e-06	3.039503e-09	2.151890e+01	1.994607e+02
1.800000e-06	2.960172e-06	3.061727e-09	2.178069e+01	2.009080e+02
1.810000e-06	2.995458e-06	3.085480e-09	2.204032e+01	2.023084e+02
1.820000e-06	3.030284e-06	3.109108e-09	2.229657e+01	2.036659e+02
1.830000e-06	3.064333e-06	3.130355e-09	2.254709e+01	2.049838e+02
1.840000e-06	3.097502e-06	3.150080e-09	2.279115e+01	2.062650e+02
1.850000e-06	3.129933e-06	3.171299e-09	2.302978e+01	2.075115e+02
1.860000e-06	3.161782e-06	3.190844e-09	2.326411e+01	2.087246e+02
1.870000e-06	3.193202e-06	3.207493e-09	2.349530e+01	2.099046e+02
1.880000e-06	3.224207e-06	3.223942e-09	2.372344e+01	2.110513e+02
1.890000e-06	3.254712e-06	3.242191e-09	2.394789e+01	2.121636e+02
1.900000e-06	3.284616e-06	3.260636e-09	2.416792e+01	2.132404e+02
1.910000e-06	3.313879e-06	3.277410e-09	2.438323e+01	2.142799e+02
1.920000e-06	3.342482e-06	3.293492e-09	2.459369e+01	2.152807e+02
1.930000e-06	3.370558e-06	3.309785e-09	2.480027e+01	2.162414e+02
1.940000e-06	3.398288e-06	3.325979e-09	2.500431e+01	2.171613e+02
1.950000e-06	3.425641e-06	3.339196e-09	2.520557e+01	2.180401e+02
1.960000e-06	3.452341e-06	3.352488e-09	2.540203e+01	2.188782e+02
1.970000e-06	3.478136e-06	3.368004e-09	2.559183e+01	2.196769e+02
1.980000e-06	3.503046e-06	3.382420e-09	2.577511e+01	2.204382e+02
1.990000e-06	3.527204e-06	3.395019e-09	2.595286e+01	2.211649e+02
2.000000e-06	3.550742e-06	3.407029e-09	2.612605e+01	2.218601e+02
2.010000e-06	3.573738e-06	3.419829e-09	2.629525e+01	2.225273e+02
2.020000e-06	3.596100e-06	3.431977e-09	2.645979e+01	2.231704e+02
2.030000e-06	3.617851e-06	3.442894e-09	2.661983e+01	2.237929e+02
2.040000e-06	3.639044e-06	3.452827e-09	2.677577e+01	2.243979e+02
2.050000e-06	3.659603e-06	3.462746e-09	2.692704e+01	2.249883e+02
2.060000e-06	3.679640e-06	3.473095e-09	2.707448e+01	2.255659e+02
2.070000e-06	3.699225e-06	3.483856e-09	2.721858e+01	2.261320e+02
2.080000e-06	3.718358e-06	3.492252e-09	2.735935e+01	2.266867e+02
2.090000e-06	3.736844e-06	3.499760e-09	2.749538e+01	2.272294e+02
2.100000e-06	3.754556e-06	3.509067e-09	2.762569e+01	2.277588e+02
2.110000e-06	3.771663e-06	3.517801e-09	2.775157e+01	2.282727e+02
2.120000e-06	3.788203e-06	3.525453e-09	2.787327e+01	2.287689e+02
2.130000e-06	3.804121e-06	3.532976e-09	2.799039e+01	2.292446e+02
2.140000e-06	3.819217e-06	3.542562e-09	2.810147e+01	2.296973e+02
2.150000e-06	3.833442e-06	3.552355e-09	2.820614e+01	2.301249e+02
2.160000e-06	3.846933e-06	3.560511e-09	2.830540e+01	2.305256e+02
2.170000e-06	3.859699e-06	3.568397e-09	2.839933e+01	2.308986e+02
2.180000e-06	3.871816e-06	3.576718e-09	2.848848e+01	2.312436e+02
2.190000e-06	3.883299e-06	3.582669e-09	2.857297e+01	2.315615e+02
2.200000e-06	3.893996e-06	3.587129e-09	2.865168e+01	2.318540e+02
2.210000e-06	3.903624e-06	3.593295e-09	2.872253e+01	2.321234e+02
2.220000e-06	3.912232e-06	3.599507e-09	2.878586e+01	2.323727e+02
2.230000e-06	3.920180e-06	3.604907e-09	2.884435e+01	2.326051e+02
2.240000e-06	3.927526e-06	3.610983e-09	2.889840e+01	2.328242e+02
2.250000e-06	3.934231e-06	3.616120e-09	2.894773e+01	2.330329e+02
2.260000e-06	3.940312e-06	3.620415e-09	2.899248e+01	2.332339e+02
2.270000e-06	3.945669e-06	3.624485e-09	2.903189e+01	2.334291e+02
2.280000e-06	3.950282e-06	3.628747e-09	2.906583e+01	2.336194e+02
2.290000e-06	3.954315e-06	3.632870e-09	2.909551e+01	2.338046e+02
2.300000e-06	3.957885e-06	3.635050e-09	2.912178e+01	2.339833e+02
2.310000e-06	3.960918e-06	3.638155e-09	2.914409e+01	2.341533e+02
2.320000e-06	3.963078e-06	3.641909e-09	2.915998e+01	2.343110e+02
2.330000e-06	3.964141e-06	3.644366e-09	2.916781e+01	2.344524e+02
2.340000e-06	3.964337e-06	3.646997e-09	2.916925e+01	2.345730e+02
2.350000e-06	3.963951e-06	3.647458e-09	2.916640e+01	2.346682e+02
2.360000e-06	3.963013e-06	3.648022e-09	2.915950e+01	2.347337e+02
2.370000e-06	3.961441e-06	3.652139e-09	2.914794e+01	2.347659e+02
2.380000e-06	3.959244e-06	3.652927e-09	2.913177e+01	2.347622e+02
2.390000e-06	3.956412e-06	3.651706e-09	2.911094e+01	2.347213e+02
2.400000e-06	3.952938e-06	3.657971e-09	2.908537e+01	2.346436e+02
2.410000e-06	3.948977e-06	3.673804e-09	2.905623e+01	2.345311e+02
2.420000e-06	3.944588e-06	3.639521e-09	2.902394e+01	2.343873e+02
2.430000e-06	3.939499e-06	3.573771e-09	2.898649e+01	2.342175e+02
2.440000e-06	3.933328e-06	3.630135e-09	2.894108e+01	2.340284e+02
2.450000e-06	3.925983e-06	3.739851e-09	2.888704e+01	2.338274e+02
2.460000e-06	3.917892e-06	3.646536e-09	2.882751e+01	2.336228e+02
2.470000e-06	3.909510e-06	3.603039e-09	2.876584e+01	2.334230e+02
2.480000e-06	3.900667e-06	3.652598e-09	2.870077e+01	2.332358e+02
2.490000e-06	3.890873e-06	3.656677e-09	2.862871e+01	2.330685e+02
2.500000e-06	3.880391e-06	3.549365e-09	2.855158e+01	2.329268e+02
2.510000e-06	3.869679e-06	3.608292e-09	2.847276e+01	2.328149e+02
2.520000e-06	3.858214e-06	3.635537e-09	2.838841e+01	2.327347e+02
2.530000e-06	3.845545e-06	3.421908e-09	2.829518e+01	2.326862e+02
2.540000e-06	3.832217e-06	3.596662e-09	2.819712e+01	2.326668e+02
2.550000e-06	3.818436e-06	3.702206e-09	2.809572e+01	2.326719e+02
2.560000e-06	3.803720e-06	3.449035e-09	2.798744e+01	2.326949e+02
2.570000e-06	3.788000e-06	3.420505e-09	2.787178e+01	2.327275e+02
2.580000e-06	3.771601e-06	3.715530e-09	2.775111e+01	2.327601e+02
2.590000e-06	3.754607e-06	3.520493e-09	2.762608e+01	2.327822e+02
2.600000e-06	3.736937e-06	3.234239e-09	2.749606e+01	2.327834e+02
2.610000e-06	3.718591e-06	3.564043e-09	2.736107e+01	2.327533e+02
2.620000e-06	3.699579e-06	3.589496e-09	2.722118e+01	2.326826e+02
2.630000e-06	3.679975e-06	3.347426e-09	2.707693e+01	2.325630e+02
2.640000e-06	3.659824e-06	3.483678e-09	2.692867e+01	2.323881e+02
2.650000e-06	3.639217e-06	3.579773e-09	2.677704e+01	2.321534e+02
2.660000e-06	3.618153e-06	3.404156e-09	2.662205e+01	2.318564e+02
2.670000e-06	3.596142e-06	3.419310e-09	2.646010e+01	2.314967e+02
2.680000e-06	3.572971e-06	3.543585e-09	2.628961e+01	2.310760e+02
2.690000e-06	3.549045e-06	3.456894e-09	2.611357e+01	2.305977e+02
2.700000e-06	3.524485e-06	3.389962e-09	2.593285e+01	2.300667e+02
2.710000e-06	3.499262e-06	3.394675e-09	2.574727e+01	2.294889e+02
2.720000e-06	3.473555e-06	3.508469e-09	2.555812e+01	2.288709e+02
2.730000e-06	3.447423e-06	3.472545e-09	2.536584e+01	2.282195e+02
2.740000e-06	3.420579e-06	3.250348e-09	2.516832e+01	2.275412e+02
2.750000e-06	3.393032e-06	3.431681e-09	2.496564e+01	2.268419e+02
2.760000e-06	3.365045e-06	3.534449e-09	2.475971e+01	2.261264e+02
2.770000e-06	3.336663e-06	3.271559e-09	2.455088e+01	2.253985e+02
2.780000e-06	3.307778e-06	3.318277e-09	2.433835e+01	2.246604e+02
2.790000e-06	3.278235e-06	3.449465e-09	2.412097e+01	2.239132e+02
2.800000e-06	3.247978e-06	3.346196e-09	2.389834e+01	2.231565e+02
2.810000e-06	3.216933e-06	3.299329e-09	2.366992e+01	2.223887e+02
2.820000e-06	3.185189e-06	3.323499e-09	2.343634e+01	2.216074e+02
2.830000e-06	3.152974e-06	3.351557e-09	2.319931e+01	2.208093e+02
2.840000e-06	3.120319e-06	3.293685e-09	2.295904e+01	2.199911e+02
2.850000e-06	3.087090e-06	3.254586e-09	2.271454e+01	2.191490e+02
2.860000e-06	3.053323e-06	3.309343e-09	2.246609e+01	2.182797e+02
2.870000e-06	3.019148e-06	3.264097e-09	2.221463e+01	2.173804e+02
2.880000e-06	2.984521e-06	3.207212e-09	2.195984e+01	2.164488e+02
2.890000e-06	2.949268e-06	3.242810e-09	2.170045e+01	2.154837e+02
2.900000e-06	2.913451e-06	3.257186e-09	2.143692e+01	2.144843e+02
2.910000e-06	2.877308e-06	3.183621e-09	2.117098e+01	2.134511e+02
2.920000e-06	2.840848e-06	3.144481e-09	2.090271e+01	2.123849e+02
2.930000e-06	2.804026e-06	3.203071e-09	2.063178e+01	2.112873e+02
2.940000e-06	2.766672e-06	3.180738e-09	2.035693e+01	2.101602e+02
2.950000e-06	2.728499e-06	3.094212e-09	2.007606e+01	2.090055e+02
