# Temperatura_=_20.0
# Concentracion g/m^3_=_9000.0
# C_Vs_to_Am_M_A/Vsm_=_65563218390.804596
# pendiente_HvsI_1/m_=_3716.3
# ordenada_HvsI_A/m_=_1297.0
# frecuencia_Hz_=_212875.17049538667

Tiempo_(s)	Campo_(V.s)	Magnetizacion_(V.s)	Campo_(kA/m)	Magnetizacion_(A/m)
0.000000e+00	-3.966714e-06	-3.551237e-09	-2.914177e+01	-2.353477e+02
1.000000e-08	-3.966650e-06	-3.554132e-09	-2.914131e+01	-2.353579e+02
2.000000e-08	-3.965742e-06	-3.551965e-09	-2.913464e+01	-2.353429e+02
3.000000e-08	-3.963771e-06	-3.549488e-09	-2.912015e+01	-2.353035e+02
4.000000e-08	-3.960960e-06	-3.548351e-09	-2.909950e+01	-2.352415e+02
5.000000e-08	-3.957622e-06	-3.544414e-09	-2.907498e+01	-2.351590e+02
6.000000e-08	-3.953741e-06	-3.532998e-09	-2.904647e+01	-2.350586e+02
7.000000e-08	-3.949257e-06	-3.532504e-09	-2.901353e+01	-2.349432e+02
8.000000e-08	-3.944059e-06	-3.593102e-09	-2.897533e+01	-2.348159e+02
9.000000e-08	-3.937941e-06	-3.611795e-09	-2.893039e+01	-2.346794e+02
1.000000e-07	-3.931047e-06	-3.503814e-09	-2.887975e+01	-2.345362e+02
1.100000e-07	-3.923683e-06	-3.416239e-09	-2.882565e+01	-2.343884e+02
1.200000e-07	-3.915829e-06	-3.559648e-09	-2.876794e+01	-2.342371e+02
1.300000e-07	-3.907285e-06	-3.635281e-09	-2.870517e+01	-2.340830e+02
1.400000e-07	-3.897892e-06	-3.446698e-09	-2.863617e+01	-2.339255e+02
1.500000e-07	-3.887699e-06	-3.509937e-09	-2.856128e+01	-2.337636e+02
1.600000e-07	-3.876658e-06	-3.538854e-09	-2.848017e+01	-2.335951e+02
1.700000e-07	-3.864655e-06	-3.548699e-09	-2.839199e+01	-2.334173e+02
1.800000e-07	-3.852005e-06	-3.558919e-09	-2.829906e+01	-2.332270e+02
1.900000e-07	-3.838820e-06	-3.653650e-09	-2.820219e+01	-2.330205e+02
2.000000e-07	-3.824591e-06	-3.463260e-09	-2.809766e+01	-2.327942e+02
2.100000e-07	-3.809217e-06	-3.460470e-09	-2.798471e+01	-2.325444e+02
2.200000e-07	-3.793210e-06	-3.817093e-09	-2.786711e+01	-2.322680e+02
2.300000e-07	-3.776618e-06	-3.568209e-09	-2.774522e+01	-2.319623e+02
2.400000e-07	-3.759347e-06	-3.348455e-09	-2.761833e+01	-2.316255e+02
2.500000e-07	-3.741520e-06	-3.528777e-09	-2.748737e+01	-2.312563e+02
2.600000e-07	-3.723012e-06	-3.779346e-09	-2.735140e+01	-2.308548e+02
2.700000e-07	-3.703852e-06	-3.492956e-09	-2.721064e+01	-2.304215e+02
2.800000e-07	-3.684269e-06	-3.460906e-09	-2.706677e+01	-2.299580e+02
2.900000e-07	-3.664186e-06	-3.595880e-09	-2.691923e+01	-2.294666e+02
3.000000e-07	-3.643438e-06	-3.511770e-09	-2.676680e+01	-2.289501e+02
3.100000e-07	-3.621981e-06	-3.533329e-09	-2.660917e+01	-2.284115e+02
3.200000e-07	-3.599825e-06	-3.537231e-09	-2.644640e+01	-2.278541e+02
3.300000e-07	-3.577087e-06	-3.515948e-09	-2.627935e+01	-2.272808e+02
3.400000e-07	-3.553800e-06	-3.431143e-09	-2.610827e+01	-2.266945e+02
3.500000e-07	-3.529957e-06	-3.467181e-09	-2.593310e+01	-2.260972e+02
3.600000e-07	-3.505657e-06	-3.606717e-09	-2.575459e+01	-2.254903e+02
3.700000e-07	-3.480609e-06	-3.499459e-09	-2.557057e+01	-2.248745e+02
3.800000e-07	-3.454497e-06	-3.283145e-09	-2.537873e+01	-2.242496e+02
3.900000e-07	-3.427527e-06	-3.506609e-09	-2.518060e+01	-2.236147e+02
4.000000e-07	-3.400090e-06	-3.629970e-09	-2.497903e+01	-2.229678e+02
4.100000e-07	-3.372269e-06	-3.345938e-09	-2.477464e+01	-2.223069e+02
4.200000e-07	-3.343852e-06	-3.303617e-09	-2.456587e+01	-2.216291e+02
4.300000e-07	-3.314830e-06	-3.529596e-09	-2.435266e+01	-2.209315e+02
4.400000e-07	-3.285325e-06	-3.451544e-09	-2.413589e+01	-2.202112e+02
4.500000e-07	-3.255275e-06	-3.302868e-09	-2.391513e+01	-2.194655e+02
4.600000e-07	-3.224589e-06	-3.401574e-09	-2.368970e+01	-2.186922e+02
4.700000e-07	-3.193436e-06	-3.389694e-09	-2.346083e+01	-2.178895e+02
4.800000e-07	-3.161967e-06	-3.323235e-09	-2.322964e+01	-2.170564e+02
4.900000e-07	-3.130091e-06	-3.353125e-09	-2.299545e+01	-2.161927e+02
5.000000e-07	-3.097651e-06	-3.342562e-09	-2.275714e+01	-2.152987e+02
5.100000e-07	-3.064447e-06	-3.285018e-09	-2.251320e+01	-2.143755e+02
5.200000e-07	-3.030311e-06	-3.270641e-09	-2.226242e+01	-2.134248e+02
5.300000e-07	-2.995437e-06	-3.311543e-09	-2.200621e+01	-2.124486e+02
5.400000e-07	-2.960174e-06	-3.290497e-09	-2.174715e+01	-2.114491e+02
5.500000e-07	-2.924557e-06	-3.215580e-09	-2.148549e+01	-2.104284e+02
5.600000e-07	-2.888508e-06	-3.214891e-09	-2.122065e+01	-2.093887e+02
5.700000e-07	-2.852001e-06	-3.248450e-09	-2.095245e+01	-2.083313e+02
5.800000e-07	-2.815001e-06	-3.230272e-09	-2.068062e+01	-2.072575e+02
5.900000e-07	-2.777532e-06	-3.141847e-09	-2.040535e+01	-2.061674e+02
6.000000e-07	-2.739566e-06	-3.136907e-09	-2.012643e+01	-2.050607e+02
6.100000e-07	-2.701031e-06	-3.194546e-09	-1.984334e+01	-2.039362e+02
6.200000e-07	-2.662005e-06	-3.130265e-09	-1.955663e+01	-2.027919e+02
6.300000e-07	-2.622639e-06	-3.073004e-09	-1.926742e+01	-2.016253e+02
6.400000e-07	-2.583028e-06	-3.093355e-09	-1.897642e+01	-2.004334e+02
6.500000e-07	-2.543097e-06	-3.088341e-09	-1.868306e+01	-1.992129e+02
6.600000e-07	-2.502644e-06	-3.039694e-09	-1.838587e+01	-1.979604e+02
6.700000e-07	-2.461417e-06	-3.014706e-09	-1.808299e+01	-1.966726e+02
6.800000e-07	-2.419411e-06	-3.016287e-09	-1.777439e+01	-1.953465e+02
6.900000e-07	-2.376820e-06	-2.970217e-09	-1.746149e+01	-1.939795e+02
7.000000e-07	-2.333736e-06	-2.950093e-09	-1.714497e+01	-1.925697e+02
7.100000e-07	-2.290323e-06	-2.958018e-09	-1.682604e+01	-1.911157e+02
7.200000e-07	-2.246658e-06	-2.907956e-09	-1.650525e+01	-1.896170e+02
7.300000e-07	-2.202717e-06	-2.869313e-09	-1.618243e+01	-1.880735e+02
7.400000e-07	-2.158387e-06	-2.868423e-09	-1.585676e+01	-1.864858e+02
7.500000e-07	-2.113548e-06	-2.859390e-09	-1.552734e+01	-1.848551e+02
7.600000e-07	-2.068294e-06	-2.807586e-09	-1.519488e+01	-1.831827e+02
7.700000e-07	-2.022736e-06	-2.763064e-09	-1.486019e+01	-1.814700e+02
7.800000e-07	-1.976881e-06	-2.767932e-09	-1.452331e+01	-1.797182e+02
7.900000e-07	-1.930734e-06	-2.746484e-09	-1.418429e+01	-1.779285e+02
8.000000e-07	-1.884280e-06	-2.695429e-09	-1.384301e+01	-1.761013e+02
8.100000e-07	-1.837435e-06	-2.658636e-09	-1.349886e+01	-1.742366e+02
8.200000e-07	-1.790288e-06	-2.643497e-09	-1.315249e+01	-1.723336e+02
8.300000e-07	-1.742911e-06	-2.622878e-09	-1.280443e+01	-1.703908e+02
8.400000e-07	-1.695343e-06	-2.575539e-09	-1.245497e+01	-1.684061e+02
8.500000e-07	-1.647560e-06	-2.543829e-09	-1.210393e+01	-1.663765e+02
8.600000e-07	-1.599486e-06	-2.519450e-09	-1.175075e+01	-1.642985e+02
8.700000e-07	-1.551003e-06	-2.483351e-09	-1.139457e+01	-1.621683e+02
8.800000e-07	-1.502000e-06	-2.456247e-09	-1.103456e+01	-1.599819e+02
8.900000e-07	-1.452485e-06	-2.423020e-09	-1.067080e+01	-1.577350e+02
9.000000e-07	-1.402663e-06	-2.381830e-09	-1.030477e+01	-1.554237e+02
9.100000e-07	-1.352509e-06	-2.342441e-09	-9.936312e+00	-1.530441e+02
9.200000e-07	-1.301960e-06	-2.314146e-09	-9.564951e+00	-1.505929e+02
9.300000e-07	-1.251130e-06	-2.279553e-09	-9.191521e+00	-1.480670e+02
9.400000e-07	-1.200048e-06	-2.220989e-09	-8.816247e+00	-1.454641e+02
9.500000e-07	-1.148756e-06	-2.180779e-09	-8.439429e+00	-1.427821e+02
9.600000e-07	-1.097268e-06	-2.150737e-09	-8.061166e+00	-1.400193e+02
9.700000e-07	-1.045654e-06	-2.106354e-09	-7.681980e+00	-1.371745e+02
9.800000e-07	-9.938456e-07	-2.052947e-09	-7.301364e+00	-1.342463e+02
9.900000e-07	-9.418162e-07	-2.002967e-09	-6.919126e+00	-1.312333e+02
1.000000e-06	-8.895403e-07	-1.967399e-09	-6.535078e+00	-1.281339e+02
1.010000e-06	-8.369733e-07	-1.919603e-09	-6.148890e+00	-1.249459e+02
1.020000e-06	-7.842056e-07	-1.865343e-09	-5.761228e+00	-1.216665e+02
1.030000e-06	-7.313762e-07	-1.816603e-09	-5.373113e+00	-1.182923e+02
1.040000e-06	-6.784616e-07	-1.762842e-09	-4.984371e+00	-1.148191e+02
1.050000e-06	-6.253811e-07	-1.708709e-09	-4.594411e+00	-1.112415e+02
1.060000e-06	-5.721988e-07	-1.651012e-09	-4.203703e+00	-1.075539e+02
1.070000e-06	-5.189637e-07	-1.594549e-09	-3.812607e+00	-1.037498e+02
1.080000e-06	-4.656423e-07	-1.531579e-09	-3.420878e+00	-9.982226e+01
1.090000e-06	-4.122386e-07	-1.464304e-09	-3.028543e+00	-9.576425e+01
1.100000e-06	-3.587915e-07	-1.406104e-09	-2.635890e+00	-9.156882e+01
1.110000e-06	-3.052336e-07	-1.338282e-09	-2.242422e+00	-8.722948e+01
1.120000e-06	-2.516684e-07	-1.264789e-09	-1.848901e+00	-8.274048e+01
1.130000e-06	-1.981514e-07	-1.194932e-09	-1.455734e+00	-7.809713e+01
1.140000e-06	-1.446171e-07	-1.124533e-09	-1.062441e+00	-7.329615e+01
1.150000e-06	-9.108362e-08	-1.047827e-09	-6.691529e-01	-6.833583e+01
1.160000e-06	-3.750166e-08	-9.615342e-10	-2.755089e-01	-6.321631e+01
1.170000e-06	1.608538e-08	-8.800575e-10	1.181725e-01	-5.793966e+01
1.180000e-06	6.963432e-08	-7.987998e-10	5.115740e-01	-5.250997e+01
1.190000e-06	1.231240e-07	-7.107720e-10	9.045400e-01	-4.693333e+01
1.200000e-06	1.766024e-07	-6.263367e-10	1.297423e+00	-4.121776e+01
1.210000e-06	2.300487e-07	-5.381826e-10	1.690071e+00	-3.537306e+01
1.220000e-06	2.834333e-07	-4.485258e-10	2.082265e+00	-2.941063e+01
1.230000e-06	3.368408e-07	-3.510876e-10	2.474628e+00	-2.334325e+01
1.240000e-06	3.901790e-07	-2.511020e-10	2.866480e+00	-1.718482e+01
1.250000e-06	4.434508e-07	-1.571850e-10	3.257846e+00	-1.095009e+01
1.260000e-06	4.966684e-07	-5.558915e-11	3.648813e+00	-4.654419e+00
1.270000e-06	5.498035e-07	4.221995e-11	4.039174e+00	1.686490e+00
1.280000e-06	6.028741e-07	1.393768e-10	4.429062e+00	8.056794e+00
1.290000e-06	6.558113e-07	2.372141e-10	4.817969e+00	1.444070e+01
1.300000e-06	7.085816e-07	3.357394e-10	5.205650e+00	2.082264e+01
1.310000e-06	7.611960e-07	4.336011e-10	5.592186e+00	2.718734e+01
1.320000e-06	8.136533e-07	5.269353e-10	5.977568e+00	3.351997e+01
1.330000e-06	8.659206e-07	6.295256e-10	6.361553e+00	3.980617e+01
1.340000e-06	9.179990e-07	7.265975e-10	6.744151e+00	4.603207e+01
1.350000e-06	9.699343e-07	8.197752e-10	7.125698e+00	5.218440e+01
1.360000e-06	1.021702e-06	9.145545e-10	7.506014e+00	5.825044e+01
1.370000e-06	1.073292e-06	1.007676e-09	7.885024e+00	6.421809e+01
1.380000e-06	1.124756e-06	1.095566e-09	8.263110e+00	7.007596e+01
1.390000e-06	1.176058e-06	1.177961e-09	8.640003e+00	7.581338e+01
1.400000e-06	1.227132e-06	1.262690e-09	9.015219e+00	8.142050e+01
1.410000e-06	1.277928e-06	1.347748e-09	9.388399e+00	8.688845e+01
1.420000e-06	1.328446e-06	1.427812e-09	9.759534e+00	9.220937e+01
1.430000e-06	1.378691e-06	1.506314e-09	1.012866e+01	9.737661e+01
1.440000e-06	1.428480e-06	1.582555e-09	1.049444e+01	1.023848e+02
1.450000e-06	1.477716e-06	1.656455e-09	1.085615e+01	1.072301e+02
1.460000e-06	1.526515e-06	1.727390e-09	1.121466e+01	1.119099e+02
1.470000e-06	1.574885e-06	1.792621e-09	1.157001e+01	1.164234e+02
1.480000e-06	1.622890e-06	1.858541e-09	1.192268e+01	1.207713e+02
1.490000e-06	1.670663e-06	1.920565e-09	1.227365e+01	1.249558e+02
1.500000e-06	1.718237e-06	1.981916e-09	1.262317e+01	1.289805e+02
1.510000e-06	1.765675e-06	2.042311e-09	1.297167e+01	1.328505e+02
1.520000e-06	1.812897e-06	2.099508e-09	1.331859e+01	1.365717e+02
1.530000e-06	1.859761e-06	2.153768e-09	1.366288e+01	1.401514e+02
1.540000e-06	1.906257e-06	2.206243e-09	1.400446e+01	1.435971e+02
1.550000e-06	1.952359e-06	2.258122e-09	1.434316e+01	1.469169e+02
1.560000e-06	1.998058e-06	2.303936e-09	1.467889e+01	1.501189e+02
1.570000e-06	2.043419e-06	2.345898e-09	1.501213e+01	1.532112e+02
1.580000e-06	2.088414e-06	2.389666e-09	1.534270e+01	1.562014e+02
1.590000e-06	2.132995e-06	2.431238e-09	1.567021e+01	1.590963e+02
1.600000e-06	2.177200e-06	2.472779e-09	1.599497e+01	1.619023e+02
1.610000e-06	2.221129e-06	2.514912e-09	1.631770e+01	1.646244e+02
1.620000e-06	2.264819e-06	2.555560e-09	1.663867e+01	1.672672e+02
1.630000e-06	2.308319e-06	2.594764e-09	1.695825e+01	1.698339e+02
1.640000e-06	2.351585e-06	2.631822e-09	1.727611e+01	1.723269e+02
1.650000e-06	2.394372e-06	2.666114e-09	1.759044e+01	1.747480e+02
1.660000e-06	2.436540e-06	2.696732e-09	1.790023e+01	1.770982e+02
1.670000e-06	2.477958e-06	2.727702e-09	1.820451e+01	1.793779e+02
1.680000e-06	2.518702e-06	2.759580e-09	1.850384e+01	1.815875e+02
1.690000e-06	2.558882e-06	2.789929e-09	1.879903e+01	1.837271e+02
1.700000e-06	2.598588e-06	2.820028e-09	1.909073e+01	1.857968e+02
1.710000e-06	2.638019e-06	2.848708e-09	1.938041e+01	1.877971e+02
1.720000e-06	2.677151e-06	2.877011e-09	1.966790e+01	1.897287e+02
1.730000e-06	2.715879e-06	2.906457e-09	1.995242e+01	1.915927e+02
1.740000e-06	2.754103e-06	2.933313e-09	2.023323e+01	1.933906e+02
1.750000e-06	2.791836e-06	2.958401e-09	2.051044e+01	1.951244e+02
1.760000e-06	2.829124e-06	2.982355e-09	2.078438e+01	1.967964e+02
1.770000e-06	2.865952e-06	3.006720e-09	2.105494e+01	1.984092e+02
1.780000e-06	2.902279e-06	3.029585e-09	2.132182e+01	1.999655e+02
1.790000e-06	2.938170e-06	3.050940e-09	2.158550e+01	2.014683e+02
1.800000e-06	2.973763e-06	3.074480e-09	2.184698e+01	2.029203e+02
1.810000e-06	3.009018e-06	3.096913e-09	2.210599e+01	2.043241e+02
1.820000e-06	3.043778e-06	3.118798e-09	2.236135e+01	2.056822e+02
1.830000e-06	3.077836e-06	3.141008e-09	2.261156e+01	2.069965e+02
1.840000e-06	3.110981e-06	3.162219e-09	2.285507e+01	2.082689e+02
1.850000e-06	3.143314e-06	3.181672e-09	2.309260e+01	2.095005e+02
1.860000e-06	3.175122e-06	3.198768e-09	2.332628e+01	2.106925e+02
1.870000e-06	3.206519e-06	3.216175e-09	2.355694e+01	2.118454e+02
1.880000e-06	3.237461e-06	3.234992e-09	2.378426e+01	2.129598e+02
1.890000e-06	3.267806e-06	3.253585e-09	2.400719e+01	2.140360e+02
1.900000e-06	3.297572e-06	3.271142e-09	2.422587e+01	2.150743e+02
1.910000e-06	3.326769e-06	3.288248e-09	2.444037e+01	2.160752e+02
1.920000e-06	3.355370e-06	3.304520e-09	2.465049e+01	2.170391e+02
1.930000e-06	3.383445e-06	3.320342e-09	2.485674e+01	2.179668e+02
1.940000e-06	3.411117e-06	3.335529e-09	2.506004e+01	2.188592e+02
1.950000e-06	3.438396e-06	3.348294e-09	2.526044e+01	2.197177e+02
1.960000e-06	3.465020e-06	3.361715e-09	2.545604e+01	2.205437e+02
1.970000e-06	3.490753e-06	3.375911e-09	2.564509e+01	2.213389e+02
1.980000e-06	3.515528e-06	3.387885e-09	2.582710e+01	2.221049e+02
1.990000e-06	3.539548e-06	3.399645e-09	2.600357e+01	2.228437e+02
2.000000e-06	3.562978e-06	3.412691e-09	2.617570e+01	2.235570e+02
2.010000e-06	3.585851e-06	3.425486e-09	2.634374e+01	2.242463e+02
2.020000e-06	3.608136e-06	3.436464e-09	2.650745e+01	2.249131e+02
2.030000e-06	3.629794e-06	3.448214e-09	2.666657e+01	2.255583e+02
2.040000e-06	3.650838e-06	3.459497e-09	2.682117e+01	2.261827e+02
2.050000e-06	3.671241e-06	3.469164e-09	2.697106e+01	2.267866e+02
2.060000e-06	3.691145e-06	3.479166e-09	2.711729e+01	2.273699e+02
2.070000e-06	3.710647e-06	3.489044e-09	2.726056e+01	2.279323e+02
2.080000e-06	3.729595e-06	3.499225e-09	2.739976e+01	2.284733e+02
2.090000e-06	3.747810e-06	3.509087e-09	2.753358e+01	2.289922e+02
2.100000e-06	3.765338e-06	3.517732e-09	2.766235e+01	2.294882e+02
2.110000e-06	3.782316e-06	3.524725e-09	2.778708e+01	2.299606e+02
2.120000e-06	3.798677e-06	3.531829e-09	2.790728e+01	2.304091e+02
2.130000e-06	3.814223e-06	3.539220e-09	2.802149e+01	2.308333e+02
2.140000e-06	3.828983e-06	3.546014e-09	2.812992e+01	2.312335e+02
2.150000e-06	3.842993e-06	3.552559e-09	2.823285e+01	2.316101e+02
2.160000e-06	3.856266e-06	3.559688e-09	2.833036e+01	2.319639e+02
2.170000e-06	3.868875e-06	3.568654e-09	2.842299e+01	2.322962e+02
2.180000e-06	3.880812e-06	3.576228e-09	2.851069e+01	2.326086e+02
2.190000e-06	3.892083e-06	3.580339e-09	2.859349e+01	2.329026e+02
2.200000e-06	3.902549e-06	3.584208e-09	2.867038e+01	2.331800e+02
2.210000e-06	3.911989e-06	3.589715e-09	2.873973e+01	2.334426e+02
2.220000e-06	3.920496e-06	3.594714e-09	2.880223e+01	2.336918e+02
2.230000e-06	3.928314e-06	3.597071e-09	2.885966e+01	2.339287e+02
2.240000e-06	3.935522e-06	3.599741e-09	2.891262e+01	2.341542e+02
2.250000e-06	3.942082e-06	3.603610e-09	2.896081e+01	2.343685e+02
2.260000e-06	3.947936e-06	3.607413e-09	2.900382e+01	2.345714e+02
2.270000e-06	3.953084e-06	3.610030e-09	2.904164e+01	2.347620e+02
2.280000e-06	3.957559e-06	3.613264e-09	2.907452e+01	2.349391e+02
2.290000e-06	3.961484e-06	3.616631e-09	2.910335e+01	2.351010e+02
2.300000e-06	3.964933e-06	3.619438e-09	2.912869e+01	2.352458e+02
2.310000e-06	3.967707e-06	3.622307e-09	2.914907e+01	2.353714e+02
2.320000e-06	3.969557e-06	3.623392e-09	2.916266e+01	2.354760e+02
2.330000e-06	3.970409e-06	3.624591e-09	2.916892e+01	2.355575e+02
2.340000e-06	3.970454e-06	3.627674e-09	2.916925e+01	2.356148e+02
2.350000e-06	3.969902e-06	3.628510e-09	2.916520e+01	2.356467e+02
2.360000e-06	3.968799e-06	3.626102e-09	2.915709e+01	2.356532e+02
2.370000e-06	3.967124e-06	3.629352e-09	2.914479e+01	2.356344e+02
2.380000e-06	3.964820e-06	3.629658e-09	2.912786e+01	2.355916e+02
2.390000e-06	3.961910e-06	3.628434e-09	2.910648e+01	2.355264e+02
2.400000e-06	3.958362e-06	3.635237e-09	2.908042e+01	2.354410e+02
2.410000e-06	3.954264e-06	3.650105e-09	2.905031e+01	2.353383e+02
2.420000e-06	3.949747e-06	3.592011e-09	2.901712e+01	2.352210e+02
2.430000e-06	3.944548e-06	3.528084e-09	2.897893e+01	2.350921e+02
2.440000e-06	3.938199e-06	3.629792e-09	2.893228e+01	2.349545e+02
2.450000e-06	3.930660e-06	3.744406e-09	2.887690e+01	2.348105e+02
2.460000e-06	3.922449e-06	3.596070e-09	2.881657e+01	2.346622e+02
2.470000e-06	3.913982e-06	3.514725e-09	2.875438e+01	2.345105e+02
2.480000e-06	3.904916e-06	3.637703e-09	2.868777e+01	2.343560e+02
2.490000e-06	3.894924e-06	3.631901e-09	2.861437e+01	2.341980e+02
2.500000e-06	3.884435e-06	3.537443e-09	2.853730e+01	2.340353e+02
2.510000e-06	3.873600e-06	3.576714e-09	2.845771e+01	2.338656e+02
2.520000e-06	3.861831e-06	3.583978e-09	2.837124e+01	2.336862e+02
2.530000e-06	3.848984e-06	3.390331e-09	2.827686e+01	2.334937e+02
2.540000e-06	3.835680e-06	3.671509e-09	2.817913e+01	2.332845e+02
2.550000e-06	3.821778e-06	3.756176e-09	2.807699e+01	2.330549e+02
2.560000e-06	3.806772e-06	3.359540e-09	2.796675e+01	2.328014e+02
2.570000e-06	3.790886e-06	3.455973e-09	2.785004e+01	2.325208e+02
2.580000e-06	3.774376e-06	3.801833e-09	2.772875e+01	2.322106e+02
2.590000e-06	3.757185e-06	3.494215e-09	2.760245e+01	2.318690e+02
2.600000e-06	3.739273e-06	3.189531e-09	2.747086e+01	2.314950e+02
2.610000e-06	3.720697e-06	3.661793e-09	2.733439e+01	2.310887e+02
2.620000e-06	3.701519e-06	3.604883e-09	2.719350e+01	2.306508e+02
2.630000e-06	3.681765e-06	3.311966e-09	2.704838e+01	2.301830e+02
2.640000e-06	3.661439e-06	3.547306e-09	2.689905e+01	2.296877e+02
2.650000e-06	3.640689e-06	3.552704e-09	2.674661e+01	2.291677e+02
2.660000e-06	3.619426e-06	3.334886e-09	2.659040e+01	2.286261e+02
2.670000e-06	3.597059e-06	3.426598e-09	2.642607e+01	2.280662e+02
2.680000e-06	3.573591e-06	3.571286e-09	2.625366e+01	2.274908e+02
2.690000e-06	3.549517e-06	3.434092e-09	2.607680e+01	2.269028e+02
2.700000e-06	3.524816e-06	3.311723e-09	2.589534e+01	2.263040e+02
2.710000e-06	3.499468e-06	3.383541e-09	2.570911e+01	2.256958e+02
2.720000e-06	3.473673e-06	3.564649e-09	2.551961e+01	2.250787e+02
2.730000e-06	3.447388e-06	3.427400e-09	2.532651e+01	2.244525e+02
2.740000e-06	3.420377e-06	3.168811e-09	2.512807e+01	2.238159e+02
2.750000e-06	3.392696e-06	3.467817e-09	2.492471e+01	2.231671e+02
2.760000e-06	3.364629e-06	3.534467e-09	2.471851e+01	2.225039e+02
2.770000e-06	3.336161e-06	3.195812e-09	2.450937e+01	2.218233e+02
2.780000e-06	3.307029e-06	3.318670e-09	2.429535e+01	2.211225e+02
2.790000e-06	3.277214e-06	3.444285e-09	2.407631e+01	2.203986e+02
2.800000e-06	3.246713e-06	3.289999e-09	2.385223e+01	2.196490e+02
2.810000e-06	3.215399e-06	3.275171e-09	2.362218e+01	2.188714e+02
2.820000e-06	3.183431e-06	3.304742e-09	2.338733e+01	2.180643e+02
2.830000e-06	3.151087e-06	3.325594e-09	2.314971e+01	2.172266e+02
2.840000e-06	3.118309e-06	3.251902e-09	2.290890e+01	2.163584e+02
2.850000e-06	3.084935e-06	3.218173e-09	2.266372e+01	2.154599e+02
2.860000e-06	3.051020e-06	3.305973e-09	2.241456e+01	2.145326e+02
2.870000e-06	3.016679e-06	3.222877e-09	2.216227e+01	2.135779e+02
2.880000e-06	2.981885e-06	3.162033e-09	2.190665e+01	2.125981e+02
2.890000e-06	2.946488e-06	3.227777e-09	2.164660e+01	2.115953e+02
2.900000e-06	2.910574e-06	3.226688e-09	2.138276e+01	2.105717e+02
2.910000e-06	2.874372e-06	3.139065e-09	2.111680e+01	2.095293e+02
2.920000e-06	2.837848e-06	3.108544e-09	2.084847e+01	2.084695e+02
2.930000e-06	2.800900e-06	3.190747e-09	2.057703e+01	2.073932e+02
2.940000e-06	2.763391e-06	3.148041e-09	2.030147e+01	2.063007e+02
2.950000e-06	2.724991e-06	3.042493e-09	2.001936e+01	2.051915e+02
