# Temperatura_=_20.0
# Concentracion g/m^3_=_9000.0
# C_Vs_to_Am_M_A/Vsm_=_65563218390.804596
# pendiente_HvsI_1/m_=_3716.3
# ordenada_HvsI_A/m_=_1297.0
# frecuencia_Hz_=_212874.90073323686

Tiempo_(s)	Campo_(V.s)	Magnetizacion_(V.s)	Campo_(kA/m)	Magnetizacion_(A/m)
0.000000e+00	-3.988616e-06	-3.544251e-09	-2.913862e+01	-2.353528e+02
1.000000e-08	-3.988683e-06	-3.546015e-09	-2.913910e+01	-2.353897e+02
2.000000e-08	-3.987946e-06	-3.547055e-09	-2.913372e+01	-2.354010e+02
3.000000e-08	-3.986149e-06	-3.547909e-09	-2.912059e+01	-2.353852e+02
4.000000e-08	-3.983424e-06	-3.547452e-09	-2.910068e+01	-2.353417e+02
5.000000e-08	-3.980091e-06	-3.544427e-09	-2.907634e+01	-2.352706e+02
6.000000e-08	-3.976292e-06	-3.536251e-09	-2.904858e+01	-2.351726e+02
7.000000e-08	-3.971956e-06	-3.533357e-09	-2.901691e+01	-2.350494e+02
8.000000e-08	-3.966873e-06	-3.565336e-09	-2.897977e+01	-2.349031e+02
9.000000e-08	-3.960977e-06	-3.590659e-09	-2.893670e+01	-2.347367e+02
1.000000e-07	-3.954315e-06	-3.542182e-09	-2.888803e+01	-2.345534e+02
1.100000e-07	-3.947044e-06	-3.492441e-09	-2.883491e+01	-2.343566e+02
1.200000e-07	-3.939328e-06	-3.536957e-09	-2.877855e+01	-2.341498e+02
1.300000e-07	-3.930976e-06	-3.560932e-09	-2.871753e+01	-2.339362e+02
1.400000e-07	-3.921674e-06	-3.495110e-09	-2.864957e+01	-2.337185e+02
1.500000e-07	-3.911526e-06	-3.541988e-09	-2.857544e+01	-2.334990e+02
1.600000e-07	-3.900662e-06	-3.560324e-09	-2.849607e+01	-2.332790e+02
1.700000e-07	-3.888886e-06	-3.522395e-09	-2.841004e+01	-2.330590e+02
1.800000e-07	-3.876267e-06	-3.537838e-09	-2.831786e+01	-2.328388e+02
1.900000e-07	-3.863043e-06	-3.593216e-09	-2.822125e+01	-2.326169e+02
2.000000e-07	-3.848892e-06	-3.496671e-09	-2.811787e+01	-2.323912e+02
2.100000e-07	-3.833518e-06	-3.495505e-09	-2.800556e+01	-2.321590e+02
2.200000e-07	-3.817317e-06	-3.662274e-09	-2.788720e+01	-2.319169e+02
2.300000e-07	-3.800640e-06	-3.576821e-09	-2.776536e+01	-2.316612e+02
2.400000e-07	-3.783438e-06	-3.482901e-09	-2.763970e+01	-2.313879e+02
2.500000e-07	-3.765638e-06	-3.572053e-09	-2.750966e+01	-2.310935e+02
2.600000e-07	-3.747262e-06	-3.652810e-09	-2.737542e+01	-2.307746e+02
2.700000e-07	-3.728316e-06	-3.512661e-09	-2.723701e+01	-2.304281e+02
2.800000e-07	-3.708856e-06	-3.511776e-09	-2.709484e+01	-2.300520e+02
2.900000e-07	-3.688846e-06	-3.579200e-09	-2.694866e+01	-2.296447e+02
3.000000e-07	-3.668179e-06	-3.527270e-09	-2.679768e+01	-2.292057e+02
3.100000e-07	-3.646834e-06	-3.508518e-09	-2.664174e+01	-2.287350e+02
3.200000e-07	-3.624818e-06	-3.511328e-09	-2.648091e+01	-2.282337e+02
3.300000e-07	-3.602186e-06	-3.513723e-09	-2.631557e+01	-2.277034e+02
3.400000e-07	-3.579009e-06	-3.471519e-09	-2.614626e+01	-2.271461e+02
3.500000e-07	-3.555294e-06	-3.463434e-09	-2.597300e+01	-2.265644e+02
3.600000e-07	-3.530982e-06	-3.520394e-09	-2.579539e+01	-2.259609e+02
3.700000e-07	-3.505947e-06	-3.474304e-09	-2.561251e+01	-2.253381e+02
3.800000e-07	-3.479942e-06	-3.368443e-09	-2.542252e+01	-2.246983e+02
3.900000e-07	-3.453033e-06	-3.471220e-09	-2.522594e+01	-2.240437e+02
4.000000e-07	-3.425634e-06	-3.525896e-09	-2.502578e+01	-2.233756e+02
4.100000e-07	-3.397876e-06	-3.368968e-09	-2.482300e+01	-2.226948e+02
4.200000e-07	-3.369516e-06	-3.355315e-09	-2.461581e+01	-2.220017e+02
4.300000e-07	-3.340502e-06	-3.476106e-09	-2.440385e+01	-2.212957e+02
4.400000e-07	-3.311013e-06	-3.413526e-09	-2.418842e+01	-2.205758e+02
4.500000e-07	-3.281007e-06	-3.329921e-09	-2.396921e+01	-2.198407e+02
4.600000e-07	-3.250341e-06	-3.382821e-09	-2.374519e+01	-2.190883e+02
4.700000e-07	-3.219156e-06	-3.370023e-09	-2.351736e+01	-2.183166e+02
4.800000e-07	-3.187691e-06	-3.323238e-09	-2.328750e+01	-2.175233e+02
4.900000e-07	-3.155875e-06	-3.339342e-09	-2.305507e+01	-2.167063e+02
5.000000e-07	-3.123402e-06	-3.330606e-09	-2.281784e+01	-2.158637e+02
5.100000e-07	-3.090072e-06	-3.284555e-09	-2.257435e+01	-2.149936e+02
5.200000e-07	-3.055846e-06	-3.277538e-09	-2.232431e+01	-2.140948e+02
5.300000e-07	-3.020918e-06	-3.298575e-09	-2.206915e+01	-2.131665e+02
5.400000e-07	-2.985610e-06	-3.277797e-09	-2.181121e+01	-2.122082e+02
5.500000e-07	-2.949959e-06	-3.231195e-09	-2.155077e+01	-2.112198e+02
5.600000e-07	-2.913830e-06	-3.219727e-09	-2.128683e+01	-2.102017e+02
5.700000e-07	-2.877134e-06	-3.231008e-09	-2.101874e+01	-2.091544e+02
5.800000e-07	-2.839960e-06	-3.215644e-09	-2.074717e+01	-2.080788e+02
5.900000e-07	-2.802306e-06	-3.163907e-09	-2.047209e+01	-2.069756e+02
6.000000e-07	-2.764091e-06	-3.150444e-09	-2.019291e+01	-2.058456e+02
6.100000e-07	-2.725355e-06	-3.164129e-09	-1.990993e+01	-2.046895e+02
6.200000e-07	-2.686226e-06	-3.129153e-09	-1.962407e+01	-2.035075e+02
6.300000e-07	-2.646855e-06	-3.098887e-09	-1.933645e+01	-2.022998e+02
6.400000e-07	-2.607208e-06	-3.098141e-09	-1.904681e+01	-2.010662e+02
6.500000e-07	-2.567178e-06	-3.077577e-09	-1.875438e+01	-1.998060e+02
6.600000e-07	-2.526550e-06	-3.041762e-09	-1.845757e+01	-1.985184e+02
6.700000e-07	-2.485045e-06	-3.031773e-09	-1.815436e+01	-1.972021e+02
6.800000e-07	-2.442789e-06	-3.024228e-09	-1.784566e+01	-1.958557e+02
6.900000e-07	-2.400010e-06	-2.982615e-09	-1.753314e+01	-1.944778e+02
7.000000e-07	-2.356795e-06	-2.958127e-09	-1.721743e+01	-1.930668e+02
7.100000e-07	-2.313301e-06	-2.953967e-09	-1.689970e+01	-1.916211e+02
7.200000e-07	-2.269524e-06	-2.923854e-09	-1.657988e+01	-1.901392e+02
7.300000e-07	-2.225436e-06	-2.891365e-09	-1.625780e+01	-1.886198e+02
7.400000e-07	-2.180961e-06	-2.875272e-09	-1.593289e+01	-1.870617e+02
7.500000e-07	-2.136026e-06	-2.856535e-09	-1.560462e+01	-1.854640e+02
7.600000e-07	-2.090698e-06	-2.822031e-09	-1.527348e+01	-1.838259e+02
7.700000e-07	-2.045025e-06	-2.792983e-09	-1.493982e+01	-1.821466e+02
7.800000e-07	-1.999010e-06	-2.777833e-09	-1.460366e+01	-1.804255e+02
7.900000e-07	-1.952634e-06	-2.748386e-09	-1.426486e+01	-1.786621e+02
8.000000e-07	-1.905889e-06	-2.710387e-09	-1.392337e+01	-1.768557e+02
8.100000e-07	-1.858839e-06	-2.683414e-09	-1.357965e+01	-1.750054e+02
8.200000e-07	-1.811587e-06	-2.662169e-09	-1.323445e+01	-1.731103e+02
8.300000e-07	-1.764127e-06	-2.630275e-09	-1.288773e+01	-1.711690e+02
8.400000e-07	-1.716429e-06	-2.589315e-09	-1.253928e+01	-1.691800e+02
8.500000e-07	-1.668513e-06	-2.560383e-09	-1.218923e+01	-1.671416e+02
8.600000e-07	-1.620232e-06	-2.535865e-09	-1.183651e+01	-1.650515e+02
8.700000e-07	-1.571413e-06	-2.501517e-09	-1.147987e+01	-1.629073e+02
8.800000e-07	-1.522095e-06	-2.466359e-09	-1.111958e+01	-1.607066e+02
8.900000e-07	-1.472356e-06	-2.431707e-09	-1.075622e+01	-1.584465e+02
9.000000e-07	-1.422261e-06	-2.395356e-09	-1.039025e+01	-1.561243e+02
9.100000e-07	-1.371789e-06	-2.359188e-09	-1.002153e+01	-1.537372e+02
9.200000e-07	-1.320948e-06	-2.325906e-09	-9.650114e+00	-1.512824e+02
9.300000e-07	-1.269843e-06	-2.285553e-09	-9.276769e+00	-1.487574e+02
9.400000e-07	-1.218503e-06	-2.236238e-09	-8.901704e+00	-1.461596e+02
9.500000e-07	-1.166973e-06	-2.197921e-09	-8.525257e+00	-1.434867e+02
9.600000e-07	-1.115278e-06	-2.162672e-09	-8.147606e+00	-1.407364e+02
9.700000e-07	-1.063346e-06	-2.115537e-09	-7.768218e+00	-1.379065e+02
9.800000e-07	-1.011269e-06	-2.062213e-09	-7.387769e+00	-1.349946e+02
9.900000e-07	-9.590076e-07	-2.015449e-09	-7.005977e+00	-1.319986e+02
1.000000e-06	-9.064956e-07	-1.975526e-09	-6.622354e+00	-1.289156e+02
1.010000e-06	-8.537768e-07	-1.927008e-09	-6.237220e+00	-1.257429e+02
1.020000e-06	-8.008364e-07	-1.873201e-09	-5.850466e+00	-1.224771e+02
1.030000e-06	-7.477544e-07	-1.822185e-09	-5.462679e+00	-1.191142e+02
1.040000e-06	-6.945909e-07	-1.771811e-09	-5.074295e+00	-1.156500e+02
1.050000e-06	-6.413148e-07	-1.719101e-09	-4.685090e+00	-1.120795e+02
1.060000e-06	-5.879414e-07	-1.660213e-09	-4.295174e+00	-1.083973e+02
1.070000e-06	-5.345050e-07	-1.598239e-09	-3.904797e+00	-1.045976e+02
1.080000e-06	-4.810160e-07	-1.534489e-09	-3.514036e+00	-1.006742e+02
1.090000e-06	-4.274552e-07	-1.470278e-09	-3.122750e+00	-9.662090e+01
1.100000e-06	-3.738132e-07	-1.407320e-09	-2.730872e+00	-9.243162e+01
1.110000e-06	-3.201269e-07	-1.338785e-09	-2.338669e+00	-8.810057e+01
1.120000e-06	-2.663871e-07	-1.266490e-09	-1.946076e+00	-8.362257e+01
1.130000e-06	-2.126262e-07	-1.196355e-09	-1.553329e+00	-7.899334e+01
1.140000e-06	-1.588359e-07	-1.126756e-09	-1.160367e+00	-7.420972e+01
1.150000e-06	-1.049962e-07	-1.050855e-09	-7.670441e-01	-6.926992e+01
1.160000e-06	-5.114615e-08	-9.681430e-10	-3.736454e-01	-6.417369e+01
1.170000e-06	2.679009e-09	-8.861292e-10	1.957135e-02	-5.892255e+01
1.180000e-06	5.650981e-08	-8.030301e-10	4.128293e-01	-5.351978e+01
1.190000e-06	1.103216e-07	-7.170187e-10	8.059486e-01	-4.797058e+01
1.200000e-06	1.640710e-07	-6.310362e-10	1.198611e+00	-4.228197e+01
1.210000e-06	2.178171e-07	-5.426806e-10	1.591251e+00	-3.646275e+01
1.220000e-06	2.715125e-07	-4.524197e-10	1.983519e+00	-3.052337e+01
1.230000e-06	3.251074e-07	-3.598894e-10	2.375054e+00	-2.447576e+01
1.240000e-06	3.786721e-07	-2.666824e-10	2.766368e+00	-1.833310e+01
1.250000e-06	4.321734e-07	-1.713853e-10	3.157219e+00	-1.210961e+01
1.260000e-06	4.856161e-07	-7.167785e-11	3.547642e+00	-5.820278e+00
1.270000e-06	5.390419e-07	2.556831e-11	3.937941e+00	5.193494e-01
1.280000e-06	5.923564e-07	1.214241e-10	4.327427e+00	6.893451e+00
1.290000e-06	6.455370e-07	2.184654e-10	4.715935e+00	1.328612e+01
1.300000e-06	6.986018e-07	3.179767e-10	5.103597e+00	1.968158e+01
1.310000e-06	7.515625e-07	4.172089e-10	5.490498e+00	2.606433e+01
1.320000e-06	8.044340e-07	5.142664e-10	5.876748e+00	3.241926e+01
1.330000e-06	8.571881e-07	6.132230e-10	6.262140e+00	3.873180e+01
1.340000e-06	9.097496e-07	7.105475e-10	6.646126e+00	4.498797e+01
1.350000e-06	9.620332e-07	8.061174e-10	7.028081e+00	5.117440e+01
1.360000e-06	1.014103e-06	9.010194e-10	7.408473e+00	5.727843e+01
1.370000e-06	1.066034e-06	9.932912e-10	7.787849e+00	6.328806e+01
1.380000e-06	1.117786e-06	1.082078e-09	8.165925e+00	6.919207e+01
1.390000e-06	1.169381e-06	1.168021e-09	8.542852e+00	7.497998e+01
1.400000e-06	1.220805e-06	1.254546e-09	8.918520e+00	8.064210e+01
1.410000e-06	1.272006e-06	1.339845e-09	9.292572e+00	8.616964e+01
1.420000e-06	1.322939e-06	1.420299e-09	9.664657e+00	9.155473e+01
1.430000e-06	1.373603e-06	1.500158e-09	1.003478e+01	9.679052e+01
1.440000e-06	1.423956e-06	1.579291e-09	1.040263e+01	1.018712e+02
1.450000e-06	1.473871e-06	1.654578e-09	1.076728e+01	1.067924e+02
1.460000e-06	1.523304e-06	1.725599e-09	1.112842e+01	1.115506e+02
1.470000e-06	1.572238e-06	1.793509e-09	1.148590e+01	1.161440e+02
1.480000e-06	1.620699e-06	1.860226e-09	1.183993e+01	1.205720e+02
1.490000e-06	1.668788e-06	1.923844e-09	1.219124e+01	1.248356e+02
1.500000e-06	1.716590e-06	1.986421e-09	1.254045e+01	1.289368e+02
1.510000e-06	1.764217e-06	2.047560e-09	1.288839e+01	1.328794e+02
1.520000e-06	1.811658e-06	2.105997e-09	1.323497e+01	1.366679e+02
1.530000e-06	1.858850e-06	2.161896e-09	1.357972e+01	1.403083e+02
1.540000e-06	1.905721e-06	2.215563e-09	1.392214e+01	1.438072e+02
1.550000e-06	1.952154e-06	2.265921e-09	1.426136e+01	1.471720e+02
1.560000e-06	1.998185e-06	2.311322e-09	1.459763e+01	1.504103e+02
1.570000e-06	2.043869e-06	2.355840e-09	1.493137e+01	1.535301e+02
1.580000e-06	2.089257e-06	2.400148e-09	1.526295e+01	1.565392e+02
1.590000e-06	2.134292e-06	2.441025e-09	1.559195e+01	1.594450e+02
1.600000e-06	2.178865e-06	2.481543e-09	1.591758e+01	1.622545e+02
1.610000e-06	2.222999e-06	2.523327e-09	1.624000e+01	1.649741e+02
1.620000e-06	2.266823e-06	2.564205e-09	1.656015e+01	1.676090e+02
1.630000e-06	2.310406e-06	2.602229e-09	1.687854e+01	1.701639e+02
1.640000e-06	2.353744e-06	2.638846e-09	1.719515e+01	1.726425e+02
1.650000e-06	2.396798e-06	2.674179e-09	1.750968e+01	1.750474e+02
1.660000e-06	2.439438e-06	2.707023e-09	1.782118e+01	1.773806e+02
1.670000e-06	2.481466e-06	2.738772e-09	1.812822e+01	1.796434e+02
1.680000e-06	2.522755e-06	2.769336e-09	1.842985e+01	1.818366e+02
1.690000e-06	2.563277e-06	2.798880e-09	1.872588e+01	1.839605e+02
1.700000e-06	2.603264e-06	2.827470e-09	1.901800e+01	1.860154e+02
1.710000e-06	2.642904e-06	2.855191e-09	1.930759e+01	1.880014e+02
1.720000e-06	2.682244e-06	2.883240e-09	1.959499e+01	1.899190e+02
1.730000e-06	2.721306e-06	2.912133e-09	1.988035e+01	1.917687e+02
1.740000e-06	2.759906e-06	2.939435e-09	2.016234e+01	1.935517e+02
1.750000e-06	2.797962e-06	2.964810e-09	2.044036e+01	1.952692e+02
1.760000e-06	2.835518e-06	2.988915e-09	2.071472e+01	1.969231e+02
1.770000e-06	2.872589e-06	3.012195e-09	2.098554e+01	1.985158e+02
1.780000e-06	2.909179e-06	3.034567e-09	2.125285e+01	2.000497e+02
1.790000e-06	2.945288e-06	3.055889e-09	2.151664e+01	2.015278e+02
1.800000e-06	2.981024e-06	3.076619e-09	2.177771e+01	2.029531e+02
1.810000e-06	3.016448e-06	3.097166e-09	2.203649e+01	2.043285e+02
1.820000e-06	3.051421e-06	3.118813e-09	2.229199e+01	2.056569e+02
1.830000e-06	3.085788e-06	3.139969e-09	2.254306e+01	2.069411e+02
1.840000e-06	3.119392e-06	3.159562e-09	2.278854e+01	2.081833e+02
1.850000e-06	3.152178e-06	3.179599e-09	2.302806e+01	2.093856e+02
1.860000e-06	3.184255e-06	3.198434e-09	2.326240e+01	2.105496e+02
1.870000e-06	3.215831e-06	3.214402e-09	2.349308e+01	2.116765e+02
1.880000e-06	3.246976e-06	3.230624e-09	2.372061e+01	2.127672e+02
1.890000e-06	3.277619e-06	3.248265e-09	2.394447e+01	2.138222e+02
1.900000e-06	3.307736e-06	3.265229e-09	2.416448e+01	2.148420e+02
1.910000e-06	3.337298e-06	3.281523e-09	2.438044e+01	2.158267e+02
1.920000e-06	3.366254e-06	3.297149e-09	2.459198e+01	2.167767e+02
1.930000e-06	3.394566e-06	3.312840e-09	2.479882e+01	2.176922e+02
1.940000e-06	3.422373e-06	3.327402e-09	2.500196e+01	2.185737e+02
1.950000e-06	3.449846e-06	3.340166e-09	2.520266e+01	2.194222e+02
1.960000e-06	3.476825e-06	3.353549e-09	2.539975e+01	2.202385e+02
1.970000e-06	3.503069e-06	3.367649e-09	2.559148e+01	2.210242e+02
1.980000e-06	3.528392e-06	3.380820e-09	2.577647e+01	2.217807e+02
1.990000e-06	3.552787e-06	3.392047e-09	2.595469e+01	2.225098e+02
2.000000e-06	3.576534e-06	3.403927e-09	2.612817e+01	2.232136e+02
2.010000e-06	3.599733e-06	3.416215e-09	2.629765e+01	2.238940e+02
2.020000e-06	3.622317e-06	3.425883e-09	2.646263e+01	2.245529e+02
2.030000e-06	3.644270e-06	3.435980e-09	2.662301e+01	2.251920e+02
2.040000e-06	3.665574e-06	3.447663e-09	2.677865e+01	2.258127e+02
2.050000e-06	3.686260e-06	3.458015e-09	2.692977e+01	2.264159e+02
2.060000e-06	3.706352e-06	3.468091e-09	2.707655e+01	2.270024e+02
2.070000e-06	3.725957e-06	3.478692e-09	2.721977e+01	2.275723e+02
2.080000e-06	3.745168e-06	3.488747e-09	2.736012e+01	2.281252e+02
2.090000e-06	3.763799e-06	3.498405e-09	2.749622e+01	2.286605e+02
2.100000e-06	3.781700e-06	3.508750e-09	2.762700e+01	2.291771e+02
2.110000e-06	3.798944e-06	3.517669e-09	2.775298e+01	2.296738e+02
2.120000e-06	3.815595e-06	3.524323e-09	2.787462e+01	2.301492e+02
2.130000e-06	3.831620e-06	3.531577e-09	2.799169e+01	2.306021e+02
2.140000e-06	3.846859e-06	3.539618e-09	2.810302e+01	2.310312e+02
2.150000e-06	3.861293e-06	3.547005e-09	2.820846e+01	2.314356e+02
2.160000e-06	3.874920e-06	3.552704e-09	2.830801e+01	2.318150e+02
2.170000e-06	3.887758e-06	3.559918e-09	2.840180e+01	2.321692e+02
2.180000e-06	3.899911e-06	3.568684e-09	2.849058e+01	2.324988e+02
2.190000e-06	3.911359e-06	3.574784e-09	2.857422e+01	2.328046e+02
2.200000e-06	3.921961e-06	3.579084e-09	2.865167e+01	2.330880e+02
2.210000e-06	3.931586e-06	3.583048e-09	2.872198e+01	2.333507e+02
2.220000e-06	3.940318e-06	3.588106e-09	2.878578e+01	2.335946e+02
2.230000e-06	3.948332e-06	3.593057e-09	2.884432e+01	2.338218e+02
2.240000e-06	3.955743e-06	3.597174e-09	2.889846e+01	2.340342e+02
2.250000e-06	3.962534e-06	3.601286e-09	2.894807e+01	2.342336e+02
2.260000e-06	3.968623e-06	3.605001e-09	2.899255e+01	2.344213e+02
2.270000e-06	3.974022e-06	3.609585e-09	2.903200e+01	2.345983e+02
2.280000e-06	3.978733e-06	3.615518e-09	2.906642e+01	2.347649e+02
2.290000e-06	3.982788e-06	3.620448e-09	2.909604e+01	2.349209e+02
2.300000e-06	3.986342e-06	3.623135e-09	2.912200e+01	2.350653e+02
2.310000e-06	3.989372e-06	3.626693e-09	2.914414e+01	2.351969e+02
2.320000e-06	3.991539e-06	3.631336e-09	2.915997e+01	2.353137e+02
2.330000e-06	3.992614e-06	3.633597e-09	2.916782e+01	2.354134e+02
2.340000e-06	3.992810e-06	3.633786e-09	2.916925e+01	2.354937e+02
2.350000e-06	3.992420e-06	3.633847e-09	2.916641e+01	2.355521e+02
2.360000e-06	3.991427e-06	3.633934e-09	2.915915e+01	2.355866e+02
2.370000e-06	3.989800e-06	3.635411e-09	2.914726e+01	2.355952e+02
2.380000e-06	3.987589e-06	3.634233e-09	2.913111e+01	2.355768e+02
2.390000e-06	3.984784e-06	3.632351e-09	2.911062e+01	2.355306e+02
2.400000e-06	3.981343e-06	3.638494e-09	2.908548e+01	2.354567e+02
2.410000e-06	3.977324e-06	3.651567e-09	2.905612e+01	2.353562e+02
2.420000e-06	3.972877e-06	3.620370e-09	2.902364e+01	2.352306e+02
2.430000e-06	3.967913e-06	3.570984e-09	2.898737e+01	2.350823e+02
2.440000e-06	3.961904e-06	3.610180e-09	2.894347e+01	2.349141e+02
2.450000e-06	3.954575e-06	3.664127e-09	2.888993e+01	2.347293e+02
2.460000e-06	3.946403e-06	3.624340e-09	2.883023e+01	2.345314e+02
2.470000e-06	3.937931e-06	3.596560e-09	2.876834e+01	2.343238e+02
2.480000e-06	3.929055e-06	3.634733e-09	2.870350e+01	2.341097e+02
2.490000e-06	3.919298e-06	3.599166e-09	2.863222e+01	2.338918e+02
2.500000e-06	3.908837e-06	3.543392e-09	2.855579e+01	2.336722e+02
2.510000e-06	3.898055e-06	3.600060e-09	2.847703e+01	2.334523e+02
2.520000e-06	3.886573e-06	3.590804e-09	2.839315e+01	2.332324e+02
2.530000e-06	3.873907e-06	3.479530e-09	2.830061e+01	2.330121e+02
2.540000e-06	3.860521e-06	3.582926e-09	2.820282e+01	2.327900e+02
2.550000e-06	3.846730e-06	3.626355e-09	2.810207e+01	2.325639e+02
2.560000e-06	3.831961e-06	3.445708e-09	2.799418e+01	2.323309e+02
2.570000e-06	3.816122e-06	3.482989e-09	2.787847e+01	2.320876e+02
2.580000e-06	3.799643e-06	3.642560e-09	2.775808e+01	2.318303e+02
2.590000e-06	3.782568e-06	3.472929e-09	2.763334e+01	2.315552e+02
2.600000e-06	3.764745e-06	3.339688e-09	2.750314e+01	2.312585e+02
2.610000e-06	3.746259e-06	3.565258e-09	2.736809e+01	2.309370e+02
2.620000e-06	3.727161e-06	3.533663e-09	2.722857e+01	2.305877e+02
2.630000e-06	3.707450e-06	3.384052e-09	2.708457e+01	2.302086e+02
2.640000e-06	3.687208e-06	3.501053e-09	2.693670e+01	2.297982e+02
2.650000e-06	3.666454e-06	3.508963e-09	2.678507e+01	2.293560e+02
2.660000e-06	3.645147e-06	3.403658e-09	2.662942e+01	2.288823e+02
2.670000e-06	3.622932e-06	3.454566e-09	2.646713e+01	2.283781e+02
2.680000e-06	3.599600e-06	3.491373e-09	2.629668e+01	2.278450e+02
2.690000e-06	3.575515e-06	3.427550e-09	2.612073e+01	2.272852e+02
2.700000e-06	3.550915e-06	3.393372e-09	2.594101e+01	2.267013e+02
2.710000e-06	3.525655e-06	3.404330e-09	2.575648e+01	2.260957e+02
2.720000e-06	3.499837e-06	3.479766e-09	2.556786e+01	2.254712e+02
2.730000e-06	3.473576e-06	3.417015e-09	2.537602e+01	2.248299e+02
2.740000e-06	3.446671e-06	3.283966e-09	2.517946e+01	2.241739e+02
2.750000e-06	3.419053e-06	3.422823e-09	2.497771e+01	2.235046e+02
2.760000e-06	3.390956e-06	3.454179e-09	2.477244e+01	2.228226e+02
2.770000e-06	3.362517e-06	3.277944e-09	2.456468e+01	2.221283e+02
2.780000e-06	3.333487e-06	3.329881e-09	2.435260e+01	2.214210e+02
2.790000e-06	3.303664e-06	3.394985e-09	2.413473e+01	2.206998e+02
2.800000e-06	3.273095e-06	3.311460e-09	2.391141e+01	2.199630e+02
2.810000e-06	3.241798e-06	3.299952e-09	2.368278e+01	2.192089e+02
2.820000e-06	3.209815e-06	3.316719e-09	2.344912e+01	2.184352e+02
2.830000e-06	3.177370e-06	3.306122e-09	2.321210e+01	2.176397e+02
2.840000e-06	3.144498e-06	3.265210e-09	2.297196e+01	2.168202e+02
2.850000e-06	3.111043e-06	3.254785e-09	2.272756e+01	2.159749e+02
2.860000e-06	3.077061e-06	3.287576e-09	2.247930e+01	2.151021e+02
2.870000e-06	3.042667e-06	3.236593e-09	2.222804e+01	2.142004e+02
2.880000e-06	3.007780e-06	3.191837e-09	2.197317e+01	2.132692e+02
2.890000e-06	2.972285e-06	3.225201e-09	2.171386e+01	2.123079e+02
2.900000e-06	2.936323e-06	3.226445e-09	2.145115e+01	2.113166e+02
2.910000e-06	2.900064e-06	3.169063e-09	2.118625e+01	2.102956e+02
2.920000e-06	2.863457e-06	3.142450e-09	2.091883e+01	2.092455e+02
2.930000e-06	2.826380e-06	3.171533e-09	2.064797e+01	2.081671e+02
2.940000e-06	2.788672e-06	3.147225e-09	2.037249e+01	2.070613e+02
2.950000e-06	2.750135e-06	3.091782e-09	2.009096e+01	2.059287e+02
