# Temperatura_=_20.0
# Concentracion g/m^3_=_9000.0
# C_Vs_to_Am_M_A/Vsm_=_65563218390.804596
# pendiente_HvsI_1/m_=_3716.3
# ordenada_HvsI_A/m_=_1297.0
# frecuencia_Hz_=_212875.9257435595

Tiempo_(s)	Campo_(V.s)	Magnetizacion_(V.s)	Campo_(kA/m)	Magnetizacion_(A/m)
0.000000e+00	-3.964703e-06	-3.519317e-09	-2.913775e+01	-2.342160e+02
1.000000e-08	-3.964801e-06	-3.521012e-09	-2.913846e+01	-2.343039e+02
2.000000e-08	-3.964185e-06	-3.522773e-09	-2.913394e+01	-2.343688e+02
3.000000e-08	-3.962662e-06	-3.525575e-09	-2.912274e+01	-2.344070e+02
4.000000e-08	-3.960152e-06	-3.526042e-09	-2.910430e+01	-2.344150e+02
5.000000e-08	-3.956884e-06	-3.523856e-09	-2.908028e+01	-2.343905e+02
6.000000e-08	-3.953158e-06	-3.515112e-09	-2.905290e+01	-2.343320e+02
7.000000e-08	-3.948884e-06	-3.505110e-09	-2.902148e+01	-2.342393e+02
8.000000e-08	-3.943831e-06	-3.528956e-09	-2.898435e+01	-2.341138e+02
9.000000e-08	-3.937973e-06	-3.574191e-09	-2.894129e+01	-2.339577e+02
1.000000e-07	-3.931361e-06	-3.575005e-09	-2.889271e+01	-2.337748e+02
1.100000e-07	-3.924149e-06	-3.493138e-09	-2.883970e+01	-2.335700e+02
1.200000e-07	-3.916507e-06	-3.446081e-09	-2.878354e+01	-2.333489e+02
1.300000e-07	-3.908304e-06	-3.477980e-09	-2.872325e+01	-2.331177e+02
1.400000e-07	-3.899272e-06	-3.516026e-09	-2.865687e+01	-2.328827e+02
1.500000e-07	-3.889429e-06	-3.577779e-09	-2.858453e+01	-2.326501e+02
1.600000e-07	-3.878810e-06	-3.510869e-09	-2.850649e+01	-2.324254e+02
1.700000e-07	-3.867154e-06	-3.486759e-09	-2.842083e+01	-2.322134e+02
1.800000e-07	-3.854523e-06	-3.487504e-09	-2.832800e+01	-2.320176e+02
1.900000e-07	-3.841388e-06	-3.580862e-09	-2.823147e+01	-2.318400e+02
2.000000e-07	-3.827623e-06	-3.562578e-09	-2.813030e+01	-2.316811e+02
2.100000e-07	-3.812656e-06	-3.484829e-09	-2.802031e+01	-2.315397e+02
2.200000e-07	-3.796642e-06	-3.564347e-09	-2.790262e+01	-2.314131e+02
2.300000e-07	-3.780156e-06	-3.582915e-09	-2.778146e+01	-2.312970e+02
2.400000e-07	-3.763222e-06	-3.630248e-09	-2.765700e+01	-2.311859e+02
2.500000e-07	-3.745629e-06	-3.584304e-09	-2.752771e+01	-2.310732e+02
2.600000e-07	-3.727385e-06	-3.589946e-09	-2.739363e+01	-2.309518e+02
2.700000e-07	-3.708562e-06	-3.575988e-09	-2.725529e+01	-2.308143e+02
2.800000e-07	-3.689200e-06	-3.630684e-09	-2.711299e+01	-2.306532e+02
2.900000e-07	-3.669350e-06	-3.618088e-09	-2.696711e+01	-2.304618e+02
3.000000e-07	-3.648911e-06	-3.507995e-09	-2.681690e+01	-2.302337e+02
3.100000e-07	-3.627758e-06	-3.512696e-09	-2.666144e+01	-2.299641e+02
3.200000e-07	-3.605953e-06	-3.545539e-09	-2.650119e+01	-2.296489e+02
3.300000e-07	-3.583522e-06	-3.578803e-09	-2.633634e+01	-2.292857e+02
3.400000e-07	-3.560479e-06	-3.529092e-09	-2.616698e+01	-2.288735e+02
3.500000e-07	-3.536872e-06	-3.471112e-09	-2.599349e+01	-2.284125e+02
3.600000e-07	-3.512769e-06	-3.502813e-09	-2.581635e+01	-2.279042e+02
3.700000e-07	-3.488144e-06	-3.537765e-09	-2.563537e+01	-2.273512e+02
3.800000e-07	-3.462636e-06	-3.496283e-09	-2.544791e+01	-2.267569e+02
3.900000e-07	-3.436057e-06	-3.474874e-09	-2.525257e+01	-2.261251e+02
4.000000e-07	-3.408732e-06	-3.459645e-09	-2.505175e+01	-2.254601e+02
4.100000e-07	-3.381026e-06	-3.464583e-09	-2.484814e+01	-2.247660e+02
4.200000e-07	-3.352840e-06	-3.478856e-09	-2.464099e+01	-2.240467e+02
4.300000e-07	-3.324002e-06	-3.454086e-09	-2.442904e+01	-2.233055e+02
4.400000e-07	-3.294636e-06	-3.408551e-09	-2.421323e+01	-2.225453e+02
4.500000e-07	-3.264783e-06	-3.409665e-09	-2.399383e+01	-2.217680e+02
4.600000e-07	-3.234331e-06	-3.441175e-09	-2.377003e+01	-2.209747e+02
4.700000e-07	-3.203340e-06	-3.399118e-09	-2.354227e+01	-2.201658e+02
4.800000e-07	-3.171974e-06	-3.360194e-09	-2.331175e+01	-2.193410e+02
4.900000e-07	-3.140276e-06	-3.358535e-09	-2.307879e+01	-2.184993e+02
5.000000e-07	-3.108171e-06	-3.361726e-09	-2.284285e+01	-2.176392e+02
5.100000e-07	-3.075363e-06	-3.357970e-09	-2.260173e+01	-2.167590e+02
5.200000e-07	-3.041676e-06	-3.316343e-09	-2.235415e+01	-2.158568e+02
5.300000e-07	-3.007120e-06	-3.293977e-09	-2.210019e+01	-2.149307e+02
5.400000e-07	-2.971919e-06	-3.306420e-09	-2.184149e+01	-2.139791e+02
5.500000e-07	-2.936384e-06	-3.297544e-09	-2.158033e+01	-2.130006e+02
5.600000e-07	-2.900519e-06	-3.265534e-09	-2.131675e+01	-2.119942e+02
5.700000e-07	-2.864199e-06	-3.231602e-09	-2.104983e+01	-2.109592e+02
5.800000e-07	-2.827359e-06	-3.227218e-09	-2.077908e+01	-2.098954e+02
5.900000e-07	-2.790016e-06	-3.220911e-09	-2.050463e+01	-2.088030e+02
6.000000e-07	-2.752170e-06	-3.201363e-09	-2.022649e+01	-2.076823e+02
6.100000e-07	-2.713811e-06	-3.178054e-09	-1.994458e+01	-2.065339e+02
6.200000e-07	-2.674986e-06	-3.142628e-09	-1.965925e+01	-2.053583e+02
6.300000e-07	-2.635784e-06	-3.141185e-09	-1.937114e+01	-2.041560e+02
6.400000e-07	-2.596289e-06	-3.138171e-09	-1.908088e+01	-2.029275e+02
6.500000e-07	-2.556479e-06	-3.102279e-09	-1.878830e+01	-2.016728e+02
6.600000e-07	-2.516177e-06	-3.068982e-09	-1.849211e+01	-2.003917e+02
6.700000e-07	-2.475163e-06	-3.055895e-09	-1.819069e+01	-1.990834e+02
6.800000e-07	-2.433386e-06	-3.055180e-09	-1.788365e+01	-1.977472e+02
6.900000e-07	-2.390978e-06	-3.025095e-09	-1.757199e+01	-1.963815e+02
7.000000e-07	-2.348019e-06	-2.987502e-09	-1.725626e+01	-1.949847e+02
7.100000e-07	-2.304661e-06	-2.970717e-09	-1.693761e+01	-1.935549e+02
7.200000e-07	-2.261060e-06	-2.957250e-09	-1.661718e+01	-1.920900e+02
7.300000e-07	-2.217193e-06	-2.940458e-09	-1.629479e+01	-1.905881e+02
7.400000e-07	-2.172912e-06	-2.904527e-09	-1.596936e+01	-1.890470e+02
7.500000e-07	-2.128168e-06	-2.872745e-09	-1.564052e+01	-1.874649e+02
7.600000e-07	-2.083068e-06	-2.855401e-09	-1.530906e+01	-1.858400e+02
7.700000e-07	-2.037651e-06	-2.832815e-09	-1.497529e+01	-1.841709e+02
7.800000e-07	-1.991943e-06	-2.804312e-09	-1.463936e+01	-1.824564e+02
7.900000e-07	-1.945937e-06	-2.765648e-09	-1.430125e+01	-1.806957e+02
8.000000e-07	-1.899540e-06	-2.736887e-09	-1.396027e+01	-1.788880e+02
8.100000e-07	-1.852722e-06	-2.718273e-09	-1.361619e+01	-1.770329e+02
8.200000e-07	-1.805652e-06	-2.689378e-09	-1.327025e+01	-1.751298e+02
8.300000e-07	-1.758389e-06	-2.652264e-09	-1.292290e+01	-1.731785e+02
8.400000e-07	-1.710921e-06	-2.614337e-09	-1.257405e+01	-1.711784e+02
8.500000e-07	-1.663246e-06	-2.592949e-09	-1.222367e+01	-1.691290e+02
8.600000e-07	-1.615330e-06	-2.570030e-09	-1.187153e+01	-1.670294e+02
8.700000e-07	-1.567102e-06	-2.528891e-09	-1.151708e+01	-1.648784e+02
8.800000e-07	-1.518431e-06	-2.491036e-09	-1.115938e+01	-1.626747e+02
8.900000e-07	-1.469270e-06	-2.458420e-09	-1.079809e+01	-1.604164e+02
9.000000e-07	-1.419703e-06	-2.428305e-09	-1.043381e+01	-1.581013e+02
9.100000e-07	-1.369757e-06	-2.390487e-09	-1.006674e+01	-1.557270e+02
9.200000e-07	-1.319350e-06	-2.347156e-09	-9.696280e+00	-1.532908e+02
9.300000e-07	-1.268603e-06	-2.308689e-09	-9.323327e+00	-1.507895e+02
9.400000e-07	-1.217590e-06	-2.269459e-09	-8.948417e+00	-1.482201e+02
9.500000e-07	-1.166365e-06	-2.233440e-09	-8.571954e+00	-1.455792e+02
9.600000e-07	-1.114954e-06	-2.188846e-09	-8.194115e+00	-1.428634e+02
9.700000e-07	-1.063282e-06	-2.138601e-09	-7.814366e+00	-1.400690e+02
9.800000e-07	-1.011444e-06	-2.095862e-09	-7.433392e+00	-1.371926e+02
9.900000e-07	-9.594674e-07	-2.053312e-09	-7.051402e+00	-1.342303e+02
1.000000e-06	-9.072744e-07	-2.009521e-09	-6.667821e+00	-1.311786e+02
1.010000e-06	-8.548074e-07	-1.958812e-09	-6.282226e+00	-1.280334e+02
1.020000e-06	-8.021112e-07	-1.907630e-09	-5.894946e+00	-1.247907e+02
1.030000e-06	-7.493440e-07	-1.859957e-09	-5.507145e+00	-1.214463e+02
1.040000e-06	-6.964922e-07	-1.808253e-09	-5.118722e+00	-1.179956e+02
1.050000e-06	-6.434858e-07	-1.753097e-09	-4.729162e+00	-1.144341e+02
1.060000e-06	-5.903156e-07	-1.692426e-09	-4.338399e+00	-1.107566e+02
1.070000e-06	-5.370138e-07	-1.633282e-09	-3.946669e+00	-1.069580e+02
1.080000e-06	-4.836419e-07	-1.573284e-09	-3.554423e+00	-1.030331e+02
1.090000e-06	-4.302456e-07	-1.507509e-09	-3.161998e+00	-9.897651e+01
1.100000e-06	-3.768525e-07	-1.442143e-09	-2.769598e+00	-9.478306e+01
1.110000e-06	-3.234362e-07	-1.374750e-09	-2.377026e+00	-9.044785e+01
1.120000e-06	-2.699758e-07	-1.307041e-09	-1.984130e+00	-8.596649e+01
1.130000e-06	-2.164652e-07	-1.238279e-09	-1.590865e+00	-8.133529e+01
1.140000e-06	-1.628796e-07	-1.164973e-09	-1.197049e+00	-7.655150e+01
1.150000e-06	-1.092439e-07	-1.089862e-09	-8.028650e-01	-7.161356e+01
1.160000e-06	-5.562457e-08	-1.010466e-09	-4.088009e-01	-6.652127e+01
1.170000e-06	-2.052928e-09	-9.288627e-10	-1.508756e-02	-6.127597e+01
1.180000e-06	5.151229e-08	-8.446899e-10	3.785786e-01	-5.588071e+01
1.190000e-06	1.050655e-07	-7.572947e-10	7.721568e-01	-5.034030e+01
1.200000e-06	1.585518e-07	-6.721960e-10	1.165243e+00	-4.466140e+01
1.210000e-06	2.120057e-07	-5.843824e-10	1.558091e+00	-3.885244e+01
1.220000e-06	2.654412e-07	-4.940664e-10	1.950803e+00	-3.292358e+01
1.230000e-06	3.188576e-07	-4.006492e-10	2.343376e+00	-2.688655e+01
1.240000e-06	3.722080e-07	-3.068774e-10	2.735464e+00	-2.075449e+01
1.250000e-06	4.254816e-07	-2.149024e-10	3.126987e+00	-1.454172e+01
1.260000e-06	4.787310e-07	-1.158449e-10	3.518332e+00	-8.263457e+00
1.270000e-06	5.319116e-07	-1.662335e-11	3.909172e+00	-1.935579e+00
1.280000e-06	5.849831e-07	8.071791e-11	4.299209e+00	4.425660e+00
1.290000e-06	6.379621e-07	1.767297e-10	4.688567e+00	1.080390e+01
1.300000e-06	6.907362e-07	2.737777e-10	5.076419e+00	1.718291e+01
1.310000e-06	7.433475e-07	3.744285e-10	5.463074e+00	2.354683e+01
1.320000e-06	7.958441e-07	4.713709e-10	5.848888e+00	2.988031e+01
1.330000e-06	8.481521e-07	5.695389e-10	6.233314e+00	3.616872e+01
1.340000e-06	9.003032e-07	6.668512e-10	6.616587e+00	4.239818e+01
1.350000e-06	9.522625e-07	7.625025e-10	6.998451e+00	4.855568e+01
1.360000e-06	1.004032e-06	8.575230e-10	7.378919e+00	5.462910e+01
1.370000e-06	1.055663e-06	9.480265e-10	7.758368e+00	6.060721e+01
1.380000e-06	1.107160e-06	1.036031e-09	8.136836e+00	6.647968e+01
1.390000e-06	1.158491e-06	1.122115e-09	8.514084e+00	7.223704e+01
1.400000e-06	1.209594e-06	1.208548e-09	8.889654e+00	7.787069e+01
1.410000e-06	1.260512e-06	1.294048e-09	9.263868e+00	8.337288e+01
1.420000e-06	1.311176e-06	1.374576e-09	9.636211e+00	8.873669e+01
1.430000e-06	1.361389e-06	1.454516e-09	1.000524e+01	9.395609e+01
1.440000e-06	1.411113e-06	1.533758e-09	1.037068e+01	9.902593e+01
1.450000e-06	1.460281e-06	1.609848e-09	1.073202e+01	1.039420e+02
1.460000e-06	1.509079e-06	1.680586e-09	1.109065e+01	1.087012e+02
1.470000e-06	1.557515e-06	1.747741e-09	1.144662e+01	1.133013e+02
1.480000e-06	1.605527e-06	1.815890e-09	1.179948e+01	1.177415e+02
1.490000e-06	1.653341e-06	1.881302e-09	1.215088e+01	1.220218e+02
1.500000e-06	1.700966e-06	1.943540e-09	1.250089e+01	1.261437e+02
1.510000e-06	1.748390e-06	2.002987e-09	1.284942e+01	1.301098e+02
1.520000e-06	1.795597e-06	2.061018e-09	1.319636e+01	1.339239e+02
1.530000e-06	1.842546e-06	2.117841e-09	1.354140e+01	1.375907e+02
1.540000e-06	1.889133e-06	2.170290e-09	1.388378e+01	1.411160e+02
1.550000e-06	1.935308e-06	2.219838e-09	1.422314e+01	1.445063e+02
1.560000e-06	1.981120e-06	2.267464e-09	1.455982e+01	1.477689e+02
1.570000e-06	2.026605e-06	2.313495e-09	1.489410e+01	1.509113e+02
1.580000e-06	2.071738e-06	2.358537e-09	1.522580e+01	1.539411e+02
1.590000e-06	2.116515e-06	2.400550e-09	1.555488e+01	1.568658e+02
1.600000e-06	2.160937e-06	2.442184e-09	1.588135e+01	1.596928e+02
1.610000e-06	2.204944e-06	2.484199e-09	1.620477e+01	1.624287e+02
1.620000e-06	2.248656e-06	2.523959e-09	1.652602e+01	1.650795e+02
1.630000e-06	2.292189e-06	2.562439e-09	1.684595e+01	1.676503e+02
1.640000e-06	2.335522e-06	2.599593e-09	1.716442e+01	1.701455e+02
1.650000e-06	2.378568e-06	2.634929e-09	1.748078e+01	1.725682e+02
1.660000e-06	2.421060e-06	2.668603e-09	1.779307e+01	1.749210e+02
1.670000e-06	2.462802e-06	2.699798e-09	1.809984e+01	1.772054e+02
1.680000e-06	2.503788e-06	2.731349e-09	1.840106e+01	1.794223e+02
1.690000e-06	2.544073e-06	2.762642e-09	1.869713e+01	1.815722e+02
1.700000e-06	2.583889e-06	2.792294e-09	1.898974e+01	1.836550e+02
1.710000e-06	2.623458e-06	2.819456e-09	1.928055e+01	1.856709e+02
1.720000e-06	2.662734e-06	2.846840e-09	1.956920e+01	1.876198e+02
1.730000e-06	2.701585e-06	2.875959e-09	1.985473e+01	1.895020e+02
1.740000e-06	2.739929e-06	2.903427e-09	2.013653e+01	1.913182e+02
1.750000e-06	2.777816e-06	2.930643e-09	2.041497e+01	1.930695e+02
1.760000e-06	2.815230e-06	2.956271e-09	2.068994e+01	1.947578e+02
1.770000e-06	2.852122e-06	2.980666e-09	2.096106e+01	1.963851e+02
1.780000e-06	2.888522e-06	3.004567e-09	2.122858e+01	1.979543e+02
1.790000e-06	2.924502e-06	3.025955e-09	2.149301e+01	1.994686e+02
1.800000e-06	2.960182e-06	3.046975e-09	2.175523e+01	2.009313e+02
1.810000e-06	2.995514e-06	3.069118e-09	2.201489e+01	2.023461e+02
1.820000e-06	3.030399e-06	3.092197e-09	2.227128e+01	2.037163e+02
1.830000e-06	3.064634e-06	3.114602e-09	2.252288e+01	2.050453e+02
1.840000e-06	3.097988e-06	3.136077e-09	2.276801e+01	2.063359e+02
1.850000e-06	3.130498e-06	3.157195e-09	2.300693e+01	2.075905e+02
1.860000e-06	3.162373e-06	3.176514e-09	2.324119e+01	2.088109e+02
1.870000e-06	3.193837e-06	3.194595e-09	2.347243e+01	2.099982e+02
1.880000e-06	3.224937e-06	3.212662e-09	2.370099e+01	2.111530e+02
1.890000e-06	3.255501e-06	3.231314e-09	2.392562e+01	2.122750e+02
1.900000e-06	3.285485e-06	3.249929e-09	2.414597e+01	2.133637e+02
1.910000e-06	3.314883e-06	3.267533e-09	2.436203e+01	2.144182e+02
1.920000e-06	3.343633e-06	3.284054e-09	2.457332e+01	2.154374e+02
1.930000e-06	3.371795e-06	3.300560e-09	2.478029e+01	2.164199e+02
1.940000e-06	3.399543e-06	3.316251e-09	2.498422e+01	2.173649e+02
1.950000e-06	3.426939e-06	3.329670e-09	2.518556e+01	2.182714e+02
1.960000e-06	3.453783e-06	3.342123e-09	2.538284e+01	2.191394e+02
1.970000e-06	3.479800e-06	3.356006e-09	2.557405e+01	2.199688e+02
1.980000e-06	3.504839e-06	3.370774e-09	2.575807e+01	2.207607e+02
1.990000e-06	3.529012e-06	3.384104e-09	2.593573e+01	2.215162e+02
2.000000e-06	3.552592e-06	3.396526e-09	2.610902e+01	2.222374e+02
2.010000e-06	3.575666e-06	3.408661e-09	2.627860e+01	2.229265e+02
2.020000e-06	3.598122e-06	3.420182e-09	2.644364e+01	2.235861e+02
2.030000e-06	3.619983e-06	3.431308e-09	2.660430e+01	2.242191e+02
2.040000e-06	3.641281e-06	3.442038e-09	2.676082e+01	2.248281e+02
2.050000e-06	3.661946e-06	3.452733e-09	2.691270e+01	2.254157e+02
2.060000e-06	3.682022e-06	3.462673e-09	2.706024e+01	2.259840e+02
2.070000e-06	3.701678e-06	3.472322e-09	2.720469e+01	2.265346e+02
2.080000e-06	3.720884e-06	3.483042e-09	2.734585e+01	2.270687e+02
2.090000e-06	3.739495e-06	3.492799e-09	2.748263e+01	2.275866e+02
2.100000e-06	3.757372e-06	3.500328e-09	2.761401e+01	2.280880e+02
2.110000e-06	3.774487e-06	3.507920e-09	2.773979e+01	2.285723e+02
2.120000e-06	3.791044e-06	3.515134e-09	2.786148e+01	2.290382e+02
2.130000e-06	3.807019e-06	3.521916e-09	2.797888e+01	2.294840e+02
2.140000e-06	3.822155e-06	3.530044e-09	2.809012e+01	2.299081e+02
2.150000e-06	3.836433e-06	3.538449e-09	2.819505e+01	2.303087e+02
2.160000e-06	3.850021e-06	3.544953e-09	2.829491e+01	2.306845e+02
2.170000e-06	3.862966e-06	3.551675e-09	2.839005e+01	2.310344e+02
2.180000e-06	3.875186e-06	3.559366e-09	2.847986e+01	2.313579e+02
2.190000e-06	3.886727e-06	3.565717e-09	2.856467e+01	2.316552e+02
2.200000e-06	3.897523e-06	3.570220e-09	2.864402e+01	2.319272e+02
2.210000e-06	3.907350e-06	3.574291e-09	2.871624e+01	2.321755e+02
2.220000e-06	3.916126e-06	3.579571e-09	2.878074e+01	2.324022e+02
2.230000e-06	3.924083e-06	3.584498e-09	2.883922e+01	2.326101e+02
2.240000e-06	3.931469e-06	3.587759e-09	2.889350e+01	2.328020e+02
2.250000e-06	3.938262e-06	3.591273e-09	2.894342e+01	2.329812e+02
2.260000e-06	3.944378e-06	3.595732e-09	2.898837e+01	2.331506e+02
2.270000e-06	3.949803e-06	3.599773e-09	2.902824e+01	2.333127e+02
2.280000e-06	3.954522e-06	3.603235e-09	2.906292e+01	2.334697e+02
2.290000e-06	3.958606e-06	3.607319e-09	2.909293e+01	2.336228e+02
2.300000e-06	3.962209e-06	3.611178e-09	2.911941e+01	2.337723e+02
2.310000e-06	3.965265e-06	3.614686e-09	2.914187e+01	2.339178e+02
2.320000e-06	3.967478e-06	3.618626e-09	2.915813e+01	2.340576e+02
2.330000e-06	3.968668e-06	3.621118e-09	2.916689e+01	2.341892e+02
2.340000e-06	3.968990e-06	3.622588e-09	2.916925e+01	2.343094e+02
2.350000e-06	3.968652e-06	3.623367e-09	2.916677e+01	2.344146e+02
2.360000e-06	3.967787e-06	3.624329e-09	2.916041e+01	2.345004e+02
2.370000e-06	3.966302e-06	3.625308e-09	2.914949e+01	2.345629e+02
2.380000e-06	3.964145e-06	3.624240e-09	2.913365e+01	2.345983e+02
2.390000e-06	3.961410e-06	3.625993e-09	2.911354e+01	2.346032e+02
2.400000e-06	3.958035e-06	3.634219e-09	2.908874e+01	2.345755e+02
2.410000e-06	3.954083e-06	3.651064e-09	2.905969e+01	2.345136e+02
2.420000e-06	3.949738e-06	3.636878e-09	2.902776e+01	2.344177e+02
2.430000e-06	3.944867e-06	3.577858e-09	2.899196e+01	2.342890e+02
2.440000e-06	3.939025e-06	3.554238e-09	2.894903e+01	2.341302e+02
2.450000e-06	3.931868e-06	3.623300e-09	2.889643e+01	2.339450e+02
2.460000e-06	3.923720e-06	3.675011e-09	2.883655e+01	2.337384e+02
2.470000e-06	3.915268e-06	3.667681e-09	2.877443e+01	2.335161e+02
2.480000e-06	3.906507e-06	3.609852e-09	2.871004e+01	2.332843e+02
2.490000e-06	3.896919e-06	3.536008e-09	2.863958e+01	2.330493e+02
2.500000e-06	3.886466e-06	3.554201e-09	2.856276e+01	2.328173e+02
2.510000e-06	3.875681e-06	3.604487e-09	2.848349e+01	2.325938e+02
2.520000e-06	3.864428e-06	3.617654e-09	2.840080e+01	2.323834e+02
2.530000e-06	3.851933e-06	3.489461e-09	2.830896e+01	2.321895e+02
2.540000e-06	3.838506e-06	3.510306e-09	2.821028e+01	2.320138e+02
2.550000e-06	3.824779e-06	3.590530e-09	2.810940e+01	2.318569e+02
2.560000e-06	3.810254e-06	3.547488e-09	2.800266e+01	2.317172e+02
2.570000e-06	3.794536e-06	3.493836e-09	2.788714e+01	2.315920e+02
2.580000e-06	3.778086e-06	3.460471e-09	2.776625e+01	2.314767e+02
2.590000e-06	3.761204e-06	3.447937e-09	2.764217e+01	2.313658e+02
2.600000e-06	3.743642e-06	3.420844e-09	2.751310e+01	2.312527e+02
2.610000e-06	3.725306e-06	3.474051e-09	2.737835e+01	2.311301e+02
2.620000e-06	3.706375e-06	3.424718e-09	2.723922e+01	2.309906e+02
2.630000e-06	3.686866e-06	3.432805e-09	2.709584e+01	2.308269e+02
2.640000e-06	3.666773e-06	3.515454e-09	2.694817e+01	2.306322e+02
2.650000e-06	3.646197e-06	3.497408e-09	2.679695e+01	2.304003e+02
2.660000e-06	3.625127e-06	3.464089e-09	2.664210e+01	2.301263e+02
2.670000e-06	3.603247e-06	3.438253e-09	2.648130e+01	2.298065e+02
2.680000e-06	3.580226e-06	3.460110e-09	2.631211e+01	2.294385e+02
2.690000e-06	3.556331e-06	3.484446e-09	2.613650e+01	2.290215e+02
2.700000e-06	3.531878e-06	3.460567e-09	2.595679e+01	2.285558e+02
2.710000e-06	3.506800e-06	3.410945e-09	2.577248e+01	2.280430e+02
2.720000e-06	3.481120e-06	3.417583e-09	2.558375e+01	2.274858e+02
2.730000e-06	3.455001e-06	3.449200e-09	2.539180e+01	2.268876e+02
2.740000e-06	3.428320e-06	3.411602e-09	2.519571e+01	2.262524e+02
2.750000e-06	3.400877e-06	3.409039e-09	2.499402e+01	2.255844e+02
2.760000e-06	3.372911e-06	3.384375e-09	2.478850e+01	2.248877e+02
2.770000e-06	3.344607e-06	3.352377e-09	2.458048e+01	2.241661e+02
2.780000e-06	3.315817e-06	3.404831e-09	2.436889e+01	2.234230e+02
2.790000e-06	3.286403e-06	3.373950e-09	2.415272e+01	2.226611e+02
2.800000e-06	3.256250e-06	3.316608e-09	2.393112e+01	2.218823e+02
2.810000e-06	3.225286e-06	3.337414e-09	2.370355e+01	2.210875e+02
2.820000e-06	3.193562e-06	3.332442e-09	2.347041e+01	2.202772e+02
2.830000e-06	3.161309e-06	3.328329e-09	2.323337e+01	2.194508e+02
2.840000e-06	3.128661e-06	3.292828e-09	2.299343e+01	2.186074e+02
2.850000e-06	3.095490e-06	3.262365e-09	2.274965e+01	2.177455e+02
2.860000e-06	3.061765e-06	3.287408e-09	2.250179e+01	2.168632e+02
2.870000e-06	3.027597e-06	3.267632e-09	2.225068e+01	2.159588e+02
2.880000e-06	2.993009e-06	3.240882e-09	2.199649e+01	2.150303e+02
2.890000e-06	2.957857e-06	3.225619e-09	2.173814e+01	2.140762e+02
2.900000e-06	2.922105e-06	3.219561e-09	2.147539e+01	2.130950e+02
2.910000e-06	2.885989e-06	3.212692e-09	2.120997e+01	2.120858e+02
2.920000e-06	2.849593e-06	3.185648e-09	2.094248e+01	2.110481e+02
2.930000e-06	2.812818e-06	3.175787e-09	2.067221e+01	2.099816e+02
2.940000e-06	2.775502e-06	3.153081e-09	2.039796e+01	2.088864e+02
2.950000e-06	2.737365e-06	3.137156e-09	2.011768e+01	2.077630e+02
