# Temperatura_=_20.0
# Concentracion g/m^3_=_9000.0
# C_Vs_to_Am_M_A/Vsm_=_65563218390.804596
# pendiente_HvsI_1/m_=_3716.3
# ordenada_HvsI_A/m_=_1297.0
# frecuencia_Hz_=_212873.7065419546

Tiempo_(s)	Campo_(V.s)	Magnetizacion_(V.s)	Campo_(kA/m)	Magnetizacion_(A/m)
0.000000e+00	-3.986163e-06	-3.490410e-09	-2.914028e+01	-2.331983e+02
1.000000e-08	-3.986119e-06	-3.492042e-09	-2.913996e+01	-2.332892e+02
2.000000e-08	-3.985387e-06	-3.492275e-09	-2.913460e+01	-2.333504e+02
3.000000e-08	-3.983811e-06	-3.492143e-09	-2.912308e+01	-2.333769e+02
4.000000e-08	-3.981341e-06	-3.492330e-09	-2.910503e+01	-2.333651e+02
5.000000e-08	-3.978146e-06	-3.490321e-09	-2.908167e+01	-2.333131e+02
6.000000e-08	-3.974372e-06	-3.484359e-09	-2.905408e+01	-2.332205e+02
7.000000e-08	-3.970002e-06	-3.488158e-09	-2.902213e+01	-2.330891e+02
8.000000e-08	-3.964921e-06	-3.523359e-09	-2.898499e+01	-2.329225e+02
9.000000e-08	-3.959058e-06	-3.528573e-09	-2.894213e+01	-2.327263e+02
1.000000e-07	-3.952394e-06	-3.461021e-09	-2.889341e+01	-2.325076e+02
1.100000e-07	-3.945113e-06	-3.447505e-09	-2.884018e+01	-2.322748e+02
1.200000e-07	-3.937414e-06	-3.550660e-09	-2.878390e+01	-2.320369e+02
1.300000e-07	-3.929083e-06	-3.536030e-09	-2.872300e+01	-2.318032e+02
1.400000e-07	-3.919880e-06	-3.403317e-09	-2.865572e+01	-2.315825e+02
1.500000e-07	-3.909847e-06	-3.474417e-09	-2.858238e+01	-2.313827e+02
1.600000e-07	-3.898923e-06	-3.549118e-09	-2.850252e+01	-2.312103e+02
1.700000e-07	-3.887096e-06	-3.497154e-09	-2.841606e+01	-2.310698e+02
1.800000e-07	-3.874555e-06	-3.504520e-09	-2.832438e+01	-2.309633e+02
1.900000e-07	-3.861360e-06	-3.560595e-09	-2.822792e+01	-2.308907e+02
2.000000e-07	-3.847339e-06	-3.417407e-09	-2.812543e+01	-2.308491e+02
2.100000e-07	-3.832343e-06	-3.483063e-09	-2.801579e+01	-2.308334e+02
2.200000e-07	-3.816419e-06	-3.700097e-09	-2.789938e+01	-2.308362e+02
2.300000e-07	-3.799842e-06	-3.522776e-09	-2.777820e+01	-2.308483e+02
2.400000e-07	-3.782716e-06	-3.392823e-09	-2.765301e+01	-2.308592e+02
2.500000e-07	-3.764970e-06	-3.609489e-09	-2.752328e+01	-2.308577e+02
2.600000e-07	-3.746585e-06	-3.730149e-09	-2.738888e+01	-2.308323e+02
2.700000e-07	-3.727599e-06	-3.482639e-09	-2.725008e+01	-2.307720e+02
2.800000e-07	-3.708124e-06	-3.501946e-09	-2.710771e+01	-2.306670e+02
2.900000e-07	-3.688137e-06	-3.649101e-09	-2.696160e+01	-2.305089e+02
3.000000e-07	-3.667526e-06	-3.593254e-09	-2.681093e+01	-2.302910e+02
3.100000e-07	-3.646253e-06	-3.537209e-09	-2.665541e+01	-2.300093e+02
3.200000e-07	-3.624356e-06	-3.548586e-09	-2.649533e+01	-2.296616e+02
3.300000e-07	-3.601854e-06	-3.563506e-09	-2.633084e+01	-2.292484e+02
3.400000e-07	-3.578766e-06	-3.502034e-09	-2.616206e+01	-2.287721e+02
3.500000e-07	-3.555128e-06	-3.514856e-09	-2.598926e+01	-2.282373e+02
3.600000e-07	-3.530907e-06	-3.607324e-09	-2.581219e+01	-2.276500e+02
3.700000e-07	-3.505948e-06	-3.507838e-09	-2.562973e+01	-2.270170e+02
3.800000e-07	-3.480074e-06	-3.366115e-09	-2.544058e+01	-2.263461e+02
3.900000e-07	-3.453340e-06	-3.563472e-09	-2.524515e+01	-2.256450e+02
4.000000e-07	-3.426011e-06	-3.623321e-09	-2.504537e+01	-2.249208e+02
4.100000e-07	-3.398217e-06	-3.352127e-09	-2.484218e+01	-2.241801e+02
4.200000e-07	-3.369871e-06	-3.371551e-09	-2.463496e+01	-2.234282e+02
4.300000e-07	-3.340946e-06	-3.586434e-09	-2.442351e+01	-2.226687e+02
4.400000e-07	-3.311501e-06	-3.457939e-09	-2.420825e+01	-2.219041e+02
4.500000e-07	-3.281557e-06	-3.323773e-09	-2.398936e+01	-2.211351e+02
4.600000e-07	-3.251028e-06	-3.435593e-09	-2.376618e+01	-2.203609e+02
4.700000e-07	-3.219915e-06	-3.437895e-09	-2.353873e+01	-2.195794e+02
4.800000e-07	-3.188408e-06	-3.358129e-09	-2.330840e+01	-2.187877e+02
4.900000e-07	-3.156571e-06	-3.369914e-09	-2.307566e+01	-2.179820e+02
5.000000e-07	-3.124185e-06	-3.374481e-09	-2.283891e+01	-2.171581e+02
5.100000e-07	-3.091004e-06	-3.327131e-09	-2.259634e+01	-2.163121e+02
5.200000e-07	-3.056961e-06	-3.321290e-09	-2.234748e+01	-2.154401e+02
5.300000e-07	-3.022182e-06	-3.347174e-09	-2.209323e+01	-2.145390e+02
5.400000e-07	-2.986912e-06	-3.312884e-09	-2.183539e+01	-2.136064e+02
5.500000e-07	-2.951264e-06	-3.255591e-09	-2.157479e+01	-2.126408e+02
5.600000e-07	-2.915192e-06	-3.260612e-09	-2.131110e+01	-2.116418e+02
5.700000e-07	-2.878617e-06	-3.292267e-09	-2.104372e+01	-2.106096e+02
5.800000e-07	-2.841544e-06	-3.256245e-09	-2.077270e+01	-2.095455e+02
5.900000e-07	-2.803977e-06	-3.177681e-09	-2.049807e+01	-2.084511e+02
6.000000e-07	-2.765886e-06	-3.196689e-09	-2.021962e+01	-2.073287e+02
6.100000e-07	-2.727315e-06	-3.235260e-09	-1.993765e+01	-2.061803e+02
6.200000e-07	-2.688314e-06	-3.167834e-09	-1.965254e+01	-2.050082e+02
6.300000e-07	-2.648953e-06	-3.118970e-09	-1.936479e+01	-2.038138e+02
6.400000e-07	-2.609293e-06	-3.143967e-09	-1.907486e+01	-2.025984e+02
6.500000e-07	-2.569256e-06	-3.137940e-09	-1.878218e+01	-2.013622e+02
6.600000e-07	-2.528652e-06	-3.085981e-09	-1.848535e+01	-2.001048e+02
6.700000e-07	-2.487285e-06	-3.070443e-09	-1.818295e+01	-1.988250e+02
6.800000e-07	-2.445239e-06	-3.068123e-09	-1.787557e+01	-1.975207e+02
6.900000e-07	-2.402593e-06	-3.027081e-09	-1.756381e+01	-1.961892e+02
7.000000e-07	-2.359429e-06	-3.008177e-09	-1.724827e+01	-1.948274e+02
7.100000e-07	-2.315963e-06	-3.004613e-09	-1.693052e+01	-1.934319e+02
7.200000e-07	-2.272256e-06	-2.964408e-09	-1.661100e+01	-1.919990e+02
7.300000e-07	-2.228240e-06	-2.929147e-09	-1.628923e+01	-1.905255e+02
7.400000e-07	-2.183749e-06	-2.925100e-09	-1.596399e+01	-1.890084e+02
7.500000e-07	-2.138857e-06	-2.911860e-09	-1.563581e+01	-1.874449e+02
7.600000e-07	-2.093643e-06	-2.864552e-09	-1.530527e+01	-1.858332e+02
7.700000e-07	-2.048021e-06	-2.831886e-09	-1.497176e+01	-1.841720e+02
7.800000e-07	-2.002006e-06	-2.827770e-09	-1.463538e+01	-1.824605e+02
7.900000e-07	-1.955648e-06	-2.800788e-09	-1.429649e+01	-1.806986e+02
8.000000e-07	-1.908956e-06	-2.754215e-09	-1.395515e+01	-1.788866e+02
8.100000e-07	-1.861959e-06	-2.724363e-09	-1.361159e+01	-1.770252e+02
8.200000e-07	-1.814747e-06	-2.712120e-09	-1.326645e+01	-1.751152e+02
8.300000e-07	-1.767330e-06	-2.681918e-09	-1.291982e+01	-1.731571e+02
8.400000e-07	-1.719659e-06	-2.634375e-09	-1.257132e+01	-1.711516e+02
8.500000e-07	-1.671774e-06	-2.605569e-09	-1.222127e+01	-1.690986e+02
8.600000e-07	-1.623520e-06	-2.582061e-09	-1.186851e+01	-1.669978e+02
8.700000e-07	-1.574684e-06	-2.545594e-09	-1.151150e+01	-1.648479e+02
8.800000e-07	-1.525416e-06	-2.508816e-09	-1.115134e+01	-1.626474e+02
8.900000e-07	-1.475759e-06	-2.474587e-09	-1.078833e+01	-1.603938e+02
9.000000e-07	-1.425662e-06	-2.438072e-09	-1.042210e+01	-1.580842e+02
9.100000e-07	-1.375184e-06	-2.401258e-09	-1.005309e+01	-1.557153e+02
9.200000e-07	-1.324363e-06	-2.370076e-09	-9.681569e+00	-1.532834e+02
9.300000e-07	-1.273294e-06	-2.328583e-09	-9.308232e+00	-1.507844e+02
9.400000e-07	-1.222032e-06	-2.276388e-09	-8.933493e+00	-1.482146e+02
9.500000e-07	-1.170566e-06	-2.239014e-09	-8.557254e+00	-1.455699e+02
9.600000e-07	-1.118848e-06	-2.205698e-09	-8.179180e+00	-1.428467e+02
9.700000e-07	-1.066926e-06	-2.156922e-09	-7.799612e+00	-1.400414e+02
9.800000e-07	-1.014864e-06	-2.100118e-09	-7.419016e+00	-1.371509e+02
9.900000e-07	-9.626406e-07	-2.055784e-09	-7.037247e+00	-1.341722e+02
1.000000e-06	-9.101896e-07	-2.019142e-09	-6.653811e+00	-1.311025e+02
1.010000e-06	-8.574425e-07	-1.968158e-09	-6.268211e+00	-1.279391e+02
1.020000e-06	-8.045310e-07	-1.911439e-09	-5.881409e+00	-1.246791e+02
1.030000e-06	-7.515197e-07	-1.859419e-09	-5.493877e+00	-1.213196e+02
1.040000e-06	-6.983884e-07	-1.807998e-09	-5.105468e+00	-1.178572e+02
1.050000e-06	-6.451583e-07	-1.753466e-09	-4.716338e+00	-1.142882e+02
1.060000e-06	-5.918316e-07	-1.692970e-09	-4.326500e+00	-1.106083e+02
1.070000e-06	-5.384192e-07	-1.631239e-09	-3.936037e+00	-1.068126e+02
1.080000e-06	-4.849251e-07	-1.567735e-09	-3.544976e+00	-1.028958e+02
1.090000e-06	-4.313862e-07	-1.505764e-09	-3.153587e+00	-9.885204e+01
1.100000e-06	-3.778175e-07	-1.444963e-09	-2.761981e+00	-9.467526e+01
1.110000e-06	-3.241786e-07	-1.374768e-09	-2.369861e+00	-9.035938e+01
1.120000e-06	-2.704588e-07	-1.301362e-09	-1.977150e+00	-8.589852e+01
1.130000e-06	-2.166743e-07	-1.233292e-09	-1.583967e+00	-8.128738e+01
1.140000e-06	-1.628755e-07	-1.165319e-09	-1.190678e+00	-7.652154e+01
1.150000e-06	-1.090981e-07	-1.086808e-09	-7.975461e-01	-7.159780e+01
1.160000e-06	-5.528038e-08	-1.002408e-09	-4.041193e-01	-6.651451e+01
1.170000e-06	-1.482582e-09	-9.228108e-10	-1.083820e-02	-6.127185e+01
1.180000e-06	5.226976e-08	-8.408798e-10	3.821106e-01	-5.587203e+01
1.190000e-06	1.060678e-07	-7.526456e-10	7.753934e-01	-5.031945e+01
1.200000e-06	1.598584e-07	-6.641061e-10	1.168622e+00	-4.462075e+01
1.210000e-06	2.135585e-07	-5.747307e-10	1.561189e+00	-3.878480e+01
1.220000e-06	2.671849e-07	-4.844116e-10	1.953217e+00	-3.282256e+01
1.230000e-06	3.207817e-07	-3.910752e-10	2.345029e+00	-2.674692e+01
1.240000e-06	3.743189e-07	-2.976891e-10	2.736405e+00	-2.057239e+01
1.250000e-06	4.278079e-07	-2.034043e-10	3.127429e+00	-1.431481e+01
1.260000e-06	4.812391e-07	-1.039149e-10	3.518030e+00	-7.990979e+00
1.270000e-06	5.345947e-07	-6.790326e-12	3.908079e+00	-1.618295e+00
1.280000e-06	5.878838e-07	9.006205e-11	4.297641e+00	4.785634e+00
1.290000e-06	6.410538e-07	1.884129e-10	4.686333e+00	1.120332e+01
1.300000e-06	6.940966e-07	2.875529e-10	5.074094e+00	1.761770e+01
1.310000e-06	7.470278e-07	3.848440e-10	5.461040e+00	2.401238e+01
1.320000e-06	7.998353e-07	4.809471e-10	5.847082e+00	3.037184e+01
1.330000e-06	8.524978e-07	5.817509e-10	6.232064e+00	3.668152e+01
1.340000e-06	9.049954e-07	6.784096e-10	6.615839e+00	4.292794e+01
1.350000e-06	9.572562e-07	7.729006e-10	6.997885e+00	4.909864e+01
1.360000e-06	1.009302e-06	8.678817e-10	7.378360e+00	5.518216e+01
1.370000e-06	1.061197e-06	9.612528e-10	7.757730e+00	6.116799e+01
1.380000e-06	1.112914e-06	1.049536e-09	8.135803e+00	6.704645e+01
1.390000e-06	1.164459e-06	1.132749e-09	8.512610e+00	7.280861e+01
1.400000e-06	1.215789e-06	1.218557e-09	8.887851e+00	7.844624e+01
1.410000e-06	1.266963e-06	1.304343e-09	9.261949e+00	8.395172e+01
1.420000e-06	1.318009e-06	1.385472e-09	9.635120e+00	8.931807e+01
1.430000e-06	1.368721e-06	1.464256e-09	1.000584e+01	9.453895e+01
1.440000e-06	1.418984e-06	1.541576e-09	1.037328e+01	9.960873e+01
1.450000e-06	1.468841e-06	1.617329e-09	1.073776e+01	1.045226e+02
1.460000e-06	1.518255e-06	1.689983e-09	1.109899e+01	1.092768e+02
1.470000e-06	1.567124e-06	1.758737e-09	1.145623e+01	1.138684e+02
1.480000e-06	1.615556e-06	1.824623e-09	1.181030e+01	1.182960e+02
1.490000e-06	1.663679e-06	1.888697e-09	1.216209e+01	1.225593e+02
1.500000e-06	1.711472e-06	1.952926e-09	1.251147e+01	1.266596e+02
1.510000e-06	1.759016e-06	2.012107e-09	1.285904e+01	1.305996e+02
1.520000e-06	1.806362e-06	2.067190e-09	1.320515e+01	1.343834e+02
1.530000e-06	1.853499e-06	2.121524e-09	1.354974e+01	1.380165e+02
1.540000e-06	1.900369e-06	2.174759e-09	1.389238e+01	1.415057e+02
1.550000e-06	1.946876e-06	2.226015e-09	1.423236e+01	1.448585e+02
1.560000e-06	1.992903e-06	2.273080e-09	1.456884e+01	1.480836e+02
1.570000e-06	2.038525e-06	2.318897e-09	1.490235e+01	1.511896e+02
1.580000e-06	2.083848e-06	2.363238e-09	1.523367e+01	1.541856e+02
1.590000e-06	2.128833e-06	2.404339e-09	1.556253e+01	1.570802e+02
1.600000e-06	2.173462e-06	2.445139e-09	1.588879e+01	1.598815e+02
1.610000e-06	2.217693e-06	2.486114e-09	1.621213e+01	1.625969e+02
1.620000e-06	2.261584e-06	2.527274e-09	1.653299e+01	1.652324e+02
1.630000e-06	2.305197e-06	2.566867e-09	1.685181e+01	1.677932e+02
1.640000e-06	2.348570e-06	2.604852e-09	1.716889e+01	1.702829e+02
1.650000e-06	2.391676e-06	2.640232e-09	1.748401e+01	1.727039e+02
1.660000e-06	2.434338e-06	2.673280e-09	1.779588e+01	1.750575e+02
1.670000e-06	2.476390e-06	2.705351e-09	1.810330e+01	1.773439e+02
1.680000e-06	2.517730e-06	2.737119e-09	1.840551e+01	1.795624e+02
1.690000e-06	2.558349e-06	2.768715e-09	1.870245e+01	1.817120e+02
1.700000e-06	2.598412e-06	2.799079e-09	1.899532e+01	1.837914e+02
1.710000e-06	2.638080e-06	2.827875e-09	1.928531e+01	1.857993e+02
1.720000e-06	2.677427e-06	2.856008e-09	1.957295e+01	1.877349e+02
1.730000e-06	2.716423e-06	2.884445e-09	1.985802e+01	1.895978e+02
1.740000e-06	2.754949e-06	2.912821e-09	2.013966e+01	1.913885e+02
1.750000e-06	2.793000e-06	2.941347e-09	2.041783e+01	1.931084e+02
1.760000e-06	2.830576e-06	2.967062e-09	2.069252e+01	1.947597e+02
1.770000e-06	2.867654e-06	2.990004e-09	2.096357e+01	1.963455e+02
1.780000e-06	2.904248e-06	3.012786e-09	2.123109e+01	1.978696e+02
1.790000e-06	2.940397e-06	3.035375e-09	2.149535e+01	1.993365e+02
1.800000e-06	2.976202e-06	3.057002e-09	2.175710e+01	2.007508e+02
1.810000e-06	3.011665e-06	3.077571e-09	2.201634e+01	2.021172e+02
1.820000e-06	3.046716e-06	3.099855e-09	2.227258e+01	2.034402e+02
1.830000e-06	3.081135e-06	3.122224e-09	2.252420e+01	2.047240e+02
1.840000e-06	3.114684e-06	3.141917e-09	2.276946e+01	2.059718e+02
1.850000e-06	3.147463e-06	3.160650e-09	2.300908e+01	2.071861e+02
1.860000e-06	3.179631e-06	3.179910e-09	2.324424e+01	2.083686e+02
1.870000e-06	3.211246e-06	3.198788e-09	2.347535e+01	2.095198e+02
1.880000e-06	3.242397e-06	3.215872e-09	2.370308e+01	2.106396e+02
1.890000e-06	3.273064e-06	3.232323e-09	2.392727e+01	2.117268e+02
1.900000e-06	3.303168e-06	3.248752e-09	2.414734e+01	2.127800e+02
1.910000e-06	3.332696e-06	3.266262e-09	2.436320e+01	2.137972e+02
1.920000e-06	3.361619e-06	3.283324e-09	2.457463e+01	2.147764e+02
1.930000e-06	3.389962e-06	3.298552e-09	2.478183e+01	2.157160e+02
1.940000e-06	3.417797e-06	3.313875e-09	2.498532e+01	2.166145e+02
1.950000e-06	3.445215e-06	3.328412e-09	2.518575e+01	2.174715e+02
1.960000e-06	3.472140e-06	3.341842e-09	2.538259e+01	2.182871e+02
1.970000e-06	3.498352e-06	3.355036e-09	2.557421e+01	2.190625e+02
1.980000e-06	3.523662e-06	3.366789e-09	2.575923e+01	2.197997e+02
1.990000e-06	3.548067e-06	3.376582e-09	2.593764e+01	2.205016e+02
2.000000e-06	3.571765e-06	3.388194e-09	2.611088e+01	2.211718e+02
2.010000e-06	3.594898e-06	3.401055e-09	2.627999e+01	2.218144e+02
2.020000e-06	3.617478e-06	3.411686e-09	2.644506e+01	2.224336e+02
2.030000e-06	3.639457e-06	3.422013e-09	2.660573e+01	2.230338e+02
2.040000e-06	3.660844e-06	3.433021e-09	2.676208e+01	2.236188e+02
2.050000e-06	3.681590e-06	3.443810e-09	2.691374e+01	2.241918e+02
2.060000e-06	3.701732e-06	3.454317e-09	2.706098e+01	2.247552e+02
2.070000e-06	3.721408e-06	3.464233e-09	2.720482e+01	2.253104e+02
2.080000e-06	3.740630e-06	3.473784e-09	2.734534e+01	2.258577e+02
2.090000e-06	3.759305e-06	3.483364e-09	2.748186e+01	2.263961e+02
2.100000e-06	3.777261e-06	3.492780e-09	2.761313e+01	2.269238e+02
2.110000e-06	3.794484e-06	3.501131e-09	2.773904e+01	2.274381e+02
2.120000e-06	3.811120e-06	3.508554e-09	2.786065e+01	2.279355e+02
2.130000e-06	3.827169e-06	3.515411e-09	2.797798e+01	2.284123e+02
2.140000e-06	3.842462e-06	3.522435e-09	2.808977e+01	2.288647e+02
2.150000e-06	3.856961e-06	3.529874e-09	2.819577e+01	2.292895e+02
2.160000e-06	3.870698e-06	3.537340e-09	2.829619e+01	2.296837e+02
2.170000e-06	3.883650e-06	3.545607e-09	2.839087e+01	2.300455e+02
2.180000e-06	3.895897e-06	3.552328e-09	2.848040e+01	2.303740e+02
2.190000e-06	3.907478e-06	3.557455e-09	2.856506e+01	2.306698e+02
2.200000e-06	3.918280e-06	3.562668e-09	2.864403e+01	2.309343e+02
2.210000e-06	3.928085e-06	3.567086e-09	2.871570e+01	2.311704e+02
2.220000e-06	3.936885e-06	3.570879e-09	2.878004e+01	2.313817e+02
2.230000e-06	3.944912e-06	3.575543e-09	2.883872e+01	2.315727e+02
2.240000e-06	3.952317e-06	3.581956e-09	2.889285e+01	2.317481e+02
2.250000e-06	3.959124e-06	3.587996e-09	2.894261e+01	2.319127e+02
2.260000e-06	3.965279e-06	3.592143e-09	2.898760e+01	2.320709e+02
2.270000e-06	3.970772e-06	3.596037e-09	2.902776e+01	2.322263e+02
2.280000e-06	3.975594e-06	3.600899e-09	2.906301e+01	2.323816e+02
2.290000e-06	3.979769e-06	3.605232e-09	2.909353e+01	2.325381e+02
2.300000e-06	3.983401e-06	3.607779e-09	2.912008e+01	2.326955e+02
2.310000e-06	3.986420e-06	3.610639e-09	2.914216e+01	2.328523e+02
2.320000e-06	3.988593e-06	3.614204e-09	2.915804e+01	2.330055e+02
2.330000e-06	3.989800e-06	3.616715e-09	2.916686e+01	2.331506e+02
2.340000e-06	3.990126e-06	3.618967e-09	2.916925e+01	2.332826e+02
2.350000e-06	3.989807e-06	3.619926e-09	2.916691e+01	2.333957e+02
2.360000e-06	3.988917e-06	3.620924e-09	2.916041e+01	2.334840e+02
2.370000e-06	3.987454e-06	3.624234e-09	2.914971e+01	2.335420e+02
2.380000e-06	3.985335e-06	3.623783e-09	2.913422e+01	2.335649e+02
2.390000e-06	3.982559e-06	3.621697e-09	2.911393e+01	2.335493e+02
2.400000e-06	3.979178e-06	3.627127e-09	2.908921e+01	2.334933e+02
2.410000e-06	3.975185e-06	3.635875e-09	2.906003e+01	2.333968e+02
2.420000e-06	3.970735e-06	3.598899e-09	2.902749e+01	2.332618e+02
2.430000e-06	3.965743e-06	3.565958e-09	2.899100e+01	2.330920e+02
2.440000e-06	3.959778e-06	3.638643e-09	2.894739e+01	2.328934e+02
2.450000e-06	3.952653e-06	3.667222e-09	2.889531e+01	2.326730e+02
2.460000e-06	3.944631e-06	3.558009e-09	2.883666e+01	2.324393e+02
2.470000e-06	3.936155e-06	3.551742e-09	2.877470e+01	2.322015e+02
2.480000e-06	3.927283e-06	3.656721e-09	2.870984e+01	2.319688e+02
2.490000e-06	3.917660e-06	3.622017e-09	2.863950e+01	2.317500e+02
2.500000e-06	3.907317e-06	3.507139e-09	2.856388e+01	2.315528e+02
2.510000e-06	3.896485e-06	3.577018e-09	2.848470e+01	2.313835e+02
2.520000e-06	3.884953e-06	3.559020e-09	2.840040e+01	2.312464e+02
2.530000e-06	3.872436e-06	3.441952e-09	2.830889e+01	2.311434e+02
2.540000e-06	3.859177e-06	3.609769e-09	2.821197e+01	2.310742e+02
2.550000e-06	3.845288e-06	3.597849e-09	2.811043e+01	2.310356e+02
2.560000e-06	3.830544e-06	3.322469e-09	2.800264e+01	2.310222e+02
2.570000e-06	3.814861e-06	3.451337e-09	2.788800e+01	2.310264e+02
2.580000e-06	3.798388e-06	3.728093e-09	2.776757e+01	2.310390e+02
2.590000e-06	3.781326e-06	3.437527e-09	2.764284e+01	2.310493e+02
2.600000e-06	3.763655e-06	3.283954e-09	2.751366e+01	2.310460e+02
2.610000e-06	3.745257e-06	3.658917e-09	2.737917e+01	2.310176e+02
2.620000e-06	3.726153e-06	3.578794e-09	2.723951e+01	2.309535e+02
2.630000e-06	3.706448e-06	3.309152e-09	2.709546e+01	2.308436e+02
2.640000e-06	3.686181e-06	3.499062e-09	2.694730e+01	2.306798e+02
2.650000e-06	3.665439e-06	3.551921e-09	2.679567e+01	2.304559e+02
2.660000e-06	3.644117e-06	3.360887e-09	2.663980e+01	2.301676e+02
2.670000e-06	3.621910e-06	3.428293e-09	2.647746e+01	2.298134e+02
2.680000e-06	3.598749e-06	3.525330e-09	2.630814e+01	2.293939e+02
2.690000e-06	3.574770e-06	3.425100e-09	2.613284e+01	2.289117e+02
2.700000e-06	3.550168e-06	3.350526e-09	2.595299e+01	2.283714e+02
2.710000e-06	3.525001e-06	3.406997e-09	2.576902e+01	2.277792e+02
2.720000e-06	3.499242e-06	3.539638e-09	2.558071e+01	2.271423e+02
2.730000e-06	3.472931e-06	3.384363e-09	2.538837e+01	2.264681e+02
2.740000e-06	3.446034e-06	3.213096e-09	2.519174e+01	2.257644e+02
2.750000e-06	3.418484e-06	3.492209e-09	2.499034e+01	2.250385e+02
2.760000e-06	3.390420e-06	3.491285e-09	2.478518e+01	2.242965e+02
2.770000e-06	3.361950e-06	3.192491e-09	2.457706e+01	2.235437e+02
2.780000e-06	3.332954e-06	3.325236e-09	2.436508e+01	2.227838e+02
2.790000e-06	3.303260e-06	3.451397e-09	2.414801e+01	2.220189e+02
2.800000e-06	3.272810e-06	3.297807e-09	2.392541e+01	2.212495e+02
2.810000e-06	3.241637e-06	3.266008e-09	2.369753e+01	2.204747e+02
2.820000e-06	3.209822e-06	3.323020e-09	2.346495e+01	2.196925e+02
2.830000e-06	3.177473e-06	3.328371e-09	2.322847e+01	2.188996e+02
2.840000e-06	3.144680e-06	3.258361e-09	2.298873e+01	2.180924e+02
2.850000e-06	3.111378e-06	3.243054e-09	2.274528e+01	2.172666e+02
2.860000e-06	3.077526e-06	3.301481e-09	2.249781e+01	2.164182e+02
2.870000e-06	3.043180e-06	3.235801e-09	2.224673e+01	2.155436e+02
2.880000e-06	3.008336e-06	3.180705e-09	2.199201e+01	2.146395e+02
2.890000e-06	2.972945e-06	3.244294e-09	2.173329e+01	2.137038e+02
2.900000e-06	2.937037e-06	3.238151e-09	2.147079e+01	2.127349e+02
2.910000e-06	2.900763e-06	3.143748e-09	2.120561e+01	2.117326e+02
2.920000e-06	2.864132e-06	3.135342e-09	2.093783e+01	2.106973e+02
2.930000e-06	2.827090e-06	3.199895e-09	2.066704e+01	2.096301e+02
2.940000e-06	2.789436e-06	3.149323e-09	2.039177e+01	2.085330e+02
2.950000e-06	2.750917e-06	3.063318e-09	2.011018e+01	2.074080e+02
