# Temperatura_=_20.0
# Concentracion g/m^3_=_9000.0
# C_Vs_to_Am_M_A/Vsm_=_65563218390.804596
# pendiente_HvsI_1/m_=_3716.3
# ordenada_HvsI_A/m_=_1297.0
# frecuencia_Hz_=_212875.87337440622

Tiempo_(s)	Campo_(V.s)	Magnetizacion_(V.s)	Campo_(kA/m)	Magnetizacion_(A/m)
0.000000e+00	-3.968190e-06	-3.467035e-09	-2.913605e+01	-2.325509e+02
1.000000e-08	-3.967902e-06	-3.467943e-09	-2.913394e+01	-2.325962e+02
2.000000e-08	-3.966855e-06	-3.466103e-09	-2.912625e+01	-2.326001e+02
3.000000e-08	-3.964772e-06	-3.464366e-09	-2.911096e+01	-2.325603e+02
4.000000e-08	-3.961812e-06	-3.462725e-09	-2.908922e+01	-2.324766e+02
5.000000e-08	-3.958281e-06	-3.457530e-09	-2.906330e+01	-2.323512e+02
6.000000e-08	-3.954207e-06	-3.448066e-09	-2.903339e+01	-2.321885e+02
7.000000e-08	-3.949535e-06	-3.458019e-09	-2.899908e+01	-2.319954e+02
8.000000e-08	-3.944111e-06	-3.509816e-09	-2.895925e+01	-2.317808e+02
9.000000e-08	-3.937844e-06	-3.523369e-09	-2.891324e+01	-2.315549e+02
1.000000e-07	-3.930812e-06	-3.432507e-09	-2.886161e+01	-2.313293e+02
1.100000e-07	-3.923243e-06	-3.381097e-09	-2.880604e+01	-2.311156e+02
1.200000e-07	-3.915169e-06	-3.445598e-09	-2.874675e+01	-2.309253e+02
1.300000e-07	-3.906424e-06	-3.493595e-09	-2.868255e+01	-2.307686e+02
1.400000e-07	-3.896946e-06	-3.425712e-09	-2.861295e+01	-2.306541e+02
1.500000e-07	-3.886745e-06	-3.473487e-09	-2.853805e+01	-2.305879e+02
1.600000e-07	-3.875606e-06	-3.451008e-09	-2.845627e+01	-2.305735e+02
1.700000e-07	-3.863409e-06	-3.438131e-09	-2.836671e+01	-2.306110e+02
1.800000e-07	-3.850611e-06	-3.535537e-09	-2.827274e+01	-2.306974e+02
1.900000e-07	-3.837281e-06	-3.558959e-09	-2.817487e+01	-2.308265e+02
2.000000e-07	-3.822819e-06	-3.447953e-09	-2.806868e+01	-2.309889e+02
2.100000e-07	-3.807226e-06	-3.493541e-09	-2.795419e+01	-2.311731e+02
2.200000e-07	-3.790998e-06	-3.707463e-09	-2.783504e+01	-2.313652e+02
2.300000e-07	-3.774226e-06	-3.580859e-09	-2.771189e+01	-2.315505e+02
2.400000e-07	-3.756785e-06	-3.501448e-09	-2.758383e+01	-2.317137e+02
2.500000e-07	-3.738738e-06	-3.643012e-09	-2.745133e+01	-2.318396e+02
2.600000e-07	-3.720114e-06	-3.719570e-09	-2.731458e+01	-2.319145e+02
2.700000e-07	-3.700905e-06	-3.607520e-09	-2.717354e+01	-2.319262e+02
2.800000e-07	-3.681182e-06	-3.625070e-09	-2.702872e+01	-2.318651e+02
2.900000e-07	-3.660958e-06	-3.630578e-09	-2.688023e+01	-2.317244e+02
3.000000e-07	-3.640162e-06	-3.543451e-09	-2.672754e+01	-2.315004e+02
3.100000e-07	-3.618661e-06	-3.600599e-09	-2.656967e+01	-2.311923e+02
3.200000e-07	-3.596422e-06	-3.628284e-09	-2.640639e+01	-2.308028e+02
3.300000e-07	-3.573515e-06	-3.566381e-09	-2.623819e+01	-2.303370e+02
3.400000e-07	-3.550060e-06	-3.503214e-09	-2.606597e+01	-2.298023e+02
3.500000e-07	-3.526122e-06	-3.549458e-09	-2.589021e+01	-2.292080e+02
3.600000e-07	-3.501677e-06	-3.622365e-09	-2.571073e+01	-2.285644e+02
3.700000e-07	-3.476465e-06	-3.542974e-09	-2.552561e+01	-2.278822e+02
3.800000e-07	-3.450206e-06	-3.439963e-09	-2.533281e+01	-2.271718e+02
3.900000e-07	-3.423036e-06	-3.545392e-09	-2.513331e+01	-2.264426e+02
4.000000e-07	-3.395357e-06	-3.589084e-09	-2.493008e+01	-2.257027e+02
4.100000e-07	-3.367294e-06	-3.460151e-09	-2.472403e+01	-2.249584e+02
4.200000e-07	-3.338696e-06	-3.451444e-09	-2.451406e+01	-2.242138e+02
4.300000e-07	-3.309514e-06	-3.521261e-09	-2.429979e+01	-2.234708e+02
4.400000e-07	-3.279797e-06	-3.469824e-09	-2.408160e+01	-2.227293e+02
4.500000e-07	-3.249487e-06	-3.425022e-09	-2.385905e+01	-2.219870e+02
4.600000e-07	-3.218590e-06	-3.463141e-09	-2.363219e+01	-2.212403e+02
4.700000e-07	-3.187251e-06	-3.429212e-09	-2.340209e+01	-2.204840e+02
4.800000e-07	-3.155576e-06	-3.382033e-09	-2.316951e+01	-2.197125e+02
4.900000e-07	-3.123605e-06	-3.407904e-09	-2.293477e+01	-2.189196e+02
5.000000e-07	-3.091126e-06	-3.408777e-09	-2.269630e+01	-2.180997e+02
5.100000e-07	-3.057848e-06	-3.357836e-09	-2.245195e+01	-2.172475e+02
5.200000e-07	-3.023635e-06	-3.333514e-09	-2.220075e+01	-2.163590e+02
5.300000e-07	-2.988647e-06	-3.352922e-09	-2.194385e+01	-2.154312e+02
5.400000e-07	-2.953163e-06	-3.347531e-09	-2.168332e+01	-2.144626e+02
5.500000e-07	-2.917357e-06	-3.297970e-09	-2.142041e+01	-2.134533e+02
5.600000e-07	-2.881201e-06	-3.274053e-09	-2.115494e+01	-2.124045e+02
5.700000e-07	-2.844596e-06	-3.284550e-09	-2.088617e+01	-2.113184e+02
5.800000e-07	-2.807508e-06	-3.269013e-09	-2.061386e+01	-2.101983e+02
5.900000e-07	-2.769820e-06	-3.222688e-09	-2.033714e+01	-2.090479e+02
6.000000e-07	-2.731568e-06	-3.212942e-09	-2.005627e+01	-2.078709e+02
6.100000e-07	-2.692813e-06	-3.218435e-09	-1.977172e+01	-2.066709e+02
6.200000e-07	-2.653640e-06	-3.174359e-09	-1.948409e+01	-2.054509e+02
6.300000e-07	-2.614212e-06	-3.147858e-09	-1.919460e+01	-2.042131e+02
6.400000e-07	-2.574519e-06	-3.153568e-09	-1.890316e+01	-2.029585e+02
6.500000e-07	-2.534424e-06	-3.126998e-09	-1.860877e+01	-2.016872e+02
6.600000e-07	-2.493769e-06	-3.087044e-09	-1.831026e+01	-2.003979e+02
6.700000e-07	-2.452475e-06	-3.075879e-09	-1.800706e+01	-1.990884e+02
6.800000e-07	-2.410425e-06	-3.065941e-09	-1.769831e+01	-1.977556e+02
6.900000e-07	-2.367659e-06	-3.026014e-09	-1.738431e+01	-1.963957e+02
7.000000e-07	-2.324391e-06	-3.001000e-09	-1.706662e+01	-1.950045e+02
7.100000e-07	-2.280840e-06	-2.996576e-09	-1.674685e+01	-1.935775e+02
7.200000e-07	-2.237080e-06	-2.965747e-09	-1.642554e+01	-1.921108e+02
7.300000e-07	-2.193003e-06	-2.931532e-09	-1.610191e+01	-1.906006e+02
7.400000e-07	-2.148500e-06	-2.916307e-09	-1.577516e+01	-1.890439e+02
7.500000e-07	-2.103587e-06	-2.897351e-09	-1.544538e+01	-1.874386e+02
7.600000e-07	-2.058278e-06	-2.860873e-09	-1.511271e+01	-1.857831e+02
7.700000e-07	-2.012609e-06	-2.828042e-09	-1.477739e+01	-1.840772e+02
7.800000e-07	-1.966651e-06	-2.813076e-09	-1.443995e+01	-1.823211e+02
7.900000e-07	-1.920350e-06	-2.785062e-09	-1.409998e+01	-1.805158e+02
8.000000e-07	-1.873682e-06	-2.743820e-09	-1.375733e+01	-1.786626e+02
8.100000e-07	-1.826718e-06	-2.716464e-09	-1.341250e+01	-1.767631e+02
8.200000e-07	-1.779472e-06	-2.696096e-09	-1.306560e+01	-1.748187e+02
8.300000e-07	-1.731954e-06	-2.662868e-09	-1.271671e+01	-1.728305e+02
8.400000e-07	-1.684258e-06	-2.624488e-09	-1.236650e+01	-1.707992e+02
8.500000e-07	-1.636379e-06	-2.599390e-09	-1.201496e+01	-1.687244e+02
8.600000e-07	-1.588202e-06	-2.571206e-09	-1.166122e+01	-1.666051e+02
8.700000e-07	-1.539662e-06	-2.532316e-09	-1.130482e+01	-1.644395e+02
8.800000e-07	-1.490806e-06	-2.501843e-09	-1.094610e+01	-1.622246e+02
8.900000e-07	-1.441617e-06	-2.471281e-09	-1.058493e+01	-1.599570e+02
9.000000e-07	-1.391956e-06	-2.431897e-09	-1.022030e+01	-1.576323e+02
9.100000e-07	-1.341753e-06	-2.392615e-09	-9.851694e+00	-1.552458e+02
9.200000e-07	-1.291060e-06	-2.358607e-09	-9.479487e+00	-1.527925e+02
9.300000e-07	-1.240052e-06	-2.320941e-09	-9.104964e+00	-1.502674e+02
9.400000e-07	-1.188869e-06	-2.272212e-09	-8.729155e+00	-1.476658e+02
9.500000e-07	-1.137491e-06	-2.230966e-09	-8.351917e+00	-1.449830e+02
9.600000e-07	-1.085892e-06	-2.193774e-09	-7.973055e+00	-1.422152e+02
9.700000e-07	-1.034122e-06	-2.146552e-09	-7.592940e+00	-1.393586e+02
9.800000e-07	-9.821916e-07	-2.096322e-09	-7.211647e+00	-1.364105e+02
9.900000e-07	-9.300740e-07	-2.050017e-09	-6.828979e+00	-1.333682e+02
1.000000e-06	-8.777316e-07	-2.007022e-09	-6.444660e+00	-1.302296e+02
1.010000e-06	-8.251536e-07	-1.956499e-09	-6.058611e+00	-1.269928e+02
1.020000e-06	-7.723969e-07	-1.903121e-09	-5.671250e+00	-1.236558e+02
1.030000e-06	-7.194829e-07	-1.853586e-09	-5.282734e+00	-1.202166e+02
1.040000e-06	-6.664347e-07	-1.801354e-09	-4.893233e+00	-1.166726e+02
1.050000e-06	-6.132577e-07	-1.744396e-09	-4.502785e+00	-1.130209e+02
1.060000e-06	-5.599582e-07	-1.686370e-09	-4.111439e+00	-1.092578e+02
1.070000e-06	-5.065855e-07	-1.627215e-09	-3.719555e+00	-1.053792e+02
1.080000e-06	-4.531453e-07	-1.562033e-09	-3.327176e+00	-1.013802e+02
1.090000e-06	-3.996625e-07	-1.494166e-09	-2.934483e+00	-9.725547e+01
1.100000e-06	-3.461390e-07	-1.431981e-09	-2.541492e+00	-9.299940e+01
1.110000e-06	-2.925588e-07	-1.365912e-09	-2.148085e+00	-8.860635e+01
1.120000e-06	-2.389616e-07	-1.292481e-09	-1.754553e+00	-8.407096e+01
1.130000e-06	-1.853512e-07	-1.221749e-09	-1.360923e+00	-7.938851e+01
1.140000e-06	-1.317290e-07	-1.147991e-09	-9.672073e-01	-7.455527e+01
1.150000e-06	-7.806961e-08	-1.068534e-09	-5.732186e-01	-6.956887e+01
1.160000e-06	-2.439015e-08	-9.850574e-10	-1.790823e-01	-6.442860e+01
1.170000e-06	2.922733e-08	-9.005706e-10	2.145988e-01	-5.913569e+01
1.180000e-06	8.286672e-08	-8.137212e-10	6.084409e-01	-5.369347e+01
1.190000e-06	1.365048e-07	-7.244696e-10	1.002273e+00	-4.810750e+01
1.200000e-06	1.900573e-07	-6.408655e-10	1.395477e+00	-4.238555e+01
1.210000e-06	2.435884e-07	-5.553832e-10	1.788524e+00	-3.653754e+01
1.220000e-06	2.970947e-07	-4.640313e-10	2.181390e+00	-3.057534e+01
1.230000e-06	3.505662e-07	-3.684939e-10	2.573999e+00	-2.451250e+01
1.240000e-06	4.039809e-07	-2.729587e-10	2.966191e+00	-1.836397e+01
1.250000e-06	4.573023e-07	-1.777519e-10	3.357698e+00	-1.214572e+01
1.260000e-06	5.105230e-07	-7.608224e-11	3.748466e+00	-5.874342e+00
1.270000e-06	5.636377e-07	2.361143e-11	4.138456e+00	4.332842e-01
1.280000e-06	6.166140e-07	1.197241e-10	4.527429e+00	6.760387e+00
1.290000e-06	6.694758e-07	2.157944e-10	4.915562e+00	1.309059e+01
1.300000e-06	7.221943e-07	3.133152e-10	5.302642e+00	1.940815e+01
1.310000e-06	7.747542e-07	4.100891e-10	5.688559e+00	2.569817e+01
1.320000e-06	8.272042e-07	5.055836e-10	6.073667e+00	3.194670e+01
1.330000e-06	8.795254e-07	6.045804e-10	6.457831e+00	3.814078e+01
1.340000e-06	9.316888e-07	7.008357e-10	6.840835e+00	4.426842e+01
1.350000e-06	9.837020e-07	7.946940e-10	7.222737e+00	5.031854e+01
1.360000e-06	1.035547e-06	8.880486e-10	7.603402e+00	5.628091e+01
1.370000e-06	1.087201e-06	9.795288e-10	7.982670e+00	6.214598e+01
1.380000e-06	1.138636e-06	1.065245e-09	8.360329e+00	6.790484e+01
1.390000e-06	1.189828e-06	1.147628e-09	8.736200e+00	7.354908e+01
1.400000e-06	1.240750e-06	1.232348e-09	9.110087e+00	7.907078e+01
1.410000e-06	1.291386e-06	1.315581e-09	9.481875e+00	8.446247e+01
1.420000e-06	1.341666e-06	1.394025e-09	9.851053e+00	8.971719e+01
1.430000e-06	1.391572e-06	1.471111e-09	1.021748e+01	9.482858e+01
1.440000e-06	1.441041e-06	1.547790e-09	1.058071e+01	9.979100e+01
1.450000e-06	1.490038e-06	1.620716e-09	1.094046e+01	1.045997e+02
1.460000e-06	1.538677e-06	1.689100e-09	1.129759e+01	1.092509e+02
1.470000e-06	1.587004e-06	1.754639e-09	1.165243e+01	1.137422e+02
1.480000e-06	1.635049e-06	1.821099e-09	1.200519e+01	1.180725e+02
1.490000e-06	1.682858e-06	1.885387e-09	1.235622e+01	1.222421e+02
1.500000e-06	1.730485e-06	1.946942e-09	1.270592e+01	1.262531e+02
1.510000e-06	1.777868e-06	2.003236e-09	1.305382e+01	1.301090e+02
1.520000e-06	1.824972e-06	2.056058e-09	1.339968e+01	1.338147e+02
1.530000e-06	1.871737e-06	2.109643e-09	1.374305e+01	1.373766e+02
1.540000e-06	1.918154e-06	2.161890e-09	1.408386e+01	1.408022e+02
1.550000e-06	1.964216e-06	2.212976e-09	1.442207e+01	1.440997e+02
1.560000e-06	2.009905e-06	2.259898e-09	1.475753e+01	1.472779e+02
1.570000e-06	2.055245e-06	2.304343e-09	1.509044e+01	1.503456e+02
1.580000e-06	2.100218e-06	2.348905e-09	1.542065e+01	1.533117e+02
1.590000e-06	2.144802e-06	2.389885e-09	1.574800e+01	1.561841e+02
1.600000e-06	2.189021e-06	2.428453e-09	1.607267e+01	1.589702e+02
1.610000e-06	2.232944e-06	2.468224e-09	1.639518e+01	1.616760e+02
1.620000e-06	2.276647e-06	2.508411e-09	1.671606e+01	1.643065e+02
1.630000e-06	2.320145e-06	2.546270e-09	1.703544e+01	1.668652e+02
1.640000e-06	2.363293e-06	2.582257e-09	1.735225e+01	1.693542e+02
1.650000e-06	2.405930e-06	2.616308e-09	1.766531e+01	1.717746e+02
1.660000e-06	2.447872e-06	2.649254e-09	1.797326e+01	1.741263e+02
1.670000e-06	2.489051e-06	2.682175e-09	1.827562e+01	1.764084e+02
1.680000e-06	2.529592e-06	2.714096e-09	1.857329e+01	1.786196e+02
1.690000e-06	2.569654e-06	2.745248e-09	1.886743e+01	1.807584e+02
1.700000e-06	2.609405e-06	2.774297e-09	1.915930e+01	1.828234e+02
1.710000e-06	2.648881e-06	2.802046e-09	1.944915e+01	1.848139e+02
1.720000e-06	2.687942e-06	2.830381e-09	1.973596e+01	1.867295e+02
1.730000e-06	2.726546e-06	2.858248e-09	2.001940e+01	1.885710e+02
1.740000e-06	2.764705e-06	2.885211e-09	2.029958e+01	1.903402e+02
1.750000e-06	2.802348e-06	2.913391e-09	2.057597e+01	1.920396e+02
1.760000e-06	2.839462e-06	2.939989e-09	2.084847e+01	1.936730e+02
1.770000e-06	2.876072e-06	2.962998e-09	2.111728e+01	1.952446e+02
1.780000e-06	2.912295e-06	2.984717e-09	2.138324e+01	1.967595e+02
1.790000e-06	2.948225e-06	3.006670e-09	2.164706e+01	1.982228e+02
1.800000e-06	2.983828e-06	3.030035e-09	2.190847e+01	1.996398e+02
1.810000e-06	3.018966e-06	3.053147e-09	2.216647e+01	2.010155e+02
1.820000e-06	3.053445e-06	3.074485e-09	2.241963e+01	2.023541e+02
1.830000e-06	3.087107e-06	3.095930e-09	2.266678e+01	2.036591e+02
1.840000e-06	3.119926e-06	3.117749e-09	2.290776e+01	2.049333e+02
1.850000e-06	3.152106e-06	3.138600e-09	2.314404e+01	2.061779e+02
1.860000e-06	3.183841e-06	3.158169e-09	2.337705e+01	2.073935e+02
1.870000e-06	3.215133e-06	3.176981e-09	2.360681e+01	2.085794e+02
1.880000e-06	3.245936e-06	3.196227e-09	2.383297e+01	2.097343e+02
1.890000e-06	3.276232e-06	3.215824e-09	2.405542e+01	2.108561e+02
1.900000e-06	3.305926e-06	3.234658e-09	2.427344e+01	2.119424e+02
1.910000e-06	3.334957e-06	3.252064e-09	2.448660e+01	2.129908e+02
1.920000e-06	3.363418e-06	3.268845e-09	2.469557e+01	2.139990e+02
1.930000e-06	3.391419e-06	3.284525e-09	2.490117e+01	2.149654e+02
1.940000e-06	3.419011e-06	3.299904e-09	2.510376e+01	2.158891e+02
1.950000e-06	3.446094e-06	3.314716e-09	2.530262e+01	2.167699e+02
1.960000e-06	3.472480e-06	3.330178e-09	2.549635e+01	2.176088e+02
1.970000e-06	3.497942e-06	3.346302e-09	2.568330e+01	2.184076e+02
1.980000e-06	3.522498e-06	3.359003e-09	2.586361e+01	2.191693e+02
1.990000e-06	3.546424e-06	3.371462e-09	2.603928e+01	2.198971e+02
2.000000e-06	3.569808e-06	3.386231e-09	2.621097e+01	2.205951e+02
2.010000e-06	3.592582e-06	3.398753e-09	2.637819e+01	2.212675e+02
2.020000e-06	3.614758e-06	3.408515e-09	2.654101e+01	2.219182e+02
2.030000e-06	3.636372e-06	3.419557e-09	2.669971e+01	2.225509e+02
2.040000e-06	3.657349e-06	3.432609e-09	2.685374e+01	2.231686e+02
2.050000e-06	3.677713e-06	3.445596e-09	2.700325e+01	2.237734e+02
2.060000e-06	3.697592e-06	3.456384e-09	2.714922e+01	2.243661e+02
2.070000e-06	3.717002e-06	3.465607e-09	2.729173e+01	2.249468e+02
2.080000e-06	3.735821e-06	3.475722e-09	2.742991e+01	2.255143e+02
2.090000e-06	3.753948e-06	3.485802e-09	2.756300e+01	2.260663e+02
2.100000e-06	3.771403e-06	3.494455e-09	2.769116e+01	2.266000e+02
2.110000e-06	3.788286e-06	3.502155e-09	2.781512e+01	2.271121e+02
2.120000e-06	3.804478e-06	3.509311e-09	2.793402e+01	2.275989e+02
2.130000e-06	3.819836e-06	3.516655e-09	2.804678e+01	2.280571e+02
2.140000e-06	3.834490e-06	3.523879e-09	2.815437e+01	2.284838e+02
2.150000e-06	3.848393e-06	3.530382e-09	2.825646e+01	2.288771e+02
2.160000e-06	3.861495e-06	3.536711e-09	2.835265e+01	2.292359e+02
2.170000e-06	3.873918e-06	3.543923e-09	2.844387e+01	2.295605e+02
2.180000e-06	3.885695e-06	3.551516e-09	2.853034e+01	2.298524e+02
2.190000e-06	3.896786e-06	3.555892e-09	2.861177e+01	2.301143e+02
2.200000e-06	3.906998e-06	3.559058e-09	2.868676e+01	2.303499e+02
2.210000e-06	3.916150e-06	3.563962e-09	2.875395e+01	2.305639e+02
2.220000e-06	3.924421e-06	3.569583e-09	2.881468e+01	2.307612e+02
2.230000e-06	3.932106e-06	3.573991e-09	2.887111e+01	2.309470e+02
2.240000e-06	3.939198e-06	3.577181e-09	2.892318e+01	2.311260e+02
2.250000e-06	3.945643e-06	3.580769e-09	2.897050e+01	2.313024e+02
2.260000e-06	3.951418e-06	3.584652e-09	2.901291e+01	2.314790e+02
2.270000e-06	3.956451e-06	3.588869e-09	2.904986e+01	2.316575e+02
2.280000e-06	3.960768e-06	3.592702e-09	2.908156e+01	2.318378e+02
2.290000e-06	3.964560e-06	3.595287e-09	2.910940e+01	2.320183e+02
2.300000e-06	3.967885e-06	3.597517e-09	2.913381e+01	2.321957e+02
2.310000e-06	3.970472e-06	3.602638e-09	2.915281e+01	2.323655e+02
2.320000e-06	3.972053e-06	3.605760e-09	2.916441e+01	2.325218e+02
2.330000e-06	3.972699e-06	3.605704e-09	2.916916e+01	2.326582e+02
2.340000e-06	3.972711e-06	3.607165e-09	2.916925e+01	2.327682e+02
2.350000e-06	3.972161e-06	3.607878e-09	2.916521e+01	2.328456e+02
2.360000e-06	3.970954e-06	3.607805e-09	2.915634e+01	2.328850e+02
2.370000e-06	3.969086e-06	3.607529e-09	2.914263e+01	2.328825e+02
2.380000e-06	3.966589e-06	3.605075e-09	2.912430e+01	2.328362e+02
2.390000e-06	3.963489e-06	3.607013e-09	2.910154e+01	2.327461e+02
2.400000e-06	3.959785e-06	3.618817e-09	2.907434e+01	2.326148e+02
2.410000e-06	3.955606e-06	3.624221e-09	2.904366e+01	2.324472e+02
2.420000e-06	3.950988e-06	3.565637e-09	2.900975e+01	2.322504e+02
2.430000e-06	3.945530e-06	3.522904e-09	2.896967e+01	2.320335e+02
2.440000e-06	3.938844e-06	3.606428e-09	2.892059e+01	2.318070e+02
2.450000e-06	3.931105e-06	3.669123e-09	2.886376e+01	2.315825e+02
2.460000e-06	3.922857e-06	3.614577e-09	2.880320e+01	2.313718e+02
2.470000e-06	3.914349e-06	3.556224e-09	2.874073e+01	2.311859e+02
2.480000e-06	3.905142e-06	3.592036e-09	2.867313e+01	2.310352e+02
2.490000e-06	3.894981e-06	3.538108e-09	2.859852e+01	2.309277e+02
2.500000e-06	3.884339e-06	3.532053e-09	2.852038e+01	2.308693e+02
2.510000e-06	3.873325e-06	3.578978e-09	2.843952e+01	2.308628e+02
2.520000e-06	3.861267e-06	3.494558e-09	2.835098e+01	2.309080e+02
2.530000e-06	3.848054e-06	3.411170e-09	2.825397e+01	2.310014e+02
2.540000e-06	3.834398e-06	3.594007e-09	2.815370e+01	2.311362e+02
2.550000e-06	3.820226e-06	3.608238e-09	2.804964e+01	2.313028e+02
2.560000e-06	3.805008e-06	3.365603e-09	2.793791e+01	2.314892e+02
2.570000e-06	3.788924e-06	3.477476e-09	2.781981e+01	2.316814e+02
2.580000e-06	3.772286e-06	3.605704e-09	2.769765e+01	2.318644e+02
2.590000e-06	3.755030e-06	3.389832e-09	2.757095e+01	2.320230e+02
2.600000e-06	3.737058e-06	3.313867e-09	2.743899e+01	2.321422e+02
2.610000e-06	3.718390e-06	3.556830e-09	2.730192e+01	2.322085e+02
2.620000e-06	3.699096e-06	3.469152e-09	2.716026e+01	2.322099e+02
2.630000e-06	3.679221e-06	3.393621e-09	2.701433e+01	2.321374e+02
2.640000e-06	3.658871e-06	3.586894e-09	2.686490e+01	2.319844e+02
2.650000e-06	3.638092e-06	3.500664e-09	2.671234e+01	2.317478e+02
2.660000e-06	3.616577e-06	3.370108e-09	2.655437e+01	2.314274e+02
2.670000e-06	3.593952e-06	3.482101e-09	2.638824e+01	2.310262e+02
2.680000e-06	3.570349e-06	3.541726e-09	2.621495e+01	2.305496e+02
2.690000e-06	3.546149e-06	3.448209e-09	2.603726e+01	2.300055e+02
2.700000e-06	3.521342e-06	3.366648e-09	2.585512e+01	2.294032e+02
2.710000e-06	3.495888e-06	3.418780e-09	2.566822e+01	2.287533e+02
2.720000e-06	3.469974e-06	3.521778e-09	2.547795e+01	2.280663e+02
2.730000e-06	3.443518e-06	3.421751e-09	2.528370e+01	2.273525e+02
2.740000e-06	3.416300e-06	3.313802e-09	2.508386e+01	2.266213e+02
2.750000e-06	3.388495e-06	3.452360e-09	2.487970e+01	2.258805e+02
2.760000e-06	3.360352e-06	3.440814e-09	2.467306e+01	2.251361e+02
2.770000e-06	3.331737e-06	3.312126e-09	2.446296e+01	2.243917e+02
2.780000e-06	3.302445e-06	3.389974e-09	2.424789e+01	2.236491e+02
2.790000e-06	3.272337e-06	3.406301e-09	2.402682e+01	2.229078e+02
2.800000e-06	3.241431e-06	3.312194e-09	2.379989e+01	2.221652e+02
2.810000e-06	3.209879e-06	3.318397e-09	2.356823e+01	2.214175e+02
2.820000e-06	3.177797e-06	3.357315e-09	2.333267e+01	2.206594e+02
2.830000e-06	3.145278e-06	3.340146e-09	2.309390e+01	2.198852e+02
2.840000e-06	3.112292e-06	3.267483e-09	2.285170e+01	2.190887e+02
2.850000e-06	3.078768e-06	3.266122e-09	2.260556e+01	2.182644e+02
2.860000e-06	3.044744e-06	3.316255e-09	2.235574e+01	2.174071e+02
2.870000e-06	3.010267e-06	3.256517e-09	2.210259e+01	2.165129e+02
2.880000e-06	2.975248e-06	3.213191e-09	2.184548e+01	2.155791e+02
2.890000e-06	2.939682e-06	3.243966e-09	2.158433e+01	2.146046e+02
2.900000e-06	2.903706e-06	3.236604e-09	2.132018e+01	2.135893e+02
2.910000e-06	2.867439e-06	3.183925e-09	2.105389e+01	2.125348e+02
2.920000e-06	2.830781e-06	3.166733e-09	2.078474e+01	2.114435e+02
2.930000e-06	2.793587e-06	3.195341e-09	2.051164e+01	2.103187e+02
2.940000e-06	2.755729e-06	3.152204e-09	2.023367e+01	2.091642e+02
2.950000e-06	2.716977e-06	3.098442e-09	1.994915e+01	2.079836e+02
