# Temperatura_=_20.0
# Concentracion g/m^3_=_9000.0
# C_Vs_to_Am_M_A/Vsm_=_65563218390.804596
# pendiente_HvsI_1/m_=_3716.3
# ordenada_HvsI_A/m_=_1297.0
# frecuencia_Hz_=_212876.17841550536

Tiempo_(s)	Campo_(V.s)	Magnetizacion_(V.s)	Campo_(kA/m)	Magnetizacion_(A/m)
0.000000e+00	-3.963605e-06	-3.519720e-09	-2.913670e+01	-2.347232e+02
1.000000e-08	-3.963610e-06	-3.519618e-09	-2.913675e+01	-2.347966e+02
2.000000e-08	-3.962896e-06	-3.519853e-09	-2.913149e+01	-2.348403e+02
3.000000e-08	-3.961286e-06	-3.520606e-09	-2.911966e+01	-2.348502e+02
4.000000e-08	-3.958714e-06	-3.519182e-09	-2.910075e+01	-2.348231e+02
5.000000e-08	-3.955397e-06	-3.516235e-09	-2.907637e+01	-2.347572e+02
6.000000e-08	-3.951583e-06	-3.507062e-09	-2.904833e+01	-2.346523e+02
7.000000e-08	-3.947246e-06	-3.497705e-09	-2.901645e+01	-2.345098e+02
8.000000e-08	-3.942219e-06	-3.522487e-09	-2.897949e+01	-2.343326e+02
9.000000e-08	-3.936370e-06	-3.564961e-09	-2.893650e+01	-2.341256e+02
1.000000e-07	-3.929709e-06	-3.556635e-09	-2.888753e+01	-2.338947e+02
1.100000e-07	-3.922412e-06	-3.484788e-09	-2.883390e+01	-2.336471e+02
1.200000e-07	-3.914696e-06	-3.450425e-09	-2.877718e+01	-2.333907e+02
1.300000e-07	-3.906415e-06	-3.471148e-09	-2.871630e+01	-2.331337e+02
1.400000e-07	-3.897265e-06	-3.499422e-09	-2.864904e+01	-2.328839e+02
1.500000e-07	-3.887313e-06	-3.571527e-09	-2.857588e+01	-2.326486e+02
1.600000e-07	-3.876580e-06	-3.504780e-09	-2.849698e+01	-2.324336e+02
1.700000e-07	-3.864830e-06	-3.461276e-09	-2.841060e+01	-2.322435e+02
1.800000e-07	-3.852207e-06	-3.475834e-09	-2.831781e+01	-2.320807e+02
1.900000e-07	-3.839075e-06	-3.574705e-09	-2.822128e+01	-2.319457e+02
2.000000e-07	-3.825231e-06	-3.533126e-09	-2.811951e+01	-2.318366e+02
2.100000e-07	-3.810160e-06	-3.473584e-09	-2.800872e+01	-2.317497e+02
2.200000e-07	-3.794102e-06	-3.583553e-09	-2.789068e+01	-2.316791e+02
2.300000e-07	-3.777636e-06	-3.601986e-09	-2.776963e+01	-2.316172e+02
2.400000e-07	-3.760650e-06	-3.643738e-09	-2.764477e+01	-2.315552e+02
2.500000e-07	-3.742934e-06	-3.613949e-09	-2.751454e+01	-2.314835e+02
2.600000e-07	-3.724609e-06	-3.618599e-09	-2.737983e+01	-2.313922e+02
2.700000e-07	-3.705718e-06	-3.591023e-09	-2.724096e+01	-2.312715e+02
2.800000e-07	-3.686287e-06	-3.656907e-09	-2.709812e+01	-2.311125e+02
2.900000e-07	-3.666351e-06	-3.640814e-09	-2.695157e+01	-2.309073e+02
3.000000e-07	-3.645774e-06	-3.525671e-09	-2.680031e+01	-2.306495e+02
3.100000e-07	-3.624551e-06	-3.539571e-09	-2.664430e+01	-2.303349e+02
3.200000e-07	-3.602697e-06	-3.578299e-09	-2.648365e+01	-2.299607e+02
3.300000e-07	-3.580209e-06	-3.601837e-09	-2.631834e+01	-2.295266e+02
3.400000e-07	-3.557118e-06	-3.537708e-09	-2.614860e+01	-2.290339e+02
3.500000e-07	-3.533489e-06	-3.486894e-09	-2.597490e+01	-2.284860e+02
3.600000e-07	-3.509424e-06	-3.530489e-09	-2.579800e+01	-2.278873e+02
3.700000e-07	-3.484810e-06	-3.557701e-09	-2.561705e+01	-2.272436e+02
3.800000e-07	-3.459230e-06	-3.504774e-09	-2.542901e+01	-2.265613e+02
3.900000e-07	-3.432499e-06	-3.486995e-09	-2.523251e+01	-2.258471e+02
4.000000e-07	-3.405119e-06	-3.480461e-09	-2.503124e+01	-2.251075e+02
4.100000e-07	-3.377443e-06	-3.480484e-09	-2.482779e+01	-2.243483e+02
4.200000e-07	-3.349247e-06	-3.487636e-09	-2.462052e+01	-2.235746e+02
4.300000e-07	-3.320374e-06	-3.463710e-09	-2.440827e+01	-2.227905e+02
4.400000e-07	-3.290991e-06	-3.416578e-09	-2.419228e+01	-2.219984e+02
4.500000e-07	-3.261115e-06	-3.418655e-09	-2.397266e+01	-2.211998e+02
4.600000e-07	-3.230631e-06	-3.451232e-09	-2.374857e+01	-2.203948e+02
4.700000e-07	-3.199572e-06	-3.409012e-09	-2.352025e+01	-2.195821e+02
4.800000e-07	-3.168132e-06	-3.367812e-09	-2.328913e+01	-2.187597e+02
4.900000e-07	-3.136411e-06	-3.364651e-09	-2.305595e+01	-2.179248e+02
5.000000e-07	-3.104256e-06	-3.371038e-09	-2.281958e+01	-2.170741e+02
5.100000e-07	-3.071396e-06	-3.366528e-09	-2.257802e+01	-2.162042e+02
5.200000e-07	-3.037582e-06	-3.321623e-09	-2.232946e+01	-2.153116e+02
5.300000e-07	-3.002885e-06	-3.299356e-09	-2.207439e+01	-2.143936e+02
5.400000e-07	-2.967651e-06	-3.315941e-09	-2.181538e+01	-2.134475e+02
5.500000e-07	-2.932091e-06	-3.308707e-09	-2.155399e+01	-2.124716e+02
5.600000e-07	-2.896164e-06	-3.272023e-09	-2.128988e+01	-2.114650e+02
5.700000e-07	-2.859749e-06	-3.240766e-09	-2.102219e+01	-2.104272e+02
5.800000e-07	-2.822847e-06	-3.241087e-09	-2.075092e+01	-2.093585e+02
5.900000e-07	-2.785494e-06	-3.227983e-09	-2.047634e+01	-2.082599e+02
6.000000e-07	-2.747660e-06	-3.205871e-09	-2.019822e+01	-2.071324e+02
6.100000e-07	-2.709239e-06	-3.187833e-09	-1.991579e+01	-2.059774e+02
6.200000e-07	-2.670334e-06	-3.154278e-09	-1.962979e+01	-2.047962e+02
6.300000e-07	-2.631106e-06	-3.148809e-09	-1.934143e+01	-2.035897e+02
6.400000e-07	-2.591619e-06	-3.145343e-09	-1.905115e+01	-2.023588e+02
6.500000e-07	-2.551842e-06	-3.112998e-09	-1.875875e+01	-2.011034e+02
6.600000e-07	-2.511531e-06	-3.079374e-09	-1.846242e+01	-1.998232e+02
6.700000e-07	-2.470541e-06	-3.064593e-09	-1.816110e+01	-1.985170e+02
6.800000e-07	-2.428847e-06	-3.059993e-09	-1.785460e+01	-1.971834e+02
6.900000e-07	-2.386454e-06	-3.027228e-09	-1.754297e+01	-1.958201e+02
7.000000e-07	-2.343468e-06	-2.991393e-09	-1.722698e+01	-1.944247e+02
7.100000e-07	-2.300108e-06	-2.974973e-09	-1.690823e+01	-1.929946e+02
7.200000e-07	-2.256518e-06	-2.958835e-09	-1.658781e+01	-1.915271e+02
7.300000e-07	-2.212643e-06	-2.939393e-09	-1.626528e+01	-1.900197e+02
7.400000e-07	-2.168384e-06	-2.905578e-09	-1.593993e+01	-1.884702e+02
7.500000e-07	-2.123698e-06	-2.877616e-09	-1.561143e+01	-1.868767e+02
7.600000e-07	-2.078624e-06	-2.858439e-09	-1.528010e+01	-1.852379e+02
7.700000e-07	-2.033244e-06	-2.831277e-09	-1.494650e+01	-1.835531e+02
7.800000e-07	-1.987517e-06	-2.803349e-09	-1.461036e+01	-1.818219e+02
7.900000e-07	-1.941448e-06	-2.769870e-09	-1.427171e+01	-1.800445e+02
8.000000e-07	-1.895019e-06	-2.740877e-09	-1.393040e+01	-1.782214e+02
8.100000e-07	-1.848229e-06	-2.716230e-09	-1.358645e+01	-1.763533e+02
8.200000e-07	-1.801148e-06	-2.686304e-09	-1.324035e+01	-1.744409e+02
8.300000e-07	-1.753862e-06	-2.652139e-09	-1.289275e+01	-1.724847e+02
8.400000e-07	-1.706334e-06	-2.615360e-09	-1.254337e+01	-1.704850e+02
8.500000e-07	-1.658574e-06	-2.591821e-09	-1.219228e+01	-1.684416e+02
8.600000e-07	-1.610638e-06	-2.566017e-09	-1.183990e+01	-1.663536e+02
8.700000e-07	-1.562372e-06	-2.526309e-09	-1.148509e+01	-1.642195e+02
8.800000e-07	-1.513675e-06	-2.491786e-09	-1.112712e+01	-1.620372e+02
8.900000e-07	-1.464580e-06	-2.461725e-09	-1.076622e+01	-1.598037e+02
9.000000e-07	-1.415041e-06	-2.429628e-09	-1.040205e+01	-1.575156e+02
9.100000e-07	-1.365000e-06	-2.388122e-09	-1.003420e+01	-1.551689e+02
9.200000e-07	-1.314592e-06	-2.345051e-09	-9.663646e+00	-1.527592e+02
9.300000e-07	-1.263865e-06	-2.308278e-09	-9.290749e+00	-1.502818e+02
9.400000e-07	-1.212835e-06	-2.268569e-09	-8.915627e+00	-1.477322e+02
9.500000e-07	-1.161600e-06	-2.228855e-09	-8.538993e+00	-1.451056e+02
9.600000e-07	-1.110145e-06	-2.184887e-09	-8.160745e+00	-1.423977e+02
9.700000e-07	-1.058470e-06	-2.138962e-09	-7.780881e+00	-1.396043e+02
9.800000e-07	-1.006670e-06	-2.096823e-09	-7.400094e+00	-1.367216e+02
9.900000e-07	-9.547372e-07	-2.053240e-09	-7.018332e+00	-1.337463e+02
1.000000e-06	-9.026069e-07	-2.008313e-09	-6.635119e+00	-1.306752e+02
1.010000e-06	-8.502332e-07	-1.955072e-09	-6.250117e+00	-1.275054e+02
1.020000e-06	-7.976481e-07	-1.901330e-09	-5.863561e+00	-1.242341e+02
1.030000e-06	-7.449717e-07	-1.852813e-09	-5.476333e+00	-1.208586e+02
1.040000e-06	-6.921254e-07	-1.800659e-09	-5.087857e+00	-1.173761e+02
1.050000e-06	-6.391163e-07	-1.744089e-09	-4.698184e+00	-1.137834e+02
1.060000e-06	-5.861086e-07	-1.682825e-09	-4.308521e+00	-1.100770e+02
1.070000e-06	-5.330075e-07	-1.625694e-09	-3.918171e+00	-1.062532e+02
1.080000e-06	-4.797566e-07	-1.567941e-09	-3.526720e+00	-1.023076e+02
1.090000e-06	-4.263748e-07	-1.501739e-09	-3.134308e+00	-9.823566e+01
1.100000e-06	-3.729086e-07	-1.434180e-09	-2.741274e+00	-9.403245e+01
1.110000e-06	-3.194411e-07	-1.367193e-09	-2.348231e+00	-8.969303e+01
1.120000e-06	-2.659547e-07	-1.300763e-09	-1.955049e+00	-8.521256e+01
1.130000e-06	-2.124329e-07	-1.230109e-09	-1.561607e+00	-8.058661e+01
1.140000e-06	-1.588731e-07	-1.154363e-09	-1.167886e+00	-7.581144e+01
1.150000e-06	-1.052720e-07	-1.077932e-09	-7.738607e-01	-7.088432e+01
1.160000e-06	-5.168660e-08	-9.990129e-10	-3.799514e-01	-6.580379e+01
1.170000e-06	1.842162e-09	-9.176463e-10	1.354184e-02	-6.056996e+01
1.180000e-06	5.540357e-08	-8.321931e-10	4.072751e-01	-5.518476e+01
1.190000e-06	1.089493e-07	-7.437741e-10	8.008933e-01	-4.965205e+01
1.200000e-06	1.624618e-07	-6.586883e-10	1.194267e+00	-4.397779e+01
1.210000e-06	2.159935e-07	-5.725513e-10	1.587782e+00	-3.817000e+01
1.220000e-06	2.694930e-07	-4.837046e-10	1.981060e+00	-3.223874e+01
1.230000e-06	3.229317e-07	-3.883219e-10	2.373891e+00	-2.619596e+01
1.240000e-06	3.762661e-07	-2.921411e-10	2.765956e+00	-2.005530e+01
1.250000e-06	4.295056e-07	-2.001082e-10	3.157322e+00	-1.383180e+01
1.260000e-06	4.827044e-07	-1.020564e-10	3.548390e+00	-7.541590e+00
1.270000e-06	5.358173e-07	-1.641224e-12	3.938827e+00	-1.201583e+00
1.280000e-06	5.887695e-07	9.733580e-11	4.328081e+00	5.170914e+00
1.290000e-06	6.416237e-07	1.934866e-10	4.716616e+00	1.155853e+01
1.300000e-06	6.943712e-07	2.901994e-10	5.104366e+00	1.794412e+01
1.310000e-06	7.469527e-07	3.907781e-10	5.490895e+00	2.431109e+01
1.320000e-06	7.993784e-07	4.885483e-10	5.876280e+00	3.064356e+01
1.330000e-06	8.515696e-07	5.864831e-10	6.259941e+00	3.692658e+01
1.340000e-06	9.036038e-07	6.815392e-10	6.642447e+00	4.314622e+01
1.350000e-06	9.555387e-07	7.767890e-10	7.024224e+00	4.928961e+01
1.360000e-06	1.007310e-06	8.737534e-10	7.404799e+00	5.534498e+01
1.370000e-06	1.058943e-06	9.654432e-10	7.784357e+00	6.130158e+01
1.380000e-06	1.110401e-06	1.052888e-09	8.162625e+00	6.714968e+01
1.390000e-06	1.161705e-06	1.137144e-09	8.539762e+00	7.288044e+01
1.400000e-06	1.212813e-06	1.222977e-09	8.915460e+00	7.848588e+01
1.410000e-06	1.263579e-06	1.308054e-09	9.288648e+00	8.395881e+01
1.420000e-06	1.314066e-06	1.387805e-09	9.659783e+00	8.929276e+01
1.430000e-06	1.364269e-06	1.466617e-09	1.002883e+01	9.448203e+01
1.440000e-06	1.414026e-06	1.545789e-09	1.039459e+01	9.952169e+01
1.450000e-06	1.463247e-06	1.622651e-09	1.075642e+01	1.044076e+02
1.460000e-06	1.512034e-06	1.693945e-09	1.111506e+01	1.091366e+02
1.470000e-06	1.560473e-06	1.760804e-09	1.147114e+01	1.137063e+02
1.480000e-06	1.608551e-06	1.829406e-09	1.182456e+01	1.181157e+02
1.490000e-06	1.656358e-06	1.895077e-09	1.217599e+01	1.223647e+02
1.500000e-06	1.703936e-06	1.956007e-09	1.252574e+01	1.264547e+02
1.510000e-06	1.751308e-06	2.013700e-09	1.287397e+01	1.303882e+02
1.520000e-06	1.798471e-06	2.070976e-09	1.322067e+01	1.341690e+02
1.530000e-06	1.845358e-06	2.127378e-09	1.356534e+01	1.378023e+02
1.540000e-06	1.891830e-06	2.179927e-09	1.390696e+01	1.412941e+02
1.550000e-06	1.937915e-06	2.230690e-09	1.424573e+01	1.446517e+02
1.560000e-06	1.983697e-06	2.278366e-09	1.458228e+01	1.478829e+02
1.570000e-06	2.029159e-06	2.324445e-09	1.491647e+01	1.509959e+02
1.580000e-06	2.074275e-06	2.369176e-09	1.524813e+01	1.539994e+02
1.590000e-06	2.118988e-06	2.410518e-09	1.557681e+01	1.569017e+02
1.600000e-06	2.163299e-06	2.450754e-09	1.590254e+01	1.597110e+02
1.610000e-06	2.207270e-06	2.491783e-09	1.622578e+01	1.624345e+02
1.620000e-06	2.250971e-06	2.533285e-09	1.654703e+01	1.650787e+02
1.630000e-06	2.294466e-06	2.572579e-09	1.686676e+01	1.676492e+02
1.640000e-06	2.337741e-06	2.608623e-09	1.718488e+01	1.701502e+02
1.650000e-06	2.380683e-06	2.643243e-09	1.750055e+01	1.725848e+02
1.660000e-06	2.423038e-06	2.676852e-09	1.781190e+01	1.749550e+02
1.670000e-06	2.464582e-06	2.709164e-09	1.811730e+01	1.772616e+02
1.680000e-06	2.505364e-06	2.740488e-09	1.841708e+01	1.795046e+02
1.690000e-06	2.545575e-06	2.771169e-09	1.871268e+01	1.816834e+02
1.700000e-06	2.585385e-06	2.802855e-09	1.900533e+01	1.837968e+02
1.710000e-06	2.624907e-06	2.832842e-09	1.929586e+01	1.858437e+02
1.720000e-06	2.664180e-06	2.861429e-09	1.958455e+01	1.878229e+02
1.730000e-06	2.703037e-06	2.890356e-09	1.987019e+01	1.897336e+02
1.740000e-06	2.741339e-06	2.917688e-09	2.015175e+01	1.915755e+02
1.750000e-06	2.779168e-06	2.944638e-09	2.042984e+01	1.933491e+02
1.760000e-06	2.816545e-06	2.970411e-09	2.070459e+01	1.950555e+02
1.770000e-06	2.853425e-06	2.995260e-09	2.097571e+01	1.966968e+02
1.780000e-06	2.889851e-06	3.019469e-09	2.124348e+01	1.982756e+02
1.790000e-06	2.925827e-06	3.041954e-09	2.150794e+01	1.997954e+02
1.800000e-06	2.961440e-06	3.064524e-09	2.176973e+01	2.012599e+02
1.810000e-06	2.996762e-06	3.087466e-09	2.202938e+01	2.026732e+02
1.820000e-06	3.031637e-06	3.110200e-09	2.228575e+01	2.040394e+02
1.830000e-06	3.065783e-06	3.131557e-09	2.253676e+01	2.053624e+02
1.840000e-06	3.099081e-06	3.151009e-09	2.278154e+01	2.066459e+02
1.850000e-06	3.131611e-06	3.171505e-09	2.302067e+01	2.078928e+02
1.860000e-06	3.163511e-06	3.191872e-09	2.325517e+01	2.091054e+02
1.870000e-06	3.194984e-06	3.209733e-09	2.348653e+01	2.102854e+02
1.880000e-06	3.226003e-06	3.228193e-09	2.371455e+01	2.114336e+02
1.890000e-06	3.256487e-06	3.247575e-09	2.393864e+01	2.125500e+02
1.900000e-06	3.286411e-06	3.265843e-09	2.415861e+01	2.136342e+02
1.910000e-06	3.315751e-06	3.283348e-09	2.437429e+01	2.146853e+02
1.920000e-06	3.344493e-06	3.299951e-09	2.458558e+01	2.157019e+02
1.930000e-06	3.372667e-06	3.316612e-09	2.479269e+01	2.166828e+02
1.940000e-06	3.400415e-06	3.332313e-09	2.499666e+01	2.176269e+02
1.950000e-06	3.427771e-06	3.345918e-09	2.519775e+01	2.185333e+02
1.960000e-06	3.454597e-06	3.359945e-09	2.539496e+01	2.194017e+02
1.970000e-06	3.480621e-06	3.373872e-09	2.558626e+01	2.202324e+02
1.980000e-06	3.505671e-06	3.386383e-09	2.577040e+01	2.210262e+02
1.990000e-06	3.529873e-06	3.398936e-09	2.594832e+01	2.217846e+02
2.000000e-06	3.553500e-06	3.412638e-09	2.612200e+01	2.225097e+02
2.010000e-06	3.576589e-06	3.425239e-09	2.629173e+01	2.232041e+02
2.020000e-06	3.599005e-06	3.434858e-09	2.645651e+01	2.238707e+02
2.030000e-06	3.620790e-06	3.444706e-09	2.661665e+01	2.245123e+02
2.040000e-06	3.642010e-06	3.455990e-09	2.677264e+01	2.251319e+02
2.050000e-06	3.662607e-06	3.466420e-09	2.692405e+01	2.257319e+02
2.060000e-06	3.682624e-06	3.475766e-09	2.707120e+01	2.263144e+02
2.070000e-06	3.702204e-06	3.485505e-09	2.721513e+01	2.268809e+02
2.080000e-06	3.721344e-06	3.495672e-09	2.735583e+01	2.274321e+02
2.090000e-06	3.739890e-06	3.505290e-09	2.749216e+01	2.279678e+02
2.100000e-06	3.757716e-06	3.514287e-09	2.762320e+01	2.284874e+02
2.110000e-06	3.774812e-06	3.522308e-09	2.774888e+01	2.289895e+02
2.120000e-06	3.791294e-06	3.528733e-09	2.787003e+01	2.294722e+02
2.130000e-06	3.807215e-06	3.536048e-09	2.798707e+01	2.299333e+02
2.140000e-06	3.822387e-06	3.544658e-09	2.809860e+01	2.303707e+02
2.150000e-06	3.836643e-06	3.551819e-09	2.820340e+01	2.307822e+02
2.160000e-06	3.850165e-06	3.558457e-09	2.830280e+01	2.311663e+02
2.170000e-06	3.863023e-06	3.566557e-09	2.839732e+01	2.315218e+02
2.180000e-06	3.875146e-06	3.574900e-09	2.848644e+01	2.318485e+02
2.190000e-06	3.886603e-06	3.580826e-09	2.857066e+01	2.321468e+02
2.200000e-06	3.897293e-06	3.584471e-09	2.864924e+01	2.324182e+02
2.210000e-06	3.906996e-06	3.588187e-09	2.872057e+01	2.326648e+02
2.220000e-06	3.915644e-06	3.593202e-09	2.878414e+01	2.328895e+02
2.230000e-06	3.923528e-06	3.599056e-09	2.884210e+01	2.330956e+02
2.240000e-06	3.930886e-06	3.604105e-09	2.889619e+01	2.332867e+02
2.250000e-06	3.937666e-06	3.607322e-09	2.894603e+01	2.334663e+02
2.260000e-06	3.943811e-06	3.611227e-09	2.899120e+01	2.336378e+02
2.270000e-06	3.949242e-06	3.615392e-09	2.903112e+01	2.338038e+02
2.280000e-06	3.953924e-06	3.619121e-09	2.906554e+01	2.339661e+02
2.290000e-06	3.957983e-06	3.622663e-09	2.909538e+01	2.341255e+02
2.300000e-06	3.961556e-06	3.625435e-09	2.912165e+01	2.342815e+02
2.310000e-06	3.964575e-06	3.628611e-09	2.914384e+01	2.344328e+02
2.320000e-06	3.966781e-06	3.631505e-09	2.916005e+01	2.345764e+02
2.330000e-06	3.967895e-06	3.635296e-09	2.916825e+01	2.347089e+02
2.340000e-06	3.968032e-06	3.638581e-09	2.916925e+01	2.348256e+02
2.350000e-06	3.967607e-06	3.639838e-09	2.916613e+01	2.349219e+02
2.360000e-06	3.966734e-06	3.640038e-09	2.915971e+01	2.349926e+02
2.370000e-06	3.965271e-06	3.640614e-09	2.914895e+01	2.350332e+02
2.380000e-06	3.963131e-06	3.639711e-09	2.913322e+01	2.350396e+02
2.390000e-06	3.960339e-06	3.639579e-09	2.911270e+01	2.350087e+02
2.400000e-06	3.956947e-06	3.647044e-09	2.908777e+01	2.349390e+02
2.410000e-06	3.953005e-06	3.664055e-09	2.905878e+01	2.348304e+02
2.420000e-06	3.948597e-06	3.647082e-09	2.902638e+01	2.346843e+02
2.430000e-06	3.943644e-06	3.591681e-09	2.898997e+01	2.345040e+02
2.440000e-06	3.937699e-06	3.581811e-09	2.894627e+01	2.342943e+02
2.450000e-06	3.930429e-06	3.642524e-09	2.889283e+01	2.340615e+02
2.460000e-06	3.922268e-06	3.682742e-09	2.883283e+01	2.338128e+02
2.470000e-06	3.913845e-06	3.682610e-09	2.877092e+01	2.335561e+02
2.480000e-06	3.905086e-06	3.636545e-09	2.870653e+01	2.332995e+02
2.490000e-06	3.895388e-06	3.550573e-09	2.863524e+01	2.330509e+02
2.500000e-06	3.884788e-06	3.561470e-09	2.855732e+01	2.328175e+02
2.510000e-06	3.873963e-06	3.626660e-09	2.847774e+01	2.326049e+02
2.520000e-06	3.862675e-06	3.617524e-09	2.839476e+01	2.324175e+02
2.530000e-06	3.850130e-06	3.480576e-09	2.830255e+01	2.322576e+02
2.540000e-06	3.836670e-06	3.527501e-09	2.820360e+01	2.321254e+02
2.550000e-06	3.822891e-06	3.599049e-09	2.810231e+01	2.320188e+02
2.560000e-06	3.808277e-06	3.526790e-09	2.799488e+01	2.319339e+02
2.570000e-06	3.792476e-06	3.488561e-09	2.787872e+01	2.318646e+02
2.580000e-06	3.775997e-06	3.480600e-09	2.775759e+01	2.318032e+02
2.590000e-06	3.759082e-06	3.443684e-09	2.763324e+01	2.317408e+02
2.600000e-06	3.741469e-06	3.418198e-09	2.750377e+01	2.316676e+02
2.610000e-06	3.723104e-06	3.497528e-09	2.736877e+01	2.315739e+02
2.620000e-06	3.704105e-06	3.423674e-09	2.722911e+01	2.314499e+02
2.630000e-06	3.684479e-06	3.408785e-09	2.708483e+01	2.312866e+02
2.640000e-06	3.664357e-06	3.508374e-09	2.693692e+01	2.310765e+02
2.650000e-06	3.643767e-06	3.489294e-09	2.678556e+01	2.308133e+02
2.660000e-06	3.622597e-06	3.429420e-09	2.662994e+01	2.304929e+02
2.670000e-06	3.600592e-06	3.417755e-09	2.646818e+01	2.301128e+02
2.680000e-06	3.577421e-06	3.458773e-09	2.629784e+01	2.296728e+02
2.690000e-06	3.553417e-06	3.467407e-09	2.612139e+01	2.291745e+02
2.700000e-06	3.528933e-06	3.428510e-09	2.594140e+01	2.286213e+02
2.710000e-06	3.503826e-06	3.384350e-09	2.575684e+01	2.280179e+02
2.720000e-06	3.478157e-06	3.408434e-09	2.556814e+01	2.273702e+02
2.730000e-06	3.452074e-06	3.431004e-09	2.537641e+01	2.266845e+02
2.740000e-06	3.425339e-06	3.378198e-09	2.517988e+01	2.259676e+02
2.750000e-06	3.397819e-06	3.385742e-09	2.497758e+01	2.252258e+02
2.760000e-06	3.369801e-06	3.360967e-09	2.477162e+01	2.244651e+02
2.770000e-06	3.341449e-06	3.322474e-09	2.456320e+01	2.236903e+02
2.780000e-06	3.312582e-06	3.377511e-09	2.435100e+01	2.229053e+02
2.790000e-06	3.283046e-06	3.350155e-09	2.413387e+01	2.221126e+02
2.800000e-06	3.252780e-06	3.291307e-09	2.391138e+01	2.213135e+02
2.810000e-06	3.221766e-06	3.307217e-09	2.368340e+01	2.205078e+02
2.820000e-06	3.190025e-06	3.309981e-09	2.345007e+01	2.196944e+02
2.830000e-06	3.157760e-06	3.309874e-09	2.321289e+01	2.188710e+02
2.840000e-06	3.125144e-06	3.267457e-09	2.297313e+01	2.180347e+02
2.850000e-06	3.091946e-06	3.236955e-09	2.272909e+01	2.171823e+02
2.860000e-06	3.058168e-06	3.264824e-09	2.248078e+01	2.163104e+02
2.870000e-06	3.023979e-06	3.245118e-09	2.222946e+01	2.154155e+02
2.880000e-06	2.989354e-06	3.212690e-09	2.197493e+01	2.144948e+02
2.890000e-06	2.954128e-06	3.195982e-09	2.171598e+01	2.135459e+02
2.900000e-06	2.918322e-06	3.197323e-09	2.145277e+01	2.125671e+02
2.910000e-06	2.882177e-06	3.188109e-09	2.118706e+01	2.115574e+02
2.920000e-06	2.845756e-06	3.154787e-09	2.091933e+01	2.105165e+02
2.930000e-06	2.808954e-06	3.148874e-09	2.064880e+01	2.094449e+02
2.940000e-06	2.771639e-06	3.126880e-09	2.037449e+01	2.083434e+02
2.950000e-06	2.733500e-06	3.104107e-09	2.009413e+01	2.072132e+02
