# Temperatura_=_20.0
# Concentracion g/m^3_=_9000.0
# C_Vs_to_Am_M_A/Vsm_=_65563218390.804596
# pendiente_HvsI_1/m_=_3716.3
# ordenada_HvsI_A/m_=_1297.0
# frecuencia_Hz_=_212874.72221319517

Tiempo_(s)	Campo_(V.s)	Magnetizacion_(V.s)	Campo_(kA/m)	Magnetizacion_(A/m)
0.000000e+00	-3.962892e-06	-3.566318e-09	-2.913701e+01	-2.356955e+02
1.000000e-08	-3.962775e-06	-3.567047e-09	-2.913615e+01	-2.357087e+02
2.000000e-08	-3.961843e-06	-3.568232e-09	-2.912930e+01	-2.357096e+02
3.000000e-08	-3.959880e-06	-3.566178e-09	-2.911486e+01	-2.356997e+02
4.000000e-08	-3.957013e-06	-3.562384e-09	-2.909379e+01	-2.356798e+02
5.000000e-08	-3.953537e-06	-3.558126e-09	-2.906823e+01	-2.356507e+02
6.000000e-08	-3.949623e-06	-3.549342e-09	-2.903945e+01	-2.356125e+02
7.000000e-08	-3.945126e-06	-3.540080e-09	-2.900639e+01	-2.355648e+02
8.000000e-08	-3.939823e-06	-3.566697e-09	-2.896739e+01	-2.355063e+02
9.000000e-08	-3.933625e-06	-3.626946e-09	-2.892182e+01	-2.354355e+02
1.000000e-07	-3.926650e-06	-3.635050e-09	-2.887054e+01	-2.353500e+02
1.100000e-07	-3.919178e-06	-3.480748e-09	-2.881561e+01	-2.352469e+02
1.200000e-07	-3.911346e-06	-3.436459e-09	-2.875802e+01	-2.351231e+02
1.300000e-07	-3.902745e-06	-3.545714e-09	-2.869478e+01	-2.349750e+02
1.400000e-07	-3.893095e-06	-3.665238e-09	-2.862383e+01	-2.347992e+02
1.500000e-07	-3.882794e-06	-3.567361e-09	-2.854809e+01	-2.345924e+02
1.600000e-07	-3.871827e-06	-3.510750e-09	-2.846746e+01	-2.343516e+02
1.700000e-07	-3.859732e-06	-3.566024e-09	-2.837853e+01	-2.340745e+02
1.800000e-07	-3.846840e-06	-3.520620e-09	-2.828374e+01	-2.337596e+02
1.900000e-07	-3.833659e-06	-3.650926e-09	-2.818683e+01	-2.334061e+02
2.000000e-07	-3.819481e-06	-3.588515e-09	-2.808259e+01	-2.330144e+02
2.100000e-07	-3.803796e-06	-3.453629e-09	-2.796726e+01	-2.325859e+02
2.200000e-07	-3.787549e-06	-3.470712e-09	-2.784780e+01	-2.321230e+02
2.300000e-07	-3.771047e-06	-3.664285e-09	-2.772648e+01	-2.316288e+02
2.400000e-07	-3.753784e-06	-3.624810e-09	-2.759955e+01	-2.311074e+02
2.500000e-07	-3.735868e-06	-3.402462e-09	-2.746783e+01	-2.305634e+02
2.600000e-07	-3.717394e-06	-3.518697e-09	-2.733200e+01	-2.300018e+02
2.700000e-07	-3.698265e-06	-3.624877e-09	-2.719135e+01	-2.294274e+02
2.800000e-07	-3.678616e-06	-3.569663e-09	-2.704688e+01	-2.288452e+02
2.900000e-07	-3.658491e-06	-3.442740e-09	-2.689891e+01	-2.282593e+02
3.000000e-07	-3.637709e-06	-3.459168e-09	-2.674612e+01	-2.276734e+02
3.100000e-07	-3.616241e-06	-3.501181e-09	-2.658827e+01	-2.270902e+02
3.200000e-07	-3.594102e-06	-3.492226e-09	-2.642550e+01	-2.265112e+02
3.300000e-07	-3.571313e-06	-3.504806e-09	-2.625794e+01	-2.259369e+02
3.400000e-07	-3.548048e-06	-3.458734e-09	-2.608688e+01	-2.253668e+02
3.500000e-07	-3.524286e-06	-3.399616e-09	-2.591218e+01	-2.247989e+02
3.600000e-07	-3.499915e-06	-3.444767e-09	-2.573299e+01	-2.242305e+02
3.700000e-07	-3.474857e-06	-3.530931e-09	-2.554875e+01	-2.236580e+02
3.800000e-07	-3.448768e-06	-3.443771e-09	-2.535694e+01	-2.230773e+02
3.900000e-07	-3.421691e-06	-3.327537e-09	-2.515785e+01	-2.224840e+02
4.000000e-07	-3.394205e-06	-3.425661e-09	-2.495576e+01	-2.218734e+02
4.100000e-07	-3.366432e-06	-3.510132e-09	-2.475156e+01	-2.212412e+02
4.200000e-07	-3.337999e-06	-3.362183e-09	-2.454251e+01	-2.205837e+02
4.300000e-07	-3.308851e-06	-3.316907e-09	-2.432820e+01	-2.198975e+02
4.400000e-07	-3.279269e-06	-3.397405e-09	-2.411070e+01	-2.191803e+02
4.500000e-07	-3.249195e-06	-3.398401e-09	-2.388958e+01	-2.184307e+02
4.600000e-07	-3.218491e-06	-3.342872e-09	-2.366383e+01	-2.176480e+02
4.700000e-07	-3.187292e-06	-3.303528e-09	-2.343444e+01	-2.168329e+02
4.800000e-07	-3.155783e-06	-3.314986e-09	-2.320278e+01	-2.159863e+02
4.900000e-07	-3.123943e-06	-3.316486e-09	-2.296867e+01	-2.151104e+02
5.000000e-07	-3.091530e-06	-3.305616e-09	-2.273035e+01	-2.142073e+02
5.100000e-07	-3.058254e-06	-3.272781e-09	-2.248569e+01	-2.132798e+02
5.200000e-07	-3.023929e-06	-3.235887e-09	-2.223332e+01	-2.123305e+02
5.300000e-07	-2.988871e-06	-3.252261e-09	-2.197556e+01	-2.113618e+02
5.400000e-07	-2.953511e-06	-3.258698e-09	-2.171557e+01	-2.103755e+02
5.500000e-07	-2.917907e-06	-3.230404e-09	-2.145380e+01	-2.093732e+02
5.600000e-07	-2.881895e-06	-3.184932e-09	-2.118902e+01	-2.083554e+02
5.700000e-07	-2.845284e-06	-3.159123e-09	-2.091984e+01	-2.073218e+02
5.800000e-07	-2.808121e-06	-3.190846e-09	-2.064660e+01	-2.062716e+02
5.900000e-07	-2.770554e-06	-3.174107e-09	-2.037039e+01	-2.052029e+02
6.000000e-07	-2.732555e-06	-3.111723e-09	-2.009100e+01	-2.041134e+02
6.100000e-07	-2.693949e-06	-3.090476e-09	-1.980716e+01	-2.030000e+02
6.200000e-07	-2.654806e-06	-3.109412e-09	-1.951935e+01	-2.018596e+02
6.300000e-07	-2.615417e-06	-3.101589e-09	-1.922976e+01	-2.006887e+02
6.400000e-07	-2.575828e-06	-3.042919e-09	-1.893867e+01	-1.994841e+02
6.500000e-07	-2.535880e-06	-3.021070e-09	-1.864496e+01	-1.982429e+02
6.600000e-07	-2.495351e-06	-3.021033e-09	-1.834697e+01	-1.969625e+02
6.700000e-07	-2.454010e-06	-3.001396e-09	-1.804301e+01	-1.956411e+02
6.800000e-07	-2.411975e-06	-2.978343e-09	-1.773395e+01	-1.942776e+02
6.900000e-07	-2.369402e-06	-2.937796e-09	-1.742093e+01	-1.928714e+02
7.000000e-07	-2.326306e-06	-2.912905e-09	-1.710407e+01	-1.914228e+02
7.100000e-07	-2.282862e-06	-2.905938e-09	-1.678466e+01	-1.899326e+02
7.200000e-07	-2.239215e-06	-2.891102e-09	-1.646374e+01	-1.884022e+02
7.300000e-07	-2.195278e-06	-2.857081e-09	-1.614069e+01	-1.868332e+02
7.400000e-07	-2.150844e-06	-2.815621e-09	-1.581400e+01	-1.852274e+02
7.500000e-07	-2.105947e-06	-2.807558e-09	-1.548390e+01	-1.835865e+02
7.600000e-07	-2.060773e-06	-2.794425e-09	-1.515176e+01	-1.819118e+02
7.700000e-07	-2.015314e-06	-2.756267e-09	-1.481752e+01	-1.802041e+02
7.800000e-07	-1.969466e-06	-2.716331e-09	-1.448042e+01	-1.784639e+02
7.900000e-07	-1.923261e-06	-2.690705e-09	-1.414070e+01	-1.766907e+02
8.000000e-07	-1.876728e-06	-2.681381e-09	-1.379857e+01	-1.748831e+02
8.100000e-07	-1.829847e-06	-2.648746e-09	-1.345388e+01	-1.730393e+02
8.200000e-07	-1.782708e-06	-2.604642e-09	-1.310729e+01	-1.711564e+02
8.300000e-07	-1.735382e-06	-2.575960e-09	-1.275933e+01	-1.692310e+02
8.400000e-07	-1.687830e-06	-2.554266e-09	-1.240970e+01	-1.672593e+02
8.500000e-07	-1.640055e-06	-2.529209e-09	-1.205844e+01	-1.652371e+02
8.600000e-07	-1.591952e-06	-2.488258e-09	-1.170476e+01	-1.631601e+02
8.700000e-07	-1.543364e-06	-2.451673e-09	-1.134752e+01	-1.610239e+02
8.800000e-07	-1.494337e-06	-2.424861e-09	-1.098706e+01	-1.588246e+02
8.900000e-07	-1.445038e-06	-2.394847e-09	-1.062458e+01	-1.565584e+02
9.000000e-07	-1.395480e-06	-2.362659e-09	-1.026021e+01	-1.542224e+02
9.100000e-07	-1.345519e-06	-2.318075e-09	-9.892876e+00	-1.518138e+02
9.200000e-07	-1.295064e-06	-2.276547e-09	-9.521908e+00	-1.493307e+02
9.300000e-07	-1.244230e-06	-2.243189e-09	-9.148153e+00	-1.467716e+02
9.400000e-07	-1.193177e-06	-2.203331e-09	-8.772789e+00	-1.441353e+02
9.500000e-07	-1.141912e-06	-2.159993e-09	-8.395862e+00	-1.414213e+02
9.600000e-07	-1.090408e-06	-2.111880e-09	-8.017182e+00	-1.386288e+02
9.700000e-07	-1.038756e-06	-2.072530e-09	-7.637417e+00	-1.357571e+02
9.800000e-07	-9.869307e-07	-2.032437e-09	-7.256370e+00	-1.328052e+02
9.900000e-07	-9.349134e-07	-1.983423e-09	-6.873915e+00	-1.297719e+02
1.000000e-06	-8.827436e-07	-1.937179e-09	-6.490338e+00	-1.266549e+02
1.010000e-06	-8.302889e-07	-1.887448e-09	-6.104667e+00	-1.234515e+02
1.020000e-06	-7.775869e-07	-1.838448e-09	-5.717178e+00	-1.201581e+02
1.030000e-06	-7.247716e-07	-1.785717e-09	-5.328855e+00	-1.167702e+02
1.040000e-06	-6.718220e-07	-1.732409e-09	-4.939545e+00	-1.132825e+02
1.050000e-06	-6.187180e-07	-1.679602e-09	-4.549100e+00	-1.096889e+02
1.060000e-06	-5.655556e-07	-1.619055e-09	-4.158226e+00	-1.059828e+02
1.070000e-06	-5.123394e-07	-1.561119e-09	-3.766956e+00	-1.021573e+02
1.080000e-06	-4.590771e-07	-1.500184e-09	-3.375346e+00	-9.820506e+01
1.090000e-06	-4.057486e-07	-1.436532e-09	-2.983251e+00	-9.411926e+01
1.100000e-06	-3.523431e-07	-1.373004e-09	-2.590589e+00	-8.989330e+01
1.110000e-06	-2.988987e-07	-1.304672e-09	-2.197641e+00	-8.552134e+01
1.120000e-06	-2.454110e-07	-1.237404e-09	-1.804375e+00	-8.099852e+01
1.130000e-06	-1.918900e-07	-1.166093e-09	-1.410864e+00	-7.632120e+01
1.140000e-06	-1.383265e-07	-1.093592e-09	-1.017040e+00	-7.148717e+01
1.150000e-06	-8.477955e-08	-1.017674e-09	-6.233384e-01	-6.649581e+01
1.160000e-06	-3.121911e-08	-9.345642e-10	-2.295373e-01	-6.134820e+01
1.170000e-06	2.237841e-08	-8.530089e-10	1.645364e-01	-5.604713e+01
1.180000e-06	7.596163e-08	-7.695218e-10	5.585049e-01	-5.059718e+01
1.190000e-06	1.295382e-07	-6.838606e-10	9.524243e-01	-4.500458e+01
1.200000e-06	1.830725e-07	-5.969316e-10	1.346034e+00	-3.927720e+01
1.210000e-06	2.365512e-07	-5.069643e-10	1.739233e+00	-3.342438e+01
1.220000e-06	2.899783e-07	-4.185148e-10	2.132054e+00	-2.745677e+01
1.230000e-06	3.433438e-07	-3.221640e-10	2.524422e+00	-2.138621e+01
1.240000e-06	3.966696e-07	-2.225868e-10	2.916498e+00	-1.522555e+01
1.250000e-06	4.498984e-07	-1.254787e-10	3.307860e+00	-8.988445e+00
1.260000e-06	5.030147e-07	-2.590596e-11	3.698396e+00	-2.689218e+00
1.270000e-06	5.560647e-07	6.940426e-11	4.088444e+00	3.657291e+00
1.280000e-06	6.090401e-07	1.676634e-10	4.477944e+00	1.003587e+01
1.290000e-06	6.618795e-07	2.666351e-10	4.866443e+00	1.643107e+01
1.300000e-06	7.145443e-07	3.692644e-10	5.253660e+00	2.282730e+01
1.310000e-06	7.671129e-07	4.664162e-10	5.640168e+00	2.920897e+01
1.320000e-06	8.194954e-07	5.574747e-10	6.025308e+00	3.556056e+01
1.330000e-06	8.716531e-07	6.572708e-10	6.408796e+00	4.186674e+01
1.340000e-06	9.236452e-07	7.564363e-10	6.791065e+00	4.811252e+01
1.350000e-06	9.754777e-07	8.526457e-10	7.172162e+00	5.428330e+01
1.360000e-06	1.027185e-06	9.431560e-10	7.552336e+00	6.036505e+01
1.370000e-06	1.078749e-06	1.034055e-09	7.931461e+00	6.634444e+01
1.380000e-06	1.130151e-06	1.124404e-09	8.309390e+00	7.220900e+01
1.390000e-06	1.181390e-06	1.210102e-09	8.686128e+00	7.794724e+01
1.400000e-06	1.232457e-06	1.295403e-09	9.061594e+00	8.354885e+01
1.410000e-06	1.283270e-06	1.376922e-09	9.435191e+00	8.900480e+01
1.420000e-06	1.333653e-06	1.455394e-09	9.805629e+00	9.430751e+01
1.430000e-06	1.383631e-06	1.535338e-09	1.017309e+01	9.945093e+01
1.440000e-06	1.433247e-06	1.613814e-09	1.053789e+01	1.044306e+02
1.450000e-06	1.482310e-06	1.687618e-09	1.089862e+01	1.092439e+02
1.460000e-06	1.530898e-06	1.754194e-09	1.125587e+01	1.138896e+02
1.470000e-06	1.579171e-06	1.822037e-09	1.161079e+01	1.183683e+02
1.480000e-06	1.627134e-06	1.891716e-09	1.196344e+01	1.226820e+02
1.490000e-06	1.674844e-06	1.953149e-09	1.231423e+01	1.268342e+02
1.500000e-06	1.722355e-06	2.011786e-09	1.266355e+01	1.308295e+02
1.510000e-06	1.769678e-06	2.069876e-09	1.301149e+01	1.346737e+02
1.520000e-06	1.816748e-06	2.127843e-09	1.335757e+01	1.383731e+02
1.530000e-06	1.863526e-06	2.182421e-09	1.370150e+01	1.419349e+02
1.540000e-06	1.909931e-06	2.232665e-09	1.404269e+01	1.453664e+02
1.550000e-06	1.955886e-06	2.282004e-09	1.438058e+01	1.486748e+02
1.560000e-06	2.001481e-06	2.328072e-09	1.471581e+01	1.518675e+02
1.570000e-06	2.046725e-06	2.372755e-09	1.504847e+01	1.549512e+02
1.580000e-06	2.091595e-06	2.415727e-09	1.537837e+01	1.579325e+02
1.590000e-06	2.136100e-06	2.455351e-09	1.570559e+01	1.608169e+02
1.600000e-06	2.180265e-06	2.496100e-09	1.603032e+01	1.636096e+02
1.610000e-06	2.224134e-06	2.536435e-09	1.635286e+01	1.663150e+02
1.620000e-06	2.267714e-06	2.576292e-09	1.667328e+01	1.689366e+02
1.630000e-06	2.311101e-06	2.615030e-09	1.699228e+01	1.714776e+02
1.640000e-06	2.354241e-06	2.651716e-09	1.730947e+01	1.739403e+02
1.650000e-06	2.396952e-06	2.686170e-09	1.762349e+01	1.763269e+02
1.660000e-06	2.439081e-06	2.717936e-09	1.793325e+01	1.786388e+02
1.670000e-06	2.480473e-06	2.749518e-09	1.823758e+01	1.808776e+02
1.680000e-06	2.521056e-06	2.779734e-09	1.853597e+01	1.830444e+02
1.690000e-06	2.560989e-06	2.809524e-09	1.882957e+01	1.851406e+02
1.700000e-06	2.600563e-06	2.837873e-09	1.912054e+01	1.871675e+02
1.710000e-06	2.639896e-06	2.864187e-09	1.940973e+01	1.891265e+02
1.720000e-06	2.678978e-06	2.891887e-09	1.969708e+01	1.910192e+02
1.730000e-06	2.717663e-06	2.920701e-09	1.998151e+01	1.928474e+02
1.740000e-06	2.755799e-06	2.947539e-09	2.026191e+01	1.946130e+02
1.750000e-06	2.793472e-06	2.973066e-09	2.053889e+01	1.963179e+02
1.760000e-06	2.830713e-06	2.997244e-09	2.081271e+01	1.979643e+02
1.770000e-06	2.867435e-06	3.021471e-09	2.108270e+01	1.995543e+02
1.780000e-06	2.903636e-06	3.042887e-09	2.134887e+01	2.010900e+02
1.790000e-06	2.939433e-06	3.060777e-09	2.161207e+01	2.025735e+02
1.800000e-06	2.974944e-06	3.082130e-09	2.187316e+01	2.040067e+02
1.810000e-06	3.010152e-06	3.105515e-09	2.213202e+01	2.053914e+02
1.820000e-06	3.044778e-06	3.126958e-09	2.238662e+01	2.067292e+02
1.830000e-06	3.078598e-06	3.146449e-09	2.263527e+01	2.080216e+02
1.840000e-06	3.111613e-06	3.166553e-09	2.287802e+01	2.092699e+02
1.850000e-06	3.143813e-06	3.187423e-09	2.311476e+01	2.104755e+02
1.860000e-06	3.175430e-06	3.206341e-09	2.334723e+01	2.116394e+02
1.870000e-06	3.206724e-06	3.222924e-09	2.357732e+01	2.127627e+02
1.880000e-06	3.237581e-06	3.238854e-09	2.380419e+01	2.138466e+02
1.890000e-06	3.267857e-06	3.257290e-09	2.402679e+01	2.148921e+02
1.900000e-06	3.297542e-06	3.276300e-09	2.424505e+01	2.159005e+02
1.910000e-06	3.326631e-06	3.293257e-09	2.445892e+01	2.168730e+02
1.920000e-06	3.355120e-06	3.308956e-09	2.466839e+01	2.178108e+02
1.930000e-06	3.383048e-06	3.324404e-09	2.487373e+01	2.187155e+02
1.940000e-06	3.410553e-06	3.339695e-09	2.507596e+01	2.195883e+02
1.950000e-06	3.437712e-06	3.352612e-09	2.527564e+01	2.204308e+02
1.960000e-06	3.464317e-06	3.365167e-09	2.547125e+01	2.212442e+02
1.970000e-06	3.489977e-06	3.379259e-09	2.565992e+01	2.220300e+02
1.980000e-06	3.514626e-06	3.393171e-09	2.584115e+01	2.227892e+02
1.990000e-06	3.538500e-06	3.405075e-09	2.601668e+01	2.235230e+02
2.000000e-06	3.561830e-06	3.416972e-09	2.618822e+01	2.242322e+02
2.010000e-06	3.584690e-06	3.428039e-09	2.635629e+01	2.249176e+02
2.020000e-06	3.606866e-06	3.437824e-09	2.651934e+01	2.255796e+02
2.030000e-06	3.628370e-06	3.449284e-09	2.667745e+01	2.262186e+02
2.040000e-06	3.649407e-06	3.460269e-09	2.683212e+01	2.268348e+02
2.050000e-06	3.669792e-06	3.469271e-09	2.698200e+01	2.274282e+02
2.060000e-06	3.689541e-06	3.478760e-09	2.712721e+01	2.279989e+02
2.070000e-06	3.708951e-06	3.490093e-09	2.726992e+01	2.285470e+02
2.080000e-06	3.727943e-06	3.499724e-09	2.740955e+01	2.290724e+02
2.090000e-06	3.746249e-06	3.507298e-09	2.754415e+01	2.295753e+02
2.100000e-06	3.763767e-06	3.513953e-09	2.767295e+01	2.300559e+02
2.110000e-06	3.780568e-06	3.520397e-09	2.779648e+01	2.305146e+02
2.120000e-06	3.796822e-06	3.527700e-09	2.791599e+01	2.309519e+02
2.130000e-06	3.812447e-06	3.534334e-09	2.803087e+01	2.313683e+02
2.140000e-06	3.827245e-06	3.541104e-09	2.813967e+01	2.317647e+02
2.150000e-06	3.841245e-06	3.548762e-09	2.824260e+01	2.321417e+02
2.160000e-06	3.854518e-06	3.557371e-09	2.834019e+01	2.325002e+02
2.170000e-06	3.867056e-06	3.566218e-09	2.843238e+01	2.328408e+02
2.180000e-06	3.878879e-06	3.573022e-09	2.851931e+01	2.331642e+02
2.190000e-06	3.890030e-06	3.576521e-09	2.860129e+01	2.334709e+02
2.200000e-06	3.900343e-06	3.579125e-09	2.867712e+01	2.337612e+02
2.210000e-06	3.909602e-06	3.582322e-09	2.874520e+01	2.340352e+02
2.220000e-06	3.917901e-06	3.585159e-09	2.880622e+01	2.342927e+02
2.230000e-06	3.925566e-06	3.586652e-09	2.886257e+01	2.345335e+02
2.240000e-06	3.932733e-06	3.588876e-09	2.891527e+01	2.347572e+02
2.250000e-06	3.939286e-06	3.592570e-09	2.896345e+01	2.349631e+02
2.260000e-06	3.945130e-06	3.596381e-09	2.900642e+01	2.351508e+02
2.270000e-06	3.950326e-06	3.599685e-09	2.904462e+01	2.353196e+02
2.280000e-06	3.954802e-06	3.603636e-09	2.907753e+01	2.354693e+02
2.290000e-06	3.958645e-06	3.607832e-09	2.910578e+01	2.355995e+02
2.300000e-06	3.962003e-06	3.610083e-09	2.913047e+01	2.357103e+02
2.310000e-06	3.964720e-06	3.610553e-09	2.915045e+01	2.358021e+02
2.320000e-06	3.966516e-06	3.611175e-09	2.916365e+01	2.358754e+02
2.330000e-06	3.967277e-06	3.612309e-09	2.916925e+01	2.359313e+02
2.340000e-06	3.967252e-06	3.612596e-09	2.916907e+01	2.359710e+02
2.350000e-06	3.966681e-06	3.612985e-09	2.916486e+01	2.359957e+02
2.360000e-06	3.965538e-06	3.614008e-09	2.915646e+01	2.360070e+02
2.370000e-06	3.963698e-06	3.613271e-09	2.914294e+01	2.360063e+02
2.380000e-06	3.961242e-06	3.613832e-09	2.912488e+01	2.359948e+02
2.390000e-06	3.958242e-06	3.616688e-09	2.910282e+01	2.359736e+02
2.400000e-06	3.954610e-06	3.621530e-09	2.907612e+01	2.359432e+02
2.410000e-06	3.950422e-06	3.629971e-09	2.904532e+01	2.359036e+02
2.420000e-06	3.945832e-06	3.618125e-09	2.901158e+01	2.358543e+02
2.430000e-06	3.940584e-06	3.539098e-09	2.897299e+01	2.357942e+02
2.440000e-06	3.934101e-06	3.503403e-09	2.892532e+01	2.357214e+02
2.450000e-06	3.926364e-06	3.649657e-09	2.886844e+01	2.356335e+02
2.460000e-06	3.918011e-06	3.710652e-09	2.880703e+01	2.355275e+02
2.470000e-06	3.909507e-06	3.634436e-09	2.874450e+01	2.354003e+02
2.480000e-06	3.900542e-06	3.463050e-09	2.867858e+01	2.352483e+02
2.490000e-06	3.890537e-06	3.536324e-09	2.860502e+01	2.350681e+02
2.500000e-06	3.879785e-06	3.569530e-09	2.852597e+01	2.348564e+02
2.510000e-06	3.868935e-06	3.561063e-09	2.844619e+01	2.346103e+02
2.520000e-06	3.857325e-06	3.598574e-09	2.836083e+01	2.343277e+02
2.530000e-06	3.844248e-06	3.484790e-09	2.826469e+01	2.340070e+02
2.540000e-06	3.830637e-06	3.514133e-09	2.816461e+01	2.336478e+02
2.550000e-06	3.816790e-06	3.661513e-09	2.806280e+01	2.332505e+02
2.560000e-06	3.801707e-06	3.712381e-09	2.795190e+01	2.328167e+02
2.570000e-06	3.785449e-06	3.410655e-09	2.783237e+01	2.323488e+02
2.580000e-06	3.768793e-06	3.412669e-09	2.770991e+01	2.318503e+02
2.590000e-06	3.751595e-06	3.608176e-09	2.758346e+01	2.313253e+02
2.600000e-06	3.733624e-06	3.475235e-09	2.745132e+01	2.307784e+02
2.610000e-06	3.715020e-06	3.343196e-09	2.731454e+01	2.302145e+02
2.620000e-06	3.695776e-06	3.480787e-09	2.717305e+01	2.296387e+02
2.630000e-06	3.675958e-06	3.543917e-09	2.702734e+01	2.290557e+02
2.640000e-06	3.655611e-06	3.400955e-09	2.687774e+01	2.284697e+02
2.650000e-06	3.634756e-06	3.456217e-09	2.672441e+01	2.278841e+02
2.660000e-06	3.613382e-06	3.478145e-09	2.656725e+01	2.273014e+02
2.670000e-06	3.591022e-06	3.386899e-09	2.640285e+01	2.267232e+02
2.680000e-06	3.567473e-06	3.436152e-09	2.622971e+01	2.261496e+02
2.690000e-06	3.543303e-06	3.462250e-09	2.605200e+01	2.255800e+02
2.700000e-06	3.518697e-06	3.441954e-09	2.587108e+01	2.250122e+02
2.710000e-06	3.493331e-06	3.341134e-09	2.568458e+01	2.244435e+02
2.720000e-06	3.467445e-06	3.359611e-09	2.549425e+01	2.238701e+02
2.730000e-06	3.441191e-06	3.508768e-09	2.530123e+01	2.232879e+02
2.740000e-06	3.414166e-06	3.388826e-09	2.510252e+01	2.226922e+02
2.750000e-06	3.386350e-06	3.264480e-09	2.489801e+01	2.220787e+02
2.760000e-06	3.358144e-06	3.384801e-09	2.469062e+01	2.214430e+02
2.770000e-06	3.329642e-06	3.417038e-09	2.448107e+01	2.207814e+02
2.780000e-06	3.300646e-06	3.315411e-09	2.426787e+01	2.200907e+02
2.790000e-06	3.270953e-06	3.283067e-09	2.404956e+01	2.193688e+02
2.800000e-06	3.240533e-06	3.322467e-09	2.382589e+01	2.186142e+02
2.810000e-06	3.209252e-06	3.332103e-09	2.359590e+01	2.178267e+02
2.820000e-06	3.177224e-06	3.284371e-09	2.336042e+01	2.170067e+02
2.830000e-06	3.144823e-06	3.264944e-09	2.312219e+01	2.161557e+02
2.840000e-06	3.112049e-06	3.265265e-09	2.288122e+01	2.152755e+02
2.850000e-06	3.078696e-06	3.255069e-09	2.263599e+01	2.143687e+02
2.860000e-06	3.044750e-06	3.235254e-09	2.238641e+01	2.134378e+02
2.870000e-06	3.010384e-06	3.229081e-09	2.213373e+01	2.124854e+02
2.880000e-06	2.975579e-06	3.210097e-09	2.187783e+01	2.115140e+02
2.890000e-06	2.940188e-06	3.175592e-09	2.161762e+01	2.105253e+02
2.900000e-06	2.904285e-06	3.192025e-09	2.135365e+01	2.095206e+02
2.910000e-06	2.868040e-06	3.187326e-09	2.108715e+01	2.085005e+02
2.920000e-06	2.831434e-06	3.135141e-09	2.081801e+01	2.074646e+02
2.930000e-06	2.794360e-06	3.109880e-09	2.054543e+01	2.064118e+02
2.940000e-06	2.756647e-06	3.129528e-09	2.026814e+01	2.053402e+02
2.950000e-06	2.718124e-06	3.125271e-09	1.998490e+01	2.042473e+02
