# Temperatura_=_20.0
# Concentracion g/m^3_=_12600.0
# C_Vs_to_Am_M_A/Vsm_=_65563218390.804596
# pendiente_HvsI_1/m_=_3716.3
# ordenada_HvsI_A/m_=_1297.0
# frecuencia_Hz_=_301825.79369974445

Tiempo_(s)	Campo_(V.s)	Magnetizacion_(V.s)	Campo_(kA/m)	Magnetizacion_(A/m)
0.000000e+00	-2.776522e-06	-1.567619e-09	-1.979580e+01	-1.033836e+02
1.000000e-08	-2.775902e-06	-1.567648e-09	-1.979137e+01	-1.033405e+02
2.000000e-08	-2.774129e-06	-1.570057e-09	-1.977873e+01	-1.032700e+02
3.000000e-08	-2.771213e-06	-1.569745e-09	-1.975794e+01	-1.031735e+02
4.000000e-08	-2.767443e-06	-1.563237e-09	-1.973107e+01	-1.030508e+02
5.000000e-08	-2.762865e-06	-1.556010e-09	-1.969842e+01	-1.029003e+02
6.000000e-08	-2.757421e-06	-1.553642e-09	-1.965961e+01	-1.027193e+02
7.000000e-08	-2.751020e-06	-1.560101e-09	-1.961398e+01	-1.025040e+02
8.000000e-08	-2.743639e-06	-1.571555e-09	-1.956135e+01	-1.022506e+02
9.000000e-08	-2.735203e-06	-1.561779e-09	-1.950120e+01	-1.019557e+02
1.000000e-07	-2.725357e-06	-1.515016e-09	-1.943100e+01	-1.016170e+02
1.100000e-07	-2.714308e-06	-1.509763e-09	-1.935222e+01	-1.012339e+02
1.200000e-07	-2.702456e-06	-1.567197e-09	-1.926772e+01	-1.008085e+02
1.300000e-07	-2.689704e-06	-1.580902e-09	-1.917681e+01	-1.003448e+02
1.400000e-07	-2.675994e-06	-1.479674e-09	-1.907906e+01	-9.984929e+01
1.500000e-07	-2.661426e-06	-1.472674e-09	-1.897519e+01	-9.933024e+01
1.600000e-07	-2.645619e-06	-1.548340e-09	-1.886250e+01	-9.879672e+01
1.700000e-07	-2.628415e-06	-1.511996e-09	-1.873984e+01	-9.825782e+01
1.800000e-07	-2.610434e-06	-1.493926e-09	-1.861164e+01	-9.772148e+01
1.900000e-07	-2.591923e-06	-1.516789e-09	-1.847966e+01	-9.719346e+01
2.000000e-07	-2.572536e-06	-1.464814e-09	-1.834143e+01	-9.667658e+01
2.100000e-07	-2.552111e-06	-1.438237e-09	-1.819581e+01	-9.617009e+01
2.200000e-07	-2.530853e-06	-1.503088e-09	-1.804424e+01	-9.566965e+01
2.300000e-07	-2.508850e-06	-1.466110e-09	-1.788737e+01	-9.516750e+01
2.400000e-07	-2.486001e-06	-1.392208e-09	-1.772446e+01	-9.465326e+01
2.500000e-07	-2.462344e-06	-1.467652e-09	-1.755580e+01	-9.411484e+01
2.600000e-07	-2.437752e-06	-1.510153e-09	-1.738047e+01	-9.353973e+01
2.700000e-07	-2.412014e-06	-1.365764e-09	-1.719696e+01	-9.291628e+01
2.800000e-07	-2.385266e-06	-1.300375e-09	-1.700625e+01	-9.223482e+01
2.900000e-07	-2.357641e-06	-1.416085e-09	-1.680929e+01	-9.148867e+01
3.000000e-07	-2.329166e-06	-1.487682e-09	-1.660628e+01	-9.067471e+01
3.100000e-07	-2.299913e-06	-1.372152e-09	-1.639771e+01	-8.979352e+01
3.200000e-07	-2.269917e-06	-1.231817e-09	-1.618385e+01	-8.884911e+01
3.300000e-07	-2.239134e-06	-1.283193e-09	-1.596437e+01	-8.784826e+01
3.400000e-07	-2.207731e-06	-1.394777e-09	-1.574048e+01	-8.679954e+01
3.500000e-07	-2.175796e-06	-1.367084e-09	-1.551279e+01	-8.571215e+01
3.600000e-07	-2.142940e-06	-1.250089e-09	-1.527854e+01	-8.459479e+01
3.700000e-07	-2.108948e-06	-1.180494e-09	-1.503618e+01	-8.345461e+01
3.800000e-07	-2.074059e-06	-1.228731e-09	-1.478744e+01	-8.229650e+01
3.900000e-07	-2.038549e-06	-1.341693e-09	-1.453426e+01	-8.112263e+01
4.000000e-07	-2.002475e-06	-1.285390e-09	-1.427706e+01	-7.993249e+01
4.100000e-07	-1.965720e-06	-1.103866e-09	-1.401502e+01	-7.872325e+01
4.200000e-07	-1.928226e-06	-1.095439e-09	-1.374769e+01	-7.749045e+01
4.300000e-07	-1.889921e-06	-1.224467e-09	-1.347459e+01	-7.622891e+01
4.400000e-07	-1.850886e-06	-1.243174e-09	-1.319628e+01	-7.493371e+01
4.500000e-07	-1.811432e-06	-1.113514e-09	-1.291499e+01	-7.360106e+01
4.600000e-07	-1.771659e-06	-9.999694e-10	-1.263141e+01	-7.222906e+01
4.700000e-07	-1.731283e-06	-1.038554e-09	-1.234355e+01	-7.081808e+01
4.800000e-07	-1.689980e-06	-1.143180e-09	-1.204907e+01	-6.937085e+01
4.900000e-07	-1.647675e-06	-1.106386e-09	-1.174744e+01	-6.789219e+01
5.000000e-07	-1.604613e-06	-9.638543e-10	-1.144042e+01	-6.638839e+01
5.100000e-07	-1.561066e-06	-9.082907e-10	-1.112994e+01	-6.486646e+01
5.200000e-07	-1.517131e-06	-9.716520e-10	-1.081670e+01	-6.333320e+01
5.300000e-07	-1.472773e-06	-1.019017e-09	-1.050045e+01	-6.179434e+01
5.400000e-07	-1.427849e-06	-9.481429e-10	-1.018015e+01	-6.025377e+01
5.500000e-07	-1.382362e-06	-8.338343e-10	-9.855840e+00	-5.871313e+01
5.600000e-07	-1.336324e-06	-8.153134e-10	-9.527603e+00	-5.717152e+01
5.700000e-07	-1.289708e-06	-8.800877e-10	-9.195242e+00	-5.562574e+01
5.800000e-07	-1.242673e-06	-8.845017e-10	-8.859898e+00	-5.407064e+01
5.900000e-07	-1.195319e-06	-7.965514e-10	-8.522275e+00	-5.249984e+01
6.000000e-07	-1.147628e-06	-7.205613e-10	-8.182252e+00	-5.090650e+01
6.100000e-07	-1.099578e-06	-7.233881e-10	-7.839673e+00	-4.928414e+01
6.200000e-07	-1.051057e-06	-7.538214e-10	-7.493733e+00	-4.762742e+01
6.300000e-07	-1.001889e-06	-7.318788e-10	-7.143175e+00	-4.593267e+01
6.400000e-07	-9.520122e-07	-6.573882e-10	-6.787570e+00	-4.419827e+01
6.500000e-07	-9.015502e-07	-5.993445e-10	-6.427791e+00	-4.242471e+01
6.600000e-07	-8.506141e-07	-6.013932e-10	-6.064631e+00	-4.061442e+01
6.700000e-07	-7.993585e-07	-6.179309e-10	-5.699194e+00	-3.877139e+01
6.800000e-07	-7.478537e-07	-5.865153e-10	-5.331980e+00	-3.690062e+01
6.900000e-07	-6.961464e-07	-5.148626e-10	-4.963322e+00	-3.500757e+01
7.000000e-07	-6.442935e-07	-4.715986e-10	-4.593625e+00	-3.309756e+01
7.100000e-07	-5.922183e-07	-4.780431e-10	-4.222344e+00	-3.117530e+01
7.200000e-07	-5.398617e-07	-4.741532e-10	-3.849057e+00	-2.924455e+01
7.300000e-07	-4.872880e-07	-4.226654e-10	-3.474222e+00	-2.730801e+01
7.400000e-07	-4.345652e-07	-3.600118e-10	-3.098323e+00	-2.536725e+01
7.500000e-07	-3.816251e-07	-3.332358e-10	-2.720876e+00	-2.342292e+01
7.600000e-07	-3.284980e-07	-3.343088e-10	-2.342095e+00	-2.147498e+01
7.700000e-07	-2.752689e-07	-3.184931e-10	-1.962588e+00	-1.952296e+01
7.800000e-07	-2.219706e-07	-2.645214e-10	-1.582586e+00	-1.756624e+01
7.900000e-07	-1.686096e-07	-2.088313e-10	-1.202137e+00	-1.560427e+01
8.000000e-07	-1.151783e-07	-1.942392e-10	-8.211876e-01	-1.363666e+01
8.100000e-07	-6.172677e-08	-1.988171e-10	-4.400939e-01	-1.166318e+01
8.200000e-07	-8.256474e-09	-1.665194e-10	-5.886626e-02	-9.683744e+00
8.300000e-07	4.525622e-08	-9.931894e-11	3.226637e-01	-7.698253e+00
8.400000e-07	9.876285e-08	-5.790837e-11	7.041504e-01	-5.706453e+00
8.500000e-07	1.522338e-07	-6.020898e-11	1.085383e+00	-3.707831e+00
8.600000e-07	2.056816e-07	-5.160011e-11	1.466450e+00	-1.701562e+00
8.700000e-07	2.590716e-07	4.642129e-12	1.847105e+00	3.134560e-01
8.800000e-07	3.123990e-07	6.603197e-11	2.227314e+00	2.338478e+00
8.900000e-07	3.656483e-07	8.162427e-11	2.606966e+00	4.374703e+00
9.000000e-07	4.187338e-07	7.595832e-11	2.985450e+00	6.423022e+00
9.100000e-07	4.716279e-07	1.069492e-10	3.362570e+00	8.483750e+00
9.200000e-07	5.243248e-07	1.747869e-10	3.738284e+00	1.055640e+01
9.300000e-07	5.768179e-07	2.221378e-10	4.112544e+00	1.263956e+01
9.400000e-07	6.290562e-07	2.232348e-10	4.484988e+00	1.473079e+01
9.500000e-07	6.810144e-07	2.264181e-10	4.855435e+00	1.682682e+01
9.600000e-07	7.327311e-07	2.777170e-10	5.224160e+00	1.892367e+01
9.700000e-07	7.842064e-07	3.446527e-10	5.591164e+00	2.101702e+01
9.800000e-07	8.353870e-07	3.708676e-10	5.956066e+00	2.310253e+01
9.900000e-07	8.861196e-07	3.641340e-10	6.317775e+00	2.517630e+01
1.000000e-06	9.363193e-07	3.824948e-10	6.675684e+00	2.723510e+01
1.010000e-06	9.859228e-07	4.446087e-10	7.029343e+00	2.927669e+01
1.020000e-06	1.034916e-06	5.014945e-10	7.378651e+00	3.129990e+01
1.030000e-06	1.083315e-06	5.156128e-10	7.723723e+00	3.330461e+01
1.040000e-06	1.131229e-06	5.145749e-10	8.065334e+00	3.529158e+01
1.050000e-06	1.178864e-06	5.464994e-10	8.404961e+00	3.726218e+01
1.060000e-06	1.226243e-06	6.069057e-10	8.742753e+00	3.921809e+01
1.070000e-06	1.273269e-06	6.488453e-10	9.078036e+00	4.116088e+01
1.080000e-06	1.319792e-06	6.540892e-10	9.409730e+00	4.309174e+01
1.090000e-06	1.365814e-06	6.589664e-10	9.737858e+00	4.501125e+01
1.100000e-06	1.411345e-06	6.982882e-10	1.006248e+01	4.691920e+01
1.110000e-06	1.456324e-06	7.541393e-10	1.038316e+01	4.881464e+01
1.120000e-06	1.500787e-06	7.875585e-10	1.070017e+01	5.069593e+01
1.130000e-06	1.544805e-06	7.933264e-10	1.101401e+01	5.256102e+01
1.140000e-06	1.588509e-06	8.054480e-10	1.132561e+01	5.440765e+01
1.150000e-06	1.631906e-06	8.461260e-10	1.163502e+01	5.623360e+01
1.160000e-06	1.674746e-06	8.945715e-10	1.194046e+01	5.803697e+01
1.170000e-06	1.716736e-06	9.191911e-10	1.223983e+01	5.981625e+01
1.180000e-06	1.757751e-06	9.234057e-10	1.253225e+01	6.157043e+01
1.190000e-06	1.797935e-06	9.395190e-10	1.281876e+01	6.329891e+01
1.200000e-06	1.837538e-06	9.810347e-10	1.310111e+01	6.500135e+01
1.210000e-06	1.876662e-06	1.026008e-09	1.338005e+01	6.667748e+01
1.220000e-06	1.915214e-06	1.048531e-09	1.365492e+01	6.832690e+01
1.230000e-06	1.953081e-06	1.054608e-09	1.392490e+01	6.994882e+01
1.240000e-06	1.990243e-06	1.072103e-09	1.418985e+01	7.154200e+01
1.250000e-06	2.026684e-06	1.111677e-09	1.444967e+01	7.310467e+01
1.260000e-06	2.062549e-06	1.150411e-09	1.470538e+01	7.463459e+01
1.270000e-06	2.097973e-06	1.164771e-09	1.495793e+01	7.612925e+01
1.280000e-06	2.132652e-06	1.166197e-09	1.520519e+01	7.758605e+01
1.290000e-06	2.166188e-06	1.184192e-09	1.544429e+01	7.900265e+01
1.300000e-06	2.198661e-06	1.222941e-09	1.567582e+01	8.037717e+01
1.310000e-06	2.230397e-06	1.254060e-09	1.590208e+01	8.170844e+01
1.320000e-06	2.261486e-06	1.261697e-09	1.612374e+01	8.299612e+01
1.330000e-06	2.291836e-06	1.263755e-09	1.634012e+01	8.424068e+01
1.340000e-06	2.321395e-06	1.283807e-09	1.655087e+01	8.544336e+01
1.350000e-06	2.350141e-06	1.318919e-09	1.675582e+01	8.660586e+01
1.360000e-06	2.378169e-06	1.343473e-09	1.695566e+01	8.773014e+01
1.370000e-06	2.405577e-06	1.347686e-09	1.715106e+01	8.881804e+01
1.380000e-06	2.432166e-06	1.350639e-09	1.734064e+01	8.987105e+01
1.390000e-06	2.457551e-06	1.370536e-09	1.752162e+01	9.089002e+01
1.400000e-06	2.481774e-06	1.397891e-09	1.769433e+01	9.187506e+01
1.410000e-06	2.505177e-06	1.414459e-09	1.786118e+01	9.282555e+01
1.420000e-06	2.527806e-06	1.419567e-09	1.802252e+01	9.374027e+01
1.430000e-06	2.549582e-06	1.428537e-09	1.817778e+01	9.461756e+01
1.440000e-06	2.570450e-06	1.447625e-09	1.832656e+01	9.545568e+01
1.450000e-06	2.590553e-06	1.467064e-09	1.846989e+01	9.625304e+01
1.460000e-06	2.610038e-06	1.478632e-09	1.860881e+01	9.700852e+01
1.470000e-06	2.628681e-06	1.483623e-09	1.874173e+01	9.772161e+01
1.480000e-06	2.646270e-06	1.489935e-09	1.886713e+01	9.839246e+01
1.490000e-06	2.662915e-06	1.501574e-09	1.898581e+01	9.902191e+01
1.500000e-06	2.678574e-06	1.513238e-09	1.909746e+01	9.961120e+01
1.510000e-06	2.693156e-06	1.520669e-09	1.920142e+01	1.001618e+02
1.520000e-06	2.706729e-06	1.526580e-09	1.929819e+01	1.006751e+02
1.530000e-06	2.719293e-06	1.534703e-09	1.938777e+01	1.011522e+02
1.540000e-06	2.730794e-06	1.545102e-09	1.946976e+01	1.015934e+02
1.550000e-06	2.741067e-06	1.554953e-09	1.954301e+01	1.019984e+02
1.560000e-06	2.750034e-06	1.562119e-09	1.960694e+01	1.023665e+02
1.570000e-06	2.757946e-06	1.564735e-09	1.966335e+01	1.026961e+02
1.580000e-06	2.764968e-06	1.564510e-09	1.971342e+01	1.029856e+02
1.590000e-06	2.771116e-06	1.566186e-09	1.975725e+01	1.032335e+02
1.600000e-06	2.776372e-06	1.571965e-09	1.979473e+01	1.034388e+02
1.610000e-06	2.780693e-06	1.579054e-09	1.982554e+01	1.036013e+02
1.620000e-06	2.784221e-06	1.583178e-09	1.985069e+01	1.037216e+02
1.630000e-06	2.786743e-06	1.582730e-09	1.986867e+01	1.038014e+02
1.640000e-06	2.787956e-06	1.582203e-09	1.987731e+01	1.038434e+02
1.650000e-06	2.788122e-06	1.586454e-09	1.987850e+01	1.038505e+02
1.660000e-06	2.787455e-06	1.590939e-09	1.987374e+01	1.038261e+02
1.670000e-06	2.785882e-06	1.588626e-09	1.986253e+01	1.037729e+02
1.680000e-06	2.783363e-06	1.582387e-09	1.984457e+01	1.036930e+02
1.690000e-06	2.779954e-06	1.578524e-09	1.982026e+01	1.035871e+02
1.700000e-06	2.775828e-06	1.580216e-09	1.979084e+01	1.034546e+02
1.710000e-06	2.770976e-06	1.583519e-09	1.975625e+01	1.032935e+02
1.720000e-06	2.765046e-06	1.578117e-09	1.971397e+01	1.031005e+02
1.730000e-06	2.757927e-06	1.550037e-09	1.966322e+01	1.028720e+02
1.740000e-06	2.749752e-06	1.542567e-09	1.960493e+01	1.026040e+02
1.750000e-06	2.740314e-06	1.583655e-09	1.953764e+01	1.022935e+02
1.760000e-06	2.729506e-06	1.591536e-09	1.946059e+01	1.019388e+02
1.770000e-06	2.718030e-06	1.530410e-09	1.937877e+01	1.015402e+02
1.780000e-06	2.706339e-06	1.477417e-09	1.929541e+01	1.011003e+02
1.790000e-06	2.693631e-06	1.547995e-09	1.920481e+01	1.006243e+02
1.800000e-06	2.679126e-06	1.554647e-09	1.910139e+01	1.001193e+02
1.810000e-06	2.663447e-06	1.482595e-09	1.898961e+01	9.959393e+01
1.820000e-06	2.647273e-06	1.508934e-09	1.887429e+01	9.905738e+01
1.830000e-06	2.630114e-06	1.511634e-09	1.875195e+01	9.851846e+01
1.840000e-06	2.611802e-06	1.458812e-09	1.862139e+01	9.798446e+01
1.850000e-06	2.592842e-06	1.476445e-09	1.848621e+01	9.746017e+01
1.860000e-06	2.573231e-06	1.499501e-09	1.834639e+01	9.694717e+01
1.870000e-06	2.552751e-06	1.420829e-09	1.820037e+01	9.644342e+01
1.880000e-06	2.531238e-06	1.418013e-09	1.804699e+01	9.594330e+01
1.890000e-06	2.508427e-06	1.493137e-09	1.788435e+01	9.543804e+01
1.900000e-06	2.484589e-06	1.409284e-09	1.771440e+01	9.491649e+01
1.910000e-06	2.460044e-06	1.371183e-09	1.753940e+01	9.436628e+01
1.920000e-06	2.434566e-06	1.545971e-09	1.735775e+01	9.377506e+01
1.930000e-06	2.408114e-06	1.553623e-09	1.716916e+01	9.313175e+01
1.940000e-06	2.380945e-06	1.352616e-09	1.697545e+01	9.242767e+01
1.950000e-06	2.353014e-06	1.270800e-09	1.677630e+01	9.165736e+01
1.960000e-06	2.324307e-06	1.393425e-09	1.657163e+01	9.081903e+01
1.970000e-06	2.294837e-06	1.522780e-09	1.636152e+01	8.991453e+01
1.980000e-06	2.264253e-06	1.423887e-09	1.614347e+01	8.894897e+01
1.990000e-06	2.232619e-06	1.218546e-09	1.591793e+01	8.792987e+01
2.000000e-06	2.200326e-06	1.240614e-09	1.568769e+01	8.686618e+01
2.010000e-06	2.167298e-06	1.383412e-09	1.545221e+01	8.576704e+01
2.020000e-06	2.133437e-06	1.396010e-09	1.521079e+01	8.464071e+01
2.030000e-06	2.098870e-06	1.294057e-09	1.496433e+01	8.349360e+01
2.040000e-06	2.063594e-06	1.149012e-09	1.471283e+01	8.232964e+01
2.050000e-06	2.027743e-06	1.162134e-09	1.445722e+01	8.115005e+01
2.060000e-06	1.991364e-06	1.333700e-09	1.419785e+01	7.995341e+01
2.070000e-06	1.954130e-06	1.312866e-09	1.393238e+01	7.873621e+01
2.080000e-06	1.915875e-06	1.118287e-09	1.365963e+01	7.749364e+01
2.090000e-06	1.876761e-06	1.045794e-09	1.338076e+01	7.622050e+01
2.100000e-06	1.836982e-06	1.131231e-09	1.309715e+01	7.491216e+01
2.110000e-06	1.796712e-06	1.231774e-09	1.281003e+01	7.356546e+01
2.120000e-06	1.755918e-06	1.165862e-09	1.251919e+01	7.217927e+01
2.130000e-06	1.714422e-06	9.928996e-10	1.222333e+01	7.075480e+01
2.140000e-06	1.672307e-06	9.774121e-10	1.192306e+01	6.929560e+01
2.150000e-06	1.629697e-06	1.079023e-09	1.161927e+01	6.780707e+01
2.160000e-06	1.586530e-06	1.101997e-09	1.131150e+01	6.629587e+01
2.170000e-06	1.542808e-06	1.010229e-09	1.099977e+01	6.476905e+01
2.180000e-06	1.498701e-06	9.013668e-10	1.068530e+01	6.323311e+01
2.190000e-06	1.454315e-06	9.025537e-10	1.036884e+01	6.169319e+01
2.200000e-06	1.409465e-06	9.680951e-10	1.004908e+01	6.015243e+01
2.210000e-06	1.363943e-06	9.572475e-10	9.724520e+00	5.861157e+01
2.220000e-06	1.317792e-06	8.639722e-10	9.395476e+00	5.706884e+01
2.230000e-06	1.271192e-06	7.961928e-10	9.063228e+00	5.552030e+01
2.240000e-06	1.224225e-06	8.148310e-10	8.728370e+00	5.396026e+01
2.250000e-06	1.176940e-06	8.512854e-10	8.391240e+00	5.238209e+01
2.260000e-06	1.129317e-06	8.176539e-10	8.051705e+00	5.077898e+01
2.270000e-06	1.081159e-06	7.417688e-10	7.708351e+00	4.914478e+01
2.280000e-06	1.032362e-06	6.928496e-10	7.360444e+00	4.747469e+01
2.290000e-06	9.830605e-07	6.996238e-10	7.008936e+00	4.576575e+01
2.300000e-06	9.333936e-07	7.146420e-10	6.654825e+00	4.401709e+01
2.310000e-06	8.834115e-07	6.723237e-10	6.298467e+00	4.222993e+01
2.320000e-06	8.331606e-07	5.986029e-10	5.940193e+00	4.040732e+01
2.330000e-06	7.825713e-07	5.606372e-10	5.579506e+00	3.855366e+01
2.340000e-06	7.316613e-07	5.742404e-10	5.216533e+00	3.667420e+01
2.350000e-06	6.804972e-07	5.750948e-10	4.851747e+00	3.477440e+01
2.360000e-06	6.290752e-07	5.139282e-10	4.485123e+00	3.285941e+01
2.370000e-06	5.774638e-07	4.470164e-10	4.117149e+00	3.093363e+01
2.380000e-06	5.256822e-07	4.320360e-10	3.747961e+00	2.900046e+01
2.390000e-06	4.736970e-07	4.381419e-10	3.377322e+00	2.706217e+01
2.400000e-06	4.215443e-07	4.104003e-10	3.005488e+00	2.512000e+01
2.410000e-06	3.692882e-07	3.461014e-10	2.632918e+00	2.317431e+01
2.420000e-06	3.169485e-07	2.970917e-10	2.259750e+00	2.122487e+01
2.430000e-06	2.644823e-07	2.957210e-10	1.885682e+00	1.927114e+01
2.440000e-06	2.119499e-07	2.997140e-10	1.511141e+00	1.731250e+01
2.450000e-06	1.593679e-07	2.559467e-10	1.136247e+00	1.534844e+01
2.460000e-06	1.066747e-07	1.852429e-10	7.605593e-01	1.337864e+01
2.470000e-06	5.387422e-08	1.549928e-10	3.841075e-01	1.140293e+01
2.480000e-06	1.037448e-09	1.685967e-10	7.396701e-03	9.421247e+00
2.490000e-06	-5.172070e-08	1.530465e-10	-3.687536e-01	7.433436e+00
2.500000e-06	-1.044585e-07	8.206400e-11	-7.447590e-01	5.439167e+00
2.510000e-06	-1.571832e-07	2.124880e-11	-1.120671e+00	3.437819e+00
2.520000e-06	-2.098287e-07	1.978856e-11	-1.496018e+00	1.428456e+00
2.530000e-06	-2.623810e-07	2.961557e-11	-1.870701e+00	-5.900952e-01
2.540000e-06	-3.148238e-07	-1.516002e-11	-2.244602e+00	-2.619098e+00
2.550000e-06	-3.671910e-07	-9.153742e-11	-2.617965e+00	-4.659671e+00
2.560000e-06	-4.194459e-07	-1.275607e-10	-2.990528e+00	-6.712529e+00
2.570000e-06	-4.715553e-07	-1.162874e-10	-3.362052e+00	-8.777726e+00
2.580000e-06	-5.235282e-07	-1.245054e-10	-3.732604e+00	-1.085445e+01
2.590000e-06	-5.753651e-07	-1.880660e-10	-4.102186e+00	-1.294092e+01
2.600000e-06	-6.269799e-07	-2.576178e-10	-4.470185e+00	-1.503440e+01
2.610000e-06	-6.782995e-07	-2.752849e-10	-4.836078e+00	-1.713131e+01
2.620000e-06	-7.293286e-07	-2.649868e-10	-5.199901e+00	-1.922752e+01
2.630000e-06	-7.800756e-07	-2.927799e-10	-5.561712e+00	-2.131866e+01
2.640000e-06	-8.305372e-07	-3.629410e-10	-5.921489e+00	-2.340050e+01
2.650000e-06	-8.806453e-07	-4.145029e-10	-6.278745e+00	-2.546935e+01
2.660000e-06	-9.303559e-07	-4.195269e-10	-6.633167e+00	-2.752232e+01
2.670000e-06	-9.795932e-07	-4.215737e-10	-6.984215e+00	-2.955753e+01
2.680000e-06	-1.028268e-06	-4.650391e-10	-7.331250e+00	-3.157420e+01
2.690000e-06	-1.076346e-06	-5.309025e-10	-7.674037e+00	-3.357256e+01
2.700000e-06	-1.123834e-06	-5.680700e-10	-8.012608e+00	-3.555360e+01
2.710000e-06	-1.170809e-06	-5.694273e-10	-8.347526e+00	-3.751887e+01
2.720000e-06	-1.217454e-06	-5.793892e-10	-8.680092e+00	-3.947003e+01
2.730000e-06	-1.263853e-06	-6.269591e-10	-9.010904e+00	-4.140856e+01
2.740000e-06	-1.309945e-06	-6.821906e-10	-9.339526e+00	-4.333545e+01
2.750000e-06	-1.355658e-06	-7.060649e-10	-9.665444e+00	-4.525100e+01
2.760000e-06	-1.400881e-06	-7.084410e-10	-9.987878e+00	-4.715474e+01
2.770000e-06	-1.445559e-06	-7.286269e-10	-1.030641e+01	-4.904544e+01
2.780000e-06	-1.489836e-06	-7.789905e-10	-1.062210e+01	-5.092131e+01
2.790000e-06	-1.533811e-06	-8.295149e-10	-1.093563e+01	-5.278018e+01
2.800000e-06	-1.577368e-06	-8.510274e-10	-1.124617e+01	-5.461977e+01
2.810000e-06	-1.620379e-06	-8.567286e-10	-1.155283e+01	-5.643796e+01
2.820000e-06	-1.662868e-06	-8.799188e-10	-1.185577e+01	-5.823298e+01
2.830000e-06	-1.704860e-06	-9.254241e-10	-1.215515e+01	-6.000350e+01
2.840000e-06	-1.746199e-06	-9.655382e-10	-1.244989e+01	-6.174866e+01
2.850000e-06	-1.786881e-06	-9.800021e-10	-1.273994e+01	-6.346797e+01
2.860000e-06	-1.827085e-06	-9.846935e-10	-1.302659e+01	-6.516116e+01
2.870000e-06	-1.866812e-06	-1.009202e-09	-1.330983e+01	-6.682792e+01
2.880000e-06	-1.905804e-06	-1.054633e-09	-1.358783e+01	-6.846773e+01
2.890000e-06	-1.943832e-06	-1.091814e-09	-1.385896e+01	-7.007967e+01
2.900000e-06	-1.980891e-06	-1.103145e-09	-1.412318e+01	-7.166229e+01
2.910000e-06	-2.017227e-06	-1.108542e-09	-1.438224e+01	-7.321365e+01
2.920000e-06	-2.053037e-06	-1.135926e-09	-1.463756e+01	-7.473138e+01
2.930000e-06	-2.088196e-06	-1.178342e-09	-1.488823e+01	-7.621291e+01
2.940000e-06	-2.122621e-06	-1.204135e-09	-1.513367e+01	-7.765571e+01
