# Temperatura_=_20.0
# Concentracion g/m^3_=_12600.0
# C_Vs_to_Am_M_A/Vsm_=_65563218390.804596
# pendiente_HvsI_1/m_=_3716.3
# ordenada_HvsI_A/m_=_1297.0
# frecuencia_Hz_=_301830.8277314801

Tiempo_(s)	Campo_(V.s)	Magnetizacion_(V.s)	Campo_(kA/m)	Magnetizacion_(A/m)
0.000000e+00	-2.776055e-06	-9.204359e-11	-1.979823e+01	-6.911691e+00
1.000000e-08	-2.775769e-06	-8.758050e-11	-1.979618e+01	-6.898394e+00
2.000000e-08	-2.774392e-06	-9.586763e-11	-1.978637e+01	-6.862783e+00
3.000000e-08	-2.771755e-06	-1.044544e-10	-1.976756e+01	-6.813892e+00
4.000000e-08	-2.768199e-06	-1.004070e-10	-1.974220e+01	-6.762686e+00
5.000000e-08	-2.763921e-06	-8.919640e-11	-1.971169e+01	-6.720517e+00
6.000000e-08	-2.758808e-06	-8.520589e-11	-1.967522e+01	-6.697463e+00
7.000000e-08	-2.752775e-06	-8.893397e-11	-1.963220e+01	-6.700775e+00
8.000000e-08	-2.745789e-06	-8.160855e-11	-1.958238e+01	-6.733673e+00
9.000000e-08	-2.737790e-06	-8.265572e-11	-1.952533e+01	-6.794692e+00
1.000000e-07	-2.728505e-06	-1.124706e-10	-1.945911e+01	-6.877682e+00
1.100000e-07	-2.717808e-06	-1.336388e-10	-1.938282e+01	-6.972498e+00
1.200000e-07	-2.706171e-06	-8.171002e-11	-1.929983e+01	-7.066294e+00
1.300000e-07	-2.693786e-06	-3.883276e-11	-1.921150e+01	-7.145261e+00
1.400000e-07	-2.680411e-06	-8.823488e-11	-1.911611e+01	-7.196571e+00
1.500000e-07	-2.666066e-06	-9.713904e-11	-1.901381e+01	-7.210250e+00
1.600000e-07	-2.650694e-06	-5.632368e-11	-1.890418e+01	-7.180725e+00
1.700000e-07	-2.633982e-06	-8.997946e-11	-1.878500e+01	-7.107810e+00
1.800000e-07	-2.616133e-06	-2.955516e-11	-1.865770e+01	-6.996977e+00
1.900000e-07	-2.597652e-06	6.705133e-11	-1.852589e+01	-6.858876e+00
2.000000e-07	-2.578529e-06	-8.753475e-11	-1.838951e+01	-6.708131e+00
2.100000e-07	-2.558447e-06	-1.782767e-10	-1.824629e+01	-6.561595e+00
2.200000e-07	-2.537394e-06	2.522893e-11	-1.809615e+01	-6.436273e+00
2.300000e-07	-2.515628e-06	6.193422e-11	-1.794091e+01	-6.347200e+00
2.400000e-07	-2.493072e-06	-1.674804e-10	-1.778005e+01	-6.305566e+00
2.500000e-07	-2.469639e-06	-2.090503e-10	-1.761294e+01	-6.317327e+00
2.600000e-07	-2.445347e-06	-8.770420e-11	-1.743969e+01	-6.382496e+00
2.700000e-07	-2.419973e-06	-5.627606e-11	-1.725873e+01	-6.495201e+00
2.800000e-07	-2.393493e-06	-7.236156e-11	-1.706987e+01	-6.644492e+00
2.900000e-07	-2.366105e-06	-1.220017e-10	-1.687455e+01	-6.815777e+00
3.000000e-07	-2.337889e-06	-1.885622e-10	-1.667332e+01	-6.992689e+00
3.100000e-07	-2.308849e-06	-1.299717e-10	-1.646621e+01	-7.159113e+00
3.200000e-07	-2.279073e-06	-3.460220e-11	-1.625386e+01	-7.301108e+00
3.300000e-07	-2.248526e-06	-5.959555e-11	-1.603600e+01	-7.408471e+00
3.400000e-07	-2.217240e-06	-1.423905e-10	-1.581288e+01	-7.475727e+00
3.500000e-07	-2.185424e-06	-1.817186e-10	-1.558597e+01	-7.502455e+00
3.600000e-07	-2.152935e-06	-1.095285e-10	-1.535427e+01	-7.492928e+00
3.700000e-07	-2.119373e-06	-2.241842e-11	-1.511491e+01	-7.455139e+00
3.800000e-07	-2.084682e-06	-8.744185e-11	-1.486750e+01	-7.399394e+00
3.900000e-07	-2.049252e-06	-1.865944e-10	-1.461482e+01	-7.336686e+00
4.000000e-07	-2.013332e-06	-1.468245e-10	-1.435865e+01	-7.277097e+00
4.100000e-07	-1.976785e-06	-7.432869e-11	-1.409801e+01	-7.228454e+00
4.200000e-07	-1.939533e-06	-8.611182e-11	-1.383233e+01	-7.195428e+00
4.300000e-07	-1.901593e-06	-1.343034e-10	-1.356175e+01	-7.179178e+00
4.400000e-07	-1.862902e-06	-1.533131e-10	-1.328582e+01	-7.177563e+00
4.500000e-07	-1.823591e-06	-1.188660e-10	-1.300546e+01	-7.185861e+00
4.600000e-07	-1.783933e-06	-8.018240e-11	-1.272263e+01	-7.197851e+00
4.700000e-07	-1.743851e-06	-9.875457e-11	-1.243677e+01	-7.207066e+00
4.800000e-07	-1.702941e-06	-1.419976e-10	-1.214501e+01	-7.208007e+00
4.900000e-07	-1.660930e-06	-1.333312e-10	-1.184539e+01	-7.197130e+00
5.000000e-07	-1.617982e-06	-9.040644e-11	-1.153910e+01	-7.173429e+00
5.100000e-07	-1.574509e-06	-9.286651e-11	-1.122906e+01	-7.138564e+00
5.200000e-07	-1.530648e-06	-1.308580e-10	-1.091625e+01	-7.096490e+00
5.300000e-07	-1.486346e-06	-1.368140e-10	-1.060030e+01	-7.052685e+00
5.400000e-07	-1.441544e-06	-1.026839e-10	-1.028078e+01	-7.013097e+00
5.500000e-07	-1.396208e-06	-8.350927e-11	-9.957454e+00	-6.982994e+00
5.600000e-07	-1.350329e-06	-1.061328e-10	-9.630258e+00	-6.965912e+00
5.700000e-07	-1.303935e-06	-1.327534e-10	-9.299387e+00	-6.962875e+00
5.800000e-07	-1.257045e-06	-1.170544e-10	-8.964977e+00	-6.972011e+00
5.900000e-07	-1.209750e-06	-8.324746e-11	-8.627680e+00	-6.988644e+00
6.000000e-07	-1.162194e-06	-8.504742e-11	-8.288516e+00	-7.005841e+00
6.100000e-07	-1.114330e-06	-1.226806e-10	-7.947164e+00	-7.015334e+00
6.200000e-07	-1.066031e-06	-1.425936e-10	-7.602706e+00	-7.008688e+00
6.300000e-07	-1.017147e-06	-1.093614e-10	-7.254072e+00	-6.978512e+00
6.400000e-07	-9.675139e-07	-6.908761e-11	-6.900101e+00	-6.919557e+00
6.500000e-07	-9.172382e-07	-8.557488e-11	-6.541545e+00	-6.829500e+00
6.600000e-07	-8.665208e-07	-1.340439e-10	-6.179839e+00	-6.709328e+00
6.700000e-07	-8.154567e-07	-1.360781e-10	-5.815661e+00	-6.563225e+00
6.800000e-07	-7.640966e-07	-8.602409e-11	-5.449372e+00	-6.398017e+00
6.900000e-07	-7.124898e-07	-5.738941e-11	-5.081324e+00	-6.222232e+00
7.000000e-07	-6.607246e-07	-8.927819e-11	-4.712146e+00	-6.044925e+00
7.100000e-07	-6.087969e-07	-1.346489e-10	-4.341809e+00	-5.874447e+00
7.200000e-07	-5.565801e-07	-1.270957e-10	-3.969410e+00	-5.717337e+00
7.300000e-07	-5.041011e-07	-7.355894e-11	-3.595141e+00	-5.577487e+00
7.400000e-07	-4.514447e-07	-4.743087e-11	-3.219607e+00	-5.455722e+00
7.500000e-07	-3.986301e-07	-8.662209e-11	-2.842944e+00	-5.349814e+00
7.600000e-07	-3.456575e-07	-1.338235e-10	-2.465155e+00	-5.254954e+00
7.700000e-07	-2.925131e-07	-1.147854e-10	-2.086140e+00	-5.164567e+00
7.800000e-07	-2.392365e-07	-5.021530e-11	-1.706183e+00	-5.071358e+00
7.900000e-07	-1.858713e-07	-3.431165e-11	-1.325594e+00	-4.968431e+00
8.000000e-07	-1.324636e-07	-9.259738e-11	-9.447018e-01	-4.850292e+00
8.100000e-07	-7.906816e-08	-1.357214e-10	-5.638971e-01	-4.713614e+00
8.200000e-07	-2.565792e-08	-9.659302e-11	-1.829868e-01	-4.557646e+00
8.300000e-07	2.781368e-08	-3.151501e-11	1.983612e-01	-4.384216e+00
8.400000e-07	8.127885e-08	-3.497042e-11	5.796633e-01	-4.197360e+00
8.500000e-07	1.347250e-07	-9.806897e-11	9.608299e-01	-4.002633e+00
8.600000e-07	1.881678e-07	-1.227548e-10	1.341972e+00	-3.806231e+00
8.700000e-07	2.415628e-07	-6.702395e-11	1.722774e+00	-3.614071e+00
8.800000e-07	2.948862e-07	-8.357807e-12	2.103065e+00	-3.430959e+00
8.900000e-07	3.481464e-07	-3.087384e-11	2.482905e+00	-3.259992e+00
9.000000e-07	4.012919e-07	-1.001449e-10	2.861927e+00	-3.102259e+00
9.100000e-07	4.543101e-07	-1.111905e-10	3.240042e+00	-2.956882e+00
9.200000e-07	5.071992e-07	-4.469875e-11	3.617235e+00	-2.821370e+00
9.300000e-07	5.598439e-07	2.197137e-12	3.992686e+00	-2.692206e+00
9.400000e-07	6.121341e-07	-3.717383e-11	4.365609e+00	-2.565567e+00
9.500000e-07	6.640854e-07	-9.813798e-11	4.736114e+00	-2.438045e+00
9.600000e-07	7.158227e-07	-8.388501e-11	5.105093e+00	-2.307236e+00
9.700000e-07	7.674023e-07	-1.282641e-11	5.472948e+00	-2.172122e+00
9.800000e-07	8.187587e-07	1.160718e-11	5.839211e+00	-2.033164e+00
9.900000e-07	8.697507e-07	-4.291642e-11	6.202875e+00	-1.892122e+00
1.000000e-06	9.202127e-07	-9.268547e-11	6.562759e+00	-1.751623e+00
1.010000e-06	9.700088e-07	-6.354486e-11	6.917894e+00	-1.614576e+00
1.020000e-06	1.019146e-06	1.097134e-12	7.268332e+00	-1.483537e+00
1.030000e-06	1.067699e-06	8.684219e-12	7.614600e+00	-1.360139e+00
1.040000e-06	1.115720e-06	-4.555668e-11	7.957075e+00	-1.244701e+00
1.050000e-06	1.163383e-06	-7.496881e-11	8.296998e+00	-1.136069e+00
1.060000e-06	1.210805e-06	-3.386979e-11	8.635200e+00	-1.031748e+00
1.070000e-06	1.257984e-06	1.675753e-11	8.971674e+00	-9.282725e-01
1.080000e-06	1.304729e-06	4.984564e-12	9.305046e+00	-8.217788e-01
1.090000e-06	1.350903e-06	-4.654734e-11	9.634352e+00	-7.086666e-01
1.100000e-06	1.396559e-06	-6.035470e-11	9.959955e+00	-5.862357e-01
1.110000e-06	1.441717e-06	-1.936826e-11	1.028202e+01	-4.531852e-01
1.120000e-06	1.486356e-06	1.576942e-11	1.060037e+01	-3.098843e-01
1.130000e-06	1.530509e-06	-7.507870e-13	1.091526e+01	-1.583586e-01
1.140000e-06	1.574304e-06	-3.846286e-11	1.122760e+01	-1.987450e-03
1.150000e-06	1.617795e-06	-3.977833e-11	1.153777e+01	1.550435e-01
1.160000e-06	1.660883e-06	-2.660849e-12	1.184506e+01	3.084496e-01
1.170000e-06	1.703277e-06	1.971956e-11	1.214740e+01	4.545962e-01
1.180000e-06	1.744615e-06	-2.103803e-12	1.244222e+01	5.911647e-01
1.190000e-06	1.784975e-06	-3.288733e-11	1.273005e+01	7.176193e-01
1.200000e-06	1.824711e-06	-2.715105e-11	1.301345e+01	8.353909e-01
1.210000e-06	1.863979e-06	6.181847e-12	1.329349e+01	9.477359e-01
1.220000e-06	1.902739e-06	2.085637e-11	1.356993e+01	1.059287e+00
1.230000e-06	1.940845e-06	1.929299e-12	1.384169e+01	1.175357e+00
1.240000e-06	1.978229e-06	-1.699826e-11	1.410830e+01	1.301105e+00
1.250000e-06	2.014812e-06	-7.161913e-12	1.436920e+01	1.440699e+00
1.260000e-06	2.050752e-06	1.844230e-11	1.462552e+01	1.596608e+00
1.270000e-06	2.086294e-06	2.773171e-11	1.487900e+01	1.769144e+00
1.280000e-06	2.121257e-06	1.137452e-11	1.512835e+01	1.956336e+00
1.290000e-06	2.155224e-06	-4.197982e-12	1.537059e+01	2.154165e+00
1.300000e-06	2.188038e-06	5.291148e-12	1.560462e+01	2.357124e+00
1.310000e-06	2.219958e-06	2.668475e-11	1.583226e+01	2.559033e+00
1.320000e-06	2.251247e-06	3.253603e-11	1.605541e+01	2.753970e+00
1.330000e-06	2.281807e-06	1.988907e-11	1.627336e+01	2.937179e+00
1.340000e-06	2.311537e-06	1.210257e-11	1.648538e+01	3.105809e+00
1.350000e-06	2.340509e-06	2.498511e-11	1.669200e+01	3.259354e+00
1.360000e-06	2.368730e-06	4.363647e-11	1.689327e+01	3.399728e+00
1.370000e-06	2.396311e-06	4.661228e-11	1.708998e+01	3.530952e+00
1.380000e-06	2.423177e-06	3.468306e-11	1.728158e+01	3.658491e+00
1.390000e-06	2.448915e-06	2.842893e-11	1.746513e+01	3.788348e+00
1.400000e-06	2.473414e-06	3.823035e-11	1.763986e+01	3.926057e+00
1.410000e-06	2.497011e-06	5.217266e-11	1.780814e+01	4.075729e+00
1.420000e-06	2.519897e-06	5.484398e-11	1.797136e+01	4.239314e+00
1.430000e-06	2.541995e-06	4.750965e-11	1.812896e+01	4.416194e+00
1.440000e-06	2.563199e-06	4.654004e-11	1.828018e+01	4.603187e+00
1.450000e-06	2.583531e-06	5.719178e-11	1.842519e+01	4.794966e+00
1.460000e-06	2.603189e-06	6.838328e-11	1.856539e+01	4.984837e+00
1.470000e-06	2.622099e-06	6.965333e-11	1.870025e+01	5.165749e+00
1.480000e-06	2.640014e-06	6.362505e-11	1.882801e+01	5.331393e+00
1.490000e-06	2.656969e-06	6.045791e-11	1.894893e+01	5.477205e+00
1.500000e-06	2.673040e-06	6.492814e-11	1.906355e+01	5.601102e+00
1.510000e-06	2.688034e-06	7.291143e-11	1.917048e+01	5.703842e+00
1.520000e-06	2.701876e-06	7.834699e-11	1.926920e+01	5.788930e+00
1.530000e-06	2.714701e-06	7.895812e-11	1.936066e+01	5.862074e+00
1.540000e-06	2.726611e-06	7.834551e-11	1.944560e+01	5.930267e+00
1.550000e-06	2.737429e-06	8.139602e-11	1.952275e+01	6.000639e+00
1.560000e-06	2.746818e-06	8.839212e-11	1.958972e+01	6.079254e+00
1.570000e-06	2.754981e-06	9.331229e-11	1.964793e+01	6.170036e+00
1.580000e-06	2.762286e-06	9.044473e-11	1.970003e+01	6.274022e+00
1.590000e-06	2.768744e-06	8.349162e-11	1.974609e+01	6.389055e+00
1.600000e-06	2.774230e-06	8.307877e-11	1.978521e+01	6.509988e+00
1.610000e-06	2.778757e-06	9.194620e-11	1.981750e+01	6.629386e+00
1.620000e-06	2.782486e-06	1.013848e-10	1.984409e+01	6.738637e+00
1.630000e-06	2.785343e-06	1.017970e-10	1.986446e+01	6.829297e+00
1.640000e-06	2.786949e-06	9.699235e-11	1.987592e+01	6.894478e+00
1.650000e-06	2.787311e-06	1.000586e-10	1.987850e+01	6.930060e+00
1.660000e-06	2.786787e-06	1.116281e-10	1.987476e+01	6.935523e+00
1.670000e-06	2.785434e-06	1.172149e-10	1.986511e+01	6.914258e+00
1.680000e-06	2.783189e-06	1.094374e-10	1.984910e+01	6.873292e+00
1.690000e-06	2.780031e-06	9.967876e-11	1.982658e+01	6.822428e+00
1.700000e-06	2.776087e-06	1.004402e-10	1.979845e+01	6.772935e+00
1.710000e-06	2.771502e-06	1.094391e-10	1.976576e+01	6.735938e+00
1.720000e-06	2.766071e-06	1.143331e-10	1.972703e+01	6.720761e+00
1.730000e-06	2.759429e-06	1.259010e-10	1.967965e+01	6.733468e+00
1.740000e-06	2.751567e-06	1.226129e-10	1.962358e+01	6.775816e+00
1.750000e-06	2.742527e-06	8.212624e-11	1.955911e+01	6.844799e+00
1.760000e-06	2.732073e-06	5.847634e-11	1.948456e+01	6.932876e+00
1.770000e-06	2.720615e-06	1.161247e-10	1.940284e+01	7.028868e+00
1.780000e-06	2.708979e-06	1.654989e-10	1.931986e+01	7.119416e+00
1.790000e-06	2.696800e-06	1.159193e-10	1.923300e+01	7.190810e+00
1.800000e-06	2.682911e-06	8.627549e-11	1.913394e+01	7.230946e+00
1.810000e-06	2.667414e-06	1.571918e-10	1.902342e+01	7.231120e+00
1.820000e-06	2.651302e-06	1.445044e-10	1.890851e+01	7.187415e+00
1.830000e-06	2.634560e-06	1.705243e-10	1.878911e+01	7.101468e+00
1.840000e-06	2.616655e-06	2.792497e-10	1.866142e+01	6.980507e+00
1.850000e-06	2.597831e-06	1.610445e-10	1.852717e+01	6.836619e+00
1.860000e-06	2.578392e-06	4.816594e-11	1.838854e+01	6.685358e+00
1.870000e-06	2.558207e-06	2.338132e-10	1.824458e+01	6.543858e+00
1.880000e-06	2.537165e-06	2.682211e-10	1.809451e+01	6.428718e+00
1.890000e-06	2.514917e-06	-3.095808e-11	1.793585e+01	6.353921e+00
1.900000e-06	2.491336e-06	-4.743620e-11	1.776767e+01	6.329098e+00
1.910000e-06	2.466971e-06	1.986469e-10	1.759390e+01	6.358334e+00
1.920000e-06	2.441932e-06	1.934600e-10	1.741533e+01	6.439709e+00
1.930000e-06	2.415841e-06	9.362534e-11	1.722926e+01	6.565596e+00
1.940000e-06	2.388925e-06	9.382155e-11	1.703730e+01	6.723692e+00
1.950000e-06	2.361381e-06	5.946483e-11	1.684086e+01	6.898620e+00
1.960000e-06	2.332987e-06	1.212508e-10	1.663836e+01	7.073868e+00
1.970000e-06	2.303828e-06	2.157164e-10	1.643040e+01	7.233827e+00
1.980000e-06	2.273741e-06	1.466369e-10	1.621583e+01	7.365610e+00
1.990000e-06	2.242439e-06	6.483638e-11	1.599259e+01	7.460454e+00
2.000000e-06	2.210269e-06	6.248433e-11	1.576317e+01	7.514509e+00
2.010000e-06	2.177452e-06	1.347616e-10	1.552912e+01	7.528934e+00
2.020000e-06	2.143861e-06	2.259787e-10	1.528956e+01	7.509328e+00
2.030000e-06	2.109578e-06	1.314246e-10	1.504505e+01	7.464596e+00
2.040000e-06	2.074534e-06	4.574374e-12	1.479513e+01	7.405446e+00
2.050000e-06	2.038779e-06	9.989905e-11	1.454014e+01	7.342744e+00
2.060000e-06	2.002596e-06	1.997275e-10	1.428208e+01	7.285977e+00
2.070000e-06	1.965742e-06	1.572412e-10	1.401925e+01	7.242031e+00
2.080000e-06	1.927869e-06	7.746290e-11	1.374915e+01	7.214459e+00
2.090000e-06	1.888994e-06	5.095180e-11	1.347190e+01	7.203308e+00
2.100000e-06	1.849323e-06	1.299493e-10	1.318897e+01	7.205509e+00
2.110000e-06	1.809123e-06	1.881187e-10	1.290228e+01	7.215729e+00
2.120000e-06	1.768485e-06	1.276743e-10	1.261246e+01	7.227528e+00
2.130000e-06	1.727289e-06	6.790307e-11	1.231866e+01	7.234625e+00
2.140000e-06	1.685458e-06	8.795663e-11	1.202032e+01	7.232059e+00
2.150000e-06	1.643043e-06	1.553465e-10	1.171783e+01	7.217058e+00
2.160000e-06	1.600108e-06	1.709366e-10	1.141162e+01	7.189485e+00
2.170000e-06	1.556602e-06	1.082122e-10	1.110135e+01	7.151798e+00
2.180000e-06	1.512608e-06	7.674123e-11	1.078760e+01	7.108545e+00
2.190000e-06	1.468335e-06	1.117565e-10	1.047185e+01	7.065475e+00
2.200000e-06	1.423664e-06	1.504399e-10	1.015327e+01	7.028444e+00
2.210000e-06	1.378374e-06	1.402203e-10	9.830269e+00	7.002268e+00
2.220000e-06	1.332420e-06	8.978318e-11	9.502532e+00	6.989744e+00
2.230000e-06	1.285831e-06	8.681694e-11	9.170266e+00	6.990984e+00
2.240000e-06	1.238891e-06	1.330930e-10	8.835507e+00	7.003182e+00
2.250000e-06	1.191768e-06	1.564369e-10	8.499436e+00	7.020857e+00
2.260000e-06	1.144234e-06	1.344401e-10	8.160429e+00	7.036532e+00
2.270000e-06	1.096144e-06	9.469812e-11	7.817466e+00	7.041750e+00
2.280000e-06	1.047520e-06	1.033042e-10	7.470687e+00	7.028283e+00
2.290000e-06	9.984358e-07	1.506604e-10	7.120629e+00	6.989320e+00
2.300000e-06	9.489188e-07	1.494667e-10	6.767484e+00	6.920484e+00
2.310000e-06	8.990292e-07	9.786991e-11	6.411683e+00	6.820499e+00
2.320000e-06	8.488735e-07	7.215885e-11	6.053983e+00	6.691412e+00
2.330000e-06	7.984204e-07	1.070341e-10	5.694162e+00	6.538340e+00
2.340000e-06	7.476720e-07	1.471982e-10	5.332235e+00	6.368771e+00
2.350000e-06	6.966323e-07	1.288944e-10	4.968231e+00	6.191537e+00
2.360000e-06	6.453243e-07	8.106608e-11	4.602314e+00	6.015601e+00
2.370000e-06	5.938216e-07	6.910612e-11	4.235008e+00	5.848840e+00
2.380000e-06	5.421096e-07	1.070225e-10	3.866209e+00	5.697015e+00
2.390000e-06	4.901787e-07	1.392034e-10	3.495849e+00	5.563059e+00
2.400000e-06	4.380769e-07	1.064201e-10	3.124270e+00	5.446789e+00
2.410000e-06	3.858665e-07	4.781906e-11	2.751917e+00	5.345081e+00
2.420000e-06	3.335779e-07	4.860596e-11	2.379005e+00	5.252452e+00
2.430000e-06	2.812177e-07	1.081932e-10	2.005584e+00	5.161975e+00
2.440000e-06	2.287731e-07	1.364412e-10	1.631560e+00	5.066365e+00
2.450000e-06	1.761809e-07	8.296957e-11	1.256485e+00	4.959075e+00
2.460000e-06	1.234875e-07	2.757007e-11	8.806862e-01	4.835240e+00
2.470000e-06	7.080461e-08	5.577645e-11	5.049632e-01	4.692335e+00
2.480000e-06	1.813416e-08	1.205053e-10	1.293289e-01	4.530457e+00
2.490000e-06	-3.452798e-08	1.187867e-10	-2.462461e-01	4.352201e+00
2.500000e-06	-8.717703e-08	4.566474e-11	-6.217278e-01	4.162179e+00
2.510000e-06	-1.398259e-07	2.806776e-12	-9.972079e-01	3.966252e+00
2.520000e-06	-1.924196e-07	4.853492e-11	-1.372295e+00	3.770626e+00
2.530000e-06	-2.449345e-07	1.104390e-10	-1.746820e+00	3.580942e+00
2.540000e-06	-2.974037e-07	9.234145e-11	-2.121019e+00	3.401508e+00
2.550000e-06	-3.497992e-07	1.471217e-11	-2.494692e+00	3.234794e+00
2.560000e-06	-4.020812e-07	-1.207324e-11	-2.867557e+00	3.081234e+00
2.570000e-06	-4.542267e-07	5.068094e-11	-3.239447e+00	2.939382e+00
2.580000e-06	-5.062342e-07	1.044599e-10	-3.610354e+00	2.806343e+00
2.590000e-06	-5.581404e-07	6.481702e-11	-3.980537e+00	2.678420e+00
2.600000e-06	-6.099291e-07	-1.119006e-11	-4.349883e+00	2.551851e+00
2.610000e-06	-6.614496e-07	-1.398964e-11	-4.717316e+00	2.423492e+00
2.620000e-06	-7.125528e-07	5.525978e-11	-5.081773e+00	2.291358e+00
2.630000e-06	-7.632650e-07	8.803360e-11	-5.443441e+00	2.154908e+00
2.640000e-06	-8.137045e-07	3.400491e-11	-5.803166e+00	2.015056e+00
2.650000e-06	-8.639259e-07	-2.645788e-11	-6.161334e+00	1.873894e+00
2.660000e-06	-9.138468e-07	-5.719498e-12	-6.517359e+00	1.734211e+00
2.670000e-06	-9.632742e-07	6.060322e-11	-6.869864e+00	1.598869e+00
2.680000e-06	-1.012036e-06	6.995203e-11	-7.217626e+00	1.470184e+00
2.690000e-06	-1.060168e-06	7.407736e-12	-7.560891e+00	1.349400e+00
2.700000e-06	-1.107755e-06	-3.594725e-11	-7.900268e+00	1.236364e+00
2.710000e-06	-1.154870e-06	-3.585937e-12	-8.236286e+00	1.129466e+00
2.720000e-06	-1.201720e-06	4.809761e-11	-8.570405e+00	1.025845e+00
2.730000e-06	-1.248329e-06	4.069208e-11	-8.902817e+00	9.218407e-01
2.740000e-06	-1.294581e-06	-1.309151e-11	-9.232673e+00	8.136002e-01
2.750000e-06	-1.340417e-06	-3.521979e-11	-9.559563e+00	6.977474e-01
2.760000e-06	-1.385700e-06	-1.376643e-13	-9.882514e+00	5.719867e-01
2.770000e-06	-1.430447e-06	3.553502e-11	-1.020164e+01	4.355377e-01
2.780000e-06	-1.474823e-06	1.853062e-11	-1.051812e+01	2.893176e-01
2.790000e-06	-1.518949e-06	-2.928160e-11	-1.083282e+01	1.358333e-01
2.800000e-06	-1.562760e-06	-4.467783e-11	-1.114527e+01	-2.120716e-02
2.810000e-06	-1.606049e-06	-1.388751e-11	-1.145400e+01	-1.775048e-01
2.820000e-06	-1.648724e-06	1.143194e-11	-1.175834e+01	-3.289035e-01
2.830000e-06	-1.690878e-06	-7.275739e-12	-1.205898e+01	-4.721265e-01
2.840000e-06	-1.732529e-06	-4.160934e-11	-1.235602e+01	-6.053897e-01
2.850000e-06	-1.773483e-06	-4.259173e-11	-1.264810e+01	-7.287846e-01
2.860000e-06	-1.813849e-06	-1.266982e-11	-1.293598e+01	-8.443598e-01
2.870000e-06	-1.853769e-06	2.399788e-12	-1.322068e+01	-9.558768e-01
2.880000e-06	-1.893085e-06	-1.870927e-11	-1.350108e+01	-1.068272e+00
2.890000e-06	-1.931533e-06	-4.822821e-11	-1.377528e+01	-1.186902e+00
2.900000e-06	-1.968901e-06	-5.004751e-11	-1.404178e+01	-1.316696e+00
2.910000e-06	-2.005400e-06	-2.855494e-11	-1.430208e+01	-1.461344e+00
2.920000e-06	-2.041358e-06	-1.828531e-11	-1.455853e+01	-1.622654e+00
2.930000e-06	-2.076720e-06	-3.623638e-11	-1.481072e+01	-1.800203e+00
2.940000e-06	-2.111360e-06	-5.863908e-11	-1.505777e+01	-1.991319e+00
