# Temperatura_=_20.0
# Concentracion g/m^3_=_12600.0
# C_Vs_to_Am_M_A/Vsm_=_65563218390.804596
# pendiente_HvsI_1/m_=_3716.3
# ordenada_HvsI_A/m_=_1297.0
# frecuencia_Hz_=_301824.41595883865

Tiempo_(s)	Campo_(V.s)	Magnetizacion_(V.s)	Campo_(kA/m)	Magnetizacion_(A/m)
0.000000e+00	-2.780490e-06	-1.507885e-09	-1.979357e+01	-9.983110e+01
1.000000e-08	-2.780201e-06	-1.505497e-09	-1.979151e+01	-9.974821e+01
2.000000e-08	-2.778737e-06	-1.514420e-09	-1.978109e+01	-9.964433e+01
3.000000e-08	-2.776058e-06	-1.519577e-09	-1.976202e+01	-9.952625e+01
4.000000e-08	-2.772505e-06	-1.510797e-09	-1.973672e+01	-9.939868e+01
5.000000e-08	-2.768220e-06	-1.497300e-09	-1.970622e+01	-9.926322e+01
6.000000e-08	-2.763036e-06	-1.492641e-09	-1.966932e+01	-9.911773e+01
7.000000e-08	-2.756875e-06	-1.492681e-09	-1.962546e+01	-9.895628e+01
8.000000e-08	-2.749808e-06	-1.505499e-09	-1.957515e+01	-9.876974e+01
9.000000e-08	-2.741741e-06	-1.524786e-09	-1.951772e+01	-9.854689e+01
1.000000e-07	-2.732279e-06	-1.531750e-09	-1.945037e+01	-9.827608e+01
1.100000e-07	-2.721456e-06	-1.468914e-09	-1.937332e+01	-9.794703e+01
1.200000e-07	-2.709768e-06	-1.438491e-09	-1.929011e+01	-9.755268e+01
1.300000e-07	-2.697272e-06	-1.487349e-09	-1.920116e+01	-9.709073e+01
1.400000e-07	-2.683800e-06	-1.496782e-09	-1.910526e+01	-9.656459e+01
1.500000e-07	-2.669484e-06	-1.443792e-09	-1.900334e+01	-9.598367e+01
1.600000e-07	-2.654088e-06	-1.437703e-09	-1.889375e+01	-9.536277e+01
1.700000e-07	-2.637235e-06	-1.503993e-09	-1.877377e+01	-9.472073e+01
1.800000e-07	-2.619340e-06	-1.397816e-09	-1.864638e+01	-9.407839e+01
1.900000e-07	-2.600881e-06	-1.346050e-09	-1.851498e+01	-9.345611e+01
2.000000e-07	-2.581737e-06	-1.507331e-09	-1.837870e+01	-9.287126e+01
2.100000e-07	-2.561590e-06	-1.477810e-09	-1.823528e+01	-9.233585e+01
2.200000e-07	-2.540530e-06	-1.314533e-09	-1.808536e+01	-9.185477e+01
2.300000e-07	-2.518742e-06	-1.332142e-09	-1.793025e+01	-9.142479e+01
2.400000e-07	-2.496041e-06	-1.406388e-09	-1.776865e+01	-9.103458e+01
2.500000e-07	-2.472543e-06	-1.445274e-09	-1.760137e+01	-9.066564e+01
2.600000e-07	-2.448293e-06	-1.463147e-09	-1.742875e+01	-9.029422e+01
2.700000e-07	-2.422840e-06	-1.351349e-09	-1.724756e+01	-8.989378e+01
2.800000e-07	-2.396154e-06	-1.211536e-09	-1.705758e+01	-8.943793e+01
2.900000e-07	-2.368667e-06	-1.300849e-09	-1.686191e+01	-8.890323e+01
3.000000e-07	-2.340400e-06	-1.485710e-09	-1.666068e+01	-8.827177e+01
3.100000e-07	-2.311270e-06	-1.407986e-09	-1.645332e+01	-8.753291e+01
3.200000e-07	-2.281392e-06	-1.196769e-09	-1.624062e+01	-8.668420e+01
3.300000e-07	-2.250730e-06	-1.139117e-09	-1.602235e+01	-8.573126e+01
3.400000e-07	-2.219427e-06	-1.292301e-09	-1.579951e+01	-8.468674e+01
3.500000e-07	-2.187645e-06	-1.416790e-09	-1.557326e+01	-8.356835e+01
3.600000e-07	-2.155069e-06	-1.288663e-09	-1.534136e+01	-8.239652e+01
3.700000e-07	-2.121302e-06	-1.080333e-09	-1.510098e+01	-8.119167e+01
3.800000e-07	-2.086462e-06	-1.092057e-09	-1.485296e+01	-7.997181e+01
3.900000e-07	-2.050984e-06	-1.281403e-09	-1.460041e+01	-7.875045e+01
4.000000e-07	-2.015043e-06	-1.321417e-09	-1.434456e+01	-7.753538e+01
4.100000e-07	-1.978443e-06	-1.148811e-09	-1.408401e+01	-7.632820e+01
4.200000e-07	-1.941084e-06	-1.003152e-09	-1.381806e+01	-7.512480e+01
4.300000e-07	-1.903016e-06	-1.074901e-09	-1.354706e+01	-7.391662e+01
4.400000e-07	-1.864211e-06	-1.214549e-09	-1.327082e+01	-7.269243e+01
4.500000e-07	-1.824841e-06	-1.191578e-09	-1.299056e+01	-7.144043e+01
4.600000e-07	-1.785114e-06	-1.016700e-09	-1.270775e+01	-7.015030e+01
4.700000e-07	-1.744909e-06	-9.253726e-10	-1.242154e+01	-6.881494e+01
4.800000e-07	-1.703834e-06	-1.023006e-09	-1.212914e+01	-6.743155e+01
4.900000e-07	-1.661722e-06	-1.110738e-09	-1.182936e+01	-6.600213e+01
5.000000e-07	-1.618761e-06	-1.037085e-09	-1.152353e+01	-6.453307e+01
5.100000e-07	-1.575253e-06	-8.971765e-10	-1.121380e+01	-6.303415e+01
5.200000e-07	-1.531412e-06	-8.701675e-10	-1.090171e+01	-6.151700e+01
5.300000e-07	-1.487115e-06	-9.429424e-10	-1.058637e+01	-5.999330e+01
5.400000e-07	-1.442225e-06	-9.735515e-10	-1.026681e+01	-5.847298e+01
5.500000e-07	-1.396814e-06	-8.921664e-10	-9.943544e+00	-5.696276e+01
5.600000e-07	-1.350840e-06	-7.991313e-10	-9.616270e+00	-5.546507e+01
5.700000e-07	-1.304260e-06	-7.950007e-10	-9.284676e+00	-5.397775e+01
5.800000e-07	-1.257252e-06	-8.325521e-10	-8.950039e+00	-5.249435e+01
5.900000e-07	-1.209928e-06	-8.231657e-10	-8.613153e+00	-5.100506e+01
6.000000e-07	-1.162298e-06	-7.559457e-10	-8.274093e+00	-4.949814e+01
6.100000e-07	-1.114324e-06	-7.033465e-10	-7.932573e+00	-4.796153e+01
6.200000e-07	-1.065818e-06	-6.964344e-10	-7.587273e+00	-4.638460e+01
6.300000e-07	-1.016667e-06	-7.015444e-10	-7.237384e+00	-4.475950e+01
6.400000e-07	-9.668177e-07	-6.757771e-10	-6.882518e+00	-4.308220e+01
6.500000e-07	-9.163670e-07	-6.316196e-10	-6.523373e+00	-4.135295e+01
6.600000e-07	-8.654717e-07	-5.988098e-10	-6.161063e+00	-3.957606e+01
6.700000e-07	-8.142329e-07	-5.781625e-10	-5.796307e+00	-3.775923e+01
6.800000e-07	-7.627513e-07	-5.578300e-10	-5.429823e+00	-3.591239e+01
6.900000e-07	-7.110659e-07	-5.284489e-10	-5.061889e+00	-3.404632e+01
7.000000e-07	-6.592065e-07	-5.013038e-10	-4.692716e+00	-3.217123e+01
7.100000e-07	-6.071024e-07	-4.792787e-10	-4.321801e+00	-3.029555e+01
7.200000e-07	-5.546998e-07	-4.496459e-10	-3.948760e+00	-2.842502e+01
7.300000e-07	-5.020724e-07	-4.056031e-10	-3.574120e+00	-2.656229e+01
7.400000e-07	-4.492814e-07	-3.750557e-10	-3.198315e+00	-2.470698e+01
7.500000e-07	-3.963441e-07	-3.687585e-10	-2.821468e+00	-2.285618e+01
7.600000e-07	-3.432487e-07	-3.542187e-10	-2.443496e+00	-2.100529e+01
7.700000e-07	-2.899716e-07	-3.073062e-10	-2.064230e+00	-1.914906e+01
7.800000e-07	-2.365753e-07	-2.508298e-10	-1.684116e+00	-1.728263e+01
7.900000e-07	-1.831115e-07	-2.303323e-10	-1.303522e+00	-1.540233e+01
8.000000e-07	-1.296337e-07	-2.373713e-10	-9.228277e-01	-1.350631e+01
8.100000e-07	-7.613821e-08	-2.214789e-10	-5.420076e-01	-1.159466e+01
8.200000e-07	-2.257407e-08	-1.594029e-10	-1.606988e-01	-9.669294e+00
8.300000e-07	3.102115e-08	-9.795808e-11	2.208313e-01	-7.733373e+00
8.400000e-07	8.458022e-08	-8.840196e-11	6.021041e-01	-5.790599e+00
8.500000e-07	1.380620e-07	-1.073452e-10	9.828263e-01	-3.844402e+00
8.600000e-07	1.915127e-07	-8.488894e-11	1.363328e+00	-1.897213e+00
8.700000e-07	2.449833e-07	-6.880300e-12	1.743971e+00	5.005906e-02
8.800000e-07	2.984066e-07	5.463792e-11	2.124277e+00	1.998236e+00
8.900000e-07	3.517088e-07	4.936399e-11	2.503721e+00	3.949736e+00
9.000000e-07	4.048463e-07	2.577569e-11	2.881993e+00	5.908119e+00
9.100000e-07	4.578519e-07	6.433664e-11	3.259326e+00	7.877378e+00
9.200000e-07	5.107623e-07	1.534655e-10	3.635981e+00	9.861111e+00
9.300000e-07	5.634606e-07	2.072197e-10	4.011126e+00	1.186170e+01
9.400000e-07	6.158501e-07	1.892352e-10	4.384073e+00	1.387967e+01
9.500000e-07	6.679743e-07	1.709016e-10	4.755131e+00	1.591330e+01
9.600000e-07	7.198499e-07	2.267913e-10	5.124420e+00	1.795855e+01
9.700000e-07	7.715010e-07	3.191437e-10	5.492110e+00	2.000946e+01
9.800000e-07	8.228801e-07	3.579369e-10	5.857864e+00	2.205873e+01
9.900000e-07	8.738594e-07	3.309675e-10	6.220772e+00	2.409856e+01
1.000000e-06	9.242782e-07	3.227581e-10	6.579690e+00	2.612167e+01
1.010000e-06	9.741539e-07	3.878737e-10	6.934742e+00	2.812209e+01
1.020000e-06	1.023522e-06	4.737769e-10	7.286177e+00	3.009591e+01
1.030000e-06	1.072243e-06	4.994687e-10	7.633009e+00	3.204162e+01
1.040000e-06	1.120362e-06	4.718694e-10	7.975559e+00	3.396013e+01
1.050000e-06	1.168099e-06	4.751118e-10	8.315382e+00	3.585446e+01
1.060000e-06	1.215588e-06	5.452475e-10	8.653450e+00	3.772905e+01
1.070000e-06	1.262770e-06	6.201682e-10	8.989320e+00	3.958897e+01
1.080000e-06	1.309530e-06	6.338868e-10	9.322192e+00	4.143895e+01
1.090000e-06	1.355751e-06	6.090588e-10	9.651233e+00	4.328265e+01
1.100000e-06	1.401434e-06	6.207867e-10	9.976433e+00	4.512195e+01
1.110000e-06	1.446640e-06	6.904749e-10	1.029824e+01	4.695675e+01
1.120000e-06	1.491331e-06	7.580256e-10	1.061639e+01	4.878492e+01
1.130000e-06	1.535517e-06	7.676843e-10	1.093094e+01	5.060271e+01
1.140000e-06	1.579327e-06	7.455049e-10	1.124281e+01	5.240536e+01
1.150000e-06	1.622810e-06	7.620144e-10	1.155235e+01	5.418787e+01
1.160000e-06	1.665819e-06	8.297195e-10	1.185852e+01	5.594578e+01
1.170000e-06	1.708150e-06	8.849076e-10	1.215987e+01	5.767581e+01
1.180000e-06	1.749563e-06	8.839487e-10	1.245467e+01	5.937627e+01
1.190000e-06	1.790017e-06	8.659228e-10	1.274265e+01	6.104721e+01
1.200000e-06	1.829824e-06	8.931136e-10	1.302603e+01	6.269011e+01
1.210000e-06	1.869140e-06	9.605521e-10	1.330591e+01	6.430746e+01
1.220000e-06	1.907911e-06	1.007166e-09	1.358191e+01	6.590198e+01
1.230000e-06	1.946123e-06	1.004666e-09	1.385393e+01	6.747588e+01
1.240000e-06	1.983620e-06	9.937849e-10	1.412086e+01	6.903012e+01
1.250000e-06	2.020262e-06	1.024715e-09	1.438171e+01	7.056389e+01
1.260000e-06	2.056265e-06	1.084192e-09	1.463800e+01	7.207437e+01
1.270000e-06	2.091815e-06	1.118259e-09	1.489107e+01	7.355692e+01
1.280000e-06	2.126788e-06	1.109353e-09	1.514004e+01	7.500545e+01
1.290000e-06	2.160767e-06	1.102804e-09	1.538192e+01	7.641325e+01
1.300000e-06	2.193521e-06	1.136307e-09	1.561509e+01	7.777387e+01
1.310000e-06	2.225408e-06	1.187042e-09	1.584209e+01	7.908205e+01
1.320000e-06	2.256714e-06	1.211271e-09	1.606495e+01	8.033455e+01
1.330000e-06	2.287371e-06	1.204285e-09	1.628318e+01	8.153068e+01
1.340000e-06	2.317288e-06	1.203835e-09	1.649616e+01	8.267249e+01
1.350000e-06	2.346365e-06	1.234532e-09	1.670315e+01	8.376452e+01
1.360000e-06	2.374599e-06	1.274286e-09	1.690413e+01	8.481326e+01
1.370000e-06	2.402225e-06	1.290991e-09	1.710080e+01	8.582620e+01
1.380000e-06	2.429185e-06	1.286416e-09	1.729272e+01	8.681078e+01
1.390000e-06	2.455013e-06	1.288676e-09	1.747658e+01	8.777332e+01
1.400000e-06	2.479592e-06	1.313034e-09	1.765155e+01	8.871810e+01
1.410000e-06	2.503231e-06	1.344192e-09	1.781984e+01	8.964675e+01
1.420000e-06	2.526083e-06	1.360239e-09	1.798251e+01	9.055801e+01
1.430000e-06	2.548114e-06	1.361493e-09	1.813935e+01	9.144793e+01
1.440000e-06	2.569240e-06	1.366239e-09	1.828974e+01	9.231046e+01
1.450000e-06	2.589514e-06	1.384955e-09	1.843406e+01	9.313835e+01
1.460000e-06	2.609123e-06	1.409756e-09	1.857365e+01	9.392418e+01
1.470000e-06	2.628003e-06	1.423810e-09	1.870805e+01	9.466146e+01
1.480000e-06	2.645955e-06	1.422279e-09	1.883584e+01	9.534547e+01
1.490000e-06	2.662905e-06	1.419895e-09	1.895651e+01	9.597386e+01
1.500000e-06	2.678905e-06	1.430816e-09	1.907041e+01	9.654684e+01
1.510000e-06	2.693824e-06	1.451421e-09	1.917662e+01	9.706696e+01
1.520000e-06	2.707631e-06	1.466273e-09	1.927490e+01	9.753854e+01
1.530000e-06	2.720443e-06	1.466424e-09	1.936611e+01	9.796678e+01
1.540000e-06	2.732284e-06	1.461859e-09	1.945040e+01	9.835684e+01
1.550000e-06	2.742973e-06	1.468582e-09	1.952650e+01	9.871294e+01
1.560000e-06	2.752270e-06	1.485265e-09	1.959268e+01	9.903761e+01
1.570000e-06	2.760392e-06	1.494335e-09	1.965050e+01	9.933138e+01
1.580000e-06	2.767665e-06	1.487879e-09	1.970227e+01	9.959281e+01
1.590000e-06	2.774055e-06	1.478803e-09	1.974776e+01	9.981891e+01
1.600000e-06	2.779470e-06	1.482581e-09	1.978631e+01	1.000059e+02
1.610000e-06	2.783967e-06	1.497184e-09	1.981832e+01	1.001501e+02
1.620000e-06	2.787696e-06	1.506900e-09	1.984487e+01	1.002491e+02
1.630000e-06	2.790537e-06	1.501661e-09	1.986509e+01	1.003021e+02
1.640000e-06	2.792096e-06	1.493380e-09	1.987619e+01	1.003111e+02
1.650000e-06	2.792421e-06	1.497589e-09	1.987850e+01	1.002802e+02
1.660000e-06	2.791872e-06	1.510188e-09	1.987460e+01	1.002156e+02
1.670000e-06	2.790506e-06	1.513175e-09	1.986487e+01	1.001249e+02
1.680000e-06	2.788279e-06	1.501802e-09	1.984901e+01	1.000155e+02
1.690000e-06	2.785136e-06	1.490942e-09	1.982664e+01	9.989377e+01
1.700000e-06	2.781183e-06	1.492008e-09	1.979850e+01	9.976341e+01
1.710000e-06	2.776563e-06	1.500988e-09	1.976561e+01	9.962489e+01
1.720000e-06	2.771000e-06	1.509426e-09	1.972601e+01	9.947484e+01
1.730000e-06	2.764184e-06	1.500902e-09	1.967749e+01	9.930619e+01
1.740000e-06	2.756250e-06	1.458922e-09	1.962101e+01	9.910900e+01
1.750000e-06	2.747173e-06	1.419860e-09	1.955640e+01	9.887173e+01
1.760000e-06	2.736634e-06	1.490260e-09	1.948137e+01	9.858295e+01
1.770000e-06	2.725102e-06	1.530338e-09	1.939928e+01	9.823322e+01
1.780000e-06	2.713432e-06	1.468788e-09	1.931620e+01	9.781688e+01
1.790000e-06	2.701238e-06	1.404582e-09	1.922939e+01	9.733338e+01
1.800000e-06	2.687283e-06	1.431612e-09	1.913005e+01	9.678807e+01
1.810000e-06	2.671716e-06	1.457389e-09	1.901924e+01	9.619220e+01
1.820000e-06	2.655564e-06	1.392649e-09	1.890425e+01	9.556206e+01
1.830000e-06	2.638673e-06	1.498534e-09	1.878401e+01	9.491737e+01
1.840000e-06	2.620618e-06	1.552304e-09	1.865548e+01	9.427909e+01
1.850000e-06	2.601741e-06	1.356002e-09	1.852110e+01	9.366691e+01
1.860000e-06	2.582246e-06	1.332028e-09	1.838232e+01	9.309670e+01
1.870000e-06	2.562015e-06	1.493733e-09	1.823830e+01	9.257834e+01
1.880000e-06	2.540876e-06	1.450852e-09	1.808782e+01	9.211418e+01
1.890000e-06	2.518403e-06	1.319797e-09	1.792784e+01	9.169834e+01
1.900000e-06	2.494681e-06	1.341968e-09	1.775897e+01	9.131703e+01
1.910000e-06	2.470310e-06	1.395513e-09	1.758548e+01	9.094983e+01
1.920000e-06	2.445126e-06	1.471029e-09	1.740620e+01	9.057177e+01
1.930000e-06	2.418882e-06	1.603748e-09	1.721938e+01	9.015606e+01
1.940000e-06	2.391897e-06	1.483588e-09	1.702727e+01	8.967694e+01
1.950000e-06	2.364193e-06	1.239456e-09	1.683006e+01	8.911252e+01
1.960000e-06	2.335638e-06	1.302727e-09	1.662679e+01	8.844706e+01
1.970000e-06	2.306367e-06	1.512799e-09	1.641841e+01	8.767251e+01
1.980000e-06	2.276047e-06	1.539845e-09	1.620257e+01	8.678906e+01
1.990000e-06	2.244491e-06	1.332358e-09	1.597793e+01	8.580476e+01
2.000000e-06	2.212204e-06	1.145467e-09	1.574809e+01	8.473413e+01
2.010000e-06	2.179259e-06	1.266363e-09	1.551357e+01	8.359603e+01
2.020000e-06	2.145534e-06	1.484324e-09	1.527348e+01	8.241117e+01
2.030000e-06	2.111110e-06	1.404697e-09	1.502843e+01	8.119946e+01
2.040000e-06	2.075908e-06	1.167984e-09	1.477784e+01	7.997764e+01
2.050000e-06	2.040069e-06	1.102629e-09	1.452271e+01	7.875750e+01
2.060000e-06	2.003805e-06	1.243709e-09	1.426455e+01	7.754483e+01
2.070000e-06	1.966870e-06	1.371164e-09	1.400162e+01	7.633931e+01
2.080000e-06	1.928930e-06	1.256765e-09	1.373154e+01	7.513522e+01
2.090000e-06	1.889942e-06	1.050512e-09	1.345399e+01	7.392293e+01
2.100000e-06	1.850184e-06	1.035474e-09	1.317097e+01	7.269080e+01
2.110000e-06	1.809974e-06	1.179468e-09	1.288472e+01	7.142729e+01
2.120000e-06	1.769314e-06	1.244204e-09	1.259527e+01	7.012296e+01
2.130000e-06	1.727970e-06	1.110220e-09	1.230095e+01	6.877198e+01
2.140000e-06	1.685952e-06	9.555292e-10	1.200184e+01	6.737310e+01
2.150000e-06	1.643346e-06	9.814887e-10	1.169854e+01	6.592980e+01
2.160000e-06	1.600176e-06	1.090840e-09	1.139123e+01	6.444970e+01
2.170000e-06	1.556508e-06	1.087145e-09	1.108037e+01	6.294335e+01
2.180000e-06	1.512458e-06	9.674543e-10	1.076678e+01	6.142262e+01
2.190000e-06	1.468109e-06	8.738812e-10	1.045108e+01	5.989880e+01
2.200000e-06	1.423329e-06	9.051784e-10	1.013230e+01	5.838093e+01
2.210000e-06	1.377941e-06	9.611530e-10	9.809196e+00	5.687443e+01
2.220000e-06	1.331865e-06	9.288626e-10	9.481193e+00	5.538028e+01
2.230000e-06	1.285238e-06	8.433282e-10	9.149267e+00	5.389485e+01
2.240000e-06	1.238272e-06	7.908004e-10	8.814928e+00	5.241050e+01
2.250000e-06	1.191110e-06	8.093161e-10	8.479196e+00	5.091662e+01
2.260000e-06	1.143571e-06	8.298818e-10	8.140777e+00	4.940118e+01
2.270000e-06	1.095408e-06	7.916437e-10	7.797919e+00	4.785242e+01
2.280000e-06	1.046721e-06	7.292955e-10	7.451326e+00	4.626043e+01
2.290000e-06	9.974962e-07	6.957086e-10	7.100910e+00	4.461854e+01
2.300000e-06	9.478420e-07	6.887268e-10	6.747435e+00	4.292406e+01
2.310000e-06	8.978988e-07	6.770156e-10	6.391902e+00	4.117858e+01
2.320000e-06	8.476635e-07	6.428646e-10	6.034291e+00	3.938763e+01
2.330000e-06	7.971498e-07	6.048627e-10	5.674697e+00	3.755975e+01
2.340000e-06	7.462197e-07	5.777692e-10	5.312139e+00	3.570530e+01
2.350000e-06	6.949227e-07	5.523822e-10	4.946969e+00	3.383502e+01
2.360000e-06	6.434611e-07	5.204983e-10	4.580628e+00	3.195869e+01
2.370000e-06	5.918156e-07	4.878934e-10	4.212978e+00	3.008392e+01
2.380000e-06	5.399965e-07	4.709639e-10	3.844091e+00	2.821551e+01
2.390000e-06	4.880185e-07	4.462532e-10	3.474074e+00	2.635509e+01
2.400000e-06	4.358567e-07	3.948533e-10	3.102748e+00	2.450139e+01
2.410000e-06	3.835575e-07	3.473633e-10	2.730444e+00	2.265086e+01
2.420000e-06	3.311720e-07	3.358109e-10	2.357525e+00	2.079858e+01
2.430000e-06	2.787638e-07	3.414810e-10	1.984445e+00	1.893931e+01
2.440000e-06	2.262832e-07	3.124891e-10	1.610850e+00	1.706848e+01
2.450000e-06	1.736250e-07	2.456446e-10	1.235990e+00	1.518298e+01
2.460000e-06	1.208465e-07	1.968937e-10	8.602740e-01	1.328158e+01
2.470000e-06	6.804648e-08	1.996047e-10	4.844048e-01	1.136499e+01
2.480000e-06	1.518288e-08	2.095092e-10	1.080829e-01	9.435587e+00
2.490000e-06	-3.772651e-08	1.658812e-10	-2.685650e-01	7.496802e+00
2.500000e-06	-9.061019e-08	8.151489e-11	-6.450298e-01	5.552335e+00
2.510000e-06	-1.434889e-07	3.483910e-11	-1.021459e+00	3.605365e+00
2.520000e-06	-1.962998e-07	5.389310e-11	-1.397406e+00	1.657878e+00
2.530000e-06	-2.489581e-07	6.786495e-11	-1.772266e+00	-2.897662e-01
2.540000e-06	-3.015268e-07	1.013637e-11	-2.146489e+00	-2.238935e+00
2.550000e-06	-3.540455e-07	-8.246332e-11	-2.520356e+00	-4.192476e+00
2.560000e-06	-4.064668e-07	-1.167841e-10	-2.893529e+00	-6.154175e+00
2.570000e-06	-4.587309e-07	-8.575823e-11	-3.265583e+00	-8.127991e+00
2.580000e-06	-5.108300e-07	-8.204567e-11	-3.636462e+00	-1.011721e+01
2.590000e-06	-5.627942e-07	-1.577656e-10	-4.006382e+00	-1.212369e+01
2.600000e-06	-6.145194e-07	-2.467737e-10	-4.374600e+00	-1.414725e+01
2.610000e-06	-6.659965e-07	-2.636594e-10	-4.741052e+00	-1.618541e+01
2.620000e-06	-7.172592e-07	-2.296794e-10	-5.105977e+00	-1.823347e+01
2.630000e-06	-7.681253e-07	-2.392374e-10	-5.468079e+00	-2.028494e+01
2.640000e-06	-8.186326e-07	-3.219439e-10	-5.827628e+00	-2.233227e+01
2.650000e-06	-8.688937e-07	-4.018581e-10	-6.185423e+00	-2.436773e+01
2.660000e-06	-9.188386e-07	-4.099629e-10	-6.540967e+00	-2.638437e+01
2.670000e-06	-9.683685e-07	-3.817606e-10	-6.893557e+00	-2.837681e+01
2.680000e-06	-1.017214e-06	-4.040187e-10	-7.241278e+00	-3.034189e+01
2.690000e-06	-1.065418e-06	-4.898170e-10	-7.584428e+00	-3.227890e+01
2.700000e-06	-1.113139e-06	-5.606720e-10	-7.924138e+00	-3.418948e+01
2.710000e-06	-1.160348e-06	-5.602021e-10	-8.260208e+00	-3.607718e+01
2.720000e-06	-1.207242e-06	-5.341267e-10	-8.594032e+00	-3.794676e+01
2.730000e-06	-1.253851e-06	-5.627077e-10	-8.925831e+00	-3.980326e+01
2.740000e-06	-1.300101e-06	-6.444574e-10	-9.255074e+00	-4.165115e+01
2.750000e-06	-1.345971e-06	-7.008221e-10	-9.581612e+00	-4.349357e+01
2.760000e-06	-1.391354e-06	-6.926100e-10	-9.904676e+00	-4.533180e+01
2.770000e-06	-1.436190e-06	-6.738617e-10	-1.022386e+01	-4.716504e+01
2.780000e-06	-1.480610e-06	-7.121566e-10	-1.054007e+01	-4.899060e+01
2.790000e-06	-1.524727e-06	-7.931636e-10	-1.085413e+01	-5.080432e+01
2.800000e-06	-1.568495e-06	-8.419028e-10	-1.116569e+01	-5.260128e+01
2.810000e-06	-1.611725e-06	-8.307762e-10	-1.147344e+01	-5.437658e+01
2.820000e-06	-1.654352e-06	-8.186151e-10	-1.177689e+01	-5.612607e+01
2.830000e-06	-1.696473e-06	-8.623673e-10	-1.207674e+01	-5.784695e+01
2.840000e-06	-1.738031e-06	-9.345996e-10	-1.237258e+01	-5.953810e+01
2.850000e-06	-1.778924e-06	-9.671765e-10	-1.266368e+01	-6.120006e+01
2.860000e-06	-1.819277e-06	-9.522497e-10	-1.295095e+01	-6.283470e+01
2.870000e-06	-1.859198e-06	-9.491716e-10	-1.323513e+01	-6.444468e+01
2.880000e-06	-1.898514e-06	-9.971408e-10	-1.351501e+01	-6.603263e+01
2.890000e-06	-1.936968e-06	-1.060892e-09	-1.378876e+01	-6.760044e+01
2.900000e-06	-1.974380e-06	-1.084867e-09	-1.405509e+01	-6.914853e+01
2.910000e-06	-2.010939e-06	-1.072260e-09	-1.431534e+01	-7.067547e+01
2.920000e-06	-2.046899e-06	-1.075972e-09	-1.457133e+01	-7.217782e+01
2.930000e-06	-2.082223e-06	-1.122536e-09	-1.482279e+01	-7.365039e+01
2.940000e-06	-2.116828e-06	-1.173655e-09	-1.506913e+01	-7.508683e+01
