# Temperatura_=_20.0
# Concentracion g/m^3_=_12600.0
# C_Vs_to_Am_M_A/Vsm_=_65563218390.804596
# pendiente_HvsI_1/m_=_3716.3
# ordenada_HvsI_A/m_=_1297.0
# frecuencia_Hz_=_301827.11138331535

Tiempo_(s)	Campo_(V.s)	Magnetizacion_(V.s)	Campo_(kA/m)	Magnetizacion_(A/m)
0.000000e+00	-2.782118e-06	-1.622318e-09	-1.979797e+01	-1.081145e+02
1.000000e-08	-2.781456e-06	-1.618846e-09	-1.979326e+01	-1.080358e+02
2.000000e-08	-2.779581e-06	-1.621733e-09	-1.977992e+01	-1.079328e+02
3.000000e-08	-2.776558e-06	-1.626131e-09	-1.975840e+01	-1.078069e+02
4.000000e-08	-2.772756e-06	-1.622953e-09	-1.973135e+01	-1.076572e+02
5.000000e-08	-2.768182e-06	-1.612379e-09	-1.969880e+01	-1.074814e+02
6.000000e-08	-2.762668e-06	-1.599965e-09	-1.965956e+01	-1.072754e+02
7.000000e-08	-2.756210e-06	-1.600356e-09	-1.961360e+01	-1.070345e+02
8.000000e-08	-2.748817e-06	-1.620177e-09	-1.956100e+01	-1.067533e+02
9.000000e-08	-2.740236e-06	-1.626080e-09	-1.949993e+01	-1.064270e+02
1.000000e-07	-2.730176e-06	-1.584678e-09	-1.942835e+01	-1.060517e+02
1.100000e-07	-2.718930e-06	-1.555215e-09	-1.934832e+01	-1.056252e+02
1.200000e-07	-2.706879e-06	-1.568289e-09	-1.926256e+01	-1.051473e+02
1.300000e-07	-2.694016e-06	-1.611966e-09	-1.917102e+01	-1.046198e+02
1.400000e-07	-2.680312e-06	-1.563236e-09	-1.907350e+01	-1.040465e+02
1.500000e-07	-2.665665e-06	-1.584431e-09	-1.896928e+01	-1.034329e+02
1.600000e-07	-2.649795e-06	-1.548844e-09	-1.885634e+01	-1.027855e+02
1.700000e-07	-2.632610e-06	-1.474001e-09	-1.873405e+01	-1.021110e+02
1.800000e-07	-2.614517e-06	-1.576061e-09	-1.860529e+01	-1.014159e+02
1.900000e-07	-2.595855e-06	-1.606999e-09	-1.847250e+01	-1.007057e+02
2.000000e-07	-2.576348e-06	-1.507525e-09	-1.833368e+01	-9.998404e+01
2.100000e-07	-2.555800e-06	-1.475561e-09	-1.818746e+01	-9.925288e+01
2.200000e-07	-2.534476e-06	-1.565162e-09	-1.803572e+01	-9.851208e+01
2.300000e-07	-2.512418e-06	-1.550560e-09	-1.787875e+01	-9.775964e+01
2.400000e-07	-2.489481e-06	-1.478730e-09	-1.771552e+01	-9.699210e+01
2.500000e-07	-2.465718e-06	-1.460626e-09	-1.754642e+01	-9.620507e+01
2.600000e-07	-2.440962e-06	-1.461844e-09	-1.737025e+01	-9.539384e+01
2.700000e-07	-2.415093e-06	-1.447020e-09	-1.718616e+01	-9.455405e+01
2.800000e-07	-2.388252e-06	-1.466538e-09	-1.699516e+01	-9.368220e+01
2.900000e-07	-2.360518e-06	-1.411931e-09	-1.679780e+01	-9.277608e+01
3.000000e-07	-2.331980e-06	-1.388319e-09	-1.659472e+01	-9.183492e+01
3.100000e-07	-2.302690e-06	-1.411551e-09	-1.638629e+01	-9.085941e+01
3.200000e-07	-2.272599e-06	-1.394678e-09	-1.617216e+01	-8.985144e+01
3.300000e-07	-2.241753e-06	-1.384125e-09	-1.595265e+01	-8.881368e+01
3.400000e-07	-2.210282e-06	-1.347135e-09	-1.572870e+01	-8.774909e+01
3.500000e-07	-2.178199e-06	-1.312680e-09	-1.550039e+01	-8.666037e+01
3.600000e-07	-2.145215e-06	-1.328238e-09	-1.526567e+01	-8.554946e+01
3.700000e-07	-2.111119e-06	-1.336844e-09	-1.502304e+01	-8.441720e+01
3.800000e-07	-2.076116e-06	-1.268275e-09	-1.477396e+01	-8.326312e+01
3.900000e-07	-2.040517e-06	-1.260671e-09	-1.452063e+01	-8.208547e+01
4.000000e-07	-2.004381e-06	-1.264168e-09	-1.426348e+01	-8.088138e+01
4.100000e-07	-1.967509e-06	-1.233065e-09	-1.400109e+01	-7.964730e+01
4.200000e-07	-1.929867e-06	-1.211292e-09	-1.373323e+01	-7.837946e+01
4.300000e-07	-1.891525e-06	-1.191994e-09	-1.346037e+01	-7.707443e+01
4.400000e-07	-1.852549e-06	-1.173267e-09	-1.318302e+01	-7.572959e+01
4.500000e-07	-1.813114e-06	-1.162031e-09	-1.290239e+01	-7.434362e+01
4.600000e-07	-1.773261e-06	-1.136060e-09	-1.261879e+01	-7.291668e+01
4.700000e-07	-1.732721e-06	-1.088934e-09	-1.233031e+01	-7.145056e+01
4.800000e-07	-1.691217e-06	-1.080172e-09	-1.203495e+01	-6.994850e+01
4.900000e-07	-1.648755e-06	-1.077944e-09	-1.173279e+01	-6.841491e+01
5.000000e-07	-1.605589e-06	-1.056152e-09	-1.142562e+01	-6.685495e+01
5.100000e-07	-1.561978e-06	-1.008025e-09	-1.111527e+01	-6.527396e+01
5.200000e-07	-1.517978e-06	-9.723579e-10	-1.080216e+01	-6.367694e+01
5.300000e-07	-1.473503e-06	-9.726667e-10	-1.048567e+01	-6.206806e+01
5.400000e-07	-1.428489e-06	-9.716304e-10	-1.016534e+01	-6.045030e+01
5.500000e-07	-1.382916e-06	-9.310478e-10	-9.841035e+00	-5.882516e+01
5.600000e-07	-1.336754e-06	-8.679768e-10	-9.512544e+00	-5.719266e+01
5.700000e-07	-1.290054e-06	-8.499554e-10	-9.180217e+00	-5.555139e+01
5.800000e-07	-1.242964e-06	-8.585022e-10	-8.845117e+00	-5.389881e+01
5.900000e-07	-1.195583e-06	-8.440472e-10	-8.507952e+00	-5.223159e+01
6.000000e-07	-1.147856e-06	-7.857520e-10	-8.168315e+00	-5.054602e+01
6.100000e-07	-1.099673e-06	-7.322349e-10	-7.825441e+00	-4.883843e+01
6.200000e-07	-1.050857e-06	-7.277232e-10	-7.478059e+00	-4.710561e+01
6.300000e-07	-1.001345e-06	-7.431051e-10	-7.125721e+00	-4.534507e+01
6.400000e-07	-9.512687e-07	-7.116541e-10	-6.769371e+00	-4.355524e+01
6.500000e-07	-9.006906e-07	-6.328730e-10	-6.409450e+00	-4.173557e+01
6.600000e-07	-8.496840e-07	-5.897129e-10	-6.046479e+00	-3.988647e+01
6.700000e-07	-7.983444e-07	-6.019920e-10	-5.681139e+00	-3.800923e+01
6.800000e-07	-7.467326e-07	-6.053906e-10	-5.313862e+00	-3.610578e+01
6.900000e-07	-6.949024e-07	-5.441560e-10	-4.945030e+00	-3.417856e+01
7.000000e-07	-6.428736e-07	-4.708244e-10	-4.574786e+00	-3.223026e+01
7.100000e-07	-5.905765e-07	-4.547685e-10	-4.202631e+00	-3.026365e+01
7.200000e-07	-5.379825e-07	-4.737387e-10	-3.828365e+00	-2.828149e+01
7.300000e-07	-4.852262e-07	-4.514378e-10	-3.452943e+00	-2.628635e+01
7.400000e-07	-4.323483e-07	-3.743502e-10	-3.076656e+00	-2.428066e+01
7.500000e-07	-3.792815e-07	-3.157993e-10	-2.699024e+00	-2.226661e+01
7.600000e-07	-3.260542e-07	-3.138951e-10	-2.320251e+00	-2.024620e+01
7.700000e-07	-2.727314e-07	-3.218142e-10	-1.940797e+00	-1.822122e+01
7.800000e-07	-2.193542e-07	-2.741446e-10	-1.560957e+00	-1.619320e+01
7.900000e-07	-1.659318e-07	-1.974538e-10	-1.180796e+00	-1.416345e+01
8.000000e-07	-1.124653e-07	-1.637024e-10	-8.003198e-01	-1.213293e+01
8.100000e-07	-5.894826e-08	-1.768785e-10	-4.194847e-01	-1.010223e+01
8.200000e-07	-5.390898e-09	-1.700381e-10	-3.836245e-02	-8.071469e+00
8.300000e-07	4.817443e-08	-1.087317e-10	3.428165e-01	-6.040295e+00
8.400000e-07	1.017255e-07	-4.458400e-11	7.238938e-01	-4.007828e+00
8.500000e-07	1.552556e-07	-2.631232e-11	1.104822e+00	-1.972714e+00
8.600000e-07	2.087648e-07	-3.070223e-11	1.485602e+00	6.679529e-02
8.700000e-07	2.622423e-07	8.306270e-13	1.866156e+00	2.112708e+00
8.800000e-07	3.156547e-07	6.552743e-11	2.246247e+00	4.167111e+00
8.900000e-07	3.689590e-07	1.123423e-10	2.625568e+00	6.231969e+00
9.000000e-07	4.221253e-07	1.205087e-10	3.003907e+00	8.308908e+00
9.100000e-07	4.751143e-07	1.256819e-10	3.380985e+00	1.039903e+01
9.200000e-07	5.279204e-07	1.643758e-10	3.756761e+00	1.250274e+01
9.300000e-07	5.804943e-07	2.216227e-10	4.130885e+00	1.461968e+01
9.400000e-07	6.328137e-07	2.599473e-10	4.503198e+00	1.674866e+01
9.500000e-07	6.848760e-07	2.718368e-10	4.873681e+00	1.888772e+01
9.600000e-07	7.367074e-07	2.909121e-10	5.242521e+00	2.103420e+01
9.700000e-07	7.883204e-07	3.344713e-10	5.609807e+00	2.318492e+01
9.800000e-07	8.396137e-07	3.865265e-10	5.974818e+00	2.533633e+01
9.900000e-07	8.905108e-07	4.214901e-10	6.337009e+00	2.748473e+01
1.000000e-06	9.409368e-07	4.373692e-10	6.695848e+00	2.962645e+01
1.010000e-06	9.907827e-07	4.582928e-10	7.050559e+00	3.175797e+01
1.020000e-06	1.039958e-06	4.985825e-10	7.400499e+00	3.387613e+01
1.030000e-06	1.088470e-06	5.473915e-10	7.745718e+00	3.597815e+01
1.040000e-06	1.136473e-06	5.817164e-10	8.087310e+00	3.806175e+01
1.050000e-06	1.184144e-06	5.984993e-10	8.426550e+00	4.012509e+01
1.060000e-06	1.231549e-06	6.186454e-10	8.763889e+00	4.216686e+01
1.070000e-06	1.278612e-06	6.602988e-10	9.098794e+00	4.418619e+01
1.080000e-06	1.325185e-06	7.093373e-10	9.430217e+00	4.618266e+01
1.090000e-06	1.371207e-06	7.394385e-10	9.757715e+00	4.815626e+01
1.100000e-06	1.416697e-06	7.511238e-10	1.008143e+01	5.010733e+01
1.110000e-06	1.461682e-06	7.706839e-10	1.040155e+01	5.203655e+01
1.120000e-06	1.506232e-06	8.140502e-10	1.071857e+01	5.394485e+01
1.130000e-06	1.550335e-06	8.599500e-10	1.103242e+01	5.583335e+01
1.140000e-06	1.594044e-06	8.827839e-10	1.134346e+01	5.770326e+01
1.150000e-06	1.637466e-06	8.914264e-10	1.165245e+01	5.955575e+01
1.160000e-06	1.680377e-06	9.151699e-10	1.195781e+01	6.139183e+01
1.170000e-06	1.722431e-06	9.603962e-10	1.225708e+01	6.321215e+01
1.180000e-06	1.763459e-06	1.001288e-09	1.254904e+01	6.501693e+01
1.190000e-06	1.803629e-06	1.018462e-09	1.283489e+01	6.680577e+01
1.200000e-06	1.843292e-06	1.028354e-09	1.311714e+01	6.857760e+01
1.210000e-06	1.882505e-06	1.058695e-09	1.339619e+01	7.033061e+01
1.220000e-06	1.921096e-06	1.104359e-09	1.367081e+01	7.206233e+01
1.230000e-06	1.959049e-06	1.137444e-09	1.394089e+01	7.376966e+01
1.240000e-06	1.996305e-06	1.148600e-09	1.420600e+01	7.544908e+01
1.250000e-06	2.032781e-06	1.162262e-09	1.446558e+01	7.709683e+01
1.260000e-06	2.068691e-06	1.195019e-09	1.472112e+01	7.870910e+01
1.270000e-06	2.104083e-06	1.233412e-09	1.497297e+01	8.028233e+01
1.280000e-06	2.138682e-06	1.256859e-09	1.521919e+01	8.181336e+01
1.290000e-06	2.172235e-06	1.268451e-09	1.545795e+01	8.329963e+01
1.300000e-06	2.204738e-06	1.286452e-09	1.568925e+01	8.473922e+01
1.310000e-06	2.236422e-06	1.315501e-09	1.591471e+01	8.613097e+01
1.320000e-06	2.267439e-06	1.343938e-09	1.613544e+01	8.747432e+01
1.330000e-06	2.297768e-06	1.359006e-09	1.635127e+01	8.876934e+01
1.340000e-06	2.327329e-06	1.368521e-09	1.656162e+01	9.001649e+01
1.350000e-06	2.356118e-06	1.386351e-09	1.676649e+01	9.121651e+01
1.360000e-06	2.384183e-06	1.412885e-09	1.696621e+01	9.237033e+01
1.370000e-06	2.411576e-06	1.436199e-09	1.716114e+01	9.347886e+01
1.380000e-06	2.438150e-06	1.450056e-09	1.735024e+01	9.454306e+01
1.390000e-06	2.463540e-06	1.460280e-09	1.753092e+01	9.556381e+01
1.400000e-06	2.487818e-06	1.474228e-09	1.770369e+01	9.654204e+01
1.410000e-06	2.511264e-06	1.492193e-09	1.787053e+01	9.747876e+01
1.420000e-06	2.533874e-06	1.509380e-09	1.803143e+01	9.837515e+01
1.430000e-06	2.555606e-06	1.522094e-09	1.818608e+01	9.923259e+01
1.440000e-06	2.576492e-06	1.531325e-09	1.833470e+01	1.000527e+02
1.450000e-06	2.596619e-06	1.542410e-09	1.847793e+01	1.008373e+02
1.460000e-06	2.616057e-06	1.559016e-09	1.861625e+01	1.015882e+02
1.470000e-06	2.634699e-06	1.576512e-09	1.874892e+01	1.023072e+02
1.480000e-06	2.652341e-06	1.587885e-09	1.887446e+01	1.029956e+02
1.490000e-06	2.669029e-06	1.592899e-09	1.899321e+01	1.036544e+02
1.500000e-06	2.684705e-06	1.597064e-09	1.910476e+01	1.042835e+02
1.510000e-06	2.699265e-06	1.607033e-09	1.920837e+01	1.048820e+02
1.520000e-06	2.712779e-06	1.620618e-09	1.930454e+01	1.054480e+02
1.530000e-06	2.725296e-06	1.629118e-09	1.939362e+01	1.059787e+02
1.540000e-06	2.736826e-06	1.631913e-09	1.947566e+01	1.064704e+02
1.550000e-06	2.747129e-06	1.636739e-09	1.954898e+01	1.069192e+02
1.560000e-06	2.756084e-06	1.648025e-09	1.961271e+01	1.073210e+02
1.570000e-06	2.763982e-06	1.659544e-09	1.966891e+01	1.076724e+02
1.580000e-06	2.770984e-06	1.665178e-09	1.971874e+01	1.079706e+02
1.590000e-06	2.777027e-06	1.665461e-09	1.976175e+01	1.082143e+02
1.600000e-06	2.782119e-06	1.665871e-09	1.979797e+01	1.084037e+02
1.610000e-06	2.786375e-06	1.670925e-09	1.982826e+01	1.085403e+02
1.620000e-06	2.789828e-06	1.676662e-09	1.985284e+01	1.086276e+02
1.630000e-06	2.792230e-06	1.676061e-09	1.986993e+01	1.086697e+02
1.640000e-06	2.793366e-06	1.670374e-09	1.987801e+01	1.086721e+02
1.650000e-06	2.793434e-06	1.667355e-09	1.987850e+01	1.086398e+02
1.660000e-06	2.792652e-06	1.669779e-09	1.987293e+01	1.085778e+02
1.670000e-06	2.790962e-06	1.674181e-09	1.986091e+01	1.084899e+02
1.680000e-06	2.788382e-06	1.672694e-09	1.984255e+01	1.083784e+02
1.690000e-06	2.784987e-06	1.667018e-09	1.981839e+01	1.082439e+02
1.700000e-06	2.780858e-06	1.663764e-09	1.978900e+01	1.080850e+02
1.710000e-06	2.775972e-06	1.665452e-09	1.975424e+01	1.078986e+02
1.720000e-06	2.770013e-06	1.667183e-09	1.971183e+01	1.076805e+02
1.730000e-06	2.762874e-06	1.635479e-09	1.966103e+01	1.074256e+02
1.740000e-06	2.754650e-06	1.617929e-09	1.960251e+01	1.071285e+02
1.750000e-06	2.745109e-06	1.637407e-09	1.953461e+01	1.067848e+02
1.760000e-06	2.734237e-06	1.663610e-09	1.945724e+01	1.063911e+02
1.770000e-06	2.722706e-06	1.663255e-09	1.937518e+01	1.059459e+02
1.780000e-06	2.710931e-06	1.601602e-09	1.929140e+01	1.054497e+02
1.790000e-06	2.698132e-06	1.632847e-09	1.920032e+01	1.049050e+02
1.800000e-06	2.683638e-06	1.576607e-09	1.909717e+01	1.043164e+02
1.810000e-06	2.668000e-06	1.582748e-09	1.898589e+01	1.036897e+02
1.820000e-06	2.651765e-06	1.650756e-09	1.887036e+01	1.030315e+02
1.830000e-06	2.634566e-06	1.549896e-09	1.874797e+01	1.023487e+02
1.840000e-06	2.616206e-06	1.466795e-09	1.861732e+01	1.016474e+02
1.850000e-06	2.597099e-06	1.521231e-09	1.848135e+01	1.009325e+02
1.860000e-06	2.577384e-06	1.565798e-09	1.834105e+01	1.002071e+02
1.870000e-06	2.556817e-06	1.468795e-09	1.819470e+01	9.947231e+01
1.880000e-06	2.535154e-06	1.476910e-09	1.804054e+01	9.872739e+01
1.890000e-06	2.512272e-06	1.550662e-09	1.787770e+01	9.796975e+01
1.900000e-06	2.488380e-06	1.469572e-09	1.770769e+01	9.719552e+01
1.910000e-06	2.463751e-06	1.438406e-09	1.753242e+01	9.640011e+01
1.920000e-06	2.438211e-06	1.489972e-09	1.735067e+01	9.557888e+01
1.930000e-06	2.411702e-06	1.437510e-09	1.716204e+01	9.472772e+01
1.940000e-06	2.384463e-06	1.443908e-09	1.696820e+01	9.384354e+01
1.950000e-06	2.356476e-06	1.436452e-09	1.676904e+01	9.292464e+01
1.960000e-06	2.327714e-06	1.373838e-09	1.656436e+01	9.197079e+01
1.970000e-06	2.298106e-06	1.387945e-09	1.635367e+01	9.098316e+01
1.980000e-06	2.267386e-06	1.394044e-09	1.613506e+01	8.996395e+01
1.990000e-06	2.235645e-06	1.347886e-09	1.590918e+01	8.891600e+01
2.000000e-06	2.203205e-06	1.364278e-09	1.567834e+01	8.784224e+01
2.010000e-06	2.170062e-06	1.318154e-09	1.544249e+01	8.674516e+01
2.020000e-06	2.136136e-06	1.264252e-09	1.520106e+01	8.562632e+01
2.030000e-06	2.101451e-06	1.322397e-09	1.495424e+01	8.448613e+01
2.040000e-06	2.066024e-06	1.285652e-09	1.470214e+01	8.332362e+01
2.050000e-06	2.030046e-06	1.216873e-09	1.444611e+01	8.213663e+01
2.060000e-06	1.993557e-06	1.229662e-09	1.418645e+01	8.092199e+01
2.070000e-06	1.956217e-06	1.214639e-09	1.392073e+01	7.967602e+01
2.080000e-06	1.917821e-06	1.203285e-09	1.364750e+01	7.839499e+01
2.090000e-06	1.878530e-06	1.185925e-09	1.336791e+01	7.707571e+01
2.100000e-06	1.838577e-06	1.122660e-09	1.308359e+01	7.571600e+01
2.110000e-06	1.798123e-06	1.118138e-09	1.279572e+01	7.431502e+01
2.120000e-06	1.757185e-06	1.130228e-09	1.250440e+01	7.287353e+01
2.130000e-06	1.715654e-06	1.094614e-09	1.220885e+01	7.139386e+01
2.140000e-06	1.673488e-06	1.054216e-09	1.190879e+01	6.987972e+01
2.150000e-06	1.630746e-06	1.006053e-09	1.160464e+01	6.833584e+01
2.160000e-06	1.587466e-06	1.005898e-09	1.129665e+01	6.676749e+01
2.170000e-06	1.543689e-06	1.019486e-09	1.098513e+01	6.517996e+01
2.180000e-06	1.499527e-06	9.764068e-10	1.067086e+01	6.357801e+01
2.190000e-06	1.455020e-06	9.202851e-10	1.035414e+01	6.196543e+01
2.200000e-06	1.410044e-06	8.947072e-10	1.003409e+01	6.034467e+01
2.210000e-06	1.364390e-06	9.054604e-10	9.709204e+00	5.871670e+01
2.220000e-06	1.318085e-06	8.900908e-10	9.379692e+00	5.708103e+01
2.230000e-06	1.271368e-06	8.281437e-10	9.047244e+00	5.543579e+01
2.240000e-06	1.224346e-06	7.838854e-10	8.712634e+00	5.377813e+01
2.250000e-06	1.176974e-06	7.844018e-10	8.375524e+00	5.210452e+01
2.260000e-06	1.129157e-06	7.891523e-10	8.035248e+00	5.041122e+01
2.270000e-06	1.080760e-06	7.565862e-10	7.690848e+00	4.869469e+01
2.280000e-06	1.031833e-06	6.834859e-10	7.342677e+00	4.695194e+01
2.290000e-06	9.824229e-07	6.540637e-10	6.991070e+00	4.518079e+01
2.300000e-06	9.325821e-07	6.766255e-10	6.636395e+00	4.338005e+01
2.310000e-06	8.824946e-07	6.640583e-10	6.279965e+00	4.154951e+01
2.320000e-06	8.321298e-07	5.958017e-10	5.921561e+00	3.968991e+01
2.330000e-06	7.814418e-07	5.281470e-10	5.560858e+00	3.780278e+01
2.340000e-06	7.304548e-07	5.284325e-10	5.198027e+00	3.589028e+01
2.350000e-06	6.791759e-07	5.498750e-10	4.833118e+00	3.395494e+01
2.360000e-06	6.276135e-07	5.086297e-10	4.466192e+00	3.199951e+01
2.370000e-06	5.758407e-07	4.285296e-10	4.097769e+00	3.002678e+01
2.380000e-06	5.239004e-07	3.881009e-10	3.728154e+00	2.803942e+01
2.390000e-06	4.718137e-07	4.040429e-10	3.357498e+00	2.603998e+01
2.400000e-06	4.195927e-07	4.070713e-10	2.985885e+00	2.403079e+01
2.410000e-06	3.672413e-07	3.452571e-10	2.613345e+00	2.201399e+01
2.420000e-06	3.147993e-07	2.668966e-10	2.240159e+00	1.999148e+01
2.430000e-06	2.622156e-07	2.472484e-10	1.865966e+00	1.796498e+01
2.440000e-06	2.095206e-07	2.683293e-10	1.490980e+00	1.593594e+01
2.450000e-06	1.567639e-07	2.504614e-10	1.115556e+00	1.390556e+01
2.460000e-06	1.039930e-07	1.733858e-10	7.400296e-01	1.187466e+01
2.470000e-06	5.118881e-08	1.107354e-10	3.642673e-01	9.843675e+00
2.480000e-06	-1.718926e-09	1.096098e-10	-1.223214e-02	7.812568e+00
2.490000e-06	-5.464198e-08	1.192423e-10	-3.888406e-01	5.780790e+00
2.500000e-06	-1.075008e-07	8.071180e-11	-7.649918e-01	3.747287e+00
2.510000e-06	-1.602920e-07	8.726574e-12	-1.140662e+00	1.710553e+00
2.520000e-06	-2.130002e-07	-3.280374e-11	-1.515741e+00	-3.312734e-01
2.530000e-06	-2.656562e-07	-3.280936e-11	-1.890450e+00	-2.380249e+00
2.540000e-06	-3.182665e-07	-4.031510e-11	-2.264833e+00	-4.438443e+00
2.550000e-06	-3.707332e-07	-8.819068e-11	-2.638194e+00	-6.507720e+00
2.560000e-06	-4.230342e-07	-1.499510e-10	-3.010375e+00	-8.589542e+00
2.570000e-06	-4.752014e-07	-1.828647e-10	-3.381605e+00	-1.068478e+01
2.580000e-06	-5.272559e-07	-1.894562e-10	-3.752032e+00	-1.279357e+01
2.590000e-06	-5.791822e-07	-2.075778e-10	-4.121548e+00	-1.491525e+01
2.600000e-06	-6.309109e-07	-2.557879e-10	-4.489657e+00	-1.704837e+01
2.610000e-06	-6.823718e-07	-3.093769e-10	-4.855860e+00	-1.919068e+01
2.620000e-06	-7.334903e-07	-3.410593e-10	-5.219628e+00	-2.133933e+01
2.630000e-06	-7.842808e-07	-3.538676e-10	-5.581060e+00	-2.349098e+01
2.640000e-06	-8.347873e-07	-3.757834e-10	-5.940472e+00	-2.564202e+01
2.650000e-06	-8.849897e-07	-4.205566e-10	-6.297720e+00	-2.778872e+01
2.660000e-06	-9.348150e-07	-4.719228e-10	-6.652285e+00	-2.992745e+01
2.670000e-06	-9.841945e-07	-5.033349e-10	-7.003676e+00	-3.205481e+01
2.680000e-06	-1.032984e-06	-5.151331e-10	-7.350871e+00	-3.416777e+01
2.690000e-06	-1.081132e-06	-5.374314e-10	-7.693496e+00	-3.626372e+01
2.700000e-06	-1.128679e-06	-5.849815e-10	-8.031847e+00	-3.834053e+01
2.710000e-06	-1.175764e-06	-6.359994e-10	-8.366915e+00	-4.039657e+01
2.720000e-06	-1.222569e-06	-6.611640e-10	-8.699988e+00	-4.243067e+01
2.730000e-06	-1.269043e-06	-6.699638e-10	-9.030699e+00	-4.444213e+01
2.740000e-06	-1.315198e-06	-6.945370e-10	-9.359144e+00	-4.643068e+01
2.750000e-06	-1.360964e-06	-7.426661e-10	-9.684822e+00	-4.839645e+01
2.760000e-06	-1.406190e-06	-7.857836e-10	-1.000666e+01	-5.033989e+01
2.770000e-06	-1.450926e-06	-8.022331e-10	-1.032501e+01	-5.226179e+01
2.780000e-06	-1.495290e-06	-8.104272e-10	-1.064071e+01	-5.416315e+01
2.790000e-06	-1.539353e-06	-8.407040e-10	-1.095427e+01	-5.604514e+01
2.800000e-06	-1.583013e-06	-8.897817e-10	-1.126496e+01	-5.790897e+01
2.810000e-06	-1.626169e-06	-9.265614e-10	-1.157206e+01	-5.975576e+01
2.820000e-06	-1.668764e-06	-9.405249e-10	-1.187517e+01	-6.158643e+01
2.830000e-06	-1.710769e-06	-9.536504e-10	-1.217409e+01	-6.340147e+01
2.840000e-06	-1.752150e-06	-9.892896e-10	-1.246856e+01	-6.520091e+01
2.850000e-06	-1.792882e-06	-1.034098e-09	-1.275842e+01	-6.698411e+01
2.860000e-06	-1.833166e-06	-1.059551e-09	-1.304509e+01	-6.874972e+01
2.870000e-06	-1.872971e-06	-1.067987e-09	-1.332834e+01	-7.049572e+01
2.880000e-06	-1.912065e-06	-1.085170e-09	-1.360654e+01	-7.221938e+01
2.890000e-06	-1.950178e-06	-1.120339e-09	-1.387776e+01	-7.391743e+01
2.900000e-06	-1.987226e-06	-1.155072e-09	-1.414140e+01	-7.558625e+01
2.910000e-06	-2.023566e-06	-1.173930e-09	-1.440000e+01	-7.722202e+01
2.920000e-06	-2.059368e-06	-1.186109e-09	-1.465477e+01	-7.882101e+01
2.930000e-06	-2.094511e-06	-1.210233e-09	-1.490485e+01	-8.037977e+01
2.940000e-06	-2.128876e-06	-1.244153e-09	-1.514940e+01	-8.189535e+01
