# Temperatura_=_20.0
# Concentracion g/m^3_=_12600.0
# C_Vs_to_Am_M_A/Vsm_=_65563218390.804596
# pendiente_HvsI_1/m_=_3716.3
# ordenada_HvsI_A/m_=_1297.0
# frecuencia_Hz_=_301831.0259061908

Tiempo_(s)	Campo_(V.s)	Magnetizacion_(V.s)	Campo_(kA/m)	Magnetizacion_(A/m)
0.000000e+00	-2.775288e-06	-1.747451e-09	-1.979478e+01	-1.158180e+02
1.000000e-08	-2.774852e-06	-1.742634e-09	-1.979167e+01	-1.158122e+02
2.000000e-08	-2.773195e-06	-1.742628e-09	-1.977985e+01	-1.157653e+02
3.000000e-08	-2.770309e-06	-1.746980e-09	-1.975927e+01	-1.156731e+02
4.000000e-08	-2.766639e-06	-1.746748e-09	-1.973309e+01	-1.155318e+02
5.000000e-08	-2.762186e-06	-1.739012e-09	-1.970133e+01	-1.153389e+02
6.000000e-08	-2.756837e-06	-1.726633e-09	-1.966318e+01	-1.150929e+02
7.000000e-08	-2.750565e-06	-1.714935e-09	-1.961844e+01	-1.147939e+02
8.000000e-08	-2.743373e-06	-1.738228e-09	-1.956715e+01	-1.144433e+02
9.000000e-08	-2.735057e-06	-1.766309e-09	-1.950783e+01	-1.140441e+02
1.000000e-07	-2.725211e-06	-1.752231e-09	-1.943761e+01	-1.135996e+02
1.100000e-07	-2.714130e-06	-1.652779e-09	-1.935857e+01	-1.131140e+02
1.200000e-07	-2.702286e-06	-1.652038e-09	-1.927409e+01	-1.125909e+02
1.300000e-07	-2.689581e-06	-1.733596e-09	-1.918348e+01	-1.120337e+02
1.400000e-07	-2.675919e-06	-1.729880e-09	-1.908603e+01	-1.114444e+02
1.500000e-07	-2.661377e-06	-1.685642e-09	-1.898231e+01	-1.108243e+02
1.600000e-07	-2.645652e-06	-1.661876e-09	-1.887015e+01	-1.101733e+02
1.700000e-07	-2.628556e-06	-1.654560e-09	-1.874821e+01	-1.094902e+02
1.800000e-07	-2.610587e-06	-1.639989e-09	-1.862005e+01	-1.087734e+02
1.900000e-07	-2.592121e-06	-1.735066e-09	-1.848834e+01	-1.080210e+02
2.000000e-07	-2.572833e-06	-1.702687e-09	-1.835077e+01	-1.072313e+02
2.100000e-07	-2.552450e-06	-1.519511e-09	-1.820539e+01	-1.064035e+02
2.200000e-07	-2.531298e-06	-1.586525e-09	-1.805452e+01	-1.055378e+02
2.300000e-07	-2.509472e-06	-1.738915e-09	-1.789885e+01	-1.046354e+02
2.400000e-07	-2.486711e-06	-1.614740e-09	-1.773650e+01	-1.036990e+02
2.500000e-07	-2.463097e-06	-1.479211e-09	-1.756807e+01	-1.027322e+02
2.600000e-07	-2.438604e-06	-1.502418e-09	-1.739338e+01	-1.017393e+02
2.700000e-07	-2.412945e-06	-1.570511e-09	-1.721036e+01	-1.007247e+02
2.800000e-07	-2.386220e-06	-1.590341e-09	-1.701975e+01	-9.969255e+01
2.900000e-07	-2.358646e-06	-1.521414e-09	-1.682308e+01	-9.864597e+01
3.000000e-07	-2.330235e-06	-1.446479e-09	-1.662043e+01	-9.758694e+01
3.100000e-07	-2.301061e-06	-1.432004e-09	-1.641235e+01	-9.651588e+01
3.200000e-07	-2.271218e-06	-1.485544e-09	-1.619949e+01	-9.543158e+01
3.300000e-07	-2.240568e-06	-1.506039e-09	-1.598088e+01	-9.433134e+01
3.400000e-07	-2.209215e-06	-1.457652e-09	-1.575725e+01	-9.321130e+01
3.500000e-07	-2.177314e-06	-1.339359e-09	-1.552972e+01	-9.206679e+01
3.600000e-07	-2.144640e-06	-1.344029e-09	-1.529668e+01	-9.089296e+01
3.700000e-07	-2.110870e-06	-1.451334e-09	-1.505581e+01	-8.968521e+01
3.800000e-07	-2.076017e-06	-1.403837e-09	-1.480722e+01	-8.843974e+01
3.900000e-07	-2.040468e-06	-1.295998e-09	-1.455367e+01	-8.715386e+01
4.000000e-07	-2.004369e-06	-1.276381e-09	-1.429619e+01	-8.582629e+01
4.100000e-07	-1.967614e-06	-1.293100e-09	-1.403403e+01	-8.445712e+01
4.200000e-07	-1.930196e-06	-1.310472e-09	-1.376715e+01	-8.304780e+01
4.300000e-07	-1.892071e-06	-1.303630e-09	-1.349522e+01	-8.160084e+01
4.400000e-07	-1.853206e-06	-1.200559e-09	-1.321802e+01	-8.011949e+01
4.500000e-07	-1.813828e-06	-1.156209e-09	-1.293715e+01	-7.860739e+01
4.600000e-07	-1.774122e-06	-1.207452e-09	-1.265395e+01	-7.706819e+01
4.700000e-07	-1.733902e-06	-1.218809e-09	-1.236708e+01	-7.550523e+01
4.800000e-07	-1.692733e-06	-1.154667e-09	-1.207344e+01	-7.392132e+01
4.900000e-07	-1.650524e-06	-1.074345e-09	-1.177238e+01	-7.231863e+01
5.000000e-07	-1.607542e-06	-1.056572e-09	-1.146582e+01	-7.069863e+01
5.100000e-07	-1.564027e-06	-1.089161e-09	-1.115544e+01	-6.906215e+01
5.200000e-07	-1.520104e-06	-1.088795e-09	-1.084216e+01	-6.740952e+01
5.300000e-07	-1.475716e-06	-1.009909e-09	-1.052556e+01	-6.574064e+01
5.400000e-07	-1.430765e-06	-9.547648e-10	-1.020495e+01	-6.405514e+01
5.500000e-07	-1.385253e-06	-9.591915e-10	-9.880334e+00	-6.235245e+01
5.600000e-07	-1.339234e-06	-9.709684e-10	-9.552103e+00	-6.063183e+01
5.700000e-07	-1.292704e-06	-9.363255e-10	-9.220229e+00	-5.889241e+01
5.800000e-07	-1.245709e-06	-8.693868e-10	-8.885038e+00	-5.713311e+01
5.900000e-07	-1.198408e-06	-8.302136e-10	-8.547660e+00	-5.535263e+01
6.000000e-07	-1.150850e-06	-8.323671e-10	-8.208451e+00	-5.354940e+01
6.100000e-07	-1.102915e-06	-8.272963e-10	-7.866560e+00	-5.172163e+01
6.200000e-07	-1.054402e-06	-7.730538e-10	-7.520540e+00	-4.986740e+01
6.300000e-07	-1.005171e-06	-7.240040e-10	-7.169395e+00	-4.798477e+01
6.400000e-07	-9.553130e-07	-7.098931e-10	-6.813783e+00	-4.607200e+01
6.500000e-07	-9.049380e-07	-7.015629e-10	-6.454483e+00	-4.412781e+01
6.600000e-07	-8.541213e-07	-6.629220e-10	-6.092032e+00	-4.215162e+01
6.700000e-07	-8.029487e-07	-6.148115e-10	-5.727043e+00	-4.014374e+01
6.800000e-07	-7.515039e-07	-5.910806e-10	-5.360112e+00	-3.810553e+01
6.900000e-07	-6.998448e-07	-5.705129e-10	-4.991653e+00	-3.603943e+01
7.000000e-07	-6.479706e-07	-5.279828e-10	-4.621659e+00	-3.394888e+01
7.100000e-07	-5.958639e-07	-4.818283e-10	-4.250007e+00	-3.183806e+01
7.200000e-07	-5.435278e-07	-4.638985e-10	-3.876720e+00	-2.971162e+01
7.300000e-07	-4.909939e-07	-4.484327e-10	-3.502020e+00	-2.757425e+01
7.400000e-07	-4.382937e-07	-4.105482e-10	-3.126136e+00	-2.543023e+01
7.500000e-07	-3.853999e-07	-3.566957e-10	-2.748870e+00	-2.328307e+01
7.600000e-07	-3.322950e-07	-3.208676e-10	-2.370099e+00	-2.113515e+01
7.700000e-07	-2.790475e-07	-3.126516e-10	-1.990310e+00	-1.898752e+01
7.800000e-07	-2.257301e-07	-2.931228e-10	-1.610023e+00	-1.683988e+01
7.900000e-07	-1.724063e-07	-2.364798e-10	-1.229690e+00	-1.469067e+01
8.000000e-07	-1.190227e-07	-1.749882e-10	-8.489309e-01	-1.253736e+01
8.100000e-07	-6.556445e-08	-1.595577e-10	-4.676393e-01	-1.037681e+01
8.200000e-07	-1.207917e-08	-1.647214e-10	-8.615486e-02	-8.205761e+00
8.300000e-07	4.140569e-08	-1.300393e-10	2.953266e-01	-6.021294e+00
8.400000e-07	9.484771e-08	-5.642547e-11	6.765026e-01	-3.821235e+00
8.500000e-07	1.482931e-07	-9.422039e-12	1.057703e+00	-1.604479e+00
8.600000e-07	2.017605e-07	-9.161490e-12	1.439060e+00	6.288418e-01
8.700000e-07	2.551912e-07	-9.715155e-13	1.820155e+00	2.877348e+00
8.800000e-07	3.085216e-07	5.608881e-11	2.200534e+00	5.138561e+00
8.900000e-07	3.617134e-07	1.277546e-10	2.579926e+00	7.409184e+00
9.000000e-07	4.147934e-07	1.576818e-10	2.958520e+00	9.685470e+00
9.100000e-07	4.677677e-07	1.547755e-10	3.336360e+00	1.196362e+01
9.200000e-07	5.205089e-07	1.729828e-10	3.712537e+00	1.424018e+01
9.300000e-07	5.729266e-07	2.344911e-10	4.086407e+00	1.651231e+01
9.400000e-07	6.250937e-07	2.951041e-10	4.458489e+00	1.877802e+01
9.500000e-07	6.770588e-07	3.160821e-10	4.829131e+00	2.103617e+01
9.600000e-07	7.287634e-07	3.197548e-10	5.197915e+00	2.328644e+01
9.700000e-07	7.801715e-07	3.513017e-10	5.564584e+00	2.552911e+01
9.800000e-07	8.312809e-07	4.157079e-10	5.929123e+00	2.776478e+01
9.900000e-07	8.820654e-07	4.701889e-10	6.291344e+00	2.999410e+01
1.000000e-06	9.324154e-07	4.894684e-10	6.650466e+00	3.221744e+01
1.010000e-06	9.821304e-07	4.958635e-10	7.005059e+00	3.443471e+01
1.020000e-06	1.031163e-06	5.273839e-10	7.354788e+00	3.664522e+01
1.030000e-06	1.079533e-06	5.841058e-10	7.699785e+00	3.884766e+01
1.040000e-06	1.127432e-06	6.323723e-10	8.041423e+00	4.104023e+01
1.050000e-06	1.175109e-06	6.508105e-10	8.381482e+00	4.322080e+01
1.060000e-06	1.222510e-06	6.594448e-10	8.719572e+00	4.538715e+01
1.070000e-06	1.269555e-06	6.936220e-10	9.055117e+00	4.753724e+01
1.080000e-06	1.316138e-06	7.545637e-10	9.387372e+00	4.966941e+01
1.090000e-06	1.362180e-06	8.040471e-10	9.715770e+00	5.178251e+01
1.100000e-06	1.407716e-06	8.187196e-10	1.004055e+01	5.387597e+01
1.110000e-06	1.452735e-06	8.247772e-10	1.036166e+01	5.594972e+01
1.120000e-06	1.497272e-06	8.612084e-10	1.067931e+01	5.800404e+01
1.130000e-06	1.541347e-06	9.211147e-10	1.099368e+01	6.003933e+01
1.140000e-06	1.585023e-06	9.607138e-10	1.130520e+01	6.205585e+01
1.150000e-06	1.628382e-06	9.656557e-10	1.161446e+01	6.405347e+01
1.160000e-06	1.671293e-06	9.738245e-10	1.192052e+01	6.603147e+01
1.170000e-06	1.713387e-06	1.015851e-09	1.222076e+01	6.798847e+01
1.180000e-06	1.754392e-06	1.073652e-09	1.251323e+01	6.992237e+01
1.190000e-06	1.794522e-06	1.107036e-09	1.279945e+01	7.183052e+01
1.200000e-06	1.834189e-06	1.111133e-09	1.308238e+01	7.370991e+01
1.210000e-06	1.873428e-06	1.125401e-09	1.336225e+01	7.555741e+01
1.220000e-06	1.912016e-06	1.173263e-09	1.363748e+01	7.737009e+01
1.230000e-06	1.949915e-06	1.224799e-09	1.390780e+01	7.914552e+01
1.240000e-06	1.987180e-06	1.242119e-09	1.417359e+01	8.088188e+01
1.250000e-06	2.023703e-06	1.241701e-09	1.443409e+01	8.257817e+01
1.260000e-06	2.059576e-06	1.262391e-09	1.468996e+01	8.423412e+01
1.270000e-06	2.094946e-06	1.308967e-09	1.494223e+01	8.585011e+01
1.280000e-06	2.129576e-06	1.346548e-09	1.518923e+01	8.742694e+01
1.290000e-06	2.163148e-06	1.358097e-09	1.542868e+01	8.896557e+01
1.300000e-06	2.195656e-06	1.364119e-09	1.566054e+01	9.046682e+01
1.310000e-06	2.227430e-06	1.389524e-09	1.588717e+01	9.193115e+01
1.320000e-06	2.258581e-06	1.427203e-09	1.610936e+01	9.335843e+01
1.330000e-06	2.288958e-06	1.452562e-09	1.632602e+01	9.474792e+01
1.340000e-06	2.318546e-06	1.459735e-09	1.653706e+01	9.609829e+01
1.350000e-06	2.347353e-06	1.468844e-09	1.674253e+01	9.740777e+01
1.360000e-06	2.375417e-06	1.494378e-09	1.694270e+01	9.867437e+01
1.370000e-06	2.402849e-06	1.525965e-09	1.713835e+01	9.989619e+01
1.380000e-06	2.429500e-06	1.546800e-09	1.732844e+01	1.010717e+02
1.390000e-06	2.455027e-06	1.556115e-09	1.751052e+01	1.021999e+02
1.400000e-06	2.479365e-06	1.567546e-09	1.768411e+01	1.032805e+02
1.410000e-06	2.502824e-06	1.588129e-09	1.785143e+01	1.043142e+02
1.420000e-06	2.525501e-06	1.610689e-09	1.801317e+01	1.053019e+02
1.430000e-06	2.547322e-06	1.625083e-09	1.816881e+01	1.062452e+02
1.440000e-06	2.568267e-06	1.632396e-09	1.831820e+01	1.071461e+02
1.450000e-06	2.588407e-06	1.639716e-09	1.846185e+01	1.080059e+02
1.460000e-06	2.607910e-06	1.655612e-09	1.860095e+01	1.088259e+02
1.470000e-06	2.626587e-06	1.677112e-09	1.873417e+01	1.096065e+02
1.480000e-06	2.644238e-06	1.692874e-09	1.886006e+01	1.103474e+02
1.490000e-06	2.660930e-06	1.700046e-09	1.897912e+01	1.110474e+02
1.500000e-06	2.676616e-06	1.704386e-09	1.909100e+01	1.117050e+02
1.510000e-06	2.691204e-06	1.714345e-09	1.919505e+01	1.123180e+02
1.520000e-06	2.704769e-06	1.728940e-09	1.929180e+01	1.128844e+02
1.530000e-06	2.717384e-06	1.738530e-09	1.938178e+01	1.134024e+02
1.540000e-06	2.729016e-06	1.740028e-09	1.946474e+01	1.138713e+02
1.550000e-06	2.739437e-06	1.741214e-09	1.953908e+01	1.142910e+02
1.560000e-06	2.748475e-06	1.749313e-09	1.960354e+01	1.146626e+02
1.570000e-06	2.756448e-06	1.761434e-09	1.966041e+01	1.149884e+02
1.580000e-06	2.763588e-06	1.769262e-09	1.971133e+01	1.152713e+02
1.590000e-06	2.769808e-06	1.769553e-09	1.975569e+01	1.155147e+02
1.600000e-06	2.775013e-06	1.769417e-09	1.979282e+01	1.157224e+02
1.610000e-06	2.779268e-06	1.774551e-09	1.982317e+01	1.158972e+02
1.620000e-06	2.782810e-06	1.781962e-09	1.984843e+01	1.160415e+02
1.630000e-06	2.785486e-06	1.783906e-09	1.986752e+01	1.161563e+02
1.640000e-06	2.786861e-06	1.780458e-09	1.987733e+01	1.162412e+02
1.650000e-06	2.787026e-06	1.778435e-09	1.987850e+01	1.162944e+02
1.660000e-06	2.786327e-06	1.781323e-09	1.987351e+01	1.163130e+02
1.670000e-06	2.784764e-06	1.785643e-09	1.986237e+01	1.162931e+02
1.680000e-06	2.782304e-06	1.786906e-09	1.984482e+01	1.162306e+02
1.690000e-06	2.779008e-06	1.783216e-09	1.982132e+01	1.161213e+02
1.700000e-06	2.775008e-06	1.778321e-09	1.979279e+01	1.159619e+02
1.710000e-06	2.770308e-06	1.778396e-09	1.975926e+01	1.157502e+02
1.720000e-06	2.764543e-06	1.787799e-09	1.971814e+01	1.154853e+02
1.730000e-06	2.757491e-06	1.769733e-09	1.966784e+01	1.151677e+02
1.740000e-06	2.749375e-06	1.722040e-09	1.960996e+01	1.147994e+02
1.750000e-06	2.740087e-06	1.706187e-09	1.954371e+01	1.143837e+02
1.760000e-06	2.729358e-06	1.797048e-09	1.946719e+01	1.139241e+02
1.770000e-06	2.717814e-06	1.793280e-09	1.938485e+01	1.134248e+02
1.780000e-06	2.706181e-06	1.719316e-09	1.930188e+01	1.128893e+02
1.790000e-06	2.693726e-06	1.683188e-09	1.921304e+01	1.123205e+02
1.800000e-06	2.679351e-06	1.704253e-09	1.911051e+01	1.117203e+02
1.810000e-06	2.663641e-06	1.694369e-09	1.899846e+01	1.110893e+02
1.820000e-06	2.647496e-06	1.683662e-09	1.888330e+01	1.104270e+02
1.830000e-06	2.630448e-06	1.720798e-09	1.876170e+01	1.097322e+02
1.840000e-06	2.612122e-06	1.588843e-09	1.863099e+01	1.090030e+02
1.850000e-06	2.593139e-06	1.560375e-09	1.849560e+01	1.082375e+02
1.860000e-06	2.573636e-06	1.724775e-09	1.835649e+01	1.074344e+02
1.870000e-06	2.553289e-06	1.676691e-09	1.821137e+01	1.065930e+02
1.880000e-06	2.531924e-06	1.513834e-09	1.805898e+01	1.057140e+02
1.890000e-06	2.509224e-06	1.599245e-09	1.789707e+01	1.047992e+02
1.900000e-06	2.485396e-06	1.692308e-09	1.772712e+01	1.038516e+02
1.910000e-06	2.460901e-06	1.606764e-09	1.755241e+01	1.028751e+02
1.920000e-06	2.435557e-06	1.514847e-09	1.737164e+01	1.018740e+02
1.930000e-06	2.409204e-06	1.511288e-09	1.718368e+01	1.008528e+02
1.940000e-06	2.382129e-06	1.512586e-09	1.699057e+01	9.981521e+01
1.950000e-06	2.354332e-06	1.556396e-09	1.679231e+01	9.876412e+01
1.960000e-06	2.325761e-06	1.544132e-09	1.658853e+01	9.770092e+01
1.970000e-06	2.296460e-06	1.466198e-09	1.637953e+01	9.662543e+01
1.980000e-06	2.265975e-06	1.429887e-09	1.616210e+01	9.553590e+01
1.990000e-06	2.234291e-06	1.409550e-09	1.593612e+01	9.442917e+01
2.000000e-06	2.202003e-06	1.483434e-09	1.570582e+01	9.330103e+01
2.010000e-06	2.169065e-06	1.497875e-09	1.547088e+01	9.214669e+01
2.020000e-06	2.135314e-06	1.332236e-09	1.523016e+01	9.096132e+01
2.030000e-06	2.100820e-06	1.303107e-09	1.498413e+01	8.974056e+01
2.040000e-06	2.065512e-06	1.403894e-09	1.473229e+01	8.848098e+01
2.050000e-06	2.029600e-06	1.368352e-09	1.447615e+01	8.718037e+01
2.060000e-06	1.993258e-06	1.318163e-09	1.421694e+01	8.583794e+01
2.070000e-06	1.956110e-06	1.266592e-09	1.395198e+01	8.445429e+01
2.080000e-06	1.917990e-06	1.208589e-09	1.368009e+01	8.303127e+01
2.090000e-06	1.878939e-06	1.279455e-09	1.340156e+01	8.157171e+01
2.100000e-06	1.839121e-06	1.291588e-09	1.311756e+01	8.007903e+01
2.110000e-06	1.798861e-06	1.189990e-09	1.283040e+01	7.855693e+01
2.120000e-06	1.758128e-06	1.140030e-09	1.253987e+01	7.700896e+01
2.130000e-06	1.716727e-06	1.132249e-09	1.224458e+01	7.543831e+01
2.140000e-06	1.674668e-06	1.163056e-09	1.194459e+01	7.384757e+01
2.150000e-06	1.632060e-06	1.151894e-09	1.164069e+01	7.223864e+01
2.160000e-06	1.588887e-06	1.055186e-09	1.133276e+01	7.061277e+01
2.170000e-06	1.545180e-06	1.011801e-09	1.102102e+01	6.897060e+01
2.180000e-06	1.501094e-06	1.039947e-09	1.070657e+01	6.731227e+01
2.190000e-06	1.456733e-06	1.038348e-09	1.039016e+01	6.563759e+01
2.200000e-06	1.411946e-06	9.936835e-10	1.007073e+01	6.394611e+01
2.210000e-06	1.366446e-06	9.289082e-10	9.746197e+00	6.223719e+01
2.220000e-06	1.320262e-06	9.093880e-10	9.416785e+00	6.051005e+01
2.230000e-06	1.273633e-06	9.156859e-10	9.084202e+00	5.876375e+01
2.240000e-06	1.226675e-06	8.915772e-10	8.749279e+00	5.699713e+01
2.250000e-06	1.179408e-06	8.432950e-10	8.412141e+00	5.520879e+01
2.260000e-06	1.131740e-06	7.977640e-10	8.072153e+00	5.339710e+01
2.270000e-06	1.083598e-06	7.916310e-10	7.728778e+00	5.156019e+01
2.280000e-06	1.034903e-06	7.776118e-10	7.381463e+00	4.969611e+01
2.290000e-06	9.856678e-07	7.290703e-10	7.030289e+00	4.780298e+01
2.300000e-06	9.360040e-07	6.930332e-10	6.676061e+00	4.587919e+01
2.310000e-06	8.860518e-07	6.823992e-10	6.319777e+00	4.392368e+01
2.320000e-06	8.358637e-07	6.612318e-10	5.961810e+00	4.193616e+01
2.330000e-06	7.853737e-07	6.095499e-10	5.601689e+00	3.991732e+01
2.340000e-06	7.345813e-07	5.598673e-10	5.239411e+00	3.786890e+01
2.350000e-06	6.834873e-07	5.536388e-10	4.874983e+00	3.579371e+01
2.360000e-06	6.320795e-07	5.434433e-10	4.508316e+00	3.369549e+01
2.370000e-06	5.804230e-07	4.847361e-10	4.139875e+00	3.157863e+01
2.380000e-06	5.286231e-07	4.247859e-10	3.770412e+00	2.944784e+01
2.390000e-06	4.767102e-07	4.006491e-10	3.400142e+00	2.730771e+01
2.400000e-06	4.246299e-07	4.039373e-10	3.028679e+00	2.516231e+01
2.410000e-06	3.723910e-07	3.804915e-10	2.656084e+00	2.301475e+01
2.420000e-06	3.200832e-07	3.123533e-10	2.282998e+00	2.086697e+01
2.430000e-06	2.676927e-07	2.561152e-10	1.909322e+00	1.871952e+01
2.440000e-06	2.151865e-07	2.483310e-10	1.534821e+00	1.657164e+01
2.450000e-06	1.625665e-07	2.545720e-10	1.159508e+00	1.442138e+01
2.460000e-06	1.098986e-07	2.100937e-10	7.838534e-01	1.226594e+01
2.470000e-06	5.724993e-08	1.295412e-10	4.083359e-01	1.010209e+01
2.480000e-06	4.552945e-09	8.959513e-11	3.247394e-02	7.926635e+00
2.490000e-06	-4.820475e-08	1.005676e-10	-3.438210e-01	5.736881e+00
2.500000e-06	-1.009002e-07	9.105057e-11	-7.196720e-01	3.531006e+00
2.510000e-06	-1.535263e-07	2.684425e-11	-1.095028e+00	1.308335e+00
2.520000e-06	-2.061004e-07	-4.106991e-11	-1.470014e+00	-9.305468e-01
2.530000e-06	-2.586205e-07	-6.132100e-11	-1.844614e+00	-3.183843e+00
2.540000e-06	-3.111128e-07	-5.897914e-11	-2.219016e+00	-5.448745e+00
2.550000e-06	-3.634987e-07	-8.986632e-11	-2.592659e+00	-7.721749e+00
2.560000e-06	-4.157390e-07	-1.558405e-10	-2.965264e+00	-9.999046e+00
2.570000e-06	-4.678560e-07	-2.119340e-10	-3.336990e+00	-1.227692e+01
2.580000e-06	-5.198590e-07	-2.280646e-10	-3.707901e+00	-1.455210e+01
2.590000e-06	-5.716903e-07	-2.321334e-10	-4.077589e+00	-1.682204e+01
2.600000e-06	-6.232563e-07	-2.660323e-10	-4.445384e+00	-1.908504e+01
2.610000e-06	-6.745097e-07	-3.271494e-10	-4.810950e+00	-2.134030e+01
2.620000e-06	-7.254710e-07	-3.757279e-10	-5.174432e+00	-2.358772e+01
2.630000e-06	-7.761820e-07	-3.925518e-10	-5.536129e+00	-2.582773e+01
2.640000e-06	-8.266178e-07	-4.040710e-10	-5.895863e+00	-2.806099e+01
2.650000e-06	-8.767739e-07	-4.416298e-10	-6.253602e+00	-3.028806e+01
2.660000e-06	-9.264962e-07	-5.024151e-10	-6.608247e+00	-3.250919e+01
2.670000e-06	-9.757041e-07	-5.500474e-10	-6.959223e+00	-3.472408e+01
2.680000e-06	-1.024304e-06	-5.660425e-10	-7.305861e+00	-3.693180e+01
2.690000e-06	-1.072217e-06	-5.753963e-10	-7.647605e+00	-3.913087e+01
2.700000e-06	-1.119684e-06	-6.129834e-10	-7.986160e+00	-4.131932e+01
2.710000e-06	-1.166725e-06	-6.728919e-10	-8.321680e+00	-4.349498e+01
2.720000e-06	-1.213433e-06	-7.157199e-10	-8.654827e+00	-4.565566e+01
2.730000e-06	-1.259906e-06	-7.261777e-10	-8.986294e+00	-4.779944e+01
2.740000e-06	-1.306039e-06	-7.362838e-10	-9.315342e+00	-4.992481e+01
2.750000e-06	-1.351747e-06	-7.797995e-10	-9.641352e+00	-5.203085e+01
2.760000e-06	-1.396941e-06	-8.403092e-10	-9.963700e+00	-5.411718e+01
2.770000e-06	-1.441643e-06	-8.760402e-10	-1.028254e+01	-5.618386e+01
2.780000e-06	-1.485990e-06	-8.802483e-10	-1.059884e+01	-5.823126e+01
2.790000e-06	-1.530067e-06	-8.937157e-10	-1.091323e+01	-6.025975e+01
2.800000e-06	-1.573697e-06	-9.426796e-10	-1.122442e+01	-6.226948e+01
2.810000e-06	-1.616730e-06	-9.992158e-10	-1.153135e+01	-6.426013e+01
2.820000e-06	-1.659205e-06	-1.024014e-09	-1.183431e+01	-6.623074e+01
2.830000e-06	-1.701137e-06	-1.025895e-09	-1.213338e+01	-6.817968e+01
2.840000e-06	-1.742468e-06	-1.047766e-09	-1.242818e+01	-7.010463e+01
2.850000e-06	-1.783205e-06	-1.099770e-09	-1.271873e+01	-7.200279e+01
2.860000e-06	-1.823499e-06	-1.145952e-09	-1.300613e+01	-7.387105e+01
2.870000e-06	-1.863343e-06	-1.159483e-09	-1.329032e+01	-7.570635e+01
2.880000e-06	-1.902432e-06	-1.162922e-09	-1.356912e+01	-7.750590e+01
2.890000e-06	-1.940513e-06	-1.190612e-09	-1.384074e+01	-7.926746e+01
2.900000e-06	-1.977612e-06	-1.237536e-09	-1.410535e+01	-8.098951e+01
2.910000e-06	-2.014033e-06	-1.269457e-09	-1.436512e+01	-8.267130e+01
2.920000e-06	-2.049911e-06	-1.277716e-09	-1.462102e+01	-8.431282e+01
2.930000e-06	-2.085095e-06	-1.290099e-09	-1.487197e+01	-8.591464e+01
2.940000e-06	-2.119498e-06	-1.322908e-09	-1.511735e+01	-8.747763e+01
