# Temperatura_=_20.0
# Concentracion g/m^3_=_12600.0
# C_Vs_to_Am_M_A/Vsm_=_65563218390.804596
# pendiente_HvsI_1/m_=_3716.3
# ordenada_HvsI_A/m_=_1297.0
# frecuencia_Hz_=_301826.381598918

Tiempo_(s)	Campo_(V.s)	Magnetizacion_(V.s)	Campo_(kA/m)	Magnetizacion_(A/m)
0.000000e+00	-2.781654e-06	-1.500259e-09	-1.979789e+01	-9.936662e+01
1.000000e-08	-2.781203e-06	-1.502112e-09	-1.979468e+01	-9.931255e+01
2.000000e-08	-2.779529e-06	-1.513843e-09	-1.978276e+01	-9.923033e+01
3.000000e-08	-2.776632e-06	-1.519880e-09	-1.976214e+01	-9.912380e+01
4.000000e-08	-2.772904e-06	-1.511368e-09	-1.973561e+01	-9.899556e+01
5.000000e-08	-2.768403e-06	-1.499519e-09	-1.970358e+01	-9.884654e+01
6.000000e-08	-2.763009e-06	-1.496717e-09	-1.966518e+01	-9.867569e+01
7.000000e-08	-2.756707e-06	-1.506189e-09	-1.962033e+01	-9.848009e+01
8.000000e-08	-2.749473e-06	-1.512827e-09	-1.956885e+01	-9.825544e+01
9.000000e-08	-2.741117e-06	-1.494537e-09	-1.950938e+01	-9.799677e+01
1.000000e-07	-2.731305e-06	-1.463802e-09	-1.943954e+01	-9.769945e+01
1.100000e-07	-2.720204e-06	-1.485092e-09	-1.936053e+01	-9.736026e+01
1.200000e-07	-2.708285e-06	-1.515357e-09	-1.927570e+01	-9.697830e+01
1.300000e-07	-2.695527e-06	-1.497988e-09	-1.918489e+01	-9.655577e+01
1.400000e-07	-2.681804e-06	-1.406692e-09	-1.908723e+01	-9.609820e+01
1.500000e-07	-2.667166e-06	-1.454113e-09	-1.898304e+01	-9.561436e+01
1.600000e-07	-2.651407e-06	-1.491601e-09	-1.887088e+01	-9.511557e+01
1.700000e-07	-2.634315e-06	-1.467101e-09	-1.874923e+01	-9.461453e+01
1.800000e-07	-2.616243e-06	-1.454282e-09	-1.862061e+01	-9.412390e+01
1.900000e-07	-2.597593e-06	-1.364096e-09	-1.848787e+01	-9.365470e+01
2.000000e-07	-2.578207e-06	-1.391274e-09	-1.834990e+01	-9.321466e+01
2.100000e-07	-2.557836e-06	-1.483025e-09	-1.820491e+01	-9.280702e+01
2.200000e-07	-2.536613e-06	-1.436476e-09	-1.805385e+01	-9.242959e+01
2.300000e-07	-2.514634e-06	-1.292638e-09	-1.789743e+01	-9.207457e+01
2.400000e-07	-2.491754e-06	-1.326018e-09	-1.773458e+01	-9.172894e+01
2.500000e-07	-2.468062e-06	-1.483361e-09	-1.756596e+01	-9.137548e+01
2.600000e-07	-2.443499e-06	-1.494712e-09	-1.739114e+01	-9.099441e+01
2.700000e-07	-2.417769e-06	-1.310656e-09	-1.720800e+01	-9.056524e+01
2.800000e-07	-2.390927e-06	-1.219240e-09	-1.701697e+01	-9.006891e+01
2.900000e-07	-2.363248e-06	-1.318795e-09	-1.681997e+01	-8.948964e+01
3.000000e-07	-2.334781e-06	-1.467934e-09	-1.661736e+01	-8.881654e+01
3.100000e-07	-2.305545e-06	-1.375935e-09	-1.640927e+01	-8.804460e+01
3.200000e-07	-2.275567e-06	-1.172210e-09	-1.619591e+01	-8.717502e+01
3.300000e-07	-2.244778e-06	-1.193225e-09	-1.597678e+01	-8.621481e+01
3.400000e-07	-2.213355e-06	-1.319025e-09	-1.575313e+01	-8.517578e+01
3.500000e-07	-2.181413e-06	-1.361892e-09	-1.552579e+01	-8.407298e+01
3.600000e-07	-2.148612e-06	-1.261966e-09	-1.529233e+01	-8.292288e+01
3.700000e-07	-2.114604e-06	-1.114691e-09	-1.505029e+01	-8.174140e+01
3.800000e-07	-2.079579e-06	-1.121100e-09	-1.480100e+01	-8.054226e+01
3.900000e-07	-2.043994e-06	-1.294251e-09	-1.454774e+01	-7.933555e+01
4.000000e-07	-2.007879e-06	-1.276015e-09	-1.429069e+01	-7.812701e+01
4.100000e-07	-1.971043e-06	-1.092925e-09	-1.402852e+01	-7.691784e+01
4.200000e-07	-1.933490e-06	-1.043675e-09	-1.376125e+01	-7.570512e+01
4.300000e-07	-1.895223e-06	-1.128918e-09	-1.348889e+01	-7.448286e+01
4.400000e-07	-1.856261e-06	-1.184880e-09	-1.321158e+01	-7.324324e+01
4.500000e-07	-1.816799e-06	-1.122113e-09	-1.293071e+01	-7.197816e+01
4.600000e-07	-1.777000e-06	-1.007826e-09	-1.264746e+01	-7.068066e+01
4.700000e-07	-1.736598e-06	-9.804598e-10	-1.235990e+01	-6.934604e+01
4.800000e-07	-1.695197e-06	-1.052904e-09	-1.206524e+01	-6.797267e+01
4.900000e-07	-1.652812e-06	-1.056040e-09	-1.176357e+01	-6.656219e+01
5.000000e-07	-1.609673e-06	-9.765481e-10	-1.145654e+01	-6.511923e+01
5.100000e-07	-1.566078e-06	-9.136214e-10	-1.114626e+01	-6.365068e+01
5.200000e-07	-1.522156e-06	-9.160568e-10	-1.083365e+01	-6.216462e+01
5.300000e-07	-1.477747e-06	-9.420560e-10	-1.051758e+01	-6.066906e+01
5.400000e-07	-1.432740e-06	-9.208924e-10	-1.019725e+01	-5.917078e+01
5.500000e-07	-1.387155e-06	-8.589787e-10	-9.872812e+00	-5.767427e+01
5.600000e-07	-1.341050e-06	-8.198383e-10	-9.544668e+00	-5.618113e+01
5.700000e-07	-1.294356e-06	-8.272518e-10	-9.212328e+00	-5.468981e+01
5.800000e-07	-1.247165e-06	-8.144668e-10	-8.876457e+00	-5.319586e+01
5.900000e-07	-1.199686e-06	-7.768085e-10	-8.538534e+00	-5.169256e+01
6.000000e-07	-1.151920e-06	-7.417190e-10	-8.198567e+00	-5.017188e+01
6.100000e-07	-1.103801e-06	-7.191663e-10	-7.856094e+00	-4.862557e+01
6.200000e-07	-1.055166e-06	-7.025456e-10	-7.509944e+00	-4.704625e+01
6.300000e-07	-1.005868e-06	-6.825716e-10	-7.159076e+00	-4.542841e+01
6.400000e-07	-9.559575e-07	-6.535126e-10	-6.803844e+00	-4.376903e+01
6.500000e-07	-9.055369e-07	-6.217969e-10	-6.444985e+00	-4.206789e+01
6.600000e-07	-8.546626e-07	-6.024176e-10	-6.082897e+00	-4.032751e+01
6.700000e-07	-8.033598e-07	-5.811800e-10	-5.717759e+00	-3.855268e+01
6.800000e-07	-7.517514e-07	-5.497835e-10	-5.350446e+00	-3.674978e+01
6.900000e-07	-6.999816e-07	-5.117798e-10	-4.981985e+00	-3.492589e+01
7.000000e-07	-6.480401e-07	-4.898948e-10	-4.612301e+00	-3.308793e+01
7.100000e-07	-5.958748e-07	-4.794598e-10	-4.241024e+00	-3.124182e+01
7.200000e-07	-5.434263e-07	-4.531121e-10	-3.867732e+00	-2.939196e+01
7.300000e-07	-4.907012e-07	-4.084423e-10	-3.492472e+00	-2.754092e+01
7.400000e-07	-4.377920e-07	-3.712742e-10	-3.115901e+00	-2.568937e+01
7.500000e-07	-3.847333e-07	-3.609910e-10	-2.738265e+00	-2.383641e+01
7.600000e-07	-3.315279e-07	-3.541030e-10	-2.359586e+00	-2.197994e+01
7.700000e-07	-2.782167e-07	-3.190932e-10	-1.980154e+00	-2.011731e+01
7.800000e-07	-2.248486e-07	-2.562488e-10	-1.600317e+00	-1.824581e+01
7.900000e-07	-1.714158e-07	-2.169041e-10	-1.220019e+00	-1.636320e+01
8.000000e-07	-1.179027e-07	-2.247375e-10	-8.391501e-01	-1.446800e+01
8.100000e-07	-6.434896e-08	-2.284809e-10	-4.579914e-01	-1.255968e+01
8.200000e-07	-1.079919e-08	-1.759780e-10	-7.686120e-02	-1.063851e+01
8.300000e-07	4.275762e-08	-1.010705e-10	3.043191e-01	-8.705425e+00
8.400000e-07	9.630534e-08	-8.141955e-11	6.854348e-01	-6.761621e+00
8.500000e-07	1.497844e-07	-1.093334e-10	1.066062e+00	-4.808263e+00
8.600000e-07	2.032289e-07	-9.879896e-11	1.446443e+00	-2.846168e+00
8.700000e-07	2.567235e-07	-1.500025e-11	1.827180e+00	-8.756401e-01
8.800000e-07	3.101570e-07	6.065627e-11	2.207483e+00	1.103548e+00
8.900000e-07	3.633849e-07	5.809251e-11	2.586322e+00	3.092004e+00
9.000000e-07	4.164786e-07	2.547941e-11	2.964206e+00	5.090430e+00
9.100000e-07	4.694542e-07	5.812506e-11	3.341250e+00	7.099258e+00
9.200000e-07	5.222771e-07	1.517978e-10	3.717207e+00	9.118266e+00
9.300000e-07	5.748946e-07	2.071332e-10	4.091702e+00	1.114627e+01
9.400000e-07	6.272180e-07	1.830551e-10	4.464103e+00	1.318094e+01
9.500000e-07	6.792810e-07	1.583585e-10	4.834652e+00	1.521883e+01
9.600000e-07	7.311325e-07	2.180345e-10	5.203695e+00	1.725554e+01
9.700000e-07	7.827343e-07	3.161648e-10	5.570961e+00	1.928615e+01
9.800000e-07	8.340240e-07	3.511171e-10	5.936005e+00	2.130567e+01
9.900000e-07	8.849121e-07	3.185280e-10	6.298192e+00	2.330965e+01
1.000000e-06	9.352908e-07	3.140954e-10	6.656753e+00	2.529466e+01
1.010000e-06	9.851172e-07	3.876309e-10	7.011383e+00	2.725871e+01
1.020000e-06	1.034266e-06	4.701820e-10	7.361187e+00	2.920145e+01
1.030000e-06	1.082766e-06	4.835963e-10	7.706381e+00	3.112411e+01
1.040000e-06	1.130825e-06	4.519682e-10	8.048428e+00	3.302927e+01
1.050000e-06	1.178542e-06	4.647493e-10	8.388045e+00	3.492037e+01
1.060000e-06	1.225964e-06	5.402884e-10	8.725566e+00	3.680107e+01
1.070000e-06	1.273049e-06	6.077875e-10	9.060679e+00	3.867466e+01
1.080000e-06	1.319692e-06	6.127506e-10	9.392652e+00	4.054337e+01
1.090000e-06	1.365805e-06	5.924899e-10	9.720857e+00	4.240799e+01
1.100000e-06	1.411359e-06	6.184332e-10	1.004508e+01	4.426760e+01
1.110000e-06	1.456410e-06	6.902878e-10	1.036572e+01	4.611963e+01
1.120000e-06	1.500959e-06	7.443033e-10	1.068279e+01	4.796008e+01
1.130000e-06	1.545054e-06	7.437238e-10	1.099662e+01	4.978410e+01
1.140000e-06	1.588832e-06	7.289576e-10	1.130821e+01	5.158657e+01
1.150000e-06	1.632276e-06	7.558123e-10	1.161741e+01	5.336278e+01
1.160000e-06	1.675216e-06	8.195647e-10	1.192303e+01	5.510909e+01
1.170000e-06	1.717391e-06	8.648610e-10	1.222320e+01	5.682330e+01
1.180000e-06	1.758581e-06	8.645630e-10	1.251636e+01	5.850492e+01
1.190000e-06	1.798873e-06	8.583440e-10	1.280313e+01	6.015505e+01
1.200000e-06	1.838558e-06	8.916132e-10	1.308559e+01	6.177609e+01
1.210000e-06	1.877760e-06	9.518037e-10	1.336460e+01	6.337119e+01
1.220000e-06	1.916436e-06	9.885699e-10	1.363987e+01	6.494358e+01
1.230000e-06	1.954495e-06	9.851764e-10	1.391074e+01	6.649586e+01
1.240000e-06	1.991835e-06	9.802045e-10	1.417650e+01	6.802941e+01
1.250000e-06	2.028407e-06	1.013945e-09	1.443680e+01	6.954397e+01
1.260000e-06	2.064370e-06	1.068556e-09	1.469276e+01	7.103745e+01
1.270000e-06	2.099848e-06	1.097753e-09	1.494526e+01	7.250611e+01
1.280000e-06	2.134609e-06	1.093552e-09	1.519267e+01	7.394491e+01
1.290000e-06	2.168357e-06	1.095928e-09	1.543286e+01	7.534812e+01
1.300000e-06	2.201075e-06	1.131943e-09	1.566573e+01	7.671012e+01
1.310000e-06	2.232966e-06	1.176970e-09	1.589271e+01	7.802606e+01
1.320000e-06	2.264184e-06	1.194888e-09	1.611490e+01	7.929260e+01
1.330000e-06	2.294692e-06	1.187760e-09	1.633203e+01	8.050830e+01
1.340000e-06	2.324415e-06	1.191627e-09	1.654358e+01	8.167382e+01
1.350000e-06	2.353342e-06	1.224093e-09	1.674946e+01	8.279177e+01
1.360000e-06	2.381501e-06	1.260775e-09	1.694988e+01	8.386635e+01
1.370000e-06	2.408989e-06	1.273490e-09	1.714552e+01	8.490268e+01
1.380000e-06	2.435695e-06	1.270839e-09	1.733559e+01	8.590608e+01
1.390000e-06	2.461213e-06	1.280740e-09	1.751721e+01	8.688125e+01
1.400000e-06	2.485560e-06	1.309842e-09	1.769050e+01	8.783165e+01
1.410000e-06	2.509009e-06	1.337406e-09	1.785739e+01	8.875903e+01
1.420000e-06	2.531671e-06	1.346465e-09	1.801868e+01	8.966318e+01
1.430000e-06	2.553497e-06	1.345545e-09	1.817403e+01	9.054206e+01
1.440000e-06	2.574400e-06	1.353138e-09	1.832280e+01	9.139214e+01
1.450000e-06	2.594562e-06	1.373681e-09	1.846630e+01	9.220896e+01
1.460000e-06	2.614102e-06	1.395515e-09	1.860537e+01	9.298782e+01
1.470000e-06	2.632829e-06	1.406037e-09	1.873866e+01	9.372445e+01
1.480000e-06	2.650515e-06	1.407820e-09	1.886453e+01	9.441562e+01
1.490000e-06	2.667245e-06	1.412530e-09	1.898361e+01	9.505947e+01
1.500000e-06	2.683019e-06	1.426221e-09	1.909587e+01	9.565574e+01
1.510000e-06	2.697661e-06	1.443954e-09	1.920009e+01	9.620559e+01
1.520000e-06	2.711220e-06	1.455036e-09	1.929658e+01	9.671129e+01
1.530000e-06	2.723752e-06	1.455243e-09	1.938578e+01	9.717569e+01
1.540000e-06	2.735312e-06	1.454750e-09	1.946805e+01	9.760165e+01
1.550000e-06	2.745763e-06	1.464574e-09	1.954244e+01	9.799150e+01
1.560000e-06	2.754879e-06	1.480693e-09	1.960732e+01	9.834663e+01
1.570000e-06	2.762823e-06	1.488446e-09	1.966386e+01	9.866726e+01
1.580000e-06	2.769880e-06	1.483838e-09	1.971409e+01	9.895249e+01
1.590000e-06	2.776028e-06	1.479886e-09	1.975784e+01	9.920058e+01
1.600000e-06	2.781190e-06	1.487737e-09	1.979459e+01	9.940934e+01
1.610000e-06	2.785476e-06	1.501907e-09	1.982509e+01	9.957678e+01
1.620000e-06	2.788958e-06	1.507556e-09	1.984987e+01	9.970158e+01
1.630000e-06	2.791496e-06	1.500513e-09	1.986794e+01	9.978357e+01
1.640000e-06	2.792825e-06	1.493777e-09	1.987740e+01	9.982397e+01
1.650000e-06	2.792980e-06	1.499675e-09	1.987850e+01	9.982539e+01
1.660000e-06	2.792241e-06	1.510236e-09	1.987324e+01	9.979157e+01
1.670000e-06	2.790688e-06	1.511539e-09	1.986219e+01	9.972681e+01
1.680000e-06	2.788260e-06	1.500775e-09	1.984491e+01	9.963536e+01
1.690000e-06	2.784991e-06	1.492190e-09	1.982164e+01	9.952071e+01
1.700000e-06	2.780959e-06	1.496195e-09	1.979294e+01	9.938490e+01
1.710000e-06	2.776149e-06	1.503911e-09	1.975871e+01	9.922816e+01
1.720000e-06	2.770324e-06	1.498723e-09	1.971725e+01	9.904874e+01
1.730000e-06	2.763351e-06	1.472665e-09	1.966762e+01	9.884317e+01
1.740000e-06	2.755249e-06	1.473636e-09	1.960996e+01	9.860679e+01
1.750000e-06	2.745865e-06	1.486697e-09	1.954317e+01	9.833465e+01
1.760000e-06	2.735161e-06	1.475320e-09	1.946698e+01	9.802250e+01
1.770000e-06	2.723651e-06	1.447661e-09	1.938506e+01	9.766784e+01
1.780000e-06	2.711892e-06	1.424926e-09	1.930137e+01	9.727082e+01
1.790000e-06	2.699289e-06	1.489842e-09	1.921167e+01	9.683481e+01
1.800000e-06	2.684947e-06	1.433444e-09	1.910960e+01	9.636655e+01
1.810000e-06	2.669268e-06	1.416338e-09	1.899800e+01	9.587583e+01
1.820000e-06	2.652983e-06	1.442869e-09	1.888210e+01	9.537459e+01
1.830000e-06	2.635795e-06	1.438088e-09	1.875977e+01	9.487572e+01
1.840000e-06	2.617453e-06	1.501801e-09	1.862922e+01	9.439147e+01
1.850000e-06	2.598425e-06	1.461048e-09	1.849379e+01	9.393186e+01
1.860000e-06	2.578810e-06	1.355137e-09	1.835419e+01	9.350314e+01
1.870000e-06	2.558338e-06	1.358583e-09	1.820848e+01	9.310668e+01
1.880000e-06	2.536886e-06	1.477847e-09	1.805580e+01	9.273829e+01
1.890000e-06	2.514198e-06	1.446570e-09	1.789432e+01	9.238822e+01
1.900000e-06	2.490369e-06	1.294169e-09	1.772472e+01	9.204179e+01
1.910000e-06	2.465816e-06	1.370672e-09	1.754997e+01	9.168068e+01
1.920000e-06	2.440424e-06	1.560078e-09	1.736925e+01	9.128460e+01
1.930000e-06	2.413994e-06	1.553296e-09	1.718114e+01	9.083335e+01
1.940000e-06	2.386839e-06	1.420601e-09	1.698787e+01	9.030883e+01
1.950000e-06	2.358992e-06	1.267499e-09	1.678967e+01	8.969687e+01
1.960000e-06	2.330338e-06	1.344627e-09	1.658573e+01	8.898858e+01
1.970000e-06	2.300910e-06	1.539244e-09	1.637629e+01	8.818116e+01
1.980000e-06	2.270387e-06	1.460177e-09	1.615904e+01	8.727798e+01
1.990000e-06	2.238736e-06	1.257923e-09	1.593378e+01	8.628791e+01
2.000000e-06	2.206324e-06	1.246776e-09	1.570309e+01	8.522412e+01
2.010000e-06	2.173259e-06	1.327915e-09	1.546776e+01	8.410237e+01
2.020000e-06	2.139423e-06	1.412629e-09	1.522693e+01	8.293917e+01
2.030000e-06	2.104816e-06	1.367446e-09	1.498062e+01	8.174983e+01
2.040000e-06	2.069450e-06	1.147290e-09	1.472891e+01	8.054689e+01
2.050000e-06	2.033482e-06	1.140614e-09	1.447292e+01	7.933896e+01
2.060000e-06	1.997017e-06	1.317653e-09	1.421338e+01	7.813014e+01
2.070000e-06	1.959750e-06	1.311933e-09	1.394815e+01	7.692007e+01
2.080000e-06	1.921438e-06	1.174164e-09	1.367547e+01	7.570462e+01
2.090000e-06	1.882206e-06	1.075829e-09	1.339624e+01	7.447695e+01
2.100000e-06	1.842329e-06	1.101502e-09	1.311242e+01	7.322899e+01
2.110000e-06	1.801984e-06	1.208660e-09	1.282527e+01	7.195288e+01
2.120000e-06	1.761152e-06	1.178144e-09	1.253466e+01	7.064237e+01
2.130000e-06	1.719693e-06	1.041562e-09	1.223959e+01	6.929378e+01
2.140000e-06	1.677604e-06	1.002021e-09	1.194002e+01	6.790665e+01
2.150000e-06	1.634958e-06	1.038572e-09	1.163650e+01	6.648376e+01
2.160000e-06	1.591784e-06	1.073780e-09	1.132922e+01	6.503063e+01
2.170000e-06	1.548086e-06	1.035716e-09	1.101821e+01	6.355473e+01
2.180000e-06	1.503950e-06	9.471953e-10	1.070407e+01	6.206425e+01
2.190000e-06	1.459472e-06	9.164051e-10	1.038752e+01	6.056689e+01
2.200000e-06	1.414555e-06	9.410948e-10	1.006782e+01	5.906872e+01
2.210000e-06	1.369025e-06	9.497794e-10	9.743771e+00	5.757324e+01
2.220000e-06	1.322823e-06	8.984442e-10	9.414938e+00	5.608094e+01
2.230000e-06	1.276078e-06	8.408268e-10	9.082239e+00	5.458918e+01
2.240000e-06	1.229009e-06	8.248859e-10	8.747237e+00	5.309261e+01
2.250000e-06	1.181649e-06	8.276374e-10	8.410160e+00	5.158391e+01
2.260000e-06	1.133856e-06	8.174607e-10	8.070002e+00	5.005485e+01
2.270000e-06	1.085534e-06	7.811127e-10	7.726082e+00	4.849737e+01
2.280000e-06	1.036703e-06	7.293396e-10	7.378538e+00	4.690467e+01
2.290000e-06	9.873761e-07	7.116545e-10	7.027460e+00	4.527204e+01
2.300000e-06	9.376091e-07	7.120986e-10	6.673253e+00	4.359748e+01
2.310000e-06	8.875668e-07	6.851472e-10	6.317087e+00	4.188175e+01
2.320000e-06	8.372845e-07	6.376909e-10	5.959212e+00	4.012827e+01
2.330000e-06	7.867302e-07	5.986550e-10	5.599401e+00	3.834248e+01
2.340000e-06	7.357854e-07	5.915127e-10	5.236811e+00	3.653112e+01
2.350000e-06	6.844895e-07	5.759094e-10	4.871723e+00	3.470130e+01
2.360000e-06	6.330240e-07	5.274850e-10	4.505427e+00	3.285966e+01
2.370000e-06	5.813542e-07	4.845971e-10	4.137677e+00	3.101165e+01
2.380000e-06	5.294840e-07	4.708741e-10	3.768501e+00	2.916103e+01
2.390000e-06	4.774326e-07	4.639243e-10	3.398035e+00	2.730967e+01
2.400000e-06	4.252380e-07	4.262007e-10	3.026550e+00	2.545765e+01
2.410000e-06	3.729039e-07	3.636973e-10	2.654072e+00	2.360357e+01
2.420000e-06	3.204317e-07	3.286180e-10	2.280611e+00	2.174507e+01
2.430000e-06	2.679063e-07	3.373273e-10	1.906772e+00	1.987942e+01
2.440000e-06	2.152684e-07	3.323083e-10	1.532131e+00	1.800403e+01
2.450000e-06	1.625211e-07	2.691895e-10	1.156713e+00	1.611689e+01
2.460000e-06	1.097006e-07	1.952765e-10	7.807732e-01	1.421688e+01
2.470000e-06	5.683750e-08	1.866472e-10	4.045300e-01	1.230375e+01
2.480000e-06	3.994058e-09	2.155006e-10	2.842694e-02	1.037805e+01
2.490000e-06	-4.887564e-08	1.860600e-10	-3.478630e-01	8.440842e+00
2.500000e-06	-1.017797e-07	9.282834e-11	-7.243972e-01	6.493357e+00
2.510000e-06	-1.546187e-07	3.275529e-11	-1.100469e+00	4.536661e+00
2.520000e-06	-2.073509e-07	5.599597e-11	-1.475781e+00	2.571400e+00
2.530000e-06	-2.600221e-07	7.976573e-11	-1.850657e+00	5.976819e-01
2.540000e-06	-3.125982e-07	1.770310e-11	-2.224857e+00	-1.384882e+00
2.550000e-06	-3.650568e-07	-8.675221e-11	-2.598222e+00	-3.376972e+00
2.560000e-06	-4.173879e-07	-1.244700e-10	-2.970678e+00	-5.379238e+00
2.570000e-06	-4.695685e-07	-8.621348e-11	-3.342064e+00	-7.391920e+00
2.580000e-06	-5.216515e-07	-7.852038e-11	-3.712754e+00	-9.414481e+00
2.590000e-06	-5.736466e-07	-1.601043e-10	-4.082819e+00	-1.144534e+01
2.600000e-06	-6.254425e-07	-2.542718e-10	-4.451467e+00	-1.348176e+01
2.610000e-06	-6.769662e-07	-2.657153e-10	-4.818177e+00	-1.551992e+01
2.620000e-06	-7.281215e-07	-2.265141e-10	-5.182265e+00	-1.755518e+01
2.630000e-06	-7.788512e-07	-2.432449e-10	-5.543324e+00	-1.958254e+01
2.640000e-06	-8.292978e-07	-3.370766e-10	-5.902368e+00	-2.159712e+01
2.650000e-06	-8.795152e-07	-4.132267e-10	-6.259781e+00	-2.359480e+01
2.660000e-06	-9.294552e-07	-4.078875e-10	-6.615219e+00	-2.557262e+01
2.670000e-06	-9.789016e-07	-3.784312e-10	-6.967145e+00	-2.752916e+01
2.680000e-06	-1.027639e-06	-4.122168e-10	-7.314026e+00	-2.946465e+01
2.690000e-06	-1.075813e-06	-5.003569e-10	-7.656891e+00	-3.138086e+01
2.700000e-06	-1.123466e-06	-5.565218e-10	-7.996055e+00	-3.328072e+01
2.710000e-06	-1.170604e-06	-5.465209e-10	-8.331551e+00	-3.516784e+01
2.720000e-06	-1.217439e-06	-5.306841e-10	-8.664890e+00	-3.704582e+01
2.730000e-06	-1.264016e-06	-5.741158e-10	-8.996393e+00	-3.891762e+01
2.740000e-06	-1.310261e-06	-6.527138e-10	-9.325530e+00	-4.078502e+01
2.750000e-06	-1.356125e-06	-6.948973e-10	-9.651959e+00	-4.264819e+01
2.760000e-06	-1.401498e-06	-6.853456e-10	-9.974894e+00	-4.450562e+01
2.770000e-06	-1.446293e-06	-6.806340e-10	-1.029371e+01	-4.635418e+01
2.780000e-06	-1.490677e-06	-7.271356e-10	-1.060961e+01	-4.818950e+01
2.790000e-06	-1.534763e-06	-7.969227e-10	-1.092338e+01	-5.000655e+01
2.800000e-06	-1.578444e-06	-8.318135e-10	-1.123427e+01	-5.180028e+01
2.810000e-06	-1.621600e-06	-8.244000e-10	-1.154143e+01	-5.356632e+01
2.820000e-06	-1.664196e-06	-8.246175e-10	-1.184460e+01	-5.530148e+01
2.830000e-06	-1.706323e-06	-8.697909e-10	-1.214442e+01	-5.700416e+01
2.840000e-06	-1.747880e-06	-9.321766e-10	-1.244020e+01	-5.867448e+01
2.850000e-06	-1.788710e-06	-9.589500e-10	-1.273080e+01	-6.031404e+01
2.860000e-06	-1.828997e-06	-9.487801e-10	-1.301753e+01	-6.192558e+01
2.870000e-06	-1.868829e-06	-9.531260e-10	-1.330103e+01	-6.351237e+01
2.880000e-06	-1.907961e-06	-1.000501e-09	-1.357954e+01	-6.507748e+01
2.890000e-06	-1.946115e-06	-1.055544e-09	-1.385110e+01	-6.662314e+01
2.900000e-06	-1.983222e-06	-1.071582e-09	-1.411520e+01	-6.815018e+01
2.910000e-06	-2.019614e-06	-1.059900e-09	-1.437422e+01	-6.965769e+01
2.920000e-06	-2.055506e-06	-1.069713e-09	-1.462967e+01	-7.114296e+01
2.930000e-06	-2.090712e-06	-1.117036e-09	-1.488024e+01	-7.260173e+01
2.940000e-06	-2.125204e-06	-1.163368e-09	-1.512573e+01	-7.402864e+01
