# Temperatura_=_20.0
# Concentracion g/m^3_=_12600.0
# C_Vs_to_Am_M_A/Vsm_=_65563218390.804596
# pendiente_HvsI_1/m_=_3716.3
# ordenada_HvsI_A/m_=_1297.0
# frecuencia_Hz_=_301825.36343591736

Tiempo_(s)	Campo_(V.s)	Magnetizacion_(V.s)	Campo_(kA/m)	Magnetizacion_(A/m)
0.000000e+00	-2.778090e-06	-1.501112e-09	-1.979804e+01	-9.922718e+01
1.000000e-08	-2.777413e-06	-1.501309e-09	-1.979321e+01	-9.914625e+01
2.000000e-08	-2.775476e-06	-1.510223e-09	-1.977941e+01	-9.904944e+01
3.000000e-08	-2.772347e-06	-1.513400e-09	-1.975711e+01	-9.894236e+01
4.000000e-08	-2.768445e-06	-1.503764e-09	-1.972931e+01	-9.882834e+01
5.000000e-08	-2.763764e-06	-1.491482e-09	-1.969595e+01	-9.870787e+01
6.000000e-08	-2.758216e-06	-1.483979e-09	-1.965641e+01	-9.857838e+01
7.000000e-08	-2.751724e-06	-1.483736e-09	-1.961014e+01	-9.843442e+01
8.000000e-08	-2.744282e-06	-1.504695e-09	-1.955710e+01	-9.826837e+01
9.000000e-08	-2.735729e-06	-1.529312e-09	-1.949615e+01	-9.807140e+01
1.000000e-07	-2.725751e-06	-1.499883e-09	-1.942504e+01	-9.783476e+01
1.100000e-07	-2.714561e-06	-1.440446e-09	-1.934530e+01	-9.755110e+01
1.200000e-07	-2.702549e-06	-1.445175e-09	-1.925969e+01	-9.721571e+01
1.300000e-07	-2.689633e-06	-1.517012e-09	-1.916765e+01	-9.682742e+01
1.400000e-07	-2.675744e-06	-1.460938e-09	-1.906867e+01	-9.638914e+01
1.500000e-07	-2.661026e-06	-1.428997e-09	-1.896378e+01	-9.590779e+01
1.600000e-07	-2.645166e-06	-1.482843e-09	-1.885075e+01	-9.539367e+01
1.700000e-07	-2.627935e-06	-1.429898e-09	-1.872796e+01	-9.485942e+01
1.800000e-07	-2.609785e-06	-1.356754e-09	-1.859861e+01	-9.431846e+01
1.900000e-07	-2.591069e-06	-1.418598e-09	-1.846523e+01	-9.378338e+01
2.000000e-07	-2.571540e-06	-1.476560e-09	-1.832606e+01	-9.326422e+01
2.100000e-07	-2.550950e-06	-1.363347e-09	-1.817933e+01	-9.276707e+01
2.200000e-07	-2.529594e-06	-1.322627e-09	-1.802714e+01	-9.229309e+01
2.300000e-07	-2.507558e-06	-1.397929e-09	-1.787009e+01	-9.183812e+01
2.400000e-07	-2.484556e-06	-1.417144e-09	-1.770617e+01	-9.139284e+01
2.500000e-07	-2.460693e-06	-1.417897e-09	-1.753611e+01	-9.094374e+01
2.600000e-07	-2.435953e-06	-1.407181e-09	-1.735980e+01	-9.047437e+01
2.700000e-07	-2.410124e-06	-1.299577e-09	-1.717573e+01	-8.996721e+01
2.800000e-07	-2.383281e-06	-1.279588e-09	-1.698444e+01	-8.940542e+01
2.900000e-07	-2.355529e-06	-1.376807e-09	-1.678666e+01	-8.877471e+01
3.000000e-07	-2.326926e-06	-1.416278e-09	-1.658283e+01	-8.806475e+01
3.100000e-07	-2.297580e-06	-1.312822e-09	-1.637369e+01	-8.727012e+01
3.200000e-07	-2.267494e-06	-1.193286e-09	-1.615928e+01	-8.639071e+01
3.300000e-07	-2.236624e-06	-1.228527e-09	-1.593928e+01	-8.543138e+01
3.400000e-07	-2.205124e-06	-1.344695e-09	-1.571480e+01	-8.440111e+01
3.500000e-07	-2.173056e-06	-1.332087e-09	-1.548627e+01	-8.331170e+01
3.600000e-07	-2.140116e-06	-1.185889e-09	-1.525152e+01	-8.217618e+01
3.700000e-07	-2.106046e-06	-1.132462e-09	-1.500872e+01	-8.100717e+01
3.800000e-07	-2.071006e-06	-1.200619e-09	-1.475901e+01	-7.981545e+01
3.900000e-07	-2.035327e-06	-1.266114e-09	-1.450475e+01	-7.860886e+01
4.000000e-07	-1.999089e-06	-1.210665e-09	-1.424649e+01	-7.739167e+01
4.100000e-07	-1.962180e-06	-1.099200e-09	-1.398346e+01	-7.616457e+01
4.200000e-07	-1.924576e-06	-1.077874e-09	-1.371548e+01	-7.492508e+01
4.300000e-07	-1.886201e-06	-1.142762e-09	-1.344200e+01	-7.366845e+01
4.400000e-07	-1.847133e-06	-1.160274e-09	-1.316358e+01	-7.238886e+01
4.500000e-07	-1.807656e-06	-1.077213e-09	-1.288225e+01	-7.108066e+01
4.600000e-07	-1.767835e-06	-9.967732e-10	-1.259846e+01	-6.973952e+01
4.700000e-07	-1.727451e-06	-1.003640e-09	-1.231067e+01	-6.836332e+01
4.800000e-07	-1.686132e-06	-1.050527e-09	-1.201621e+01	-6.695269e+01
4.900000e-07	-1.643764e-06	-1.020947e-09	-1.171427e+01	-6.551096e+01
5.000000e-07	-1.600584e-06	-9.451592e-10	-1.140655e+01	-6.404381e+01
5.100000e-07	-1.556935e-06	-9.120608e-10	-1.109549e+01	-6.255842e+01
5.200000e-07	-1.512937e-06	-9.278961e-10	-1.078193e+01	-6.106246e+01
5.300000e-07	-1.468474e-06	-9.293534e-10	-1.046507e+01	-5.956292e+01
5.400000e-07	-1.423453e-06	-8.849684e-10	-1.014423e+01	-5.806508e+01
5.500000e-07	-1.377867e-06	-8.360616e-10	-9.819358e+00	-5.657170e+01
5.600000e-07	-1.331753e-06	-8.189697e-10	-9.490729e+00	-5.508257e+01
5.700000e-07	-1.285081e-06	-8.210004e-10	-9.158122e+00	-5.359447e+01
5.800000e-07	-1.237920e-06	-7.948215e-10	-8.822030e+00	-5.210160e+01
5.900000e-07	-1.190486e-06	-7.495753e-10	-8.483992e+00	-5.059628e+01
6.000000e-07	-1.142822e-06	-7.214489e-10	-8.144315e+00	-4.907003e+01
6.100000e-07	-1.094750e-06	-7.178805e-10	-7.801726e+00	-4.751460e+01
6.200000e-07	-1.046078e-06	-7.030805e-10	-7.454868e+00	-4.592311e+01
6.300000e-07	-9.967697e-07	-6.599668e-10	-7.103472e+00	-4.429083e+01
6.400000e-07	-9.467911e-07	-6.213051e-10	-6.747300e+00	-4.261582e+01
6.500000e-07	-8.962449e-07	-6.092357e-10	-6.387083e+00	-4.089906e+01
6.600000e-07	-8.452913e-07	-6.044588e-10	-6.023963e+00	-3.914427e+01
6.700000e-07	-7.940210e-07	-5.713291e-10	-5.658585e+00	-3.735739e+01
6.800000e-07	-7.425215e-07	-5.197151e-10	-5.291575e+00	-3.554574e+01
6.900000e-07	-6.907766e-07	-4.832735e-10	-4.922814e+00	-3.371718e+01
7.000000e-07	-6.388181e-07	-4.795394e-10	-4.552532e+00	-3.187913e+01
7.100000e-07	-5.866608e-07	-4.780130e-10	-4.180834e+00	-3.003779e+01
7.200000e-07	-5.342399e-07	-4.364959e-10	-3.807257e+00	-2.819761e+01
7.300000e-07	-4.815753e-07	-3.714483e-10	-3.431943e+00	-2.636093e+01
7.400000e-07	-4.287376e-07	-3.392290e-10	-3.055396e+00	-2.452807e+01
7.500000e-07	-3.757941e-07	-3.513657e-10	-2.678094e+00	-2.269753e+01
7.600000e-07	-3.227227e-07	-3.477521e-10	-2.299881e+00	-2.086653e+01
7.700000e-07	-2.694558e-07	-2.892742e-10	-1.920275e+00	-1.903157e+01
7.800000e-07	-2.160986e-07	-2.173128e-10	-1.540025e+00	-1.718907e+01
7.900000e-07	-1.627326e-07	-2.000639e-10	-1.159713e+00	-1.533587e+01
8.000000e-07	-1.092999e-07	-2.262763e-10	-7.789253e-01	-1.346961e+01
8.100000e-07	-5.580057e-08	-2.169545e-10	-3.976624e-01	-1.158895e+01
8.200000e-07	-2.277819e-09	-1.421198e-10	-1.623286e-02	-9.693543e+00
8.300000e-07	5.125546e-08	-6.957063e-11	3.652717e-01	-7.783841e+00
8.400000e-07	1.047907e-07	-6.945112e-11	7.467905e-01	-5.860832e+00
8.500000e-07	1.582525e-07	-1.014706e-10	1.127786e+00	-3.925684e+00
8.600000e-07	2.116615e-07	-7.211754e-11	1.508405e+00	-1.979435e+00
8.700000e-07	2.650874e-07	2.242907e-11	1.889143e+00	-2.276536e-02
8.800000e-07	3.184714e-07	8.297325e-11	2.269584e+00	1.944105e+00
8.900000e-07	3.717111e-07	6.060180e-11	2.648997e+00	3.921374e+00
9.000000e-07	4.247559e-07	3.182467e-11	3.027020e+00	5.909486e+00
9.100000e-07	4.776037e-07	8.361254e-11	3.403640e+00	7.908879e+00
9.200000e-07	5.302512e-07	1.819525e-10	3.778831e+00	9.919687e+00
9.300000e-07	5.827006e-07	2.225665e-10	4.152612e+00	1.194147e+01
9.400000e-07	6.348829e-07	1.907490e-10	4.524488e+00	1.397304e+01
9.500000e-07	6.867814e-07	1.810634e-10	4.894343e+00	1.601238e+01
9.600000e-07	7.384825e-07	2.565358e-10	5.262790e+00	1.805670e+01
9.700000e-07	7.899674e-07	3.497671e-10	5.629697e+00	2.010269e+01
9.800000e-07	8.411283e-07	3.680698e-10	5.994295e+00	2.214675e+01
9.900000e-07	8.918735e-07	3.322687e-10	6.355931e+00	2.418535e+01
1.000000e-06	9.420193e-07	3.410270e-10	6.713294e+00	2.621538e+01
1.010000e-06	9.914272e-07	4.227730e-10	7.065399e+00	2.823435e+01
1.020000e-06	1.040254e-06	4.980852e-10	7.413364e+00	3.024055e+01
1.030000e-06	1.088638e-06	5.019705e-10	7.758169e+00	3.223303e+01
1.040000e-06	1.136606e-06	4.755832e-10	8.100013e+00	3.421144e+01
1.050000e-06	1.184270e-06	5.033155e-10	8.439692e+00	3.617576e+01
1.060000e-06	1.231649e-06	5.856783e-10	8.777335e+00	3.812601e+01
1.070000e-06	1.278652e-06	6.449624e-10	9.112305e+00	4.006185e+01
1.080000e-06	1.325175e-06	6.417307e-10	9.443851e+00	4.198238e+01
1.090000e-06	1.371186e-06	6.262328e-10	9.771751e+00	4.388596e+01
1.100000e-06	1.416695e-06	6.609741e-10	1.009607e+01	4.577022e+01
1.110000e-06	1.461663e-06	7.326651e-10	1.041653e+01	4.763226e+01
1.120000e-06	1.506099e-06	7.781632e-10	1.073320e+01	4.946889e+01
1.130000e-06	1.550123e-06	7.734230e-10	1.104694e+01	5.127712e+01
1.140000e-06	1.593843e-06	7.659969e-10	1.135851e+01	5.305454e+01
1.150000e-06	1.637178e-06	8.025179e-10	1.166734e+01	5.479972e+01
1.160000e-06	1.679910e-06	8.651745e-10	1.197187e+01	5.651244e+01
1.170000e-06	1.721806e-06	9.003398e-10	1.227044e+01	5.819383e+01
1.180000e-06	1.762745e-06	8.947624e-10	1.256219e+01	5.984617e+01
1.190000e-06	1.802851e-06	8.948473e-10	1.284800e+01	6.147259e+01
1.200000e-06	1.842431e-06	9.349517e-10	1.313007e+01	6.307658e+01
1.210000e-06	1.881558e-06	9.917917e-10	1.340891e+01	6.466133e+01
1.220000e-06	1.920041e-06	1.020271e-09	1.368316e+01	6.622918e+01
1.230000e-06	1.957899e-06	1.017352e-09	1.395295e+01	6.778103e+01
1.240000e-06	1.995061e-06	1.021966e-09	1.421779e+01	6.931600e+01
1.250000e-06	2.031449e-06	1.061346e-09	1.447711e+01	7.083130e+01
1.260000e-06	2.067310e-06	1.111363e-09	1.473267e+01	7.232234e+01
1.270000e-06	2.102733e-06	1.132766e-09	1.498511e+01	7.378314e+01
1.280000e-06	2.137398e-06	1.127645e-09	1.523215e+01	7.520695e+01
1.290000e-06	2.170909e-06	1.135505e-09	1.547097e+01	7.658697e+01
1.300000e-06	2.203333e-06	1.172711e-09	1.570204e+01	7.791715e+01
1.310000e-06	2.235026e-06	1.210779e-09	1.592789e+01	7.919293e+01
1.320000e-06	2.266074e-06	1.223090e-09	1.614916e+01	8.041170e+01
1.330000e-06	2.296384e-06	1.219768e-09	1.636517e+01	8.157317e+01
1.340000e-06	2.325935e-06	1.231634e-09	1.657576e+01	8.267933e+01
1.350000e-06	2.354689e-06	1.265346e-09	1.678068e+01	8.373414e+01
1.360000e-06	2.382707e-06	1.296220e-09	1.698034e+01	8.474305e+01
1.370000e-06	2.410085e-06	1.304826e-09	1.717545e+01	8.571222e+01
1.380000e-06	2.436604e-06	1.303660e-09	1.736444e+01	8.664781e+01
1.390000e-06	2.461914e-06	1.315034e-09	1.754481e+01	8.755521e+01
1.400000e-06	2.486090e-06	1.340251e-09	1.771710e+01	8.843846e+01
1.410000e-06	2.509432e-06	1.360637e-09	1.788345e+01	8.929987e+01
1.420000e-06	2.531944e-06	1.367229e-09	1.804388e+01	9.013991e+01
1.430000e-06	2.553588e-06	1.370929e-09	1.819812e+01	9.095739e+01
1.440000e-06	2.574390e-06	1.382763e-09	1.834637e+01	9.174980e+01
1.450000e-06	2.594445e-06	1.402456e-09	1.848930e+01	9.251387e+01
1.460000e-06	2.613853e-06	1.420765e-09	1.862761e+01	9.324613e+01
1.470000e-06	2.632385e-06	1.430334e-09	1.875967e+01	9.394349e+01
1.480000e-06	2.649834e-06	1.433571e-09	1.888402e+01	9.460362e+01
1.490000e-06	2.666322e-06	1.438614e-09	1.900152e+01	9.522516e+01
1.500000e-06	2.681867e-06	1.450122e-09	1.911231e+01	9.580778e+01
1.510000e-06	2.696296e-06	1.464170e-09	1.921513e+01	9.635190e+01
1.520000e-06	2.709696e-06	1.473599e-09	1.931063e+01	9.685836e+01
1.530000e-06	2.722188e-06	1.476408e-09	1.939966e+01	9.732797e+01
1.540000e-06	2.733679e-06	1.479447e-09	1.948154e+01	9.776108e+01
1.550000e-06	2.743912e-06	1.489113e-09	1.955447e+01	9.815725e+01
1.560000e-06	2.752766e-06	1.501987e-09	1.961757e+01	9.851511e+01
1.570000e-06	2.760582e-06	1.507316e-09	1.967327e+01	9.883246e+01
1.580000e-06	2.767557e-06	1.504013e-09	1.972298e+01	9.910659e+01
1.590000e-06	2.773591e-06	1.501049e-09	1.976598e+01	9.933474e+01
1.600000e-06	2.778657e-06	1.506197e-09	1.980208e+01	9.951472e+01
1.610000e-06	2.782877e-06	1.517012e-09	1.983215e+01	9.964555e+01
1.620000e-06	2.786268e-06	1.522047e-09	1.985632e+01	9.972791e+01
1.630000e-06	2.788471e-06	1.517494e-09	1.987202e+01	9.976445e+01
1.640000e-06	2.789380e-06	1.513282e-09	1.987850e+01	9.975977e+01
1.650000e-06	2.789344e-06	1.520015e-09	1.987824e+01	9.972012e+01
1.660000e-06	2.788515e-06	1.530452e-09	1.987233e+01	9.965276e+01
1.670000e-06	2.786787e-06	1.530107e-09	1.986002e+01	9.956511e+01
1.680000e-06	2.784153e-06	1.518076e-09	1.984125e+01	9.946380e+01
1.690000e-06	2.780676e-06	1.509048e-09	1.981647e+01	9.935370e+01
1.700000e-06	2.776522e-06	1.513160e-09	1.978686e+01	9.923719e+01
1.710000e-06	2.771651e-06	1.523582e-09	1.975215e+01	9.911365e+01
1.720000e-06	2.765671e-06	1.533119e-09	1.970954e+01	9.897945e+01
1.730000e-06	2.758468e-06	1.503758e-09	1.965821e+01	9.882828e+01
1.740000e-06	2.750175e-06	1.458587e-09	1.959910e+01	9.865193e+01
1.750000e-06	2.740602e-06	1.467293e-09	1.953088e+01	9.844146e+01
1.760000e-06	2.729666e-06	1.533902e-09	1.945295e+01	9.818846e+01
1.770000e-06	2.718109e-06	1.545783e-09	1.937059e+01	9.788641e+01
1.780000e-06	2.706402e-06	1.449190e-09	1.928715e+01	9.753175e+01
1.790000e-06	2.693597e-06	1.463082e-09	1.919590e+01	9.712477e+01
1.800000e-06	2.678909e-06	1.488653e-09	1.909123e+01	9.666983e+01
1.810000e-06	2.663075e-06	1.447359e-09	1.897839e+01	9.617514e+01
1.820000e-06	2.646709e-06	1.475867e-09	1.886175e+01	9.565202e+01
1.830000e-06	2.629391e-06	1.545959e-09	1.873834e+01	9.511354e+01
1.840000e-06	2.610962e-06	1.477337e-09	1.860700e+01	9.457305e+01
1.850000e-06	2.591835e-06	1.367528e-09	1.847070e+01	9.404238e+01
1.860000e-06	2.572132e-06	1.459560e-09	1.833028e+01	9.353033e+01
1.870000e-06	2.551660e-06	1.488527e-09	1.818439e+01	9.304130e+01
1.880000e-06	2.530132e-06	1.349776e-09	1.803097e+01	9.257457e+01
1.890000e-06	2.507272e-06	1.335928e-09	1.786806e+01	9.212408e+01
1.900000e-06	2.483340e-06	1.389164e-09	1.769750e+01	9.167888e+01
1.910000e-06	2.458721e-06	1.399781e-09	1.752206e+01	9.122423e+01
1.920000e-06	2.433207e-06	1.470190e-09	1.734023e+01	9.074308e+01
1.930000e-06	2.406723e-06	1.462163e-09	1.715149e+01	9.021795e+01
1.940000e-06	2.379505e-06	1.333546e-09	1.695752e+01	8.963272e+01
1.950000e-06	2.351496e-06	1.280226e-09	1.675792e+01	8.897435e+01
1.960000e-06	2.322680e-06	1.372679e-09	1.655256e+01	8.823421e+01
1.970000e-06	2.293065e-06	1.452761e-09	1.634151e+01	8.740875e+01
1.980000e-06	2.262320e-06	1.376858e-09	1.612241e+01	8.649971e+01
1.990000e-06	2.230520e-06	1.210684e-09	1.589578e+01	8.551354e+01
2.000000e-06	2.198065e-06	1.221426e-09	1.566449e+01	8.446040e+01
2.010000e-06	2.164902e-06	1.361506e-09	1.542816e+01	8.335272e+01
2.020000e-06	2.130962e-06	1.349263e-09	1.518629e+01	8.220356e+01
2.030000e-06	2.096267e-06	1.225524e-09	1.493903e+01	8.102505e+01
2.040000e-06	2.060850e-06	1.150302e-09	1.468664e+01	7.982700e+01
2.050000e-06	2.024926e-06	1.182524e-09	1.443062e+01	7.861603e+01
2.060000e-06	1.988523e-06	1.263782e-09	1.417119e+01	7.739511e+01
2.070000e-06	1.951270e-06	1.229789e-09	1.390571e+01	7.616371e+01
2.080000e-06	1.912866e-06	1.105136e-09	1.363203e+01	7.491843e+01
2.090000e-06	1.873490e-06	1.066324e-09	1.335141e+01	7.365400e+01
2.100000e-06	1.833523e-06	1.115432e-09	1.306659e+01	7.236450e+01
2.110000e-06	1.793151e-06	1.151550e-09	1.277888e+01	7.104463e+01
2.120000e-06	1.752253e-06	1.097946e-09	1.248742e+01	6.969079e+01
2.130000e-06	1.710731e-06	9.969834e-10	1.219151e+01	6.830178e+01
2.140000e-06	1.668609e-06	9.908837e-10	1.189133e+01	6.687923e+01
2.150000e-06	1.625966e-06	1.036600e-09	1.158744e+01	6.542738e+01
2.160000e-06	1.582772e-06	1.025837e-09	1.127962e+01	6.395255e+01
2.170000e-06	1.539021e-06	9.640489e-10	1.096782e+01	6.246222e+01
2.180000e-06	1.494889e-06	9.098324e-10	1.065331e+01	6.096395e+01
2.190000e-06	1.450416e-06	9.060157e-10	1.033638e+01	5.946423e+01
2.200000e-06	1.405444e-06	9.171927e-10	1.001589e+01	5.796752e+01
2.210000e-06	1.359799e-06	8.900997e-10	9.690599e+00	5.647555e+01
2.220000e-06	1.313512e-06	8.372866e-10	9.360737e+00	5.498701e+01
2.230000e-06	1.266796e-06	8.047569e-10	9.027812e+00	5.349770e+01
2.240000e-06	1.219788e-06	8.036091e-10	8.692809e+00	5.200103e+01
2.250000e-06	1.172490e-06	8.012525e-10	8.355740e+00	5.048893e+01
2.260000e-06	1.124757e-06	7.623395e-10	8.015574e+00	4.895287e+01
2.270000e-06	1.076442e-06	7.191749e-10	7.671260e+00	4.738496e+01
2.280000e-06	1.027564e-06	7.006847e-10	7.322927e+00	4.577901e+01
2.290000e-06	9.781459e-07	6.943750e-10	6.970750e+00	4.413125e+01
2.300000e-06	9.283480e-07	6.707898e-10	6.615865e+00	4.244077e+01
2.310000e-06	8.783413e-07	6.210919e-10	6.259493e+00	4.070958e+01
2.320000e-06	8.280490e-07	5.826406e-10	5.901086e+00	3.894226e+01
2.330000e-06	7.773891e-07	5.720300e-10	5.540058e+00	3.714535e+01
2.340000e-06	7.264196e-07	5.644580e-10	5.176824e+00	3.532647e+01
2.350000e-06	6.752092e-07	5.274531e-10	4.811873e+00	3.349342e+01
2.360000e-06	6.237759e-07	4.679053e-10	4.445335e+00	3.165327e+01
2.370000e-06	5.721331e-07	4.370319e-10	4.077303e+00	2.981165e+01
2.380000e-06	5.202804e-07	4.464775e-10	3.707775e+00	2.797226e+01
2.390000e-06	4.682262e-07	4.360685e-10	3.336811e+00	2.613672e+01
2.400000e-06	4.160782e-07	3.735462e-10	2.965178e+00	2.430464e+01
2.410000e-06	3.638449e-07	3.091149e-10	2.592938e+00	2.247401e+01
2.420000e-06	3.115125e-07	3.004753e-10	2.219992e+00	2.064173e+01
2.430000e-06	2.591144e-07	3.224425e-10	1.846577e+00	1.880418e+01
2.440000e-06	2.065750e-07	2.959111e-10	1.472155e+00	1.695789e+01
2.450000e-06	1.538707e-07	2.147204e-10	1.096559e+00	1.509995e+01
2.460000e-06	1.011175e-07	1.581404e-10	7.206132e-01	1.322836e+01
2.470000e-06	4.832703e-08	1.726195e-10	3.444022e-01	1.134213e+01
2.480000e-06	-4.525736e-09	1.962639e-10	-3.225263e-02	9.441236e+00
2.490000e-06	-5.736496e-08	1.454262e-10	-4.088110e-01	7.526358e+00
2.500000e-06	-1.101781e-07	4.830824e-11	-7.851836e-01	5.598586e+00
2.510000e-06	-1.629642e-07	6.093818e-12	-1.161363e+00	3.659075e+00
2.520000e-06	-2.156827e-07	3.981291e-11	-1.537061e+00	1.708756e+00
2.530000e-06	-2.683135e-07	5.281074e-11	-1.912134e+00	-2.518529e-01
2.540000e-06	-3.208997e-07	-2.338360e-11	-2.286890e+00	-2.222691e+00
2.550000e-06	-3.733608e-07	-1.202837e-10	-2.660753e+00	-4.204069e+00
2.560000e-06	-4.256517e-07	-1.365331e-10	-3.033404e+00	-6.196463e+00
2.570000e-06	-4.778102e-07	-9.427690e-11	-3.405111e+00	-8.200236e+00
2.580000e-06	-5.298383e-07	-1.040151e-10	-3.775889e+00	-1.021535e+01
2.590000e-06	-5.817209e-07	-1.962388e-10	-4.145630e+00	-1.224110e+01
2.600000e-06	-6.333166e-07	-2.788557e-10	-4.513327e+00	-1.427601e+01
2.610000e-06	-6.846243e-07	-2.756734e-10	-4.878971e+00	-1.631778e+01
2.620000e-06	-7.356023e-07	-2.412553e-10	-5.242265e+00	-1.836339e+01
2.630000e-06	-7.862341e-07	-2.742125e-10	-5.603092e+00	-2.040940e+01
2.640000e-06	-8.366410e-07	-3.695547e-10	-5.962316e+00	-2.245219e+01
2.650000e-06	-8.867654e-07	-4.306613e-10	-6.319527e+00	-2.448836e+01
2.660000e-06	-9.364783e-07	-4.154185e-10	-6.673806e+00	-2.651498e+01
2.670000e-06	-9.856806e-07	-3.944809e-10	-7.024446e+00	-2.852983e+01
2.680000e-06	-1.034358e-06	-4.425224e-10	-7.371342e+00	-3.053150e+01
2.690000e-06	-1.082456e-06	-5.312473e-10	-7.714118e+00	-3.251926e+01
2.700000e-06	-1.129908e-06	-5.768366e-10	-8.052279e+00	-3.449293e+01
2.710000e-06	-1.176922e-06	-5.626440e-10	-8.387326e+00	-3.645253e+01
2.720000e-06	-1.223645e-06	-5.569142e-10	-8.720298e+00	-3.839799e+01
2.730000e-06	-1.270032e-06	-6.106467e-10	-9.050876e+00	-4.032879e+01
2.740000e-06	-1.316107e-06	-6.859111e-10	-9.379226e+00	-4.224379e+01
2.750000e-06	-1.361779e-06	-7.170893e-10	-9.704707e+00	-4.414108e+01
2.760000e-06	-1.406910e-06	-7.035460e-10	-1.002633e+01	-4.601805e+01
2.770000e-06	-1.451553e-06	-7.062028e-10	-1.034448e+01	-4.787167e+01
2.780000e-06	-1.495827e-06	-7.601551e-10	-1.066000e+01	-4.969878e+01
2.790000e-06	-1.539777e-06	-8.275142e-10	-1.097321e+01	-5.149653e+01
2.800000e-06	-1.583342e-06	-8.532574e-10	-1.128368e+01	-5.326283e+01
2.810000e-06	-1.626359e-06	-8.430073e-10	-1.159024e+01	-5.499667e+01
2.820000e-06	-1.668814e-06	-8.522474e-10	-1.189279e+01	-5.669830e+01
2.830000e-06	-1.710755e-06	-9.046177e-10	-1.219169e+01	-5.836929e+01
2.840000e-06	-1.752028e-06	-9.600126e-10	-1.248582e+01	-6.001228e+01
2.850000e-06	-1.792624e-06	-9.751221e-10	-1.277512e+01	-6.163059e+01
2.860000e-06	-1.832783e-06	-9.651133e-10	-1.306132e+01	-6.322766e+01
2.870000e-06	-1.872480e-06	-9.794447e-10	-1.334422e+01	-6.480647e+01
2.880000e-06	-1.911400e-06	-1.030297e-09	-1.362158e+01	-6.636888e+01
2.890000e-06	-1.949306e-06	-1.078653e-09	-1.389172e+01	-6.791520e+01
2.900000e-06	-1.986260e-06	-1.090406e-09	-1.415507e+01	-6.944386e+01
2.910000e-06	-2.022574e-06	-1.084620e-09	-1.441386e+01	-7.095140e+01
2.920000e-06	-2.058315e-06	-1.103877e-09	-1.466856e+01	-7.243267e+01
2.930000e-06	-2.093348e-06	-1.151277e-09	-1.491823e+01	-7.388135e+01
2.940000e-06	-2.127708e-06	-1.187141e-09	-1.516310e+01	-7.529057e+01
