# Temperatura_=_20.0
# Concentracion g/m^3_=_9000.0
# C_Vs_to_Am_M_A/Vsm_=_65563218390.804596
# pendiente_HvsI_1/m_=_3716.3
# ordenada_HvsI_A/m_=_1297.0
# frecuencia_Hz_=_213043.82780086595

Tiempo_(s)	Campo_(V.s)	Magnetizacion_(V.s)	Campo_(kA/m)	Magnetizacion_(A/m)
0.000000e+00	-2.630893e-06	-2.854234e-09	-1.982618e+01	-1.872343e+02
1.000000e-08	-2.630949e-06	-2.855055e-09	-1.982661e+01	-1.873054e+02
2.000000e-08	-2.630605e-06	-2.854766e-09	-1.982401e+01	-1.873529e+02
3.000000e-08	-2.629715e-06	-2.853207e-09	-1.981730e+01	-1.873767e+02
4.000000e-08	-2.628103e-06	-2.843007e-09	-1.980516e+01	-1.873767e+02
5.000000e-08	-2.625868e-06	-2.830390e-09	-1.978831e+01	-1.873537e+02
6.000000e-08	-2.623088e-06	-2.848296e-09	-1.976736e+01	-1.873086e+02
7.000000e-08	-2.619762e-06	-2.903900e-09	-1.974230e+01	-1.872430e+02
8.000000e-08	-2.616053e-06	-2.915971e-09	-1.971435e+01	-1.871589e+02
9.000000e-08	-2.611941e-06	-2.814036e-09	-1.968337e+01	-1.870586e+02
1.000000e-07	-2.607463e-06	-2.778383e-09	-1.964962e+01	-1.869445e+02
1.100000e-07	-2.602619e-06	-2.854249e-09	-1.961311e+01	-1.868191e+02
1.200000e-07	-2.597298e-06	-2.918178e-09	-1.957301e+01	-1.866847e+02
1.300000e-07	-2.591543e-06	-2.857601e-09	-1.952964e+01	-1.865433e+02
1.400000e-07	-2.585335e-06	-2.782044e-09	-1.948286e+01	-1.863965e+02
1.500000e-07	-2.578535e-06	-2.780664e-09	-1.943162e+01	-1.862454e+02
1.600000e-07	-2.571277e-06	-2.839519e-09	-1.937692e+01	-1.860903e+02
1.700000e-07	-2.563773e-06	-2.904884e-09	-1.932037e+01	-1.859308e+02
1.800000e-07	-2.555971e-06	-2.840097e-09	-1.926158e+01	-1.857660e+02
1.900000e-07	-2.547697e-06	-2.736339e-09	-1.919922e+01	-1.855940e+02
2.000000e-07	-2.538960e-06	-2.771185e-09	-1.913339e+01	-1.854126e+02
2.100000e-07	-2.529849e-06	-2.935972e-09	-1.906472e+01	-1.852188e+02
2.200000e-07	-2.520063e-06	-2.907709e-09	-1.899098e+01	-1.850095e+02
2.300000e-07	-2.509399e-06	-2.736154e-09	-1.891062e+01	-1.847815e+02
2.400000e-07	-2.498106e-06	-2.756492e-09	-1.882551e+01	-1.845313e+02
2.500000e-07	-2.486386e-06	-2.927793e-09	-1.873719e+01	-1.842560e+02
2.600000e-07	-2.474204e-06	-2.898014e-09	-1.864539e+01	-1.839529e+02
2.700000e-07	-2.461490e-06	-2.743506e-09	-1.854957e+01	-1.836197e+02
2.800000e-07	-2.448333e-06	-2.765489e-09	-1.845043e+01	-1.832550e+02
2.900000e-07	-2.434773e-06	-2.838036e-09	-1.834824e+01	-1.828581e+02
3.000000e-07	-2.420704e-06	-2.807178e-09	-1.824221e+01	-1.824288e+02
3.100000e-07	-2.406123e-06	-2.778323e-09	-1.813234e+01	-1.819680e+02
3.200000e-07	-2.390864e-06	-2.779784e-09	-1.801734e+01	-1.814770e+02
3.300000e-07	-2.374948e-06	-2.727509e-09	-1.789740e+01	-1.809577e+02
3.400000e-07	-2.358560e-06	-2.736583e-09	-1.777390e+01	-1.804126e+02
3.500000e-07	-2.341819e-06	-2.810596e-09	-1.764775e+01	-1.798442e+02
3.600000e-07	-2.324755e-06	-2.756761e-09	-1.751915e+01	-1.792554e+02
3.700000e-07	-2.307307e-06	-2.651763e-09	-1.738767e+01	-1.786486e+02
3.800000e-07	-2.289561e-06	-2.708925e-09	-1.725393e+01	-1.780265e+02
3.900000e-07	-2.271461e-06	-2.793397e-09	-1.711753e+01	-1.773908e+02
4.000000e-07	-2.252877e-06	-2.706006e-09	-1.697749e+01	-1.767431e+02
4.100000e-07	-2.233842e-06	-2.614552e-09	-1.683404e+01	-1.760843e+02
4.200000e-07	-2.214477e-06	-2.676126e-09	-1.668811e+01	-1.754147e+02
4.300000e-07	-2.194861e-06	-2.725121e-09	-1.654029e+01	-1.747339e+02
4.400000e-07	-2.175041e-06	-2.646864e-09	-1.639092e+01	-1.740411e+02
4.500000e-07	-2.154909e-06	-2.592895e-09	-1.623921e+01	-1.733349e+02
4.600000e-07	-2.134423e-06	-2.635508e-09	-1.608483e+01	-1.726137e+02
4.700000e-07	-2.113587e-06	-2.642807e-09	-1.592781e+01	-1.718756e+02
4.800000e-07	-2.092336e-06	-2.588103e-09	-1.576767e+01	-1.711186e+02
4.900000e-07	-2.070751e-06	-2.572762e-09	-1.560500e+01	-1.703409e+02
5.000000e-07	-2.048836e-06	-2.578596e-09	-1.543985e+01	-1.695407e+02
5.100000e-07	-2.026496e-06	-2.552233e-09	-1.527150e+01	-1.687168e+02
5.200000e-07	-2.003802e-06	-2.545343e-09	-1.510048e+01	-1.678683e+02
5.300000e-07	-1.980852e-06	-2.551943e-09	-1.492753e+01	-1.669945e+02
5.400000e-07	-1.957572e-06	-2.508350e-09	-1.475209e+01	-1.660954e+02
5.500000e-07	-1.933996e-06	-2.473263e-09	-1.457443e+01	-1.651713e+02
5.600000e-07	-1.910220e-06	-2.500255e-09	-1.439526e+01	-1.642229e+02
5.700000e-07	-1.886167e-06	-2.499275e-09	-1.421399e+01	-1.632510e+02
5.800000e-07	-1.861800e-06	-2.439146e-09	-1.403036e+01	-1.622567e+02
5.900000e-07	-1.837012e-06	-2.415287e-09	-1.384357e+01	-1.612410e+02
6.000000e-07	-1.811762e-06	-2.440755e-09	-1.365328e+01	-1.602047e+02
6.100000e-07	-1.785988e-06	-2.428716e-09	-1.345905e+01	-1.591484e+02
6.200000e-07	-1.759624e-06	-2.374163e-09	-1.326037e+01	-1.580724e+02
6.300000e-07	-1.732764e-06	-2.351151e-09	-1.305796e+01	-1.569766e+02
6.400000e-07	-1.705490e-06	-2.361406e-09	-1.285243e+01	-1.558604e+02
6.500000e-07	-1.677973e-06	-2.344627e-09	-1.264506e+01	-1.547227e+02
6.600000e-07	-1.650324e-06	-2.305079e-09	-1.243670e+01	-1.535621e+02
6.700000e-07	-1.622537e-06	-2.287943e-09	-1.222730e+01	-1.523767e+02
6.800000e-07	-1.594573e-06	-2.279651e-09	-1.201656e+01	-1.511644e+02
6.900000e-07	-1.566376e-06	-2.257881e-09	-1.180408e+01	-1.499230e+02
7.000000e-07	-1.537914e-06	-2.241914e-09	-1.158959e+01	-1.486503e+02
7.100000e-07	-1.509174e-06	-2.225264e-09	-1.137300e+01	-1.473442e+02
7.200000e-07	-1.480100e-06	-2.192495e-09	-1.115391e+01	-1.460028e+02
7.300000e-07	-1.450728e-06	-2.170892e-09	-1.093256e+01	-1.446248e+02
7.400000e-07	-1.421192e-06	-2.165086e-09	-1.070998e+01	-1.432090e+02
7.500000e-07	-1.391490e-06	-2.137429e-09	-1.048615e+01	-1.417551e+02
7.600000e-07	-1.361560e-06	-2.094202e-09	-1.026060e+01	-1.402630e+02
7.700000e-07	-1.331360e-06	-2.078139e-09	-1.003301e+01	-1.387333e+02
7.800000e-07	-1.300885e-06	-2.073896e-09	-9.803354e+00	-1.371672e+02
7.900000e-07	-1.270195e-06	-2.041968e-09	-9.572083e+00	-1.355658e+02
8.000000e-07	-1.239335e-06	-2.001527e-09	-9.339524e+00	-1.339309e+02
8.100000e-07	-1.208296e-06	-1.981277e-09	-9.105615e+00	-1.322643e+02
8.200000e-07	-1.177091e-06	-1.964633e-09	-8.870459e+00	-1.305676e+02
8.300000e-07	-1.145672e-06	-1.931099e-09	-8.633687e+00	-1.288424e+02
8.400000e-07	-1.114077e-06	-1.894921e-09	-8.395587e+00	-1.270898e+02
8.500000e-07	-1.082408e-06	-1.870556e-09	-8.156932e+00	-1.253105e+02
8.600000e-07	-1.050656e-06	-1.847376e-09	-7.917652e+00	-1.235049e+02
8.700000e-07	-1.018767e-06	-1.818611e-09	-7.677337e+00	-1.216723e+02
8.800000e-07	-9.867351e-07	-1.790322e-09	-7.435951e+00	-1.198118e+02
8.900000e-07	-9.545966e-07	-1.761123e-09	-7.193757e+00	-1.179215e+02
9.000000e-07	-9.222417e-07	-1.728735e-09	-6.949934e+00	-1.159993e+02
9.100000e-07	-8.895769e-07	-1.699616e-09	-6.703775e+00	-1.140423e+02
9.200000e-07	-8.567157e-07	-1.670124e-09	-6.456136e+00	-1.120472e+02
9.300000e-07	-8.237184e-07	-1.631357e-09	-6.207471e+00	-1.100105e+02
9.400000e-07	-7.905429e-07	-1.592235e-09	-5.957463e+00	-1.079286e+02
9.500000e-07	-7.571425e-07	-1.564164e-09	-5.705760e+00	-1.057979e+02
9.600000e-07	-7.234441e-07	-1.536244e-09	-5.451812e+00	-1.036147e+02
9.700000e-07	-6.895340e-07	-1.499286e-09	-5.196269e+00	-1.013759e+02
9.800000e-07	-6.554340e-07	-1.462552e-09	-4.939294e+00	-9.907834e+01
9.900000e-07	-6.210974e-07	-1.433134e-09	-4.680536e+00	-9.671956e+01
1.000000e-06	-5.865891e-07	-1.401563e-09	-4.420485e+00	-9.429743e+01
1.010000e-06	-5.519105e-07	-1.362029e-09	-4.159150e+00	-9.181030e+01
1.020000e-06	-5.171339e-07	-1.322086e-09	-3.897077e+00	-8.925697e+01
1.030000e-06	-4.822422e-07	-1.282895e-09	-3.634136e+00	-8.663662e+01
1.040000e-06	-4.470867e-07	-1.240900e-09	-3.369207e+00	-8.394882e+01
1.050000e-06	-4.117506e-07	-1.198480e-09	-3.102917e+00	-8.119340e+01
1.060000e-06	-3.763708e-07	-1.157085e-09	-2.836298e+00	-7.837038e+01
1.070000e-06	-3.410035e-07	-1.111289e-09	-2.569773e+00	-7.547994e+01
1.080000e-06	-3.055903e-07	-1.064849e-09	-2.302902e+00	-7.252232e+01
1.090000e-06	-2.701263e-07	-1.022929e-09	-2.035648e+00	-6.949777e+01
1.100000e-06	-2.346685e-07	-9.781179e-10	-1.768442e+00	-6.640656e+01
1.110000e-06	-1.991497e-07	-9.292705e-10	-1.500775e+00	-6.324891e+01
1.120000e-06	-1.635763e-07	-8.822430e-10	-1.232697e+00	-6.002507e+01
1.130000e-06	-1.279887e-07	-8.354652e-10	-9.645116e-01	-5.673531e+01
1.140000e-06	-9.239330e-08	-7.856389e-10	-6.962679e-01	-5.338000e+01
1.150000e-06	-5.677629e-08	-7.344065e-10	-4.278612e-01	-4.995968e+01
1.160000e-06	-2.113904e-08	-6.827662e-10	-1.593020e-01	-4.647514e+01
1.170000e-06	1.450001e-08	-6.296296e-10	1.092708e-01	-4.292752e+01
1.180000e-06	5.010192e-08	-5.747420e-10	3.775638e-01	-3.931838e+01
1.190000e-06	8.568850e-08	-5.200044e-10	6.457412e-01	-3.564977e+01
1.200000e-06	1.212884e-07	-4.669362e-10	9.140189e-01	-3.192434e+01
1.210000e-06	1.568237e-07	-4.140891e-10	1.181810e+00	-2.814531e+01
1.220000e-06	1.923269e-07	-3.584805e-10	1.449359e+00	-2.431657e+01
1.230000e-06	2.278549e-07	-3.019203e-10	1.717095e+00	-2.044262e+01
1.240000e-06	2.633862e-07	-2.474745e-10	1.984856e+00	-1.652858e+01
1.250000e-06	2.988513e-07	-1.911055e-10	2.252118e+00	-1.258012e+01
1.260000e-06	3.342181e-07	-1.295164e-10	2.518639e+00	-8.603388e+00
1.270000e-06	3.695428e-07	-6.886867e-11	2.784842e+00	-4.604940e+00
1.280000e-06	4.048175e-07	-1.078099e-11	3.050670e+00	-5.916139e-01
1.290000e-06	4.400069e-07	4.844814e-11	3.315854e+00	3.429573e+00
1.300000e-06	4.750483e-07	1.069472e-10	3.579923e+00	7.451540e+00
1.310000e-06	5.099515e-07	1.653819e-10	3.842951e+00	1.146726e+01
1.320000e-06	5.448070e-07	2.252789e-10	4.105619e+00	1.546987e+01
1.330000e-06	5.796063e-07	2.848011e-10	4.367863e+00	1.945277e+01
1.340000e-06	6.142590e-07	3.423981e-10	4.629003e+00	2.340971e+01
1.350000e-06	6.486326e-07	4.019997e-10	4.888039e+00	2.733489e+01
1.360000e-06	6.827933e-07	4.628749e-10	5.145471e+00	3.122297e+01
1.370000e-06	7.167780e-07	5.205007e-10	5.401577e+00	3.506917e+01
1.380000e-06	7.505226e-07	5.766330e-10	5.655873e+00	3.886927e+01
1.390000e-06	7.840342e-07	6.336335e-10	5.908414e+00	4.261963e+01
1.400000e-06	8.173108e-07	6.897461e-10	6.159184e+00	4.631720e+01
1.410000e-06	8.503843e-07	7.435738e-10	6.408422e+00	4.995953e+01
1.420000e-06	8.831774e-07	7.967185e-10	6.655548e+00	5.354471e+01
1.430000e-06	9.156560e-07	8.485119e-10	6.900305e+00	5.707140e+01
1.440000e-06	9.479355e-07	8.991085e-10	7.143560e+00	6.053876e+01
1.450000e-06	9.800757e-07	9.496497e-10	7.385766e+00	6.394642e+01
1.460000e-06	1.012037e-06	9.998713e-10	7.626622e+00	6.729447e+01
1.470000e-06	1.043918e-06	1.048741e-09	7.866880e+00	7.058336e+01
1.480000e-06	1.075749e-06	1.095695e-09	8.106749e+00	7.381387e+01
1.490000e-06	1.107473e-06	1.142817e-09	8.345820e+00	7.698705e+01
1.500000e-06	1.139121e-06	1.190574e-09	8.584316e+00	8.010417e+01
1.510000e-06	1.170643e-06	1.237233e-09	8.821864e+00	8.316661e+01
1.520000e-06	1.202040e-06	1.282782e-09	9.058469e+00	8.617583e+01
1.530000e-06	1.233252e-06	1.327183e-09	9.293683e+00	8.913327e+01
1.540000e-06	1.264155e-06	1.371085e-09	9.526567e+00	9.204027e+01
1.550000e-06	1.294714e-06	1.414526e-09	9.756856e+00	9.489805e+01
1.560000e-06	1.325026e-06	1.456832e-09	9.985282e+00	9.770757e+01
1.570000e-06	1.355193e-06	1.498438e-09	1.021262e+01	1.004695e+02
1.580000e-06	1.385158e-06	1.538693e-09	1.043843e+01	1.031844e+02
1.590000e-06	1.414897e-06	1.577882e-09	1.066254e+01	1.058521e+02
1.600000e-06	1.444435e-06	1.617700e-09	1.088514e+01	1.084725e+02
1.610000e-06	1.473786e-06	1.657163e-09	1.110633e+01	1.110450e+02
1.620000e-06	1.502877e-06	1.694003e-09	1.132555e+01	1.135685e+02
1.630000e-06	1.531644e-06	1.729695e-09	1.154234e+01	1.160419e+02
1.640000e-06	1.560151e-06	1.766554e-09	1.175716e+01	1.184640e+02
1.650000e-06	1.588414e-06	1.803151e-09	1.197015e+01	1.208331e+02
1.660000e-06	1.616453e-06	1.836968e-09	1.218145e+01	1.231479e+02
1.670000e-06	1.644325e-06	1.870190e-09	1.239149e+01	1.254069e+02
1.680000e-06	1.672024e-06	1.904046e-09	1.260023e+01	1.276088e+02
1.690000e-06	1.699556e-06	1.937090e-09	1.280771e+01	1.297527e+02
1.700000e-06	1.726887e-06	1.969583e-09	1.301367e+01	1.318378e+02
1.710000e-06	1.753817e-06	2.001074e-09	1.321661e+01	1.338640e+02
1.720000e-06	1.780259e-06	2.031700e-09	1.341588e+01	1.358312e+02
1.730000e-06	1.806213e-06	2.061557e-09	1.361146e+01	1.377400e+02
1.740000e-06	1.831596e-06	2.090569e-09	1.380275e+01	1.395914e+02
1.750000e-06	1.856397e-06	2.118630e-09	1.398965e+01	1.413868e+02
1.760000e-06	1.880715e-06	2.144800e-09	1.417291e+01	1.431278e+02
1.770000e-06	1.904724e-06	2.169736e-09	1.435383e+01	1.448164e+02
1.780000e-06	1.928527e-06	2.194797e-09	1.453321e+01	1.464546e+02
1.790000e-06	1.952121e-06	2.219120e-09	1.471102e+01	1.480448e+02
1.800000e-06	1.975463e-06	2.242236e-09	1.488692e+01	1.495891e+02
1.810000e-06	1.998466e-06	2.263949e-09	1.506027e+01	1.510895e+02
1.820000e-06	2.021145e-06	2.284622e-09	1.523118e+01	1.525481e+02
1.830000e-06	2.043451e-06	2.306402e-09	1.539927e+01	1.539665e+02
1.840000e-06	2.065373e-06	2.330095e-09	1.556448e+01	1.553461e+02
1.850000e-06	2.086995e-06	2.351753e-09	1.572742e+01	1.566880e+02
1.860000e-06	2.108294e-06	2.370688e-09	1.588792e+01	1.579931e+02
1.870000e-06	2.129209e-06	2.390822e-09	1.604554e+01	1.592618e+02
1.880000e-06	2.149722e-06	2.411432e-09	1.620012e+01	1.604945e+02
1.890000e-06	2.169910e-06	2.429877e-09	1.635225e+01	1.616914e+02
1.900000e-06	2.189838e-06	2.446793e-09	1.650243e+01	1.628525e+02
1.910000e-06	2.209549e-06	2.463324e-09	1.665097e+01	1.639780e+02
1.920000e-06	2.229030e-06	2.480408e-09	1.679778e+01	1.650680e+02
1.930000e-06	2.248164e-06	2.499299e-09	1.694197e+01	1.661227e+02
1.940000e-06	2.266810e-06	2.517079e-09	1.708248e+01	1.671426e+02
1.950000e-06	2.284962e-06	2.531432e-09	1.721928e+01	1.681284e+02
1.960000e-06	2.302698e-06	2.546234e-09	1.735293e+01	1.690811e+02
1.970000e-06	2.320030e-06	2.563448e-09	1.748355e+01	1.700018e+02
1.980000e-06	2.336960e-06	2.578927e-09	1.761113e+01	1.708917e+02
1.990000e-06	2.353573e-06	2.591653e-09	1.773632e+01	1.717525e+02
2.000000e-06	2.369866e-06	2.605908e-09	1.785910e+01	1.725857e+02
2.010000e-06	2.385652e-06	2.620022e-09	1.797806e+01	1.733929e+02
2.020000e-06	2.400817e-06	2.632807e-09	1.809235e+01	1.741755e+02
2.030000e-06	2.415467e-06	2.645560e-09	1.820275e+01	1.749350e+02
2.040000e-06	2.429715e-06	2.656991e-09	1.831012e+01	1.756724e+02
2.050000e-06	2.443532e-06	2.667729e-09	1.841425e+01	1.763886e+02
2.060000e-06	2.456890e-06	2.679061e-09	1.851491e+01	1.770842e+02
2.070000e-06	2.469753e-06	2.690671e-09	1.861185e+01	1.777593e+02
2.080000e-06	2.482190e-06	2.700946e-09	1.870557e+01	1.784138e+02
2.090000e-06	2.494274e-06	2.710810e-09	1.879663e+01	1.790473e+02
2.100000e-06	2.505920e-06	2.720140e-09	1.888440e+01	1.796592e+02
2.110000e-06	2.517098e-06	2.730053e-09	1.896863e+01	1.802488e+02
2.120000e-06	2.527669e-06	2.739644e-09	1.904829e+01	1.808152e+02
2.130000e-06	2.537556e-06	2.747859e-09	1.912280e+01	1.813574e+02
2.140000e-06	2.546803e-06	2.758657e-09	1.919249e+01	1.818750e+02
2.150000e-06	2.555408e-06	2.770637e-09	1.925733e+01	1.823672e+02
2.160000e-06	2.563543e-06	2.778836e-09	1.931864e+01	1.828339e+02
2.170000e-06	2.571387e-06	2.786152e-09	1.937775e+01	1.832750e+02
2.180000e-06	2.578902e-06	2.795174e-09	1.943438e+01	1.836909e+02
2.190000e-06	2.585987e-06	2.802491e-09	1.948778e+01	1.840822e+02
2.200000e-06	2.592635e-06	2.809247e-09	1.953787e+01	1.844498e+02
2.210000e-06	2.598842e-06	2.816350e-09	1.958465e+01	1.847948e+02
2.220000e-06	2.604568e-06	2.823624e-09	1.962780e+01	1.851185e+02
2.230000e-06	2.609760e-06	2.829642e-09	1.966693e+01	1.854222e+02
2.240000e-06	2.614486e-06	2.834103e-09	1.970254e+01	1.857072e+02
2.250000e-06	2.618812e-06	2.837843e-09	1.973514e+01	1.859745e+02
2.260000e-06	2.622778e-06	2.841454e-09	1.976503e+01	1.862251e+02
2.270000e-06	2.626461e-06	2.845958e-09	1.979278e+01	1.864595e+02
2.280000e-06	2.629841e-06	2.850058e-09	1.981826e+01	1.866778e+02
2.290000e-06	2.632779e-06	2.854278e-09	1.984040e+01	1.868801e+02
2.300000e-06	2.635084e-06	2.859961e-09	1.985777e+01	1.870658e+02
2.310000e-06	2.636627e-06	2.865697e-09	1.986939e+01	1.872341e+02
2.320000e-06	2.637492e-06	2.869638e-09	1.987591e+01	1.873839e+02
2.330000e-06	2.637835e-06	2.871914e-09	1.987850e+01	1.875140e+02
2.340000e-06	2.637782e-06	2.874962e-09	1.987810e+01	1.876233e+02
2.350000e-06	2.637458e-06	2.878126e-09	1.987565e+01	1.877106e+02
2.360000e-06	2.636807e-06	2.878682e-09	1.987075e+01	1.877748e+02
2.370000e-06	2.635728e-06	2.879127e-09	1.986262e+01	1.878155e+02
2.380000e-06	2.634158e-06	2.886476e-09	1.985078e+01	1.878324e+02
2.390000e-06	2.632187e-06	2.899082e-09	1.983594e+01	1.878256e+02
2.400000e-06	2.629837e-06	2.885914e-09	1.981823e+01	1.877960e+02
2.410000e-06	2.627012e-06	2.836140e-09	1.979694e+01	1.877448e+02
2.420000e-06	2.623713e-06	2.811862e-09	1.977208e+01	1.876737e+02
2.430000e-06	2.619968e-06	2.896908e-09	1.974385e+01	1.875847e+02
2.440000e-06	2.615894e-06	2.928719e-09	1.971315e+01	1.874802e+02
2.450000e-06	2.611607e-06	2.866176e-09	1.968085e+01	1.873627e+02
2.460000e-06	2.606920e-06	2.815598e-09	1.964553e+01	1.872346e+02
2.470000e-06	2.601452e-06	2.846880e-09	1.960432e+01	1.870981e+02
2.480000e-06	2.595299e-06	2.900441e-09	1.955795e+01	1.869552e+02
2.490000e-06	2.588759e-06	2.915407e-09	1.950867e+01	1.868072e+02
2.500000e-06	2.581699e-06	2.871862e-09	1.945546e+01	1.866551e+02
2.510000e-06	2.574020e-06	2.797335e-09	1.939759e+01	1.864990e+02
2.520000e-06	2.565966e-06	2.837914e-09	1.933690e+01	1.863383e+02
2.530000e-06	2.557637e-06	2.934636e-09	1.927413e+01	1.861718e+02
2.540000e-06	2.548833e-06	2.893451e-09	1.920779e+01	1.859974e+02
2.550000e-06	2.539432e-06	2.741729e-09	1.913694e+01	1.858128e+02
2.560000e-06	2.529669e-06	2.783344e-09	1.906337e+01	1.856150e+02
2.570000e-06	2.519636e-06	2.933181e-09	1.898776e+01	1.854006e+02
2.580000e-06	2.509057e-06	2.874719e-09	1.890804e+01	1.851665e+02
2.590000e-06	2.497971e-06	2.720588e-09	1.882449e+01	1.849094e+02
2.600000e-06	2.486556e-06	2.789362e-09	1.873847e+01	1.846262e+02
2.610000e-06	2.474661e-06	2.901433e-09	1.864883e+01	1.843145e+02
2.620000e-06	2.462203e-06	2.809094e-09	1.855495e+01	1.839722e+02
2.630000e-06	2.449275e-06	2.748074e-09	1.845753e+01	1.835981e+02
2.640000e-06	2.435810e-06	2.827296e-09	1.835606e+01	1.831917e+02
2.650000e-06	2.421540e-06	2.809117e-09	1.824852e+01	1.827531e+02
2.660000e-06	2.406499e-06	2.737357e-09	1.813517e+01	1.822832e+02
2.670000e-06	2.390959e-06	2.802176e-09	1.801806e+01	1.817837e+02
2.680000e-06	2.375032e-06	2.813631e-09	1.789804e+01	1.812566e+02
2.690000e-06	2.358842e-06	2.698485e-09	1.777603e+01	1.807045e+02
2.700000e-06	2.342449e-06	2.727548e-09	1.765250e+01	1.801299e+02
2.710000e-06	2.325715e-06	2.830429e-09	1.752639e+01	1.795356e+02
2.720000e-06	2.308475e-06	2.743967e-09	1.739647e+01	1.789243e+02
2.730000e-06	2.290764e-06	2.648621e-09	1.726300e+01	1.782981e+02
2.740000e-06	2.272734e-06	2.733281e-09	1.712713e+01	1.776589e+02
2.750000e-06	2.254392e-06	2.770730e-09	1.698890e+01	1.770080e+02
2.760000e-06	2.235572e-06	2.670412e-09	1.684708e+01	1.763462e+02
2.770000e-06	2.216273e-06	2.639973e-09	1.670164e+01	1.756735e+02
2.780000e-06	2.196640e-06	2.702034e-09	1.655369e+01	1.749895e+02
2.790000e-06	2.176814e-06	2.700062e-09	1.640428e+01	1.742930e+02
2.800000e-06	2.156796e-06	2.634184e-09	1.625342e+01	1.735828e+02
2.810000e-06	2.136541e-06	2.626469e-09	1.610079e+01	1.728569e+02
2.820000e-06	2.115981e-06	2.663091e-09	1.594585e+01	1.721135e+02
2.830000e-06	2.094913e-06	2.636629e-09	1.578709e+01	1.713507e+02
2.840000e-06	2.073345e-06	2.588528e-09	1.562455e+01	1.705667e+02
2.850000e-06	2.051245e-06	2.605555e-09	1.545800e+01	1.697597e+02
2.860000e-06	2.028514e-06	2.607786e-09	1.528670e+01	1.689288e+02
2.870000e-06	2.005227e-06	2.558276e-09	1.511122e+01	1.680729e+02
2.880000e-06	1.981545e-06	2.558011e-09	1.493275e+01	1.671917e+02
2.890000e-06	1.957609e-06	2.575961e-09	1.475237e+01	1.662853e+02
2.900000e-06	1.933468e-06	2.528599e-09	1.457045e+01	1.653541e+02
2.910000e-06	1.909109e-06	2.498949e-09	1.438688e+01	1.643987e+02
2.920000e-06	1.884507e-06	2.526164e-09	1.420149e+01	1.634203e+02
2.930000e-06	1.859614e-06	2.515070e-09	1.401389e+01	1.624197e+02
2.940000e-06	1.834350e-06	2.462796e-09	1.382350e+01	1.613979e+02
2.950000e-06	1.808644e-06	2.451802e-09	1.362978e+01	1.603557e+02
