# Temperatura_=_20.0
# Concentracion g/m^3_=_9000.0
# C_Vs_to_Am_M_A/Vsm_=_65563218390.804596
# pendiente_HvsI_1/m_=_3716.3
# ordenada_HvsI_A/m_=_1297.0
# frecuencia_Hz_=_213044.5169435833

Tiempo_(s)	Campo_(V.s)	Magnetizacion_(V.s)	Campo_(kA/m)	Magnetizacion_(A/m)
0.000000e+00	-2.632949e-06	-2.815876e-09	-1.982852e+01	-1.851843e+02
1.000000e-08	-2.632929e-06	-2.817120e-09	-1.982837e+01	-1.852514e+02
2.000000e-08	-2.632511e-06	-2.819170e-09	-1.982522e+01	-1.852918e+02
3.000000e-08	-2.631594e-06	-2.818365e-09	-1.981831e+01	-1.853060e+02
4.000000e-08	-2.629950e-06	-2.800349e-09	-1.980593e+01	-1.852954e+02
5.000000e-08	-2.627590e-06	-2.770764e-09	-1.978816e+01	-1.852619e+02
6.000000e-08	-2.624625e-06	-2.802016e-09	-1.976583e+01	-1.852082e+02
7.000000e-08	-2.621097e-06	-2.922194e-09	-1.973926e+01	-1.851373e+02
8.000000e-08	-2.617222e-06	-2.923611e-09	-1.971008e+01	-1.850528e+02
9.000000e-08	-2.613083e-06	-2.728670e-09	-1.967891e+01	-1.849581e+02
1.000000e-07	-2.608587e-06	-2.673092e-09	-1.964505e+01	-1.848566e+02
1.100000e-07	-2.603605e-06	-2.845887e-09	-1.960753e+01	-1.847516e+02
1.200000e-07	-2.598134e-06	-2.955036e-09	-1.956633e+01	-1.846455e+02
1.300000e-07	-2.592361e-06	-2.841030e-09	-1.952286e+01	-1.845403e+02
1.400000e-07	-2.586191e-06	-2.692165e-09	-1.947639e+01	-1.844369e+02
1.500000e-07	-2.579374e-06	-2.694317e-09	-1.942505e+01	-1.843354e+02
1.600000e-07	-2.572058e-06	-2.825168e-09	-1.936995e+01	-1.842351e+02
1.700000e-07	-2.564487e-06	-2.958165e-09	-1.931293e+01	-1.841340e+02
1.800000e-07	-2.556628e-06	-2.837892e-09	-1.925375e+01	-1.840295e+02
1.900000e-07	-2.548302e-06	-2.600782e-09	-1.919105e+01	-1.839183e+02
2.000000e-07	-2.539545e-06	-2.695009e-09	-1.912510e+01	-1.837964e+02
2.100000e-07	-2.530366e-06	-3.024420e-09	-1.905597e+01	-1.836596e+02
2.200000e-07	-2.520323e-06	-2.981323e-09	-1.898034e+01	-1.835037e+02
2.300000e-07	-2.509295e-06	-2.616644e-09	-1.889729e+01	-1.833245e+02
2.400000e-07	-2.497771e-06	-2.664867e-09	-1.881050e+01	-1.831184e+02
2.500000e-07	-2.485990e-06	-2.989012e-09	-1.872178e+01	-1.828822e+02
2.600000e-07	-2.473736e-06	-2.932284e-09	-1.862950e+01	-1.826136e+02
2.700000e-07	-2.460873e-06	-2.680140e-09	-1.853262e+01	-1.823111e+02
2.800000e-07	-2.447605e-06	-2.712535e-09	-1.843270e+01	-1.819742e+02
2.900000e-07	-2.433967e-06	-2.825577e-09	-1.833000e+01	-1.816033e+02
3.000000e-07	-2.419804e-06	-2.788536e-09	-1.822334e+01	-1.811997e+02
3.100000e-07	-2.405056e-06	-2.806274e-09	-1.811228e+01	-1.807654e+02
3.200000e-07	-2.389652e-06	-2.784426e-09	-1.799627e+01	-1.803029e+02
3.300000e-07	-2.373563e-06	-2.641963e-09	-1.787511e+01	-1.798153e+02
3.400000e-07	-2.357020e-06	-2.695566e-09	-1.775052e+01	-1.793058e+02
3.500000e-07	-2.340206e-06	-2.882982e-09	-1.762390e+01	-1.787774e+02
3.600000e-07	-2.322969e-06	-2.763249e-09	-1.749408e+01	-1.782331e+02
3.700000e-07	-2.305339e-06	-2.541679e-09	-1.736131e+01	-1.776752e+02
3.800000e-07	-2.287455e-06	-2.675640e-09	-1.722663e+01	-1.771056e+02
3.900000e-07	-2.269293e-06	-2.855450e-09	-1.708985e+01	-1.765255e+02
4.000000e-07	-2.250612e-06	-2.700189e-09	-1.694917e+01	-1.759352e+02
4.100000e-07	-2.231316e-06	-2.545391e-09	-1.680386e+01	-1.753344e+02
4.200000e-07	-2.211765e-06	-2.668968e-09	-1.665661e+01	-1.747220e+02
4.300000e-07	-2.192060e-06	-2.748357e-09	-1.650822e+01	-1.740965e+02
4.400000e-07	-2.172117e-06	-2.625075e-09	-1.635803e+01	-1.734557e+02
4.500000e-07	-2.151977e-06	-2.572142e-09	-1.620635e+01	-1.727971e+02
4.600000e-07	-2.131560e-06	-2.638790e-09	-1.605260e+01	-1.721183e+02
4.700000e-07	-2.110651e-06	-2.622366e-09	-1.589513e+01	-1.714168e+02
4.800000e-07	-2.089265e-06	-2.568123e-09	-1.573408e+01	-1.706903e+02
4.900000e-07	-2.067604e-06	-2.590157e-09	-1.557095e+01	-1.699369e+02
5.000000e-07	-2.045663e-06	-2.572285e-09	-1.540572e+01	-1.691553e+02
5.100000e-07	-2.023255e-06	-2.512374e-09	-1.523697e+01	-1.683446e+02
5.200000e-07	-2.000461e-06	-2.547151e-09	-1.506530e+01	-1.675044e+02
5.300000e-07	-1.977392e-06	-2.577506e-09	-1.489157e+01	-1.666351e+02
5.400000e-07	-1.954010e-06	-2.491017e-09	-1.471549e+01	-1.657373e+02
5.500000e-07	-1.930393e-06	-2.445528e-09	-1.453763e+01	-1.648123e+02
5.600000e-07	-1.906579e-06	-2.512373e-09	-1.435829e+01	-1.638614e+02
5.700000e-07	-1.882488e-06	-2.510855e-09	-1.417686e+01	-1.628860e+02
5.800000e-07	-1.857990e-06	-2.416780e-09	-1.399237e+01	-1.618877e+02
5.900000e-07	-1.833005e-06	-2.396649e-09	-1.380421e+01	-1.608678e+02
6.000000e-07	-1.807591e-06	-2.446230e-09	-1.361282e+01	-1.598271e+02
6.100000e-07	-1.781647e-06	-2.430286e-09	-1.341744e+01	-1.587662e+02
6.200000e-07	-1.755059e-06	-2.358860e-09	-1.321720e+01	-1.576853e+02
6.300000e-07	-1.728027e-06	-2.343210e-09	-1.301362e+01	-1.565838e+02
6.400000e-07	-1.700689e-06	-2.368386e-09	-1.280774e+01	-1.554609e+02
6.500000e-07	-1.673124e-06	-2.352103e-09	-1.260015e+01	-1.543151e+02
6.600000e-07	-1.645439e-06	-2.313060e-09	-1.239166e+01	-1.531448e+02
6.700000e-07	-1.617637e-06	-2.294440e-09	-1.218229e+01	-1.519480e+02
6.800000e-07	-1.589632e-06	-2.277963e-09	-1.197138e+01	-1.507226e+02
6.900000e-07	-1.561370e-06	-2.262132e-09	-1.175855e+01	-1.494666e+02
7.000000e-07	-1.532804e-06	-2.259862e-09	-1.154341e+01	-1.481781e+02
7.100000e-07	-1.503930e-06	-2.233767e-09	-1.132597e+01	-1.468556e+02
7.200000e-07	-1.474758e-06	-2.182467e-09	-1.110628e+01	-1.454978e+02
7.300000e-07	-1.445312e-06	-2.172324e-09	-1.088452e+01	-1.441041e+02
7.400000e-07	-1.415657e-06	-2.188069e-09	-1.066119e+01	-1.426743e+02
7.500000e-07	-1.385808e-06	-2.148849e-09	-1.043640e+01	-1.412087e+02
7.600000e-07	-1.355778e-06	-2.084536e-09	-1.021025e+01	-1.397081e+02
7.700000e-07	-1.325553e-06	-2.074251e-09	-9.982629e+00	-1.381735e+02
7.800000e-07	-1.295092e-06	-2.085581e-09	-9.753225e+00	-1.366064e+02
7.900000e-07	-1.264398e-06	-2.050284e-09	-9.522076e+00	-1.350084e+02
8.000000e-07	-1.233523e-06	-1.996927e-09	-9.289561e+00	-1.333810e+02
8.100000e-07	-1.202433e-06	-1.977681e-09	-9.055424e+00	-1.317255e+02
8.200000e-07	-1.171121e-06	-1.970444e-09	-8.819614e+00	-1.300432e+02
8.300000e-07	-1.139642e-06	-1.944033e-09	-8.582548e+00	-1.283347e+02
8.400000e-07	-1.108059e-06	-1.907298e-09	-8.344703e+00	-1.266003e+02
8.500000e-07	-1.076387e-06	-1.873689e-09	-8.106177e+00	-1.248396e+02
8.600000e-07	-1.044601e-06	-1.845852e-09	-7.866799e+00	-1.230517e+02
8.700000e-07	-1.012670e-06	-1.824840e-09	-7.626329e+00	-1.212350e+02
8.800000e-07	-9.805765e-07	-1.800951e-09	-7.384639e+00	-1.193876e+02
8.900000e-07	-9.483653e-07	-1.761023e-09	-7.142059e+00	-1.175069e+02
9.000000e-07	-9.159833e-07	-1.720085e-09	-6.898193e+00	-1.155900e+02
9.100000e-07	-8.833226e-07	-1.698207e-09	-6.652228e+00	-1.136339e+02
9.200000e-07	-8.503925e-07	-1.677204e-09	-6.404235e+00	-1.116351e+02
9.300000e-07	-8.172944e-07	-1.633465e-09	-6.154975e+00	-1.095906e+02
9.400000e-07	-7.840358e-07	-1.585019e-09	-5.904507e+00	-1.074971e+02
9.500000e-07	-7.505042e-07	-1.557835e-09	-5.651984e+00	-1.053518e+02
9.600000e-07	-7.166811e-07	-1.536450e-09	-5.397265e+00	-1.031521e+02
9.700000e-07	-6.825922e-07	-1.497181e-09	-5.140544e+00	-1.008958e+02
9.800000e-07	-6.483745e-07	-1.453560e-09	-4.882854e+00	-9.858101e+01
9.900000e-07	-6.140275e-07	-1.420989e-09	-4.624189e+00	-9.620630e+01
1.000000e-06	-5.793600e-07	-1.390417e-09	-4.363111e+00	-9.377059e+01
1.010000e-06	-5.444372e-07	-1.353910e-09	-4.100111e+00	-9.127311e+01
1.020000e-06	-5.093762e-07	-1.313281e-09	-3.836069e+00	-8.871334e+01
1.030000e-06	-4.742496e-07	-1.270682e-09	-3.571534e+00	-8.609091e+01
1.040000e-06	-4.390497e-07	-1.228635e-09	-3.306446e+00	-8.340557e+01
1.050000e-06	-4.037286e-07	-1.190426e-09	-3.040446e+00	-8.065709e+01
1.060000e-06	-3.683259e-07	-1.149637e-09	-2.773831e+00	-7.784521e+01
1.070000e-06	-3.328876e-07	-1.100938e-09	-2.506948e+00	-7.496959e+01
1.080000e-06	-2.973669e-07	-1.053587e-09	-2.239445e+00	-7.202979e+01
1.090000e-06	-2.617932e-07	-1.012091e-09	-1.971543e+00	-6.902530e+01
1.100000e-06	-2.262367e-07	-9.691467e-10	-1.703770e+00	-6.595554e+01
1.110000e-06	-1.906621e-07	-9.195333e-10	-1.435860e+00	-6.281994e+01
1.120000e-06	-1.550632e-07	-8.693617e-10	-1.167768e+00	-5.961797e+01
1.130000e-06	-1.194506e-07	-8.241343e-10	-8.995724e-01	-5.634929e+01
1.140000e-06	-8.380265e-08	-7.776113e-10	-6.311107e-01	-5.301377e+01
1.150000e-06	-4.814557e-08	-7.260241e-10	-3.625803e-01	-4.961166e+01
1.160000e-06	-1.253114e-08	-6.737320e-10	-9.437098e-02	-4.614363e+01
1.170000e-06	2.306924e-08	-6.227058e-10	1.737325e-01	-4.261091e+01
1.180000e-06	5.867137e-08	-5.693441e-10	4.418491e-01	-3.901529e+01
1.190000e-06	9.425966e-08	-5.148211e-10	7.098615e-01	-3.535923e+01
1.200000e-06	1.298311e-07	-4.622457e-10	9.777470e-01	-3.164588e+01
1.210000e-06	1.653945e-07	-4.080685e-10	1.245572e+00	-2.787904e+01
1.220000e-06	2.009476e-07	-3.518641e-10	1.513319e+00	-2.406319e+01
1.230000e-06	2.364644e-07	-2.968031e-10	1.780793e+00	-2.020341e+01
1.240000e-06	2.719829e-07	-2.419270e-10	2.048280e+00	-1.630535e+01
1.250000e-06	3.074712e-07	-1.834367e-10	2.315540e+00	-1.237511e+01
1.260000e-06	3.429082e-07	-1.246464e-10	2.582413e+00	-8.419188e+00
1.270000e-06	3.782616e-07	-6.726718e-11	2.848656e+00	-4.444336e+00
1.280000e-06	4.135617e-07	-7.873136e-12	3.114498e+00	-4.574908e-01
1.290000e-06	4.488302e-07	5.279220e-11	3.380103e+00	3.534350e+00
1.300000e-06	4.840333e-07	1.113029e-10	3.645214e+00	7.524222e+00
1.310000e-06	5.191362e-07	1.683321e-10	3.909571e+00	1.150529e+01
1.320000e-06	5.540585e-07	2.264766e-10	4.172568e+00	1.547093e+01
1.330000e-06	5.887632e-07	2.845264e-10	4.433926e+00	1.941481e+01
1.340000e-06	6.232569e-07	3.424631e-10	4.693695e+00	2.333095e+01
1.350000e-06	6.575535e-07	3.994591e-10	4.951980e+00	2.721379e+01
1.360000e-06	6.917031e-07	4.575078e-10	5.209158e+00	3.105819e+01
1.370000e-06	7.256622e-07	5.156228e-10	5.464901e+00	3.485955e+01
1.380000e-06	7.593834e-07	5.708844e-10	5.718853e+00	3.861375e+01
1.390000e-06	7.928622e-07	6.252430e-10	5.970979e+00	4.231723e+01
1.400000e-06	8.260825e-07	6.790167e-10	6.221158e+00	4.596700e+01
1.410000e-06	8.591121e-07	7.327718e-10	6.469901e+00	4.956060e+01
1.420000e-06	8.919201e-07	7.853117e-10	6.716975e+00	5.309616e+01
1.430000e-06	9.245179e-07	8.360453e-10	6.962467e+00	5.657237e+01
1.440000e-06	9.569316e-07	8.860396e-10	7.206571e+00	5.998844e+01
1.450000e-06	9.891193e-07	9.364067e-10	7.448974e+00	6.334410e+01
1.460000e-06	1.021121e-06	9.874530e-10	7.689978e+00	6.663954e+01
1.470000e-06	1.053033e-06	1.036533e-09	7.930302e+00	6.987536e+01
1.480000e-06	1.084859e-06	1.083063e-09	8.169980e+00	7.305252e+01
1.490000e-06	1.116576e-06	1.129259e-09	8.408838e+00	7.617226e+01
1.500000e-06	1.148244e-06	1.177108e-09	8.647332e+00	7.923598e+01
1.510000e-06	1.179850e-06	1.224761e-09	8.885354e+00	8.224520e+01
1.520000e-06	1.211262e-06	1.270031e-09	9.121910e+00	8.520145e+01
1.530000e-06	1.242396e-06	1.313662e-09	9.356380e+00	8.810614e+01
1.540000e-06	1.273324e-06	1.357289e-09	9.589296e+00	9.096052e+01
1.550000e-06	1.303970e-06	1.401127e-09	9.820088e+00	9.376559e+01
1.560000e-06	1.334246e-06	1.443466e-09	1.004809e+01	9.652203e+01
1.570000e-06	1.364272e-06	1.483101e-09	1.027422e+01	9.923017e+01
1.580000e-06	1.394106e-06	1.521784e-09	1.049889e+01	1.018900e+02
1.590000e-06	1.423801e-06	1.561133e-09	1.072253e+01	1.045010e+02
1.600000e-06	1.453363e-06	1.599359e-09	1.094515e+01	1.070625e+02
1.610000e-06	1.482688e-06	1.635811e-09	1.116600e+01	1.095735e+02
1.620000e-06	1.511677e-06	1.672399e-09	1.138431e+01	1.120328e+02
1.630000e-06	1.540330e-06	1.709483e-09	1.160010e+01	1.144389e+02
1.640000e-06	1.568720e-06	1.746035e-09	1.181390e+01	1.167907e+02
1.650000e-06	1.596879e-06	1.781131e-09	1.202596e+01	1.190869e+02
1.660000e-06	1.624844e-06	1.816047e-09	1.223657e+01	1.213265e+02
1.670000e-06	1.652671e-06	1.850370e-09	1.244613e+01	1.235087e+02
1.680000e-06	1.680382e-06	1.883201e-09	1.265482e+01	1.256334e+02
1.690000e-06	1.707948e-06	1.914831e-09	1.286242e+01	1.277007e+02
1.700000e-06	1.735257e-06	1.946210e-09	1.306807e+01	1.297112e+02
1.710000e-06	1.762173e-06	1.977255e-09	1.327077e+01	1.316660e+02
1.720000e-06	1.788642e-06	2.006014e-09	1.347011e+01	1.335668e+02
1.730000e-06	1.814552e-06	2.034303e-09	1.366524e+01	1.354154e+02
1.740000e-06	1.839817e-06	2.062402e-09	1.385550e+01	1.372142e+02
1.750000e-06	1.864574e-06	2.089787e-09	1.404195e+01	1.389657e+02
1.760000e-06	1.888961e-06	2.116607e-09	1.422561e+01	1.406725e+02
1.770000e-06	1.913026e-06	2.142911e-09	1.440684e+01	1.423369e+02
1.780000e-06	1.936824e-06	2.168252e-09	1.458606e+01	1.439615e+02
1.790000e-06	1.960417e-06	2.191913e-09	1.476374e+01	1.455484e+02
1.800000e-06	1.983712e-06	2.215332e-09	1.493917e+01	1.470992e+02
1.810000e-06	2.006618e-06	2.237870e-09	1.511167e+01	1.486153e+02
1.820000e-06	2.029166e-06	2.258830e-09	1.528148e+01	1.500976e+02
1.830000e-06	2.051360e-06	2.281257e-09	1.544862e+01	1.515464e+02
1.840000e-06	2.073269e-06	2.305324e-09	1.561361e+01	1.529616e+02
1.850000e-06	2.094870e-06	2.326953e-09	1.577629e+01	1.543430e+02
1.860000e-06	2.116059e-06	2.346095e-09	1.593586e+01	1.556896e+02
1.870000e-06	2.136848e-06	2.367008e-09	1.609242e+01	1.570008e+02
1.880000e-06	2.157229e-06	2.388110e-09	1.624591e+01	1.582753e+02
1.890000e-06	2.177274e-06	2.405829e-09	1.639687e+01	1.595125e+02
1.900000e-06	2.197113e-06	2.422305e-09	1.654627e+01	1.607113e+02
1.910000e-06	2.216773e-06	2.439447e-09	1.669433e+01	1.618715e+02
1.920000e-06	2.236181e-06	2.457511e-09	1.684049e+01	1.629927e+02
1.930000e-06	2.255217e-06	2.475328e-09	1.698385e+01	1.640752e+02
1.940000e-06	2.273813e-06	2.491694e-09	1.712390e+01	1.651195e+02
1.950000e-06	2.291877e-06	2.508381e-09	1.725993e+01	1.661268e+02
1.960000e-06	2.309462e-06	2.525452e-09	1.739236e+01	1.670983e+02
1.970000e-06	2.326691e-06	2.541627e-09	1.752212e+01	1.680356e+02
1.980000e-06	2.343647e-06	2.555873e-09	1.764981e+01	1.689406e+02
1.990000e-06	2.360325e-06	2.569507e-09	1.777541e+01	1.698150e+02
2.000000e-06	2.376552e-06	2.584476e-09	1.789762e+01	1.706609e+02
2.010000e-06	2.392206e-06	2.598310e-09	1.801550e+01	1.714797e+02
2.020000e-06	2.407208e-06	2.610345e-09	1.812848e+01	1.722730e+02
2.030000e-06	2.421632e-06	2.622132e-09	1.823711e+01	1.730420e+02
2.040000e-06	2.435657e-06	2.632975e-09	1.834272e+01	1.737872e+02
2.050000e-06	2.449313e-06	2.643372e-09	1.844557e+01	1.745092e+02
2.060000e-06	2.462578e-06	2.654473e-09	1.854547e+01	1.752079e+02
2.070000e-06	2.475340e-06	2.665140e-09	1.864157e+01	1.758830e+02
2.080000e-06	2.487584e-06	2.674385e-09	1.873379e+01	1.765338e+02
2.090000e-06	2.499490e-06	2.684963e-09	1.882345e+01	1.771597e+02
2.100000e-06	2.511055e-06	2.697248e-09	1.891055e+01	1.777597e+02
2.110000e-06	2.522089e-06	2.707203e-09	1.899364e+01	1.783332e+02
2.120000e-06	2.532395e-06	2.714988e-09	1.907126e+01	1.788796e+02
2.130000e-06	2.542007e-06	2.723163e-09	1.914364e+01	1.793985e+02
2.140000e-06	2.550966e-06	2.732355e-09	1.921111e+01	1.798900e+02
2.150000e-06	2.559324e-06	2.741559e-09	1.927405e+01	1.803544e+02
2.160000e-06	2.567292e-06	2.750326e-09	1.933406e+01	1.807927e+02
2.170000e-06	2.575005e-06	2.759961e-09	1.939215e+01	1.812060e+02
2.180000e-06	2.582373e-06	2.768725e-09	1.944763e+01	1.815959e+02
2.190000e-06	2.589285e-06	2.776000e-09	1.949968e+01	1.819641e+02
2.200000e-06	2.595718e-06	2.783956e-09	1.954814e+01	1.823125e+02
2.210000e-06	2.601740e-06	2.791928e-09	1.959348e+01	1.826430e+02
2.220000e-06	2.607393e-06	2.798212e-09	1.963605e+01	1.829575e+02
2.230000e-06	2.612599e-06	2.802985e-09	1.967526e+01	1.832573e+02
2.240000e-06	2.617298e-06	2.807062e-09	1.971065e+01	1.835436e+02
2.250000e-06	2.621514e-06	2.810171e-09	1.974240e+01	1.838172e+02
2.260000e-06	2.625412e-06	2.814081e-09	1.977176e+01	1.840780e+02
2.270000e-06	2.629085e-06	2.819013e-09	1.979942e+01	1.843256e+02
2.280000e-06	2.632459e-06	2.824415e-09	1.982483e+01	1.845592e+02
2.290000e-06	2.635268e-06	2.831335e-09	1.984598e+01	1.847773e+02
2.300000e-06	2.637361e-06	2.838657e-09	1.986174e+01	1.849781e+02
2.310000e-06	2.638727e-06	2.845516e-09	1.987203e+01	1.851596e+02
2.320000e-06	2.639417e-06	2.849828e-09	1.987723e+01	1.853198e+02
2.330000e-06	2.639586e-06	2.852340e-09	1.987850e+01	1.854568e+02
2.340000e-06	2.639406e-06	2.854412e-09	1.987715e+01	1.855689e+02
2.350000e-06	2.638995e-06	2.855690e-09	1.987405e+01	1.856549e+02
2.360000e-06	2.638248e-06	2.858100e-09	1.986842e+01	1.857142e+02
2.370000e-06	2.637082e-06	2.859266e-09	1.985964e+01	1.857469e+02
2.380000e-06	2.635419e-06	2.873111e-09	1.984712e+01	1.857537e+02
2.390000e-06	2.633274e-06	2.905111e-09	1.983097e+01	1.857362e+02
2.400000e-06	2.630785e-06	2.885988e-09	1.981222e+01	1.856965e+02
2.410000e-06	2.627820e-06	2.774464e-09	1.978989e+01	1.856375e+02
2.420000e-06	2.624312e-06	2.753384e-09	1.976347e+01	1.855624e+02
2.430000e-06	2.620361e-06	2.909851e-09	1.973372e+01	1.854747e+02
2.440000e-06	2.616154e-06	2.956314e-09	1.970203e+01	1.853778e+02
2.450000e-06	2.611836e-06	2.824979e-09	1.966952e+01	1.852752e+02
2.460000e-06	2.606976e-06	2.738570e-09	1.963292e+01	1.851698e+02
2.470000e-06	2.601192e-06	2.800700e-09	1.958936e+01	1.850641e+02
2.480000e-06	2.594952e-06	2.901293e-09	1.954236e+01	1.849595e+02
2.490000e-06	2.588527e-06	2.931277e-09	1.949398e+01	1.848570e+02
2.500000e-06	2.581486e-06	2.836405e-09	1.944096e+01	1.847562e+02
2.510000e-06	2.573742e-06	2.692422e-09	1.938263e+01	1.846561e+02
2.520000e-06	2.565643e-06	2.782501e-09	1.932164e+01	1.845546e+02
2.530000e-06	2.557284e-06	3.002952e-09	1.925869e+01	1.844487e+02
2.540000e-06	2.548351e-06	2.908481e-09	1.919142e+01	1.843349e+02
2.550000e-06	2.538793e-06	2.609566e-09	1.911944e+01	1.842092e+02
2.560000e-06	2.528953e-06	2.694765e-09	1.904533e+01	1.840673e+02
2.570000e-06	2.518818e-06	3.009266e-09	1.896901e+01	1.839051e+02
2.580000e-06	2.508044e-06	2.887840e-09	1.888787e+01	1.837184e+02
2.590000e-06	2.496770e-06	2.602242e-09	1.880296e+01	1.835037e+02
2.600000e-06	2.485243e-06	2.738822e-09	1.871616e+01	1.832582e+02
2.610000e-06	2.473249e-06	2.925124e-09	1.862583e+01	1.829798e+02
2.620000e-06	2.460685e-06	2.766144e-09	1.853121e+01	1.826672e+02
2.630000e-06	2.447687e-06	2.698100e-09	1.843332e+01	1.823203e+02
2.640000e-06	2.434148e-06	2.834616e-09	1.833136e+01	1.819396e+02
2.650000e-06	2.419721e-06	2.745101e-09	1.822271e+01	1.815268e+02
2.660000e-06	2.404490e-06	2.658375e-09	1.810801e+01	1.810839e+02
2.670000e-06	2.388818e-06	2.840840e-09	1.798999e+01	1.806138e+02
2.680000e-06	2.372842e-06	2.828414e-09	1.786967e+01	1.801195e+02
2.690000e-06	2.356557e-06	2.581502e-09	1.774704e+01	1.796042e+02
2.700000e-06	2.340036e-06	2.674016e-09	1.762261e+01	1.790710e+02
2.710000e-06	2.323205e-06	2.893742e-09	1.749586e+01	1.785226e+02
2.720000e-06	2.305872e-06	2.717874e-09	1.736533e+01	1.779612e+02
2.730000e-06	2.288085e-06	2.548905e-09	1.723137e+01	1.773886e+02
2.740000e-06	2.269967e-06	2.719089e-09	1.709493e+01	1.768056e+02
2.750000e-06	2.251511e-06	2.793556e-09	1.695594e+01	1.762125e+02
2.760000e-06	2.232531e-06	2.624925e-09	1.681300e+01	1.756086e+02
2.770000e-06	2.213039e-06	2.589526e-09	1.666621e+01	1.749927e+02
2.780000e-06	2.193317e-06	2.704366e-09	1.651768e+01	1.743631e+02
2.790000e-06	2.173394e-06	2.682497e-09	1.636765e+01	1.737174e+02
2.800000e-06	2.153239e-06	2.580936e-09	1.621586e+01	1.730533e+02
2.810000e-06	2.132933e-06	2.611758e-09	1.606294e+01	1.723681e+02
2.820000e-06	2.112370e-06	2.670713e-09	1.590808e+01	1.716595e+02
2.830000e-06	2.091324e-06	2.597623e-09	1.574959e+01	1.709254e+02
2.840000e-06	2.069685e-06	2.549695e-09	1.558663e+01	1.701639e+02
2.850000e-06	2.047466e-06	2.615444e-09	1.541929e+01	1.693738e+02
2.860000e-06	2.024610e-06	2.596903e-09	1.524717e+01	1.685545e+02
2.870000e-06	2.001133e-06	2.513337e-09	1.507037e+01	1.677057e+02
2.880000e-06	1.977302e-06	2.549479e-09	1.489090e+01	1.668280e+02
2.890000e-06	1.953274e-06	2.580573e-09	1.470994e+01	1.659221e+02
2.900000e-06	1.929016e-06	2.495220e-09	1.452726e+01	1.649894e+02
2.910000e-06	1.904618e-06	2.467308e-09	1.434351e+01	1.640312e+02
2.920000e-06	1.880011e-06	2.527126e-09	1.415821e+01	1.630490e+02
2.930000e-06	1.855053e-06	2.508666e-09	1.397025e+01	1.620443e+02
2.940000e-06	1.829687e-06	2.428402e-09	1.377922e+01	1.610183e+02
2.950000e-06	1.803953e-06	2.428371e-09	1.358542e+01	1.599717e+02
