# Temperatura_=_20.0
# Concentracion g/m^3_=_9000.0
# C_Vs_to_Am_M_A/Vsm_=_65563218390.804596
# pendiente_HvsI_1/m_=_3716.3
# ordenada_HvsI_A/m_=_1297.0
# frecuencia_Hz_=_213044.1589837783

Tiempo_(s)	Campo_(V.s)	Magnetizacion_(V.s)	Campo_(kA/m)	Magnetizacion_(A/m)
0.000000e+00	-2.628701e-06	-2.879195e-09	-1.982542e+01	-1.888415e+02
1.000000e-08	-2.628756e-06	-2.880903e-09	-1.982583e+01	-1.889268e+02
2.000000e-08	-2.628445e-06	-2.882633e-09	-1.982349e+01	-1.889894e+02
3.000000e-08	-2.627592e-06	-2.881533e-09	-1.981705e+01	-1.890293e+02
4.000000e-08	-2.625928e-06	-2.867412e-09	-1.980450e+01	-1.890465e+02
5.000000e-08	-2.623477e-06	-2.846090e-09	-1.978601e+01	-1.890414e+02
6.000000e-08	-2.620500e-06	-2.879666e-09	-1.976356e+01	-1.890147e+02
7.000000e-08	-2.617158e-06	-2.953312e-09	-1.973836e+01	-1.889673e+02
8.000000e-08	-2.613442e-06	-2.941244e-09	-1.971034e+01	-1.889004e+02
9.000000e-08	-2.609406e-06	-2.825541e-09	-1.967989e+01	-1.888151e+02
1.000000e-07	-2.605029e-06	-2.798417e-09	-1.964688e+01	-1.887129e+02
1.100000e-07	-2.600154e-06	-2.895289e-09	-1.961012e+01	-1.885950e+02
1.200000e-07	-2.594806e-06	-2.952821e-09	-1.956978e+01	-1.884626e+02
1.300000e-07	-2.589107e-06	-2.889245e-09	-1.952680e+01	-1.883169e+02
1.400000e-07	-2.582941e-06	-2.811298e-09	-1.948029e+01	-1.881584e+02
1.500000e-07	-2.576091e-06	-2.792300e-09	-1.942864e+01	-1.879879e+02
1.600000e-07	-2.568784e-06	-2.884435e-09	-1.937353e+01	-1.878054e+02
1.700000e-07	-2.561252e-06	-2.943634e-09	-1.931672e+01	-1.876110e+02
1.800000e-07	-2.553346e-06	-2.867709e-09	-1.925710e+01	-1.874040e+02
1.900000e-07	-2.544979e-06	-2.734181e-09	-1.919399e+01	-1.871839e+02
2.000000e-07	-2.536268e-06	-2.806744e-09	-1.912830e+01	-1.869495e+02
2.100000e-07	-2.527143e-06	-2.976972e-09	-1.905948e+01	-1.866998e+02
2.200000e-07	-2.517264e-06	-2.909602e-09	-1.898496e+01	-1.864333e+02
2.300000e-07	-2.506558e-06	-2.745728e-09	-1.890422e+01	-1.861487e+02
2.400000e-07	-2.495301e-06	-2.779936e-09	-1.881932e+01	-1.858447e+02
2.500000e-07	-2.483640e-06	-2.953138e-09	-1.873138e+01	-1.855201e+02
2.600000e-07	-2.471478e-06	-2.883934e-09	-1.863965e+01	-1.851736e+02
2.700000e-07	-2.458828e-06	-2.775555e-09	-1.854425e+01	-1.848044e+02
2.800000e-07	-2.445704e-06	-2.796212e-09	-1.844527e+01	-1.844120e+02
2.900000e-07	-2.432107e-06	-2.839398e-09	-1.834272e+01	-1.839960e+02
3.000000e-07	-2.418019e-06	-2.812135e-09	-1.823647e+01	-1.835564e+02
3.100000e-07	-2.403290e-06	-2.814424e-09	-1.812539e+01	-1.830933e+02
3.200000e-07	-2.388001e-06	-2.799563e-09	-1.801008e+01	-1.826073e+02
3.300000e-07	-2.372111e-06	-2.720340e-09	-1.789024e+01	-1.820991e+02
3.400000e-07	-2.355623e-06	-2.761605e-09	-1.776588e+01	-1.815695e+02
3.500000e-07	-2.338773e-06	-2.839602e-09	-1.763880e+01	-1.810195e+02
3.600000e-07	-2.321600e-06	-2.767521e-09	-1.750929e+01	-1.804500e+02
3.700000e-07	-2.304099e-06	-2.660212e-09	-1.737730e+01	-1.798619e+02
3.800000e-07	-2.286297e-06	-2.738119e-09	-1.724304e+01	-1.792561e+02
3.900000e-07	-2.268174e-06	-2.809515e-09	-1.710635e+01	-1.786332e+02
4.000000e-07	-2.249535e-06	-2.708858e-09	-1.696578e+01	-1.779939e+02
4.100000e-07	-2.230357e-06	-2.632431e-09	-1.682114e+01	-1.773384e+02
4.200000e-07	-2.210879e-06	-2.706391e-09	-1.667424e+01	-1.766668e+02
4.300000e-07	-2.191238e-06	-2.736210e-09	-1.652611e+01	-1.759791e+02
4.400000e-07	-2.171396e-06	-2.649553e-09	-1.637646e+01	-1.752748e+02
4.500000e-07	-2.151228e-06	-2.624034e-09	-1.622435e+01	-1.745537e+02
4.600000e-07	-2.130765e-06	-2.667621e-09	-1.607003e+01	-1.738151e+02
4.700000e-07	-2.109985e-06	-2.647503e-09	-1.591331e+01	-1.730582e+02
4.800000e-07	-2.088745e-06	-2.602247e-09	-1.575311e+01	-1.722825e+02
4.900000e-07	-2.067141e-06	-2.612022e-09	-1.559018e+01	-1.714871e+02
5.000000e-07	-2.045190e-06	-2.598322e-09	-1.542463e+01	-1.706714e+02
5.100000e-07	-2.022822e-06	-2.555906e-09	-1.525593e+01	-1.698346e+02
5.200000e-07	-2.000057e-06	-2.569175e-09	-1.508424e+01	-1.689762e+02
5.300000e-07	-1.976978e-06	-2.574682e-09	-1.491018e+01	-1.680958e+02
5.400000e-07	-1.953673e-06	-2.512826e-09	-1.473442e+01	-1.671928e+02
5.500000e-07	-1.930119e-06	-2.490238e-09	-1.455678e+01	-1.662670e+02
5.600000e-07	-1.906389e-06	-2.525723e-09	-1.437780e+01	-1.653180e+02
5.700000e-07	-1.882421e-06	-2.508628e-09	-1.419704e+01	-1.643454e+02
5.800000e-07	-1.858042e-06	-2.444410e-09	-1.401318e+01	-1.633491e+02
5.900000e-07	-1.833150e-06	-2.435520e-09	-1.382545e+01	-1.623287e+02
6.000000e-07	-1.807777e-06	-2.458683e-09	-1.363408e+01	-1.612837e+02
6.100000e-07	-1.781891e-06	-2.432400e-09	-1.343885e+01	-1.602136e+02
6.200000e-07	-1.755442e-06	-2.382399e-09	-1.323937e+01	-1.591179e+02
6.300000e-07	-1.728533e-06	-2.370406e-09	-1.303644e+01	-1.579958e+02
6.400000e-07	-1.701279e-06	-2.376892e-09	-1.283088e+01	-1.568464e+02
6.500000e-07	-1.673810e-06	-2.353007e-09	-1.262372e+01	-1.556689e+02
6.600000e-07	-1.646175e-06	-2.322266e-09	-1.241530e+01	-1.544623e+02
6.700000e-07	-1.618386e-06	-2.308955e-09	-1.220572e+01	-1.532255e+02
6.800000e-07	-1.590421e-06	-2.291377e-09	-1.199481e+01	-1.519577e+02
6.900000e-07	-1.562245e-06	-2.271916e-09	-1.178230e+01	-1.506578e+02
7.000000e-07	-1.533743e-06	-2.261988e-09	-1.156734e+01	-1.493251e+02
7.100000e-07	-1.504934e-06	-2.234542e-09	-1.135007e+01	-1.479589e+02
7.200000e-07	-1.475831e-06	-2.194234e-09	-1.113058e+01	-1.465589e+02
7.300000e-07	-1.446447e-06	-2.182384e-09	-1.090897e+01	-1.451248e+02
7.400000e-07	-1.416884e-06	-2.180650e-09	-1.068600e+01	-1.436565e+02
7.500000e-07	-1.387141e-06	-2.142741e-09	-1.046168e+01	-1.421545e+02
7.600000e-07	-1.357191e-06	-2.098064e-09	-1.023581e+01	-1.406191e+02
7.700000e-07	-1.327008e-06	-2.088759e-09	-1.000817e+01	-1.390511e+02
7.800000e-07	-1.296606e-06	-2.082646e-09	-9.778882e+00	-1.374513e+02
7.900000e-07	-1.265969e-06	-2.047460e-09	-9.547821e+00	-1.358207e+02
8.000000e-07	-1.235110e-06	-2.006791e-09	-9.315079e+00	-1.341602e+02
8.100000e-07	-1.204085e-06	-1.984419e-09	-9.081093e+00	-1.324709e+02
8.200000e-07	-1.172867e-06	-1.965896e-09	-8.845648e+00	-1.307535e+02
8.300000e-07	-1.141448e-06	-1.935341e-09	-8.608695e+00	-1.290087e+02
8.400000e-07	-1.109909e-06	-1.903064e-09	-8.370826e+00	-1.272369e+02
8.500000e-07	-1.078238e-06	-1.876068e-09	-8.131966e+00	-1.254380e+02
8.600000e-07	-1.046449e-06	-1.849363e-09	-7.892220e+00	-1.236118e+02
8.700000e-07	-1.014567e-06	-1.823644e-09	-7.651770e+00	-1.217576e+02
8.800000e-07	-9.825840e-07	-1.797400e-09	-7.410555e+00	-1.198741e+02
8.900000e-07	-9.504425e-07	-1.763191e-09	-7.168148e+00	-1.179598e+02
9.000000e-07	-9.180925e-07	-1.726832e-09	-6.924166e+00	-1.160127e+02
9.100000e-07	-8.855148e-07	-1.701553e-09	-6.678468e+00	-1.140304e+02
9.200000e-07	-8.527004e-07	-1.674749e-09	-6.430986e+00	-1.120102e+02
9.300000e-07	-8.197311e-07	-1.633979e-09	-6.182334e+00	-1.099492e+02
9.400000e-07	-7.865887e-07	-1.594118e-09	-5.932378e+00	-1.078444e+02
9.500000e-07	-7.532089e-07	-1.566253e-09	-5.680631e+00	-1.056925e+02
9.600000e-07	-7.195686e-07	-1.537489e-09	-5.426918e+00	-1.034904e+02
9.700000e-07	-6.856375e-07	-1.498448e-09	-5.171013e+00	-1.012348e+02
9.800000e-07	-6.514876e-07	-1.459825e-09	-4.913458e+00	-9.892298e+01
9.900000e-07	-6.171702e-07	-1.427794e-09	-4.654639e+00	-9.655207e+01
1.000000e-06	-5.826253e-07	-1.393730e-09	-4.394105e+00	-9.411967e+01
1.010000e-06	-5.479439e-07	-1.357666e-09	-4.132541e+00	-9.162365e+01
1.020000e-06	-5.131699e-07	-1.321109e-09	-3.870279e+00	-8.906223e+01
1.030000e-06	-4.782137e-07	-1.280242e-09	-3.606642e+00	-8.643403e+01
1.040000e-06	-4.431003e-07	-1.237322e-09	-3.341820e+00	-8.373801e+01
1.050000e-06	-4.079338e-07	-1.195876e-09	-3.076598e+00	-8.097348e+01
1.060000e-06	-3.726628e-07	-1.154776e-09	-2.810588e+00	-7.814010e+01
1.070000e-06	-3.372379e-07	-1.109122e-09	-2.543416e+00	-7.523779e+01
1.080000e-06	-3.017771e-07	-1.062813e-09	-2.275974e+00	-7.226677e+01
1.090000e-06	-2.662884e-07	-1.019267e-09	-2.008322e+00	-6.922743e+01
1.100000e-06	-2.307382e-07	-9.753779e-10	-1.740206e+00	-6.612036e+01
1.110000e-06	-1.951809e-07	-9.277777e-10	-1.472036e+00	-6.294631e+01
1.120000e-06	-1.596734e-07	-8.788087e-10	-1.204242e+00	-5.970613e+01
1.130000e-06	-1.241414e-07	-8.315748e-10	-9.362625e-01	-5.640077e+01
1.140000e-06	-8.857884e-08	-7.825768e-10	-6.680532e-01	-5.303131e+01
1.150000e-06	-5.302822e-08	-7.313460e-10	-3.999338e-01	-4.959891e+01
1.160000e-06	-1.745005e-08	-6.794360e-10	-1.316066e-01	-4.610487e+01
1.170000e-06	1.814847e-08	-6.259113e-10	1.368741e-01	-4.255068e+01
1.180000e-06	5.376331e-08	-5.713072e-10	4.054778e-01	-3.893799e+01
1.190000e-06	8.936681e-08	-5.163985e-10	6.739960e-01	-3.526875e+01
1.200000e-06	1.249491e-07	-4.629229e-10	9.423545e-01	-3.154520e+01
1.210000e-06	1.605110e-07	-4.086421e-10	1.210559e+00	-2.776993e+01
1.220000e-06	1.960625e-07	-3.529563e-10	1.478685e+00	-2.394598e+01
1.230000e-06	2.315684e-07	-2.983470e-10	1.746467e+00	-2.007681e+01
1.240000e-06	2.670330e-07	-2.425204e-10	2.013938e+00	-1.616642e+01
1.250000e-06	3.024258e-07	-1.839193e-10	2.280867e+00	-1.221928e+01
1.260000e-06	3.377474e-07	-1.234915e-10	2.547259e+00	-8.240407e+00
1.270000e-06	3.730796e-07	-6.381452e-11	2.813731e+00	-4.235311e+00
1.280000e-06	4.083578e-07	-4.274561e-12	3.079796e+00	-2.099729e-01
1.290000e-06	4.435574e-07	5.485320e-11	3.345268e+00	3.829214e+00
1.300000e-06	4.786170e-07	1.128693e-10	3.609684e+00	7.875514e+00
1.310000e-06	5.135915e-07	1.707353e-10	3.873459e+00	1.192195e+01
1.320000e-06	5.485310e-07	2.312885e-10	4.136969e+00	1.596139e+01
1.330000e-06	5.832789e-07	2.915341e-10	4.399035e+00	1.998669e+01
1.340000e-06	6.178168e-07	3.511781e-10	4.659516e+00	2.399082e+01
1.350000e-06	6.521531e-07	4.129180e-10	4.918477e+00	2.796696e+01
1.360000e-06	6.862890e-07	4.733294e-10	5.175927e+00	3.190866e+01
1.370000e-06	7.202488e-07	5.315814e-10	5.432048e+00	3.580995e+01
1.380000e-06	7.539081e-07	5.893156e-10	5.685904e+00	3.966542e+01
1.390000e-06	7.872641e-07	6.482210e-10	5.937471e+00	4.347036e+01
1.400000e-06	8.204334e-07	7.035314e-10	6.187631e+00	4.722078e+01
1.410000e-06	8.534248e-07	7.567933e-10	6.436449e+00	5.091349e+01
1.420000e-06	8.862217e-07	8.106686e-10	6.683800e+00	5.454607e+01
1.430000e-06	9.187896e-07	8.626976e-10	6.929424e+00	5.811691e+01
1.440000e-06	9.511116e-07	9.133995e-10	7.173193e+00	6.162517e+01
1.450000e-06	9.832540e-07	9.651887e-10	7.415608e+00	6.507066e+01
1.460000e-06	1.015261e-06	1.018143e-09	7.657001e+00	6.845385e+01
1.470000e-06	1.047112e-06	1.068545e-09	7.897218e+00	7.177567e+01
1.480000e-06	1.078878e-06	1.115971e-09	8.136795e+00	7.503747e+01
1.490000e-06	1.110575e-06	1.163437e-09	8.375851e+00	7.824085e+01
1.500000e-06	1.142163e-06	1.211132e-09	8.614087e+00	8.138757e+01
1.510000e-06	1.173649e-06	1.258207e-09	8.851552e+00	8.447938e+01
1.520000e-06	1.205018e-06	1.304450e-09	9.088131e+00	8.751793e+01
1.530000e-06	1.236150e-06	1.348007e-09	9.322927e+00	9.050465e+01
1.540000e-06	1.267028e-06	1.390298e-09	9.555808e+00	9.344072e+01
1.550000e-06	1.297640e-06	1.433763e-09	9.786675e+00	9.632691e+01
1.560000e-06	1.327965e-06	1.477925e-09	1.001539e+01	9.916364e+01
1.570000e-06	1.358046e-06	1.519577e-09	1.024225e+01	1.019509e+02
1.580000e-06	1.387913e-06	1.558063e-09	1.046751e+01	1.046883e+02
1.590000e-06	1.417592e-06	1.596986e-09	1.069135e+01	1.073751e+02
1.600000e-06	1.447080e-06	1.636944e-09	1.091374e+01	1.100101e+02
1.610000e-06	1.476381e-06	1.674957e-09	1.113472e+01	1.125923e+02
1.620000e-06	1.505423e-06	1.710301e-09	1.135376e+01	1.151200e+02
1.630000e-06	1.534192e-06	1.745507e-09	1.157073e+01	1.175918e+02
1.640000e-06	1.562589e-06	1.782098e-09	1.178490e+01	1.200064e+02
1.650000e-06	1.590691e-06	1.818318e-09	1.199684e+01	1.223624e+02
1.660000e-06	1.618615e-06	1.853636e-09	1.220744e+01	1.246588e+02
1.670000e-06	1.646368e-06	1.888440e-09	1.241675e+01	1.268949e+02
1.680000e-06	1.674022e-06	1.922415e-09	1.262532e+01	1.290701e+02
1.690000e-06	1.701536e-06	1.955287e-09	1.283282e+01	1.311847e+02
1.700000e-06	1.728856e-06	1.987494e-09	1.303887e+01	1.332388e+02
1.710000e-06	1.755844e-06	2.019159e-09	1.324241e+01	1.352334e+02
1.720000e-06	1.782306e-06	2.048692e-09	1.344198e+01	1.371697e+02
1.730000e-06	1.808172e-06	2.076647e-09	1.363707e+01	1.390491e+02
1.740000e-06	1.833467e-06	2.105139e-09	1.382783e+01	1.408733e+02
1.750000e-06	1.858236e-06	2.134236e-09	1.401464e+01	1.426446e+02
1.760000e-06	1.882616e-06	2.161294e-09	1.419851e+01	1.443648e+02
1.770000e-06	1.906657e-06	2.186651e-09	1.437983e+01	1.460362e+02
1.780000e-06	1.930401e-06	2.210923e-09	1.455890e+01	1.476610e+02
1.790000e-06	1.953939e-06	2.235886e-09	1.473643e+01	1.492412e+02
1.800000e-06	1.977194e-06	2.261701e-09	1.491181e+01	1.507787e+02
1.810000e-06	2.000143e-06	2.284533e-09	1.508489e+01	1.522753e+02
1.820000e-06	2.022776e-06	2.304402e-09	1.525559e+01	1.537326e+02
1.830000e-06	2.045039e-06	2.325906e-09	1.542349e+01	1.551517e+02
1.840000e-06	2.066929e-06	2.350757e-09	1.558858e+01	1.565338e+02
1.850000e-06	2.088475e-06	2.373149e-09	1.575108e+01	1.578798e+02
1.860000e-06	2.109710e-06	2.391082e-09	1.591123e+01	1.591903e+02
1.870000e-06	2.130522e-06	2.410122e-09	1.606820e+01	1.604660e+02
1.880000e-06	2.150859e-06	2.431265e-09	1.622157e+01	1.617071e+02
1.890000e-06	2.170926e-06	2.451446e-09	1.637292e+01	1.629142e+02
1.900000e-06	2.190790e-06	2.467618e-09	1.652273e+01	1.640875e+02
1.910000e-06	2.210436e-06	2.482779e-09	1.667090e+01	1.652274e+02
1.920000e-06	2.229836e-06	2.502169e-09	1.681721e+01	1.663344e+02
1.930000e-06	2.248900e-06	2.522876e-09	1.696099e+01	1.674089e+02
1.940000e-06	2.267532e-06	2.540526e-09	1.710151e+01	1.684515e+02
1.950000e-06	2.285602e-06	2.555821e-09	1.723779e+01	1.694628e+02
1.960000e-06	2.303232e-06	2.572158e-09	1.737076e+01	1.704435e+02
1.970000e-06	2.320511e-06	2.588782e-09	1.750108e+01	1.713942e+02
1.980000e-06	2.337450e-06	2.603269e-09	1.762883e+01	1.723156e+02
1.990000e-06	2.354097e-06	2.617123e-09	1.775438e+01	1.732086e+02
2.000000e-06	2.370383e-06	2.631589e-09	1.787720e+01	1.740736e+02
2.010000e-06	2.386088e-06	2.645104e-09	1.799565e+01	1.749112e+02
2.020000e-06	2.401154e-06	2.657535e-09	1.810928e+01	1.757220e+02
2.030000e-06	2.415698e-06	2.669773e-09	1.821896e+01	1.765062e+02
2.040000e-06	2.429779e-06	2.680273e-09	1.832516e+01	1.772640e+02
2.050000e-06	2.443460e-06	2.689972e-09	1.842835e+01	1.779957e+02
2.060000e-06	2.456714e-06	2.701456e-09	1.852830e+01	1.787011e+02
2.070000e-06	2.469537e-06	2.712609e-09	1.862501e+01	1.793803e+02
2.080000e-06	2.481899e-06	2.722162e-09	1.871825e+01	1.800332e+02
2.090000e-06	2.493850e-06	2.731377e-09	1.880838e+01	1.806596e+02
2.100000e-06	2.505468e-06	2.741605e-09	1.889600e+01	1.812596e+02
2.110000e-06	2.516601e-06	2.751338e-09	1.897997e+01	1.818332e+02
2.120000e-06	2.527049e-06	2.759496e-09	1.905876e+01	1.823806e+02
2.130000e-06	2.536796e-06	2.768713e-09	1.913228e+01	1.829020e+02
2.140000e-06	2.545857e-06	2.778928e-09	1.920061e+01	1.833981e+02
2.150000e-06	2.554356e-06	2.786981e-09	1.926471e+01	1.838694e+02
2.160000e-06	2.562410e-06	2.792298e-09	1.932545e+01	1.843169e+02
2.170000e-06	2.570104e-06	2.798494e-09	1.938348e+01	1.847414e+02
2.180000e-06	2.577515e-06	2.806907e-09	1.943938e+01	1.851440e+02
2.190000e-06	2.584534e-06	2.814293e-09	1.949231e+01	1.855260e+02
2.200000e-06	2.591121e-06	2.819560e-09	1.954199e+01	1.858885e+02
2.210000e-06	2.597215e-06	2.825963e-09	1.958795e+01	1.862327e+02
2.220000e-06	2.602817e-06	2.833307e-09	1.963020e+01	1.865595e+02
2.230000e-06	2.607951e-06	2.839376e-09	1.966892e+01	1.868699e+02
2.240000e-06	2.612610e-06	2.843535e-09	1.970406e+01	1.871646e+02
2.250000e-06	2.616905e-06	2.846662e-09	1.973645e+01	1.874440e+02
2.260000e-06	2.620868e-06	2.850078e-09	1.976634e+01	1.877082e+02
2.270000e-06	2.624526e-06	2.853942e-09	1.979393e+01	1.879572e+02
2.280000e-06	2.627870e-06	2.859310e-09	1.981915e+01	1.881907e+02
2.290000e-06	2.630709e-06	2.865011e-09	1.984056e+01	1.884080e+02
2.300000e-06	2.632991e-06	2.869874e-09	1.985777e+01	1.886083e+02
2.310000e-06	2.634599e-06	2.874594e-09	1.986989e+01	1.887908e+02
2.320000e-06	2.635450e-06	2.880084e-09	1.987632e+01	1.889544e+02
2.330000e-06	2.635740e-06	2.884485e-09	1.987850e+01	1.890980e+02
2.340000e-06	2.635624e-06	2.886629e-09	1.987763e+01	1.892208e+02
2.350000e-06	2.635214e-06	2.888940e-09	1.987454e+01	1.893219e+02
2.360000e-06	2.634472e-06	2.892686e-09	1.986894e+01	1.894007e+02
2.370000e-06	2.633295e-06	2.895061e-09	1.986006e+01	1.894568e+02
2.380000e-06	2.631693e-06	2.904304e-09	1.984798e+01	1.894901e+02
2.390000e-06	2.629733e-06	2.925819e-09	1.983320e+01	1.895008e+02
2.400000e-06	2.627342e-06	2.900680e-09	1.981516e+01	1.894894e+02
2.410000e-06	2.624454e-06	2.829752e-09	1.979338e+01	1.894566e+02
2.420000e-06	2.621152e-06	2.828952e-09	1.976848e+01	1.894035e+02
2.430000e-06	2.617369e-06	2.922305e-09	1.973995e+01	1.893312e+02
2.440000e-06	2.613242e-06	2.942962e-09	1.970882e+01	1.892410e+02
2.450000e-06	2.608927e-06	2.875132e-09	1.967628e+01	1.891342e+02
2.460000e-06	2.604143e-06	2.829043e-09	1.964020e+01	1.890121e+02
2.470000e-06	2.598605e-06	2.859300e-09	1.959843e+01	1.888759e+02
2.480000e-06	2.592417e-06	2.917998e-09	1.955177e+01	1.887265e+02
2.490000e-06	2.585870e-06	2.948650e-09	1.950239e+01	1.885646e+02
2.500000e-06	2.578857e-06	2.874873e-09	1.944949e+01	1.883908e+02
2.510000e-06	2.571225e-06	2.798893e-09	1.939194e+01	1.882050e+02
2.520000e-06	2.563190e-06	2.858500e-09	1.933134e+01	1.880071e+02
2.530000e-06	2.554840e-06	2.970584e-09	1.926836e+01	1.877965e+02
2.540000e-06	2.545966e-06	2.892917e-09	1.920144e+01	1.875725e+02
2.550000e-06	2.536572e-06	2.746470e-09	1.913058e+01	1.873339e+02
2.560000e-06	2.526855e-06	2.823678e-09	1.905730e+01	1.870796e+02
2.570000e-06	2.516788e-06	2.954776e-09	1.898137e+01	1.868081e+02
2.580000e-06	2.506192e-06	2.870052e-09	1.890146e+01	1.865181e+02
2.590000e-06	2.495056e-06	2.736701e-09	1.881748e+01	1.862082e+02
2.600000e-06	2.483585e-06	2.833752e-09	1.873096e+01	1.858774e+02
2.610000e-06	2.471723e-06	2.890875e-09	1.864150e+01	1.855244e+02
2.620000e-06	2.459324e-06	2.803292e-09	1.854799e+01	1.851486e+02
2.630000e-06	2.446481e-06	2.790498e-09	1.845112e+01	1.847494e+02
2.640000e-06	2.433062e-06	2.851667e-09	1.834992e+01	1.843266e+02
2.650000e-06	2.418768e-06	2.788743e-09	1.824212e+01	1.838801e+02
2.660000e-06	2.403660e-06	2.753099e-09	1.812817e+01	1.834104e+02
2.670000e-06	2.388043e-06	2.848141e-09	1.801040e+01	1.829179e+02
2.680000e-06	2.372038e-06	2.811967e-09	1.788968e+01	1.824035e+02
2.690000e-06	2.355749e-06	2.699847e-09	1.776683e+01	1.818679e+02
2.700000e-06	2.339248e-06	2.760811e-09	1.764238e+01	1.813122e+02
2.710000e-06	2.322446e-06	2.844446e-09	1.751567e+01	1.807372e+02
2.720000e-06	2.305201e-06	2.738795e-09	1.738561e+01	1.801440e+02
2.730000e-06	2.287463e-06	2.670298e-09	1.725183e+01	1.795333e+02
2.740000e-06	2.269393e-06	2.759784e-09	1.711555e+01	1.789057e+02
2.750000e-06	2.250965e-06	2.772572e-09	1.697657e+01	1.782617e+02
2.760000e-06	2.232059e-06	2.680151e-09	1.683398e+01	1.776017e+02
2.770000e-06	2.212733e-06	2.664500e-09	1.668822e+01	1.769255e+02
2.780000e-06	2.193131e-06	2.722796e-09	1.654039e+01	1.762331e+02
2.790000e-06	2.173280e-06	2.702618e-09	1.639067e+01	1.755241e+02
2.800000e-06	2.153191e-06	2.634423e-09	1.623916e+01	1.747981e+02
2.810000e-06	2.132898e-06	2.648495e-09	1.608611e+01	1.740543e+02
2.820000e-06	2.112301e-06	2.684279e-09	1.593078e+01	1.732921e+02
2.830000e-06	2.091293e-06	2.634989e-09	1.577233e+01	1.725108e+02
2.840000e-06	2.069750e-06	2.598660e-09	1.560986e+01	1.717097e+02
2.850000e-06	2.047692e-06	2.633111e-09	1.544350e+01	1.708879e+02
2.860000e-06	2.025015e-06	2.617082e-09	1.527247e+01	1.700450e+02
2.870000e-06	2.001729e-06	2.563383e-09	1.509685e+01	1.691804e+02
2.880000e-06	1.978041e-06	2.581060e-09	1.491820e+01	1.682934e+02
2.890000e-06	1.954038e-06	2.590124e-09	1.473717e+01	1.673839e+02
2.900000e-06	1.929824e-06	2.531690e-09	1.455455e+01	1.664514e+02
2.910000e-06	1.905412e-06	2.517907e-09	1.437043e+01	1.654956e+02
2.920000e-06	1.880738e-06	2.547681e-09	1.418435e+01	1.645163e+02
2.930000e-06	1.855719e-06	2.521453e-09	1.399566e+01	1.635130e+02
2.940000e-06	1.830339e-06	2.469870e-09	1.380425e+01	1.624855e+02
2.950000e-06	1.804628e-06	2.471852e-09	1.361034e+01	1.614333e+02
