# Temperatura_=_20.0
# Concentracion g/m^3_=_9000.0
# C_Vs_to_Am_M_A/Vsm_=_65563218390.804596
# pendiente_HvsI_1/m_=_3716.3
# ordenada_HvsI_A/m_=_1297.0
# frecuencia_Hz_=_213040.84928025724

Tiempo_(s)	Campo_(V.s)	Magnetizacion_(V.s)	Campo_(kA/m)	Magnetizacion_(A/m)
0.000000e+00	-2.633964e-06	-2.857967e-09	-1.982880e+01	-1.878013e+02
1.000000e-08	-2.633955e-06	-2.857359e-09	-1.982874e+01	-1.879005e+02
2.000000e-08	-2.633592e-06	-2.857294e-09	-1.982600e+01	-1.879734e+02
3.000000e-08	-2.632645e-06	-2.856670e-09	-1.981887e+01	-1.880194e+02
4.000000e-08	-2.630943e-06	-2.843455e-09	-1.980606e+01	-1.880386e+02
5.000000e-08	-2.628573e-06	-2.833569e-09	-1.978822e+01	-1.880316e+02
6.000000e-08	-2.625630e-06	-2.877457e-09	-1.976606e+01	-1.880000e+02
7.000000e-08	-2.622216e-06	-2.911330e-09	-1.974036e+01	-1.879456e+02
8.000000e-08	-2.618427e-06	-2.883551e-09	-1.971184e+01	-1.878708e+02
9.000000e-08	-2.614280e-06	-2.810069e-09	-1.968062e+01	-1.877785e+02
1.000000e-07	-2.609774e-06	-2.802312e-09	-1.964670e+01	-1.876714e+02
1.100000e-07	-2.604914e-06	-2.874759e-09	-1.961011e+01	-1.875525e+02
1.200000e-07	-2.599620e-06	-2.903472e-09	-1.957026e+01	-1.874243e+02
1.300000e-07	-2.593844e-06	-2.851600e-09	-1.952678e+01	-1.872889e+02
1.400000e-07	-2.587584e-06	-2.783462e-09	-1.947965e+01	-1.871482e+02
1.500000e-07	-2.580722e-06	-2.793604e-09	-1.942799e+01	-1.870029e+02
1.600000e-07	-2.573394e-06	-2.873069e-09	-1.937283e+01	-1.868533e+02
1.700000e-07	-2.565763e-06	-2.888677e-09	-1.931538e+01	-1.866987e+02
1.800000e-07	-2.557803e-06	-2.812430e-09	-1.925545e+01	-1.865379e+02
1.900000e-07	-2.549454e-06	-2.745232e-09	-1.919260e+01	-1.863687e+02
2.000000e-07	-2.540633e-06	-2.833225e-09	-1.912620e+01	-1.861884e+02
2.100000e-07	-2.531315e-06	-2.926901e-09	-1.905605e+01	-1.859940e+02
2.200000e-07	-2.521317e-06	-2.857061e-09	-1.898078e+01	-1.857822e+02
2.300000e-07	-2.510475e-06	-2.765299e-09	-1.889916e+01	-1.855497e+02
2.400000e-07	-2.499084e-06	-2.801391e-09	-1.881341e+01	-1.852931e+02
2.500000e-07	-2.487341e-06	-2.901441e-09	-1.872501e+01	-1.850098e+02
2.600000e-07	-2.475059e-06	-2.857989e-09	-1.863255e+01	-1.846971e+02
2.700000e-07	-2.462210e-06	-2.782470e-09	-1.853582e+01	-1.843536e+02
2.800000e-07	-2.448972e-06	-2.773471e-09	-1.843616e+01	-1.839781e+02
2.900000e-07	-2.435386e-06	-2.818156e-09	-1.833389e+01	-1.835703e+02
3.000000e-07	-2.421286e-06	-2.826341e-09	-1.822774e+01	-1.831309e+02
3.100000e-07	-2.406619e-06	-2.796201e-09	-1.811733e+01	-1.826608e+02
3.200000e-07	-2.391257e-06	-2.758836e-09	-1.800168e+01	-1.821620e+02
3.300000e-07	-2.375174e-06	-2.738220e-09	-1.788060e+01	-1.816366e+02
3.400000e-07	-2.358638e-06	-2.776668e-09	-1.775612e+01	-1.810871e+02
3.500000e-07	-2.341790e-06	-2.792430e-09	-1.762928e+01	-1.805163e+02
3.600000e-07	-2.324611e-06	-2.739332e-09	-1.749996e+01	-1.799268e+02
3.700000e-07	-2.307052e-06	-2.691839e-09	-1.736777e+01	-1.793208e+02
3.800000e-07	-2.289182e-06	-2.734493e-09	-1.723324e+01	-1.787005e+02
3.900000e-07	-2.270953e-06	-2.761598e-09	-1.709601e+01	-1.780675e+02
4.000000e-07	-2.252212e-06	-2.703171e-09	-1.695493e+01	-1.774228e+02
4.100000e-07	-2.232998e-06	-2.655896e-09	-1.681028e+01	-1.767668e+02
4.200000e-07	-2.213486e-06	-2.683865e-09	-1.666339e+01	-1.760995e+02
4.300000e-07	-2.193765e-06	-2.699121e-09	-1.651493e+01	-1.754202e+02
4.400000e-07	-2.173811e-06	-2.654871e-09	-1.636472e+01	-1.747279e+02
4.500000e-07	-2.153559e-06	-2.626076e-09	-1.621225e+01	-1.740211e+02
4.600000e-07	-2.132934e-06	-2.637488e-09	-1.605699e+01	-1.732983e+02
4.700000e-07	-2.111940e-06	-2.637421e-09	-1.589894e+01	-1.725577e+02
4.800000e-07	-2.090589e-06	-2.608703e-09	-1.573821e+01	-1.717977e+02
4.900000e-07	-2.068899e-06	-2.588936e-09	-1.557492e+01	-1.710168e+02
5.000000e-07	-2.046878e-06	-2.585180e-09	-1.540915e+01	-1.702137e+02
5.100000e-07	-2.024524e-06	-2.574444e-09	-1.524087e+01	-1.693874e+02
5.200000e-07	-2.001773e-06	-2.559090e-09	-1.506959e+01	-1.685375e+02
5.300000e-07	-1.978677e-06	-2.545101e-09	-1.489572e+01	-1.676637e+02
5.400000e-07	-1.955317e-06	-2.524014e-09	-1.471986e+01	-1.667661e+02
5.500000e-07	-1.931673e-06	-2.508362e-09	-1.454187e+01	-1.658450e+02
5.600000e-07	-1.907817e-06	-2.505682e-09	-1.436228e+01	-1.649009e+02
5.700000e-07	-1.883696e-06	-2.489399e-09	-1.418069e+01	-1.639345e+02
5.800000e-07	-1.859253e-06	-2.453306e-09	-1.399668e+01	-1.629462e+02
5.900000e-07	-1.834359e-06	-2.440410e-09	-1.380928e+01	-1.619367e+02
6.000000e-07	-1.808883e-06	-2.445771e-09	-1.361749e+01	-1.609059e+02
6.100000e-07	-1.782919e-06	-2.423132e-09	-1.342203e+01	-1.598540e+02
6.200000e-07	-1.756507e-06	-2.383384e-09	-1.322320e+01	-1.587805e+02
6.300000e-07	-1.729620e-06	-2.370771e-09	-1.302079e+01	-1.576845e+02
6.400000e-07	-1.702336e-06	-2.376306e-09	-1.281539e+01	-1.565649e+02
6.500000e-07	-1.674810e-06	-2.358143e-09	-1.260818e+01	-1.554204e+02
6.600000e-07	-1.647138e-06	-2.322510e-09	-1.239985e+01	-1.542491e+02
6.700000e-07	-1.619308e-06	-2.302252e-09	-1.219035e+01	-1.530493e+02
6.800000e-07	-1.591269e-06	-2.295466e-09	-1.197927e+01	-1.518191e+02
6.900000e-07	-1.563034e-06	-2.280808e-09	-1.176671e+01	-1.505566e+02
7.000000e-07	-1.534501e-06	-2.253829e-09	-1.155191e+01	-1.492603e+02
7.100000e-07	-1.505601e-06	-2.226037e-09	-1.133435e+01	-1.479286e+02
7.200000e-07	-1.476428e-06	-2.205447e-09	-1.111473e+01	-1.465607e+02
7.300000e-07	-1.447041e-06	-2.191754e-09	-1.089350e+01	-1.451558e+02
7.400000e-07	-1.417411e-06	-2.174581e-09	-1.067044e+01	-1.437139e+02
7.500000e-07	-1.387570e-06	-2.140772e-09	-1.044580e+01	-1.422352e+02
7.600000e-07	-1.357540e-06	-2.106251e-09	-1.021972e+01	-1.407203e+02
7.700000e-07	-1.327263e-06	-2.091674e-09	-9.991794e+00	-1.391702e+02
7.800000e-07	-1.296788e-06	-2.080529e-09	-9.762382e+00	-1.375862e+02
7.900000e-07	-1.266107e-06	-2.048641e-09	-9.531407e+00	-1.359696e+02
8.000000e-07	-1.235140e-06	-2.008978e-09	-9.298282e+00	-1.343219e+02
8.100000e-07	-1.203960e-06	-1.986189e-09	-9.063561e+00	-1.326442e+02
8.200000e-07	-1.172673e-06	-1.970350e-09	-8.828028e+00	-1.309379e+02
8.300000e-07	-1.141231e-06	-1.941462e-09	-8.591327e+00	-1.292034e+02
8.400000e-07	-1.109621e-06	-1.907041e-09	-8.353366e+00	-1.274413e+02
8.500000e-07	-1.077889e-06	-1.878949e-09	-8.114479e+00	-1.256513e+02
8.600000e-07	-1.046024e-06	-1.854872e-09	-7.874595e+00	-1.238329e+02
8.700000e-07	-1.014069e-06	-1.829553e-09	-7.634038e+00	-1.219849e+02
8.800000e-07	-9.820092e-07	-1.801016e-09	-7.392685e+00	-1.201056e+02
8.900000e-07	-9.498156e-07	-1.768648e-09	-7.150328e+00	-1.181930e+02
9.000000e-07	-9.174398e-07	-1.735305e-09	-6.906599e+00	-1.162446e+02
9.100000e-07	-8.848265e-07	-1.706506e-09	-6.661082e+00	-1.142578e+02
9.200000e-07	-8.519912e-07	-1.675515e-09	-6.413894e+00	-1.122296e+02
9.300000e-07	-8.189453e-07	-1.637022e-09	-6.165121e+00	-1.101571e+02
9.400000e-07	-7.857192e-07	-1.597796e-09	-5.914990e+00	-1.080372e+02
9.500000e-07	-7.523073e-07	-1.566369e-09	-5.663462e+00	-1.058672e+02
9.600000e-07	-7.186109e-07	-1.537422e-09	-5.409790e+00	-1.036442e+02
9.700000e-07	-6.847133e-07	-1.502701e-09	-5.154606e+00	-1.013659e+02
9.800000e-07	-6.506476e-07	-1.465929e-09	-4.898155e+00	-9.903012e+01
9.900000e-07	-6.162487e-07	-1.431622e-09	-4.639196e+00	-9.663485e+01
1.000000e-06	-5.815851e-07	-1.398961e-09	-4.378243e+00	-9.417848e+01
1.010000e-06	-5.467475e-07	-1.363291e-09	-4.115982e+00	-9.165965e+01
1.020000e-06	-5.117900e-07	-1.323899e-09	-3.852818e+00	-8.907722e+01
1.030000e-06	-4.767393e-07	-1.282554e-09	-3.588952e+00	-8.643024e+01
1.040000e-06	-4.415690e-07	-1.239596e-09	-3.324186e+00	-8.371794e+01
1.050000e-06	-4.062560e-07	-1.196919e-09	-3.058345e+00	-8.093967e+01
1.060000e-06	-3.707941e-07	-1.156464e-09	-2.791384e+00	-7.809486e+01
1.070000e-06	-3.352854e-07	-1.113457e-09	-2.524070e+00	-7.518304e+01
1.080000e-06	-2.997532e-07	-1.066519e-09	-2.256579e+00	-7.220382e+01
1.090000e-06	-2.641418e-07	-1.020765e-09	-1.988491e+00	-6.915687e+01
1.100000e-06	-2.285281e-07	-9.760063e-10	-1.720388e+00	-6.604200e+01
1.110000e-06	-1.929166e-07	-9.282948e-10	-1.452300e+00	-6.285915e+01
1.120000e-06	-1.572865e-07	-8.785581e-10	-1.184072e+00	-5.960845e+01
1.130000e-06	-1.216620e-07	-8.281717e-10	-9.158863e-01	-5.629028e+01
1.140000e-06	-8.603269e-08	-7.771657e-10	-6.476646e-01	-5.290532e+01
1.150000e-06	-5.037967e-08	-7.258631e-10	-3.792643e-01	-4.945461e+01
1.160000e-06	-1.473092e-08	-6.734273e-10	-1.108962e-01	-4.593958e+01
1.170000e-06	2.087534e-08	-6.197589e-10	1.571521e-01	-4.236213e+01
1.180000e-06	5.647300e-08	-5.648105e-10	4.251357e-01	-3.872461e+01
1.190000e-06	9.207961e-08	-5.104939e-10	6.931865e-01	-3.502989e+01
1.200000e-06	1.276677e-07	-4.578485e-10	9.610981e-01	-3.128131e+01
1.210000e-06	1.632311e-07	-4.038992e-10	1.228824e+00	-2.748270e+01
1.220000e-06	1.987934e-07	-3.478377e-10	1.496541e+00	-2.363835e+01
1.230000e-06	2.343693e-07	-2.923566e-10	1.764360e+00	-1.975298e+01
1.240000e-06	2.699289e-07	-2.364970e-10	2.032058e+00	-1.583167e+01
1.250000e-06	3.054636e-07	-1.788477e-10	2.299568e+00	-1.187981e+01
1.260000e-06	3.409748e-07	-1.193044e-10	2.566900e+00	-7.903087e+00
1.270000e-06	3.763252e-07	-5.738500e-11	2.833022e+00	-3.907367e+00
1.280000e-06	4.115522e-07	5.269693e-12	3.098215e+00	1.013258e-01
1.290000e-06	4.468124e-07	6.380620e-11	3.363658e+00	4.116876e+00
1.300000e-06	4.820427e-07	1.208992e-10	3.628876e+00	8.133133e+00
1.310000e-06	5.171404e-07	1.791134e-10	3.893096e+00	1.214396e+01
1.320000e-06	5.520832e-07	2.390672e-10	4.156150e+00	1.614328e+01
1.330000e-06	5.868165e-07	2.984774e-10	4.417626e+00	2.012513e+01
1.340000e-06	6.213921e-07	3.577782e-10	4.677915e+00	2.408372e+01
1.350000e-06	6.557921e-07	4.175968e-10	4.936883e+00	2.801344e+01
1.360000e-06	6.900100e-07	4.768981e-10	5.194480e+00	3.190897e+01
1.370000e-06	7.240024e-07	5.369153e-10	5.450378e+00	3.576529e+01
1.380000e-06	7.576513e-07	5.942361e-10	5.703692e+00	3.957776e+01
1.390000e-06	7.910999e-07	6.504063e-10	5.955497e+00	4.334215e+01
1.400000e-06	8.243611e-07	7.045634e-10	6.205891e+00	4.705473e+01
1.410000e-06	8.573511e-07	7.581686e-10	6.454244e+00	5.071229e+01
1.420000e-06	8.900579e-07	8.118275e-10	6.700465e+00	5.431221e+01
1.430000e-06	9.226232e-07	8.631089e-10	6.945620e+00	5.785247e+01
1.440000e-06	9.550716e-07	9.130199e-10	7.189896e+00	6.133172e+01
1.450000e-06	9.872683e-07	9.639535e-10	7.432276e+00	6.474922e+01
1.460000e-06	1.019278e-06	1.015339e-09	7.673246e+00	6.810485e+01
1.470000e-06	1.051183e-06	1.064961e-09	7.913433e+00	7.139909e+01
1.480000e-06	1.083002e-06	1.111676e-09	8.152969e+00	7.463294e+01
1.490000e-06	1.114785e-06	1.157211e-09	8.392238e+00	7.780783e+01
1.500000e-06	1.146474e-06	1.203713e-09	8.630799e+00	8.092552e+01
1.510000e-06	1.177996e-06	1.250769e-09	8.868101e+00	8.398801e+01
1.520000e-06	1.209413e-06	1.297662e-09	9.104611e+00	8.699735e+01
1.530000e-06	1.240627e-06	1.342517e-09	9.339590e+00	8.995556e+01
1.540000e-06	1.271507e-06	1.385909e-09	9.572061e+00	9.286446e+01
1.550000e-06	1.302123e-06	1.428478e-09	9.802543e+00	9.572557e+01
1.560000e-06	1.332508e-06	1.470405e-09	1.003128e+01	9.854001e+01
1.570000e-06	1.362652e-06	1.511294e-09	1.025821e+01	1.013084e+02
1.580000e-06	1.392568e-06	1.549188e-09	1.048342e+01	1.040308e+02
1.590000e-06	1.422251e-06	1.586931e-09	1.070688e+01	1.067068e+02
1.600000e-06	1.451733e-06	1.626242e-09	1.092882e+01	1.093353e+02
1.610000e-06	1.481000e-06	1.665045e-09	1.114915e+01	1.119149e+02
1.620000e-06	1.510002e-06	1.701870e-09	1.136748e+01	1.144437e+02
1.630000e-06	1.538706e-06	1.738387e-09	1.158356e+01	1.169195e+02
1.640000e-06	1.567132e-06	1.775663e-09	1.179756e+01	1.193401e+02
1.650000e-06	1.595332e-06	1.811593e-09	1.200985e+01	1.217033e+02
1.660000e-06	1.623334e-06	1.846317e-09	1.222066e+01	1.240069e+02
1.670000e-06	1.651179e-06	1.880029e-09	1.243028e+01	1.262492e+02
1.680000e-06	1.678914e-06	1.911504e-09	1.263907e+01	1.284288e+02
1.690000e-06	1.706442e-06	1.943211e-09	1.284630e+01	1.305450e+02
1.700000e-06	1.733673e-06	1.975763e-09	1.305130e+01	1.325976e+02
1.710000e-06	1.760548e-06	2.007097e-09	1.325362e+01	1.345872e+02
1.720000e-06	1.787026e-06	2.036234e-09	1.345295e+01	1.365148e+02
1.730000e-06	1.813063e-06	2.063624e-09	1.364896e+01	1.383824e+02
1.740000e-06	1.838480e-06	2.091262e-09	1.384030e+01	1.401923e+02
1.750000e-06	1.863252e-06	2.119105e-09	1.402679e+01	1.419471e+02
1.760000e-06	1.887581e-06	2.145044e-09	1.420994e+01	1.436499e+02
1.770000e-06	1.911639e-06	2.170142e-09	1.439106e+01	1.453040e+02
1.780000e-06	1.935500e-06	2.195903e-09	1.457068e+01	1.469125e+02
1.790000e-06	1.959084e-06	2.221439e-09	1.474823e+01	1.484783e+02
1.800000e-06	1.982307e-06	2.245580e-09	1.492305e+01	1.500041e+02
1.810000e-06	2.005252e-06	2.267189e-09	1.509578e+01	1.514923e+02
1.820000e-06	2.027885e-06	2.286366e-09	1.526617e+01	1.529445e+02
1.830000e-06	2.050137e-06	2.307055e-09	1.543368e+01	1.543620e+02
1.840000e-06	2.072053e-06	2.330348e-09	1.559867e+01	1.557455e+02
1.850000e-06	2.093648e-06	2.352038e-09	1.576124e+01	1.570951e+02
1.860000e-06	2.114850e-06	2.371244e-09	1.592085e+01	1.584106e+02
1.870000e-06	2.135691e-06	2.391236e-09	1.607774e+01	1.596913e+02
1.880000e-06	2.156214e-06	2.412810e-09	1.623224e+01	1.609365e+02
1.890000e-06	2.176381e-06	2.432499e-09	1.638406e+01	1.621452e+02
1.900000e-06	2.196295e-06	2.447984e-09	1.653398e+01	1.633166e+02
1.910000e-06	2.216003e-06	2.463335e-09	1.668234e+01	1.644500e+02
1.920000e-06	2.235429e-06	2.482223e-09	1.682858e+01	1.655450e+02
1.930000e-06	2.254490e-06	2.501623e-09	1.697207e+01	1.666016e+02
1.940000e-06	2.273082e-06	2.518084e-09	1.711204e+01	1.676203e+02
1.950000e-06	2.291210e-06	2.532233e-09	1.724851e+01	1.686018e+02
1.960000e-06	2.308904e-06	2.547441e-09	1.738171e+01	1.695475e+02
1.970000e-06	2.326197e-06	2.563949e-09	1.751190e+01	1.704591e+02
1.980000e-06	2.343132e-06	2.579455e-09	1.763938e+01	1.713385e+02
1.990000e-06	2.359675e-06	2.593655e-09	1.776392e+01	1.721878e+02
2.000000e-06	2.375815e-06	2.608193e-09	1.788543e+01	1.730091e+02
2.010000e-06	2.391493e-06	2.622399e-09	1.800345e+01	1.738047e+02
2.020000e-06	2.406711e-06	2.635280e-09	1.811801e+01	1.745764e+02
2.030000e-06	2.421352e-06	2.646796e-09	1.822823e+01	1.753259e+02
2.040000e-06	2.435473e-06	2.655969e-09	1.833453e+01	1.760544e+02
2.050000e-06	2.449133e-06	2.664744e-09	1.843737e+01	1.767626e+02
2.060000e-06	2.462306e-06	2.676057e-09	1.853654e+01	1.774511e+02
2.070000e-06	2.475069e-06	2.687266e-09	1.863262e+01	1.781196e+02
2.080000e-06	2.487422e-06	2.696826e-09	1.872562e+01	1.787677e+02
2.090000e-06	2.499380e-06	2.707925e-09	1.881564e+01	1.793946e+02
2.100000e-06	2.510927e-06	2.719525e-09	1.890256e+01	1.799993e+02
2.110000e-06	2.522009e-06	2.729468e-09	1.898599e+01	1.805808e+02
2.120000e-06	2.532419e-06	2.738732e-09	1.906436e+01	1.811381e+02
2.130000e-06	2.542065e-06	2.746973e-09	1.913698e+01	1.816702e+02
2.140000e-06	2.551044e-06	2.755386e-09	1.920457e+01	1.821765e+02
2.150000e-06	2.559503e-06	2.764510e-09	1.926825e+01	1.826569e+02
2.160000e-06	2.567584e-06	2.774185e-09	1.932908e+01	1.831115e+02
2.170000e-06	2.575334e-06	2.782992e-09	1.938743e+01	1.835409e+02
2.180000e-06	2.582705e-06	2.790923e-09	1.944292e+01	1.839462e+02
2.190000e-06	2.589650e-06	2.797937e-09	1.949520e+01	1.843287e+02
2.200000e-06	2.596166e-06	2.804244e-09	1.954425e+01	1.846902e+02
2.210000e-06	2.602243e-06	2.811939e-09	1.959001e+01	1.850324e+02
2.220000e-06	2.607867e-06	2.818857e-09	1.963234e+01	1.853572e+02
2.230000e-06	2.613021e-06	2.824515e-09	1.967114e+01	1.856664e+02
2.240000e-06	2.617740e-06	2.829251e-09	1.970666e+01	1.859616e+02
2.250000e-06	2.622089e-06	2.834056e-09	1.973940e+01	1.862440e+02
2.260000e-06	2.626121e-06	2.838871e-09	1.976976e+01	1.865141e+02
2.270000e-06	2.629819e-06	2.843690e-09	1.979760e+01	1.867724e+02
2.280000e-06	2.633052e-06	2.849477e-09	1.982194e+01	1.870184e+02
2.290000e-06	2.635739e-06	2.854608e-09	1.984217e+01	1.872513e+02
2.300000e-06	2.637876e-06	2.860716e-09	1.985825e+01	1.874697e+02
2.310000e-06	2.639411e-06	2.866743e-09	1.986981e+01	1.876720e+02
2.320000e-06	2.640279e-06	2.870974e-09	1.987634e+01	1.878561e+02
2.330000e-06	2.640566e-06	2.874383e-09	1.987850e+01	1.880199e+02
2.340000e-06	2.640481e-06	2.877180e-09	1.987786e+01	1.881613e+02
2.350000e-06	2.640061e-06	2.879357e-09	1.987471e+01	1.882787e+02
2.360000e-06	2.639233e-06	2.880844e-09	1.986847e+01	1.883704e+02
2.370000e-06	2.637968e-06	2.882719e-09	1.985895e+01	1.884356e+02
2.380000e-06	2.636289e-06	2.893614e-09	1.984631e+01	1.884738e+02
2.390000e-06	2.634208e-06	2.906035e-09	1.983064e+01	1.884853e+02
2.400000e-06	2.631749e-06	2.868214e-09	1.981213e+01	1.884711e+02
2.410000e-06	2.628857e-06	2.835037e-09	1.979036e+01	1.884327e+02
2.420000e-06	2.625466e-06	2.849401e-09	1.976483e+01	1.883722e+02
2.430000e-06	2.621665e-06	2.902927e-09	1.973621e+01	1.882922e+02
2.440000e-06	2.617599e-06	2.921147e-09	1.970561e+01	1.881954e+02
2.450000e-06	2.613267e-06	2.861384e-09	1.967299e+01	1.880848e+02
2.460000e-06	2.608413e-06	2.827580e-09	1.963645e+01	1.879631e+02
2.470000e-06	2.602838e-06	2.862381e-09	1.959448e+01	1.878329e+02
2.480000e-06	2.596623e-06	2.918994e-09	1.954770e+01	1.876961e+02
2.490000e-06	2.590064e-06	2.918729e-09	1.949832e+01	1.875542e+02
2.500000e-06	2.583059e-06	2.850415e-09	1.944558e+01	1.874079e+02
2.510000e-06	2.575392e-06	2.818416e-09	1.938786e+01	1.872572e+02
2.520000e-06	2.567294e-06	2.878506e-09	1.932691e+01	1.871013e+02
2.530000e-06	2.558882e-06	2.936948e-09	1.926357e+01	1.869384e+02
2.540000e-06	2.550009e-06	2.855651e-09	1.919678e+01	1.867665e+02
2.550000e-06	2.540625e-06	2.772930e-09	1.912613e+01	1.865826e+02
2.560000e-06	2.530811e-06	2.837175e-09	1.905225e+01	1.863837e+02
2.570000e-06	2.520600e-06	2.910158e-09	1.897539e+01	1.861663e+02
2.580000e-06	2.509938e-06	2.849073e-09	1.889512e+01	1.859272e+02
2.590000e-06	2.498791e-06	2.767660e-09	1.881121e+01	1.856632e+02
2.600000e-06	2.487235e-06	2.814691e-09	1.872421e+01	1.853716e+02
2.610000e-06	2.475216e-06	2.853496e-09	1.863373e+01	1.850501e+02
2.620000e-06	2.462622e-06	2.821566e-09	1.853892e+01	1.846973e+02
2.630000e-06	2.449537e-06	2.796086e-09	1.844042e+01	1.843125e+02
2.640000e-06	2.435893e-06	2.804253e-09	1.833770e+01	1.838954e+02
2.650000e-06	2.421475e-06	2.789106e-09	1.822916e+01	1.834469e+02
2.660000e-06	2.406348e-06	2.783862e-09	1.811528e+01	1.829683e+02
2.670000e-06	2.390752e-06	2.806846e-09	1.799787e+01	1.824616e+02
2.680000e-06	2.374770e-06	2.774178e-09	1.787756e+01	1.819290e+02
2.690000e-06	2.358520e-06	2.732032e-09	1.775523e+01	1.813732e+02
2.700000e-06	2.342072e-06	2.758770e-09	1.763140e+01	1.807967e+02
2.710000e-06	2.325256e-06	2.790349e-09	1.750481e+01	1.802023e+02
2.720000e-06	2.307958e-06	2.739938e-09	1.737459e+01	1.795922e+02
2.730000e-06	2.290193e-06	2.698780e-09	1.724085e+01	1.789682e+02
2.740000e-06	2.272036e-06	2.732669e-09	1.710416e+01	1.783319e+02
2.750000e-06	2.253524e-06	2.739407e-09	1.696480e+01	1.776841e+02
2.760000e-06	2.234616e-06	2.690745e-09	1.682246e+01	1.770250e+02
2.770000e-06	2.215281e-06	2.673702e-09	1.667691e+01	1.763545e+02
2.780000e-06	2.195608e-06	2.698336e-09	1.652881e+01	1.756718e+02
2.790000e-06	2.175727e-06	2.684806e-09	1.637914e+01	1.749756e+02
2.800000e-06	2.155628e-06	2.648733e-09	1.622783e+01	1.742645e+02
2.810000e-06	2.135324e-06	2.646708e-09	1.607498e+01	1.735368e+02
2.820000e-06	2.114701e-06	2.657261e-09	1.591973e+01	1.727908e+02
2.830000e-06	2.093519e-06	2.638285e-09	1.576027e+01	1.720250e+02
2.840000e-06	2.071786e-06	2.609087e-09	1.559666e+01	1.712378e+02
2.850000e-06	2.049447e-06	2.603926e-09	1.542849e+01	1.704282e+02
2.860000e-06	2.026511e-06	2.605245e-09	1.525582e+01	1.695952e+02
2.870000e-06	2.003118e-06	2.585205e-09	1.507972e+01	1.687384e+02
2.880000e-06	1.979351e-06	2.566307e-09	1.490080e+01	1.678577e+02
2.890000e-06	1.955386e-06	2.561075e-09	1.472038e+01	1.669533e+02
2.900000e-06	1.931231e-06	2.542704e-09	1.453854e+01	1.660255e+02
2.910000e-06	1.906824e-06	2.526427e-09	1.435481e+01	1.650750e+02
2.920000e-06	1.882117e-06	2.528212e-09	1.416880e+01	1.641023e+02
2.930000e-06	1.857023e-06	2.510905e-09	1.397989e+01	1.631079e+02
2.940000e-06	1.831549e-06	2.474865e-09	1.378813e+01	1.620923e+02
2.950000e-06	1.805756e-06	2.468196e-09	1.359395e+01	1.610555e+02
