# Temperatura_=_20.0
# Concentracion g/m^3_=_9000.0
# C_Vs_to_Am_M_A/Vsm_=_65563218390.804596
# pendiente_HvsI_1/m_=_3716.3
# ordenada_HvsI_A/m_=_1297.0
# frecuencia_Hz_=_213042.0829761719

Tiempo_(s)	Campo_(V.s)	Magnetizacion_(V.s)	Campo_(kA/m)	Magnetizacion_(A/m)
0.000000e+00	-2.632515e-06	-2.880941e-09	-1.982527e+01	-1.870428e+02
1.000000e-08	-2.632413e-06	-2.882050e-09	-1.982450e+01	-1.871420e+02
2.000000e-08	-2.631896e-06	-2.883645e-09	-1.982060e+01	-1.872223e+02
3.000000e-08	-2.630823e-06	-2.881243e-09	-1.981252e+01	-1.872840e+02
4.000000e-08	-2.629060e-06	-2.862293e-09	-1.979924e+01	-1.873272e+02
5.000000e-08	-2.626608e-06	-2.846267e-09	-1.978078e+01	-1.873522e+02
6.000000e-08	-2.623560e-06	-2.883841e-09	-1.975782e+01	-1.873593e+02
7.000000e-08	-2.620010e-06	-2.919628e-09	-1.973109e+01	-1.873485e+02
8.000000e-08	-2.616107e-06	-2.931596e-09	-1.970169e+01	-1.873200e+02
9.000000e-08	-2.611930e-06	-2.857942e-09	-1.967024e+01	-1.872737e+02
1.000000e-07	-2.607408e-06	-2.806260e-09	-1.963618e+01	-1.872095e+02
1.100000e-07	-2.602405e-06	-2.817728e-09	-1.959851e+01	-1.871271e+02
1.200000e-07	-2.596903e-06	-2.949194e-09	-1.955707e+01	-1.870260e+02
1.300000e-07	-2.590983e-06	-2.937215e-09	-1.951249e+01	-1.869059e+02
1.400000e-07	-2.584647e-06	-2.811229e-09	-1.946478e+01	-1.867660e+02
1.500000e-07	-2.577724e-06	-2.755070e-09	-1.941264e+01	-1.866059e+02
1.600000e-07	-2.570285e-06	-2.848311e-09	-1.935661e+01	-1.864250e+02
1.700000e-07	-2.562615e-06	-2.953417e-09	-1.929885e+01	-1.862229e+02
1.800000e-07	-2.554686e-06	-2.861599e-09	-1.923914e+01	-1.859991e+02
1.900000e-07	-2.546399e-06	-2.779085e-09	-1.917673e+01	-1.857536e+02
2.000000e-07	-2.537551e-06	-2.743378e-09	-1.911010e+01	-1.854863e+02
2.100000e-07	-2.528146e-06	-2.901453e-09	-1.903927e+01	-1.851974e+02
2.200000e-07	-2.518129e-06	-2.946917e-09	-1.896383e+01	-1.848875e+02
2.300000e-07	-2.507194e-06	-2.839537e-09	-1.888148e+01	-1.845571e+02
2.400000e-07	-2.495589e-06	-2.695259e-09	-1.879408e+01	-1.842071e+02
2.500000e-07	-2.483703e-06	-2.788401e-09	-1.870457e+01	-1.838384e+02
2.600000e-07	-2.471470e-06	-2.954499e-09	-1.861244e+01	-1.834521e+02
2.700000e-07	-2.458627e-06	-2.824766e-09	-1.851573e+01	-1.830493e+02
2.800000e-07	-2.445224e-06	-2.653518e-09	-1.841479e+01	-1.826310e+02
2.900000e-07	-2.431484e-06	-2.718074e-09	-1.831131e+01	-1.821982e+02
3.000000e-07	-2.417375e-06	-2.879264e-09	-1.820506e+01	-1.817517e+02
3.100000e-07	-2.402725e-06	-2.796405e-09	-1.809473e+01	-1.812920e+02
3.200000e-07	-2.387403e-06	-2.693966e-09	-1.797935e+01	-1.808197e+02
3.300000e-07	-2.371377e-06	-2.715851e-09	-1.785865e+01	-1.803348e+02
3.400000e-07	-2.354737e-06	-2.743603e-09	-1.773334e+01	-1.798371e+02
3.500000e-07	-2.337830e-06	-2.746438e-09	-1.760602e+01	-1.793263e+02
3.600000e-07	-2.320674e-06	-2.758198e-09	-1.747682e+01	-1.788019e+02
3.700000e-07	-2.303125e-06	-2.694354e-09	-1.734465e+01	-1.782631e+02
3.800000e-07	-2.285237e-06	-2.621737e-09	-1.720994e+01	-1.777090e+02
3.900000e-07	-2.266957e-06	-2.713392e-09	-1.707227e+01	-1.771387e+02
4.000000e-07	-2.248234e-06	-2.777499e-09	-1.693127e+01	-1.765513e+02
4.100000e-07	-2.229005e-06	-2.644112e-09	-1.678646e+01	-1.759459e+02
4.200000e-07	-2.209395e-06	-2.556280e-09	-1.663878e+01	-1.753218e+02
4.300000e-07	-2.189628e-06	-2.676719e-09	-1.648992e+01	-1.746784e+02
4.400000e-07	-2.169683e-06	-2.724382e-09	-1.633971e+01	-1.740152e+02
4.500000e-07	-2.149432e-06	-2.592144e-09	-1.618721e+01	-1.733320e+02
4.600000e-07	-2.128841e-06	-2.544268e-09	-1.603213e+01	-1.726286e+02
4.700000e-07	-2.107919e-06	-2.630383e-09	-1.587457e+01	-1.719051e+02
4.800000e-07	-2.086564e-06	-2.633152e-09	-1.571375e+01	-1.711617e+02
4.900000e-07	-2.064778e-06	-2.550483e-09	-1.554968e+01	-1.703985e+02
5.000000e-07	-2.042702e-06	-2.539140e-09	-1.538343e+01	-1.696158e+02
5.100000e-07	-2.020329e-06	-2.560783e-09	-1.521494e+01	-1.688138e+02
5.200000e-07	-1.997520e-06	-2.534687e-09	-1.504317e+01	-1.679924e+02
5.300000e-07	-1.974372e-06	-2.525147e-09	-1.486884e+01	-1.671516e+02
5.400000e-07	-1.950963e-06	-2.523695e-09	-1.469255e+01	-1.662912e+02
5.500000e-07	-1.927275e-06	-2.478210e-09	-1.451416e+01	-1.654107e+02
5.600000e-07	-1.903389e-06	-2.458974e-09	-1.433428e+01	-1.645093e+02
5.700000e-07	-1.879275e-06	-2.490369e-09	-1.415267e+01	-1.635863e+02
5.800000e-07	-1.854817e-06	-2.472854e-09	-1.396848e+01	-1.626406e+02
5.900000e-07	-1.829815e-06	-2.402984e-09	-1.378019e+01	-1.616710e+02
6.000000e-07	-1.804194e-06	-2.397999e-09	-1.358724e+01	-1.606762e+02
6.100000e-07	-1.778144e-06	-2.431889e-09	-1.339107e+01	-1.596550e+02
6.200000e-07	-1.751655e-06	-2.400182e-09	-1.319158e+01	-1.586062e+02
6.300000e-07	-1.724631e-06	-2.338598e-09	-1.298806e+01	-1.575286e+02
6.400000e-07	-1.697249e-06	-2.335502e-09	-1.278185e+01	-1.564212e+02
6.500000e-07	-1.669678e-06	-2.355852e-09	-1.257422e+01	-1.552832e+02
6.600000e-07	-1.641972e-06	-2.322224e-09	-1.236557e+01	-1.541142e+02
6.700000e-07	-1.614150e-06	-2.275529e-09	-1.215603e+01	-1.529138e+02
6.800000e-07	-1.586142e-06	-2.270369e-09	-1.194511e+01	-1.516819e+02
6.900000e-07	-1.557825e-06	-2.266512e-09	-1.173186e+01	-1.504186e+02
7.000000e-07	-1.529205e-06	-2.238663e-09	-1.151632e+01	-1.491244e+02
7.100000e-07	-1.500268e-06	-2.211877e-09	-1.129840e+01	-1.477996e+02
7.200000e-07	-1.471006e-06	-2.192075e-09	-1.107803e+01	-1.464448e+02
7.300000e-07	-1.441516e-06	-2.169623e-09	-1.085594e+01	-1.450605e+02
7.400000e-07	-1.411905e-06	-2.155088e-09	-1.063294e+01	-1.436474e+02
7.500000e-07	-1.382112e-06	-2.140365e-09	-1.040857e+01	-1.422057e+02
7.600000e-07	-1.352063e-06	-2.101514e-09	-1.018228e+01	-1.407359e+02
7.700000e-07	-1.321780e-06	-2.067318e-09	-9.954219e+00	-1.392378e+02
7.800000e-07	-1.291274e-06	-2.063730e-09	-9.724483e+00	-1.377114e+02
7.900000e-07	-1.260532e-06	-2.051727e-09	-9.492968e+00	-1.361564e+02
8.000000e-07	-1.229549e-06	-2.004700e-09	-9.259638e+00	-1.345721e+02
8.100000e-07	-1.198416e-06	-1.963516e-09	-9.025180e+00	-1.329576e+02
8.200000e-07	-1.167089e-06	-1.955544e-09	-8.789257e+00	-1.313121e+02
8.300000e-07	-1.135578e-06	-1.942385e-09	-8.551950e+00	-1.296345e+02
8.400000e-07	-1.103999e-06	-1.901846e-09	-8.314130e+00	-1.279234e+02
8.500000e-07	-1.072332e-06	-1.865510e-09	-8.075646e+00	-1.261777e+02
8.600000e-07	-1.040510e-06	-1.847885e-09	-7.836001e+00	-1.243961e+02
8.700000e-07	-1.008554e-06	-1.830634e-09	-7.595345e+00	-1.225774e+02
8.800000e-07	-9.764988e-07	-1.799358e-09	-7.353936e+00	-1.207202e+02
8.900000e-07	-9.443052e-07	-1.761939e-09	-7.111488e+00	-1.188236e+02
9.000000e-07	-9.119267e-07	-1.728556e-09	-6.867649e+00	-1.168865e+02
9.100000e-07	-8.793013e-07	-1.699347e-09	-6.621949e+00	-1.149077e+02
9.200000e-07	-8.464527e-07	-1.672834e-09	-6.374569e+00	-1.128864e+02
9.300000e-07	-8.134312e-07	-1.639698e-09	-6.125887e+00	-1.108215e+02
9.400000e-07	-7.802049e-07	-1.596681e-09	-5.875662e+00	-1.087120e+02
9.500000e-07	-7.467354e-07	-1.560957e-09	-5.623606e+00	-1.065568e+02
9.600000e-07	-7.130274e-07	-1.537966e-09	-5.369754e+00	-1.043545e+02
9.700000e-07	-6.790990e-07	-1.509071e-09	-5.114242e+00	-1.021038e+02
9.800000e-07	-6.449313e-07	-1.464826e-09	-4.856927e+00	-9.980304e+01
9.900000e-07	-6.105462e-07	-1.424382e-09	-4.597975e+00	-9.745043e+01
1.000000e-06	-5.759802e-07	-1.397380e-09	-4.337662e+00	-9.504399e+01
1.010000e-06	-5.411669e-07	-1.366347e-09	-4.075485e+00	-9.258157e+01
1.020000e-06	-5.061128e-07	-1.323037e-09	-3.811496e+00	-9.006090e+01
1.030000e-06	-4.709658e-07	-1.276802e-09	-3.546807e+00	-8.747964e+01
1.040000e-06	-4.357372e-07	-1.236304e-09	-3.281503e+00	-8.483541e+01
1.050000e-06	-4.003626e-07	-1.197392e-09	-3.015099e+00	-8.212593e+01
1.060000e-06	-3.649080e-07	-1.155650e-09	-2.748094e+00	-7.934902e+01
1.070000e-06	-3.293990e-07	-1.111942e-09	-2.480678e+00	-7.650275e+01
1.080000e-06	-2.938614e-07	-1.066627e-09	-2.213047e+00	-7.358545e+01
1.090000e-06	-2.583343e-07	-1.022215e-09	-1.945496e+00	-7.059583e+01
1.100000e-06	-2.227672e-07	-9.790386e-10	-1.677643e+00	-6.753299e+01
1.110000e-06	-1.871672e-07	-9.331092e-10	-1.409542e+00	-6.439651e+01
1.120000e-06	-1.515782e-07	-8.821007e-10	-1.141523e+00	-6.118643e+01
1.130000e-06	-1.159772e-07	-8.309508e-10	-8.734152e-01	-5.790329e+01
1.140000e-06	-8.035175e-08	-7.854997e-10	-6.051227e-01	-5.454813e+01
1.150000e-06	-4.472902e-08	-7.379919e-10	-3.368507e-01	-5.112245e+01
1.160000e-06	-9.111392e-09	-6.837203e-10	-6.861718e-02	-4.762822e+01
1.170000e-06	2.651260e-08	-6.290202e-10	1.996643e-01	-4.406785e+01
1.180000e-06	6.213605e-08	-5.778294e-10	4.679417e-01	-4.044411e+01
1.190000e-06	9.772979e-08	-5.255999e-10	7.359954e-01	-3.676016e+01
1.200000e-06	1.333127e-07	-4.693162e-10	1.003967e+00	-3.301950e+01
1.210000e-06	1.688917e-07	-4.133484e-10	1.271910e+00	-2.922593e+01
1.220000e-06	2.044714e-07	-3.592455e-10	1.539858e+00	-2.538355e+01
1.230000e-06	2.400641e-07	-3.049669e-10	1.807904e+00	-2.149677e+01
1.240000e-06	2.755942e-07	-2.474994e-10	2.075478e+00	-1.757027e+01
1.250000e-06	3.110219e-07	-1.891056e-10	2.342281e+00	-1.360904e+01
1.260000e-06	3.463975e-07	-1.295111e-10	2.608692e+00	-9.618364e+00
1.270000e-06	3.817747e-07	-7.008915e-11	2.875116e+00	-5.603828e+00
1.280000e-06	4.170894e-07	-1.034477e-11	3.141068e+00	-1.571317e+00
1.290000e-06	4.522942e-07	5.031143e-11	3.406192e+00	2.473000e+00
1.300000e-06	4.874017e-07	1.097228e-10	3.670584e+00	6.522699e+00
1.310000e-06	5.224147e-07	1.698664e-10	3.934264e+00	1.057114e+01
1.320000e-06	5.573324e-07	2.277483e-10	4.197227e+00	1.461154e+01
1.330000e-06	5.920985e-07	2.880476e-10	4.459047e+00	1.863703e+01
1.340000e-06	6.266940e-07	3.504971e-10	4.719583e+00	2.264078e+01
1.350000e-06	6.610803e-07	4.107332e-10	4.978544e+00	2.661609e+01
1.360000e-06	6.951996e-07	4.688998e-10	5.235494e+00	3.055652e+01
1.370000e-06	7.290597e-07	5.284424e-10	5.490492e+00	3.445602e+01
1.380000e-06	7.626565e-07	5.868862e-10	5.743506e+00	3.830902e+01
1.390000e-06	7.959974e-07	6.403521e-10	5.994594e+00	4.211061e+01
1.400000e-06	8.291152e-07	6.925985e-10	6.244001e+00	4.585658e+01
1.410000e-06	8.620396e-07	7.465930e-10	6.491953e+00	4.954353e+01
1.420000e-06	8.947205e-07	8.005050e-10	6.738070e+00	5.316889e+01
1.430000e-06	9.271809e-07	8.502491e-10	6.982527e+00	5.673098e+01
1.440000e-06	9.594696e-07	8.985435e-10	7.225691e+00	6.022896e+01
1.450000e-06	9.916143e-07	9.493406e-10	7.467769e+00	6.366279e+01
1.460000e-06	1.023626e-06	1.001671e-09	7.708847e+00	6.703314e+01
1.470000e-06	1.055498e-06	1.050766e-09	7.948871e+00	7.034130e+01
1.480000e-06	1.087318e-06	1.096262e-09	8.188508e+00	7.358898e+01
1.490000e-06	1.119048e-06	1.142375e-09	8.427466e+00	7.677822e+01
1.500000e-06	1.150654e-06	1.190868e-09	8.665482e+00	7.991121e+01
1.510000e-06	1.182148e-06	1.238152e-09	8.902664e+00	8.299009e+01
1.520000e-06	1.213471e-06	1.282456e-09	9.138556e+00	8.601684e+01
1.530000e-06	1.244562e-06	1.325876e-09	9.372702e+00	8.899311e+01
1.540000e-06	1.275342e-06	1.369728e-09	9.604499e+00	9.192014e+01
1.550000e-06	1.305819e-06	1.413825e-09	9.834024e+00	9.479866e+01
1.560000e-06	1.336110e-06	1.455691e-09	1.006214e+01	9.762887e+01
1.570000e-06	1.366209e-06	1.493456e-09	1.028881e+01	1.004104e+02
1.580000e-06	1.396080e-06	1.531017e-09	1.051377e+01	1.031424e+02
1.590000e-06	1.425764e-06	1.569926e-09	1.073731e+01	1.058236e+02
1.600000e-06	1.455229e-06	1.608822e-09	1.095921e+01	1.084524e+02
1.610000e-06	1.484469e-06	1.646249e-09	1.117942e+01	1.110268e+02
1.620000e-06	1.513483e-06	1.683727e-09	1.139792e+01	1.135449e+02
1.630000e-06	1.542214e-06	1.719970e-09	1.161429e+01	1.160049e+02
1.640000e-06	1.570670e-06	1.755477e-09	1.182859e+01	1.184050e+02
1.650000e-06	1.598830e-06	1.792199e-09	1.204066e+01	1.207439e+02
1.660000e-06	1.626753e-06	1.826583e-09	1.225095e+01	1.230207e+02
1.670000e-06	1.654545e-06	1.859630e-09	1.246025e+01	1.252349e+02
1.680000e-06	1.682232e-06	1.892057e-09	1.266876e+01	1.273867e+02
1.690000e-06	1.709791e-06	1.923842e-09	1.287630e+01	1.294766e+02
1.700000e-06	1.737177e-06	1.955281e-09	1.308254e+01	1.315060e+02
1.710000e-06	1.764188e-06	1.986970e-09	1.328596e+01	1.334765e+02
1.720000e-06	1.790670e-06	2.017998e-09	1.348539e+01	1.353902e+02
1.730000e-06	1.816591e-06	2.046843e-09	1.368061e+01	1.372496e+02
1.740000e-06	1.841827e-06	2.074522e-09	1.387066e+01	1.390571e+02
1.750000e-06	1.866507e-06	2.102029e-09	1.405652e+01	1.408155e+02
1.760000e-06	1.890842e-06	2.127784e-09	1.423978e+01	1.425272e+02
1.770000e-06	1.914850e-06	2.151883e-09	1.442058e+01	1.441947e+02
1.780000e-06	1.938609e-06	2.175446e-09	1.459952e+01	1.458201e+02
1.790000e-06	1.962161e-06	2.200014e-09	1.477688e+01	1.474053e+02
1.800000e-06	1.985432e-06	2.224295e-09	1.495213e+01	1.489515e+02
1.810000e-06	2.008342e-06	2.246058e-09	1.512466e+01	1.504599e+02
1.820000e-06	2.030891e-06	2.267722e-09	1.529448e+01	1.519310e+02
1.830000e-06	2.053038e-06	2.291421e-09	1.546127e+01	1.533651e+02
1.840000e-06	2.074815e-06	2.315152e-09	1.562527e+01	1.547623e+02
1.850000e-06	2.096292e-06	2.335536e-09	1.578701e+01	1.561222e+02
1.860000e-06	2.117453e-06	2.354785e-09	1.594638e+01	1.574446e+02
1.870000e-06	2.138274e-06	2.375900e-09	1.610317e+01	1.587291e+02
1.880000e-06	2.158720e-06	2.396543e-09	1.625715e+01	1.599754e+02
1.890000e-06	2.178833e-06	2.413432e-09	1.640862e+01	1.611834e+02
1.900000e-06	2.198670e-06	2.428037e-09	1.655801e+01	1.623531e+02
1.910000e-06	2.218293e-06	2.443752e-09	1.670579e+01	1.634847e+02
1.920000e-06	2.237675e-06	2.461954e-09	1.685175e+01	1.645788e+02
1.930000e-06	2.256632e-06	2.480487e-09	1.699452e+01	1.656364e+02
1.940000e-06	2.275081e-06	2.497202e-09	1.713346e+01	1.666584e+02
1.950000e-06	2.293048e-06	2.512961e-09	1.726877e+01	1.676462e+02
1.960000e-06	2.310509e-06	2.528804e-09	1.740026e+01	1.686012e+02
1.970000e-06	2.327613e-06	2.545081e-09	1.752907e+01	1.695250e+02
1.980000e-06	2.344453e-06	2.559245e-09	1.765589e+01	1.704190e+02
1.990000e-06	2.360985e-06	2.573238e-09	1.778039e+01	1.712850e+02
2.000000e-06	2.377117e-06	2.587617e-09	1.790189e+01	1.721241e+02
2.010000e-06	2.392738e-06	2.600044e-09	1.801952e+01	1.729378e+02
2.020000e-06	2.407807e-06	2.611404e-09	1.813301e+01	1.737269e+02
2.030000e-06	2.422264e-06	2.622171e-09	1.824188e+01	1.744922e+02
2.040000e-06	2.436205e-06	2.632630e-09	1.834687e+01	1.752344e+02
2.050000e-06	2.449802e-06	2.642424e-09	1.844927e+01	1.759537e+02
2.060000e-06	2.463049e-06	2.652610e-09	1.854903e+01	1.766502e+02
2.070000e-06	2.475816e-06	2.662694e-09	1.864517e+01	1.773240e+02
2.080000e-06	2.488159e-06	2.673006e-09	1.873813e+01	1.779748e+02
2.090000e-06	2.500137e-06	2.683813e-09	1.882833e+01	1.786025e+02
2.100000e-06	2.511667e-06	2.693085e-09	1.891517e+01	1.792070e+02
2.110000e-06	2.522644e-06	2.701659e-09	1.899783e+01	1.797880e+02
2.120000e-06	2.532953e-06	2.711211e-09	1.907547e+01	1.803455e+02
2.130000e-06	2.542568e-06	2.719883e-09	1.914788e+01	1.808796e+02
2.140000e-06	2.551421e-06	2.727734e-09	1.921455e+01	1.813906e+02
2.150000e-06	2.559675e-06	2.736727e-09	1.927671e+01	1.818788e+02
2.160000e-06	2.567624e-06	2.745196e-09	1.933657e+01	1.823447e+02
2.170000e-06	2.575310e-06	2.753116e-09	1.939446e+01	1.827889e+02
2.180000e-06	2.582657e-06	2.761267e-09	1.944979e+01	1.832122e+02
2.190000e-06	2.589589e-06	2.767901e-09	1.950199e+01	1.836152e+02
2.200000e-06	2.596070e-06	2.772955e-09	1.955080e+01	1.839986e+02
2.210000e-06	2.602111e-06	2.778854e-09	1.959629e+01	1.843633e+02
2.220000e-06	2.607699e-06	2.786092e-09	1.963837e+01	1.847096e+02
2.230000e-06	2.612801e-06	2.791154e-09	1.967680e+01	1.850381e+02
2.240000e-06	2.617467e-06	2.793860e-09	1.971194e+01	1.853492e+02
2.250000e-06	2.621760e-06	2.797674e-09	1.974427e+01	1.856430e+02
2.260000e-06	2.625711e-06	2.802582e-09	1.977402e+01	1.859195e+02
2.270000e-06	2.629350e-06	2.807056e-09	1.980143e+01	1.861787e+02
2.280000e-06	2.632610e-06	2.810754e-09	1.982598e+01	1.864204e+02
2.290000e-06	2.635356e-06	2.814658e-09	1.984666e+01	1.866442e+02
2.300000e-06	2.637459e-06	2.820537e-09	1.986250e+01	1.868500e+02
2.310000e-06	2.638822e-06	2.827462e-09	1.987276e+01	1.870374e+02
2.320000e-06	2.639459e-06	2.832342e-09	1.987756e+01	1.872061e+02
2.330000e-06	2.639584e-06	2.835557e-09	1.987850e+01	1.873560e+02
2.340000e-06	2.639422e-06	2.840261e-09	1.987728e+01	1.874868e+02
2.350000e-06	2.638966e-06	2.845280e-09	1.987385e+01	1.875987e+02
2.360000e-06	2.638171e-06	2.848043e-09	1.986786e+01	1.876916e+02
2.370000e-06	2.636919e-06	2.850999e-09	1.985843e+01	1.877656e+02
2.380000e-06	2.635184e-06	2.865554e-09	1.984536e+01	1.878211e+02
2.390000e-06	2.633053e-06	2.883905e-09	1.982932e+01	1.878583e+02
2.400000e-06	2.630513e-06	2.852575e-09	1.981018e+01	1.878773e+02
2.410000e-06	2.627510e-06	2.825494e-09	1.978757e+01	1.878785e+02
2.420000e-06	2.623992e-06	2.794014e-09	1.976108e+01	1.878618e+02
2.430000e-06	2.620048e-06	2.852547e-09	1.973137e+01	1.878274e+02
2.440000e-06	2.615885e-06	2.907980e-09	1.970003e+01	1.877752e+02
2.450000e-06	2.611491e-06	2.898195e-09	1.966693e+01	1.877050e+02
2.460000e-06	2.606626e-06	2.795570e-09	1.963029e+01	1.876165e+02
2.470000e-06	2.601066e-06	2.793754e-09	1.958843e+01	1.875091e+02
2.480000e-06	2.594710e-06	2.892646e-09	1.954056e+01	1.873825e+02
2.490000e-06	2.587859e-06	2.935429e-09	1.948896e+01	1.872359e+02
2.500000e-06	2.580554e-06	2.864435e-09	1.943395e+01	1.870689e+02
2.510000e-06	2.572662e-06	2.774080e-09	1.937452e+01	1.868810e+02
2.520000e-06	2.564426e-06	2.823646e-09	1.931249e+01	1.866717e+02
2.530000e-06	2.555923e-06	2.895547e-09	1.924845e+01	1.864406e+02
2.540000e-06	2.546992e-06	2.921551e-09	1.918120e+01	1.861878e+02
2.550000e-06	2.537505e-06	2.791731e-09	1.910975e+01	1.859132e+02
2.560000e-06	2.527574e-06	2.746100e-09	1.903496e+01	1.856173e+02
2.570000e-06	2.517318e-06	2.842900e-09	1.895772e+01	1.853004e+02
2.580000e-06	2.506608e-06	2.945483e-09	1.887707e+01	1.849634e+02
2.590000e-06	2.495362e-06	2.825272e-09	1.879238e+01	1.846070e+02
2.600000e-06	2.483710e-06	2.689190e-09	1.870462e+01	1.842324e+02
2.610000e-06	2.471729e-06	2.804185e-09	1.861440e+01	1.838405e+02
2.620000e-06	2.459245e-06	2.920439e-09	1.852038e+01	1.834325e+02
2.630000e-06	2.446181e-06	2.815832e-09	1.842200e+01	1.830094e+02
2.640000e-06	2.432615e-06	2.699869e-09	1.831983e+01	1.825720e+02
2.650000e-06	2.418275e-06	2.798227e-09	1.821184e+01	1.821212e+02
2.660000e-06	2.402983e-06	2.843844e-09	1.809667e+01	1.816574e+02
2.670000e-06	2.387161e-06	2.765726e-09	1.797752e+01	1.811810e+02
2.680000e-06	2.371110e-06	2.767369e-09	1.785664e+01	1.806920e+02
2.690000e-06	2.354788e-06	2.786193e-09	1.773372e+01	1.801901e+02
2.700000e-06	2.338179e-06	2.725496e-09	1.760864e+01	1.796750e+02
2.710000e-06	2.321231e-06	2.739177e-09	1.748101e+01	1.791459e+02
2.720000e-06	2.303821e-06	2.822502e-09	1.734990e+01	1.786022e+02
2.730000e-06	2.285920e-06	2.731067e-09	1.721508e+01	1.780428e+02
2.740000e-06	2.267677e-06	2.632797e-09	1.707770e+01	1.774670e+02
2.750000e-06	2.249112e-06	2.740924e-09	1.693788e+01	1.768737e+02
2.760000e-06	2.230110e-06	2.791659e-09	1.679479e+01	1.762622e+02
2.770000e-06	2.210610e-06	2.659002e-09	1.664793e+01	1.756318e+02
2.780000e-06	2.190802e-06	2.616087e-09	1.649876e+01	1.749818e+02
2.790000e-06	2.170831e-06	2.718427e-09	1.634836e+01	1.743119e+02
2.800000e-06	2.150655e-06	2.714395e-09	1.619642e+01	1.736220e+02
2.810000e-06	2.130280e-06	2.616332e-09	1.604298e+01	1.729119e+02
2.820000e-06	2.109631e-06	2.618491e-09	1.588746e+01	1.721818e+02
2.830000e-06	2.088495e-06	2.673161e-09	1.572829e+01	1.714317e+02
2.840000e-06	2.066757e-06	2.634314e-09	1.556458e+01	1.706621e+02
2.850000e-06	2.044415e-06	2.579468e-09	1.539633e+01	1.698729e+02
2.860000e-06	2.021491e-06	2.603743e-09	1.522369e+01	1.690644e+02
2.870000e-06	1.998059e-06	2.608113e-09	1.504723e+01	1.682366e+02
2.880000e-06	1.974196e-06	2.553872e-09	1.486751e+01	1.673893e+02
2.890000e-06	1.950118e-06	2.551955e-09	1.468618e+01	1.665223e+02
2.900000e-06	1.925911e-06	2.573531e-09	1.450388e+01	1.656349e+02
2.910000e-06	1.901488e-06	2.529722e-09	1.431996e+01	1.647264e+02
2.920000e-06	1.876765e-06	2.502087e-09	1.413377e+01	1.637959e+02
2.930000e-06	1.851742e-06	2.528092e-09	1.394532e+01	1.628423e+02
2.940000e-06	1.826325e-06	2.513554e-09	1.375391e+01	1.618643e+02
2.950000e-06	1.800470e-06	2.460745e-09	1.355920e+01	1.608608e+02
