# Temperatura_=_20.0
# Concentracion g/m^3_=_9000.0
# C_Vs_to_Am_M_A/Vsm_=_65563218390.804596
# pendiente_HvsI_1/m_=_3716.3
# ordenada_HvsI_A/m_=_1297.0
# frecuencia_Hz_=_213041.96941553193

Tiempo_(s)	Campo_(V.s)	Magnetizacion_(V.s)	Campo_(kA/m)	Magnetizacion_(A/m)
0.000000e+00	-2.635305e-06	-2.849266e-09	-1.982270e+01	-1.873938e+02
1.000000e-08	-2.635566e-06	-2.848910e-09	-1.982467e+01	-1.874938e+02
2.000000e-08	-2.635570e-06	-2.849555e-09	-1.982470e+01	-1.875673e+02
3.000000e-08	-2.635136e-06	-2.850633e-09	-1.982144e+01	-1.876148e+02
4.000000e-08	-2.634114e-06	-2.849462e-09	-1.981374e+01	-1.876371e+02
5.000000e-08	-2.632334e-06	-2.828946e-09	-1.980036e+01	-1.876356e+02
6.000000e-08	-2.629746e-06	-2.799430e-09	-1.978089e+01	-1.876123e+02
7.000000e-08	-2.626550e-06	-2.842617e-09	-1.975685e+01	-1.875699e+02
8.000000e-08	-2.622922e-06	-2.958481e-09	-1.972956e+01	-1.875110e+02
9.000000e-08	-2.618956e-06	-2.960734e-09	-1.969973e+01	-1.874386e+02
1.000000e-07	-2.614754e-06	-2.765655e-09	-1.966812e+01	-1.873557e+02
1.100000e-07	-2.610200e-06	-2.683629e-09	-1.963387e+01	-1.872649e+02
1.200000e-07	-2.605170e-06	-2.850709e-09	-1.959603e+01	-1.871687e+02
1.300000e-07	-2.599684e-06	-3.008796e-09	-1.955477e+01	-1.870688e+02
1.400000e-07	-2.593861e-06	-2.890726e-09	-1.951096e+01	-1.869665e+02
1.500000e-07	-2.587583e-06	-2.705611e-09	-1.946375e+01	-1.868622e+02
1.600000e-07	-2.580598e-06	-2.691076e-09	-1.941120e+01	-1.867554e+02
1.700000e-07	-2.573151e-06	-2.869140e-09	-1.935518e+01	-1.866452e+02
1.800000e-07	-2.565536e-06	-3.000170e-09	-1.929791e+01	-1.865296e+02
1.900000e-07	-2.557610e-06	-2.871387e-09	-1.923828e+01	-1.864061e+02
2.000000e-07	-2.549130e-06	-2.640277e-09	-1.917450e+01	-1.862718e+02
2.100000e-07	-2.540195e-06	-2.702907e-09	-1.910729e+01	-1.861233e+02
2.200000e-07	-2.530880e-06	-3.044442e-09	-1.903722e+01	-1.859572e+02
2.300000e-07	-2.520763e-06	-3.031848e-09	-1.896113e+01	-1.857701e+02
2.400000e-07	-2.509650e-06	-2.685233e-09	-1.887753e+01	-1.855587e+02
2.500000e-07	-2.498024e-06	-2.633638e-09	-1.879008e+01	-1.853204e+02
2.600000e-07	-2.486155e-06	-2.982414e-09	-1.870080e+01	-1.850527e+02
2.700000e-07	-2.473769e-06	-3.019735e-09	-1.860763e+01	-1.847542e+02
2.800000e-07	-2.460814e-06	-2.737702e-09	-1.851019e+01	-1.844239e+02
2.900000e-07	-2.447478e-06	-2.679922e-09	-1.840988e+01	-1.840616e+02
3.000000e-07	-2.433713e-06	-2.837441e-09	-1.830634e+01	-1.836678e+02
3.100000e-07	-2.419445e-06	-2.875739e-09	-1.819901e+01	-1.832437e+02
3.200000e-07	-2.404744e-06	-2.821101e-09	-1.808843e+01	-1.827910e+02
3.300000e-07	-2.389363e-06	-2.779960e-09	-1.797274e+01	-1.823117e+02
3.400000e-07	-2.373135e-06	-2.686125e-09	-1.785067e+01	-1.818080e+02
3.500000e-07	-2.356452e-06	-2.726903e-09	-1.772518e+01	-1.812825e+02
3.600000e-07	-2.339492e-06	-2.883116e-09	-1.759761e+01	-1.807374e+02
3.700000e-07	-2.322184e-06	-2.815911e-09	-1.746742e+01	-1.801747e+02
3.800000e-07	-2.304571e-06	-2.590169e-09	-1.733493e+01	-1.795962e+02
3.900000e-07	-2.286678e-06	-2.660824e-09	-1.720034e+01	-1.790031e+02
4.000000e-07	-2.268427e-06	-2.881246e-09	-1.706306e+01	-1.783962e+02
4.100000e-07	-2.249608e-06	-2.782114e-09	-1.692150e+01	-1.777757e+02
4.200000e-07	-2.230229e-06	-2.563374e-09	-1.677573e+01	-1.771413e+02
4.300000e-07	-2.210598e-06	-2.643529e-09	-1.662807e+01	-1.764923e+02
4.400000e-07	-2.190850e-06	-2.796737e-09	-1.647953e+01	-1.758276e+02
4.500000e-07	-2.170884e-06	-2.694107e-09	-1.632934e+01	-1.751456e+02
4.600000e-07	-2.150631e-06	-2.573562e-09	-1.617700e+01	-1.744449e+02
4.700000e-07	-2.130007e-06	-2.633283e-09	-1.602187e+01	-1.737238e+02
4.800000e-07	-2.108966e-06	-2.667890e-09	-1.586360e+01	-1.729806e+02
4.900000e-07	-2.087533e-06	-2.609839e-09	-1.570238e+01	-1.722141e+02
5.000000e-07	-2.065796e-06	-2.604804e-09	-1.553887e+01	-1.714231e+02
5.100000e-07	-2.043766e-06	-2.596551e-09	-1.537316e+01	-1.706066e+02
5.200000e-07	-2.021239e-06	-2.536462e-09	-1.520372e+01	-1.697643e+02
5.300000e-07	-1.998283e-06	-2.561801e-09	-1.503104e+01	-1.688959e+02
5.400000e-07	-1.975047e-06	-2.609381e-09	-1.485626e+01	-1.680016e+02
5.500000e-07	-1.951555e-06	-2.521732e-09	-1.467955e+01	-1.670818e+02
5.600000e-07	-1.927882e-06	-2.446695e-09	-1.450149e+01	-1.661370e+02
5.700000e-07	-1.904053e-06	-2.518651e-09	-1.432224e+01	-1.651680e+02
5.800000e-07	-1.879939e-06	-2.553128e-09	-1.414086e+01	-1.641754e+02
5.900000e-07	-1.855367e-06	-2.453157e-09	-1.395603e+01	-1.631598e+02
6.000000e-07	-1.830250e-06	-2.399412e-09	-1.376710e+01	-1.621216e+02
6.100000e-07	-1.804584e-06	-2.452644e-09	-1.357404e+01	-1.610609e+02
6.200000e-07	-1.778393e-06	-2.461526e-09	-1.337703e+01	-1.599775e+02
6.300000e-07	-1.751685e-06	-2.390260e-09	-1.317614e+01	-1.588710e+02
6.400000e-07	-1.724555e-06	-2.351568e-09	-1.297206e+01	-1.577407e+02
6.500000e-07	-1.697141e-06	-2.367835e-09	-1.276586e+01	-1.565854e+02
6.600000e-07	-1.669539e-06	-2.362258e-09	-1.255823e+01	-1.554039e+02
6.700000e-07	-1.641823e-06	-2.331074e-09	-1.234975e+01	-1.541947e+02
6.800000e-07	-1.613999e-06	-2.310155e-09	-1.214046e+01	-1.529565e+02
6.900000e-07	-1.585938e-06	-2.285792e-09	-1.192939e+01	-1.516876e+02
7.000000e-07	-1.557550e-06	-2.263937e-09	-1.171586e+01	-1.503869e+02
7.100000e-07	-1.528921e-06	-2.266164e-09	-1.150051e+01	-1.490531e+02
7.200000e-07	-1.500023e-06	-2.249252e-09	-1.128314e+01	-1.476855e+02
7.300000e-07	-1.470783e-06	-2.192263e-09	-1.106320e+01	-1.462836e+02
7.400000e-07	-1.441296e-06	-2.164863e-09	-1.084139e+01	-1.448471e+02
7.500000e-07	-1.411630e-06	-2.181329e-09	-1.061825e+01	-1.433764e+02
7.600000e-07	-1.381721e-06	-2.157924e-09	-1.039328e+01	-1.418720e+02
7.700000e-07	-1.351642e-06	-2.094196e-09	-1.016702e+01	-1.403348e+02
7.800000e-07	-1.321389e-06	-2.073293e-09	-9.939456e+00	-1.387660e+02
7.900000e-07	-1.290794e-06	-2.084776e-09	-9.709320e+00	-1.371666e+02
8.000000e-07	-1.259987e-06	-2.057553e-09	-9.477593e+00	-1.355380e+02
8.100000e-07	-1.229065e-06	-2.003147e-09	-9.244999e+00	-1.338814e+02
8.200000e-07	-1.197897e-06	-1.976931e-09	-9.010554e+00	-1.321978e+02
8.300000e-07	-1.166489e-06	-1.968005e-09	-8.774307e+00	-1.304877e+02
8.400000e-07	-1.134951e-06	-1.941495e-09	-8.537076e+00	-1.287517e+02
8.500000e-07	-1.103362e-06	-1.905992e-09	-8.299463e+00	-1.269896e+02
8.600000e-07	-1.071696e-06	-1.875269e-09	-8.061274e+00	-1.252007e+02
8.700000e-07	-1.039858e-06	-1.847261e-09	-7.821789e+00	-1.233841e+02
8.800000e-07	-1.007844e-06	-1.825532e-09	-7.580982e+00	-1.215381e+02
8.900000e-07	-9.757049e-07	-1.802556e-09	-7.339231e+00	-1.196608e+02
9.000000e-07	-9.434122e-07	-1.763988e-09	-7.096325e+00	-1.177496e+02
9.100000e-07	-9.109853e-07	-1.722875e-09	-6.852412e+00	-1.158017e+02
9.200000e-07	-8.783984e-07	-1.699768e-09	-6.607294e+00	-1.138142e+02
9.300000e-07	-8.455437e-07	-1.678833e-09	-6.360161e+00	-1.117837e+02
9.400000e-07	-8.123937e-07	-1.634415e-09	-6.110808e+00	-1.097072e+02
9.500000e-07	-7.789489e-07	-1.584815e-09	-5.859236e+00	-1.075812e+02
9.600000e-07	-7.453068e-07	-1.559555e-09	-5.606181e+00	-1.054028e+02
9.700000e-07	-7.114996e-07	-1.541066e-09	-5.351885e+00	-1.031690e+02
9.800000e-07	-6.773857e-07	-1.503917e-09	-5.095280e+00	-1.008772e+02
9.900000e-07	-6.430258e-07	-1.458669e-09	-4.836826e+00	-9.852510e+01
1.000000e-06	-6.085382e-07	-1.424232e-09	-4.577411e+00	-9.611074e+01
1.010000e-06	-5.738479e-07	-1.395289e-09	-4.316471e+00	-9.363254e+01
1.020000e-06	-5.389530e-07	-1.359435e-09	-4.053993e+00	-9.108926e+01
1.030000e-06	-5.039465e-07	-1.315122e-09	-3.790675e+00	-8.848002e+01
1.040000e-06	-4.688264e-07	-1.269686e-09	-3.526502e+00	-8.580426e+01
1.050000e-06	-4.335453e-07	-1.229849e-09	-3.261118e+00	-8.306170e+01
1.060000e-06	-3.981864e-07	-1.193016e-09	-2.995150e+00	-8.025232e+01
1.070000e-06	-3.627645e-07	-1.151510e-09	-2.728706e+00	-7.737628e+01
1.080000e-06	-3.272409e-07	-1.101551e-09	-2.461499e+00	-7.443391e+01
1.090000e-06	-2.916886e-07	-1.054355e-09	-2.194076e+00	-7.142568e+01
1.100000e-06	-2.561416e-07	-1.015266e-09	-1.926692e+00	-6.835213e+01
1.110000e-06	-2.205750e-07	-9.729969e-10	-1.659160e+00	-6.521390e+01
1.120000e-06	-1.850014e-07	-9.202939e-10	-1.391577e+00	-6.201168e+01
1.130000e-06	-1.494156e-07	-8.648718e-10	-1.123901e+00	-5.874624e+01
1.140000e-06	-1.138171e-07	-8.175014e-10	-8.561297e-01	-5.541840e+01
1.150000e-06	-7.821470e-08	-7.724148e-10	-5.883292e-01	-5.202910e+01
1.160000e-06	-4.258170e-08	-7.193171e-10	-3.202986e-01	-4.857939e+01
1.170000e-06	-6.936521e-09	-6.636429e-10	-5.217636e-02	-4.507049e+01
1.180000e-06	2.868113e-08	-6.123629e-10	2.157388e-01	-4.150381e+01
1.190000e-06	6.428663e-08	-5.622099e-10	4.835626e-01	-3.788100e+01
1.200000e-06	9.988798e-08	-5.088806e-10	7.513552e-01	-3.420404e+01
1.210000e-06	1.354764e-07	-4.544446e-10	1.019050e+00	-3.047522e+01
1.220000e-06	1.710761e-07	-3.999188e-10	1.286831e+00	-2.669725e+01
1.230000e-06	2.066579e-07	-3.443746e-10	1.554476e+00	-2.287325e+01
1.240000e-06	2.422062e-07	-2.898829e-10	1.821870e+00	-1.900683e+01
1.250000e-06	2.777407e-07	-2.352609e-10	2.089160e+00	-1.510209e+01
1.260000e-06	3.132313e-07	-1.754974e-10	2.356119e+00	-1.116364e+01
1.270000e-06	3.486502e-07	-1.146196e-10	2.622539e+00	-7.196594e+00
1.280000e-06	3.839918e-07	-5.813639e-11	2.888378e+00	-3.206571e+00
1.290000e-06	4.193308e-07	-2.202285e-12	3.154197e+00	8.003454e-01
1.300000e-06	4.546431e-07	5.799935e-11	3.419816e+00	4.817654e+00
1.310000e-06	4.898914e-07	1.183600e-10	3.684952e+00	8.838507e+00
1.320000e-06	5.250222e-07	1.769178e-10	3.949205e+00	1.285579e+01
1.330000e-06	5.599646e-07	2.360074e-10	4.212041e+00	1.686223e+01
1.340000e-06	5.947318e-07	2.966386e-10	4.473560e+00	2.085051e+01
1.350000e-06	6.293167e-07	3.567672e-10	4.733706e+00	2.481340e+01
1.360000e-06	6.637331e-07	4.148556e-10	4.992586e+00	2.874388e+01
1.370000e-06	6.979983e-07	4.744993e-10	5.250328e+00	3.263530e+01
1.380000e-06	7.319690e-07	5.347720e-10	5.505855e+00	3.648150e+01
1.390000e-06	7.656740e-07	5.916161e-10	5.759383e+00	4.027697e+01
1.400000e-06	7.992275e-07	6.459626e-10	6.011772e+00	4.401691e+01
1.410000e-06	8.325318e-07	6.996831e-10	6.262286e+00	4.769737e+01
1.420000e-06	8.655550e-07	7.534920e-10	6.510686e+00	5.131531e+01
1.430000e-06	8.982923e-07	8.063607e-10	6.756935e+00	5.486861e+01
1.440000e-06	9.307701e-07	8.567951e-10	7.001232e+00	5.835612e+01
1.450000e-06	9.630676e-07	9.056630e-10	7.244173e+00	6.177759e+01
1.460000e-06	9.951901e-07	9.557653e-10	7.485798e+00	6.513363e+01
1.470000e-06	1.027145e-06	1.006979e-09	7.726158e+00	6.842561e+01
1.480000e-06	1.058987e-06	1.054237e-09	7.965674e+00	7.165549e+01
1.490000e-06	1.090747e-06	1.099254e-09	8.204574e+00	7.482575e+01
1.500000e-06	1.122457e-06	1.146617e-09	8.443095e+00	7.793912e+01
1.510000e-06	1.154082e-06	1.194612e-09	8.680977e+00	8.099848e+01
1.520000e-06	1.185613e-06	1.242212e-09	8.918155e+00	8.400665e+01
1.530000e-06	1.217011e-06	1.288498e-09	9.154329e+00	8.696619e+01
1.540000e-06	1.248156e-06	1.331267e-09	9.388601e+00	8.987930e+01
1.550000e-06	1.279042e-06	1.373748e-09	9.620924e+00	9.274766e+01
1.560000e-06	1.309668e-06	1.418129e-09	9.851297e+00	9.557234e+01
1.570000e-06	1.340011e-06	1.460026e-09	1.007954e+01	9.835374e+01
1.580000e-06	1.370077e-06	1.498455e-09	1.030569e+01	1.010916e+02
1.590000e-06	1.399911e-06	1.537982e-09	1.053010e+01	1.037850e+02
1.600000e-06	1.429534e-06	1.578042e-09	1.075293e+01	1.064325e+02
1.610000e-06	1.458957e-06	1.616858e-09	1.097425e+01	1.090320e+02
1.620000e-06	1.488204e-06	1.653506e-09	1.119424e+01	1.115813e+02
1.630000e-06	1.517251e-06	1.689030e-09	1.141273e+01	1.140778e+02
1.640000e-06	1.546021e-06	1.724917e-09	1.162913e+01	1.165191e+02
1.650000e-06	1.574451e-06	1.761965e-09	1.184298e+01	1.189028e+02
1.660000e-06	1.602611e-06	1.798087e-09	1.205480e+01	1.212268e+02
1.670000e-06	1.630584e-06	1.833110e-09	1.226522e+01	1.234895e+02
1.680000e-06	1.658417e-06	1.868723e-09	1.247457e+01	1.256900e+02
1.690000e-06	1.686109e-06	1.903294e-09	1.268287e+01	1.278278e+02
1.700000e-06	1.713651e-06	1.934588e-09	1.289004e+01	1.299032e+02
1.710000e-06	1.740977e-06	1.964899e-09	1.309559e+01	1.319171e+02
1.720000e-06	1.767976e-06	1.994699e-09	1.329867e+01	1.338713e+02
1.730000e-06	1.794415e-06	2.022516e-09	1.349755e+01	1.357679e+02
1.740000e-06	1.820192e-06	2.050723e-09	1.369144e+01	1.376094e+02
1.750000e-06	1.845365e-06	2.079635e-09	1.388079e+01	1.393989e+02
1.760000e-06	1.870021e-06	2.107732e-09	1.406625e+01	1.411394e+02
1.770000e-06	1.894259e-06	2.133135e-09	1.424858e+01	1.428341e+02
1.780000e-06	1.918206e-06	2.160098e-09	1.442871e+01	1.444858e+02
1.790000e-06	1.941984e-06	2.186526e-09	1.460756e+01	1.460972e+02
1.800000e-06	1.965564e-06	2.210843e-09	1.478493e+01	1.476706e+02
1.810000e-06	1.988856e-06	2.234817e-09	1.496013e+01	1.492078e+02
1.820000e-06	2.011812e-06	2.257502e-09	1.513280e+01	1.507101e+02
1.830000e-06	2.034363e-06	2.279287e-09	1.530244e+01	1.521782e+02
1.840000e-06	2.056511e-06	2.301984e-09	1.546903e+01	1.536124e+02
1.850000e-06	2.078337e-06	2.325489e-09	1.563320e+01	1.550124e+02
1.860000e-06	2.099877e-06	2.346370e-09	1.579523e+01	1.563778e+02
1.870000e-06	2.121105e-06	2.368086e-09	1.595490e+01	1.577078e+02
1.880000e-06	2.141964e-06	2.391288e-09	1.611181e+01	1.590015e+02
1.890000e-06	2.162374e-06	2.411818e-09	1.626533e+01	1.602581e+02
1.900000e-06	2.182387e-06	2.430316e-09	1.641587e+01	1.614769e+02
1.910000e-06	2.202172e-06	2.447834e-09	1.656469e+01	1.626574e+02
1.920000e-06	2.221783e-06	2.464172e-09	1.671220e+01	1.637996e+02
1.930000e-06	2.241143e-06	2.481818e-09	1.685783e+01	1.649035e+02
1.940000e-06	2.260168e-06	2.501240e-09	1.700093e+01	1.659700e+02
1.950000e-06	2.278787e-06	2.519304e-09	1.714099e+01	1.670001e+02
1.960000e-06	2.296824e-06	2.536842e-09	1.727666e+01	1.679951e+02
1.970000e-06	2.314271e-06	2.554508e-09	1.740790e+01	1.689567e+02
1.980000e-06	2.331367e-06	2.570527e-09	1.753649e+01	1.698867e+02
1.990000e-06	2.348267e-06	2.584370e-09	1.766361e+01	1.707872e+02
2.000000e-06	2.364878e-06	2.599634e-09	1.778856e+01	1.716598e+02
2.010000e-06	2.381093e-06	2.614444e-09	1.791053e+01	1.725065e+02
2.020000e-06	2.396787e-06	2.625349e-09	1.802858e+01	1.733285e+02
2.030000e-06	2.411887e-06	2.636795e-09	1.814216e+01	1.741272e+02
2.040000e-06	2.426392e-06	2.650591e-09	1.825127e+01	1.749033e+02
2.050000e-06	2.440356e-06	2.662883e-09	1.835630e+01	1.756572e+02
2.060000e-06	2.453920e-06	2.672412e-09	1.845833e+01	1.763889e+02
2.070000e-06	2.467107e-06	2.683435e-09	1.855752e+01	1.770981e+02
2.080000e-06	2.479821e-06	2.696090e-09	1.865316e+01	1.777842e+02
2.090000e-06	2.492075e-06	2.707486e-09	1.874533e+01	1.784464e+02
2.100000e-06	2.503953e-06	2.717174e-09	1.883468e+01	1.790838e+02
2.110000e-06	2.515467e-06	2.726268e-09	1.892129e+01	1.796957e+02
2.120000e-06	2.526481e-06	2.735782e-09	1.900414e+01	1.802813e+02
2.130000e-06	2.536813e-06	2.745745e-09	1.908185e+01	1.808402e+02
2.140000e-06	2.546382e-06	2.754858e-09	1.915383e+01	1.813722e+02
2.150000e-06	2.555174e-06	2.762306e-09	1.921997e+01	1.818776e+02
2.160000e-06	2.563406e-06	2.769937e-09	1.928188e+01	1.823570e+02
2.170000e-06	2.571322e-06	2.780098e-09	1.934142e+01	1.828113e+02
2.180000e-06	2.578978e-06	2.790959e-09	1.939902e+01	1.832419e+02
2.190000e-06	2.586369e-06	2.799248e-09	1.945461e+01	1.836502e+02
2.200000e-06	2.593338e-06	2.805577e-09	1.950703e+01	1.840378e+02
2.210000e-06	2.599794e-06	2.812413e-09	1.955559e+01	1.844067e+02
2.220000e-06	2.605769e-06	2.819952e-09	1.960054e+01	1.847582e+02
2.230000e-06	2.611304e-06	2.826803e-09	1.964217e+01	1.850939e+02
2.240000e-06	2.616463e-06	2.831494e-09	1.968098e+01	1.854149e+02
2.250000e-06	2.621130e-06	2.834959e-09	1.971608e+01	1.857217e+02
2.260000e-06	2.625276e-06	2.838998e-09	1.974726e+01	1.860148e+02
2.270000e-06	2.629108e-06	2.844822e-09	1.977609e+01	1.862938e+02
2.280000e-06	2.632765e-06	2.850381e-09	1.980360e+01	1.865580e+02
2.290000e-06	2.636075e-06	2.853625e-09	1.982850e+01	1.868063e+02
2.300000e-06	2.638813e-06	2.859962e-09	1.984909e+01	1.870371e+02
2.310000e-06	2.640842e-06	2.869859e-09	1.986435e+01	1.872488e+02
2.320000e-06	2.642056e-06	2.876365e-09	1.987349e+01	1.874396e+02
2.330000e-06	2.642614e-06	2.878694e-09	1.987768e+01	1.876078e+02
2.340000e-06	2.642722e-06	2.881532e-09	1.987850e+01	1.877517e+02
2.350000e-06	2.642501e-06	2.885575e-09	1.987683e+01	1.878702e+02
2.360000e-06	2.641985e-06	2.888389e-09	1.987295e+01	1.879625e+02
2.370000e-06	2.641076e-06	2.889219e-09	1.986612e+01	1.880285e+02
2.380000e-06	2.639772e-06	2.889493e-09	1.985631e+01	1.880686e+02
2.390000e-06	2.638021e-06	2.904456e-09	1.984314e+01	1.880838e+02
2.400000e-06	2.635825e-06	2.935868e-09	1.982661e+01	1.880759e+02
2.410000e-06	2.633288e-06	2.906926e-09	1.980754e+01	1.880469e+02
2.420000e-06	2.630273e-06	2.798744e-09	1.978485e+01	1.879995e+02
2.430000e-06	2.626660e-06	2.774310e-09	1.975768e+01	1.879365e+02
2.440000e-06	2.622595e-06	2.933780e-09	1.972710e+01	1.878610e+02
2.450000e-06	2.618331e-06	3.006568e-09	1.969503e+01	1.877757e+02
2.460000e-06	2.613959e-06	2.884059e-09	1.966214e+01	1.876834e+02
2.470000e-06	2.609049e-06	2.757524e-09	1.962521e+01	1.875863e+02
2.480000e-06	2.603231e-06	2.823614e-09	1.958145e+01	1.874859e+02
2.490000e-06	2.596871e-06	2.955713e-09	1.953360e+01	1.873832e+02
2.500000e-06	2.590264e-06	2.990249e-09	1.948391e+01	1.872786e+02
2.510000e-06	2.583019e-06	2.864070e-09	1.942941e+01	1.871712e+02
2.520000e-06	2.574991e-06	2.726269e-09	1.936902e+01	1.870599e+02
2.530000e-06	2.566667e-06	2.816534e-09	1.930641e+01	1.869425e+02
2.540000e-06	2.558201e-06	3.026390e-09	1.924273e+01	1.868164e+02
2.550000e-06	2.549211e-06	2.964817e-09	1.917511e+01	1.866785e+02
2.560000e-06	2.539571e-06	2.667423e-09	1.910259e+01	1.865254e+02
2.570000e-06	2.529638e-06	2.705875e-09	1.902788e+01	1.863537e+02
2.580000e-06	2.519432e-06	3.006181e-09	1.895111e+01	1.861599e+02
2.590000e-06	2.508638e-06	2.974362e-09	1.886992e+01	1.859410e+02
2.600000e-06	2.497328e-06	2.663274e-09	1.878485e+01	1.856944e+02
2.610000e-06	2.485733e-06	2.712492e-09	1.869763e+01	1.854179e+02
2.620000e-06	2.473653e-06	2.942143e-09	1.860677e+01	1.851102e+02
2.630000e-06	2.460952e-06	2.870187e-09	1.851123e+01	1.847706e+02
2.640000e-06	2.447819e-06	2.730819e-09	1.841244e+01	1.843991e+02
2.650000e-06	2.434129e-06	2.803821e-09	1.830946e+01	1.839964e+02
2.660000e-06	2.419552e-06	2.812131e-09	1.819981e+01	1.835638e+02
2.670000e-06	2.404191e-06	2.736824e-09	1.808427e+01	1.831031e+02
2.680000e-06	2.388385e-06	2.833347e-09	1.796538e+01	1.826166e+02
2.690000e-06	2.372272e-06	2.849902e-09	1.784418e+01	1.821064e+02
2.700000e-06	2.355921e-06	2.666614e-09	1.772119e+01	1.815751e+02
2.710000e-06	2.339343e-06	2.693386e-09	1.759649e+01	1.810248e+02
2.720000e-06	2.322474e-06	2.896769e-09	1.746960e+01	1.804575e+02
2.730000e-06	2.305082e-06	2.804283e-09	1.733878e+01	1.798748e+02
2.740000e-06	2.287127e-06	2.594122e-09	1.720372e+01	1.792778e+02
2.750000e-06	2.268903e-06	2.697992e-09	1.706664e+01	1.786671e+02
2.760000e-06	2.250418e-06	2.844840e-09	1.692759e+01	1.780428e+02
2.770000e-06	2.231432e-06	2.715943e-09	1.678478e+01	1.774045e+02
2.780000e-06	2.211925e-06	2.596822e-09	1.663805e+01	1.767512e+02
2.790000e-06	2.192136e-06	2.699046e-09	1.648920e+01	1.760817e+02
2.800000e-06	2.172165e-06	2.753259e-09	1.633898e+01	1.753946e+02
2.810000e-06	2.151979e-06	2.643343e-09	1.618714e+01	1.746883e+02
2.820000e-06	2.131648e-06	2.617609e-09	1.603421e+01	1.739610e+02
2.830000e-06	2.111075e-06	2.689204e-09	1.587946e+01	1.732113e+02
2.840000e-06	2.089939e-06	2.648495e-09	1.572048e+01	1.724378e+02
2.850000e-06	2.068165e-06	2.584777e-09	1.555669e+01	1.716395e+02
2.860000e-06	2.045817e-06	2.637179e-09	1.538859e+01	1.708156e+02
2.870000e-06	2.022789e-06	2.632696e-09	1.521537e+01	1.699658e+02
2.880000e-06	1.999157e-06	2.541112e-09	1.503762e+01	1.690899e+02
2.890000e-06	1.975198e-06	2.561996e-09	1.485739e+01	1.681882e+02
2.900000e-06	1.951068e-06	2.617645e-09	1.467589e+01	1.672611e+02
2.910000e-06	1.926793e-06	2.540935e-09	1.449330e+01	1.663094e+02
2.920000e-06	1.902350e-06	2.480391e-09	1.430944e+01	1.653335e+02
2.930000e-06	1.877634e-06	2.537254e-09	1.412352e+01	1.643343e+02
2.940000e-06	1.852531e-06	2.547954e-09	1.393470e+01	1.633122e+02
