# Temperatura_=_20.0
# Concentracion g/m^3_=_9000.0
# C_Vs_to_Am_M_A/Vsm_=_65563218390.804596
# pendiente_HvsI_1/m_=_3716.3
# ordenada_HvsI_A/m_=_1297.0
# frecuencia_Hz_=_213042.91489568327

Tiempo_(s)	Campo_(V.s)	Magnetizacion_(V.s)	Campo_(kA/m)	Magnetizacion_(A/m)
0.000000e+00	-2.628330e-06	-2.830035e-09	-1.982242e+01	-1.863708e+02
1.000000e-08	-2.628363e-06	-2.831801e-09	-1.982266e+01	-1.864731e+02
2.000000e-08	-2.628093e-06	-2.834025e-09	-1.982063e+01	-1.865488e+02
3.000000e-08	-2.627365e-06	-2.833293e-09	-1.981514e+01	-1.865980e+02
4.000000e-08	-2.626022e-06	-2.823577e-09	-1.980501e+01	-1.866213e+02
5.000000e-08	-2.623855e-06	-2.812888e-09	-1.978867e+01	-1.866199e+02
6.000000e-08	-2.620963e-06	-2.822612e-09	-1.976685e+01	-1.865956e+02
7.000000e-08	-2.617603e-06	-2.840888e-09	-1.974151e+01	-1.865502e+02
8.000000e-08	-2.613853e-06	-2.887169e-09	-1.971324e+01	-1.864864e+02
9.000000e-08	-2.609776e-06	-2.887908e-09	-1.968249e+01	-1.864064e+02
1.000000e-07	-2.605348e-06	-2.783017e-09	-1.964909e+01	-1.863127e+02
1.100000e-07	-2.600484e-06	-2.756865e-09	-1.961241e+01	-1.862076e+02
1.200000e-07	-2.595150e-06	-2.837762e-09	-1.957218e+01	-1.860930e+02
1.300000e-07	-2.589372e-06	-2.928219e-09	-1.952860e+01	-1.859704e+02
1.400000e-07	-2.583159e-06	-2.833805e-09	-1.948174e+01	-1.858406e+02
1.500000e-07	-2.576444e-06	-2.733176e-09	-1.943110e+01	-1.857039e+02
1.600000e-07	-2.569221e-06	-2.770519e-09	-1.937663e+01	-1.855600e+02
1.700000e-07	-2.561630e-06	-2.845541e-09	-1.931937e+01	-1.854079e+02
1.800000e-07	-2.553833e-06	-2.900015e-09	-1.926057e+01	-1.852460e+02
1.900000e-07	-2.545715e-06	-2.800936e-09	-1.919935e+01	-1.850723e+02
2.000000e-07	-2.537088e-06	-2.736113e-09	-1.913429e+01	-1.848846e+02
2.100000e-07	-2.528019e-06	-2.753712e-09	-1.906588e+01	-1.846801e+02
2.200000e-07	-2.518370e-06	-2.924392e-09	-1.899311e+01	-1.844563e+02
2.300000e-07	-2.507869e-06	-2.923717e-09	-1.891392e+01	-1.842107e+02
2.400000e-07	-2.496603e-06	-2.719812e-09	-1.882895e+01	-1.839411e+02
2.500000e-07	-2.484857e-06	-2.704135e-09	-1.874037e+01	-1.836455e+02
2.600000e-07	-2.472706e-06	-2.890865e-09	-1.864873e+01	-1.833227e+02
2.700000e-07	-2.460061e-06	-2.933099e-09	-1.855336e+01	-1.829718e+02
2.800000e-07	-2.446937e-06	-2.707092e-09	-1.845438e+01	-1.825927e+02
2.900000e-07	-2.433435e-06	-2.689614e-09	-1.835255e+01	-1.821856e+02
3.000000e-07	-2.419508e-06	-2.820300e-09	-1.824751e+01	-1.817514e+02
3.100000e-07	-2.405057e-06	-2.830843e-09	-1.813853e+01	-1.812916e+02
3.200000e-07	-2.389962e-06	-2.741613e-09	-1.802469e+01	-1.808078e+02
3.300000e-07	-2.374148e-06	-2.721899e-09	-1.790542e+01	-1.803020e+02
3.400000e-07	-2.357722e-06	-2.721245e-09	-1.778154e+01	-1.797763e+02
3.500000e-07	-2.340901e-06	-2.723236e-09	-1.765467e+01	-1.792326e+02
3.600000e-07	-2.323817e-06	-2.783659e-09	-1.752583e+01	-1.786728e+02
3.700000e-07	-2.306397e-06	-2.738514e-09	-1.739445e+01	-1.780985e+02
3.800000e-07	-2.288598e-06	-2.624960e-09	-1.726021e+01	-1.775108e+02
3.900000e-07	-2.270466e-06	-2.660276e-09	-1.712347e+01	-1.769105e+02
4.000000e-07	-2.251964e-06	-2.781079e-09	-1.698392e+01	-1.762980e+02
4.100000e-07	-2.232952e-06	-2.706662e-09	-1.684054e+01	-1.756730e+02
4.200000e-07	-2.213482e-06	-2.568906e-09	-1.669371e+01	-1.750350e+02
4.300000e-07	-2.193749e-06	-2.624578e-09	-1.654488e+01	-1.743830e+02
4.400000e-07	-2.173816e-06	-2.723633e-09	-1.639455e+01	-1.737157e+02
4.500000e-07	-2.153674e-06	-2.650402e-09	-1.624264e+01	-1.730316e+02
4.600000e-07	-2.133250e-06	-2.555163e-09	-1.608861e+01	-1.723293e+02
4.700000e-07	-2.112462e-06	-2.593324e-09	-1.593183e+01	-1.716071e+02
4.800000e-07	-2.091250e-06	-2.628791e-09	-1.577185e+01	-1.708636e+02
4.900000e-07	-2.069614e-06	-2.586016e-09	-1.560868e+01	-1.700975e+02
5.000000e-07	-2.047714e-06	-2.555413e-09	-1.544351e+01	-1.693079e+02
5.100000e-07	-2.025533e-06	-2.544597e-09	-1.527622e+01	-1.684939e+02
5.200000e-07	-2.002935e-06	-2.524649e-09	-1.510579e+01	-1.676552e+02
5.300000e-07	-1.979912e-06	-2.534432e-09	-1.493216e+01	-1.667916e+02
5.400000e-07	-1.956566e-06	-2.542244e-09	-1.475609e+01	-1.659032e+02
5.500000e-07	-1.932973e-06	-2.485482e-09	-1.457815e+01	-1.649903e+02
5.600000e-07	-1.909175e-06	-2.445281e-09	-1.439867e+01	-1.640534e+02
5.700000e-07	-1.885179e-06	-2.484065e-09	-1.421770e+01	-1.630929e+02
5.800000e-07	-1.860906e-06	-2.489756e-09	-1.403464e+01	-1.621093e+02
5.900000e-07	-1.836232e-06	-2.424214e-09	-1.384855e+01	-1.611031e+02
6.000000e-07	-1.811036e-06	-2.385690e-09	-1.365852e+01	-1.600744e+02
6.100000e-07	-1.785309e-06	-2.409486e-09	-1.346450e+01	-1.590233e+02
6.200000e-07	-1.758990e-06	-2.410104e-09	-1.326601e+01	-1.579496e+02
6.300000e-07	-1.732135e-06	-2.360664e-09	-1.306347e+01	-1.568528e+02
6.400000e-07	-1.704932e-06	-2.330672e-09	-1.285831e+01	-1.557324e+02
6.500000e-07	-1.677425e-06	-2.336874e-09	-1.265085e+01	-1.545873e+02
6.600000e-07	-1.649706e-06	-2.330390e-09	-1.244180e+01	-1.534167e+02
6.700000e-07	-1.621875e-06	-2.298768e-09	-1.223190e+01	-1.522192e+02
6.800000e-07	-1.593898e-06	-2.274443e-09	-1.202091e+01	-1.509938e+02
6.900000e-07	-1.565690e-06	-2.259233e-09	-1.180817e+01	-1.497393e+02
7.000000e-07	-1.537198e-06	-2.240417e-09	-1.159329e+01	-1.484546e+02
7.100000e-07	-1.508423e-06	-2.226543e-09	-1.137627e+01	-1.471389e+02
7.200000e-07	-1.479388e-06	-2.205544e-09	-1.115730e+01	-1.457914e+02
7.300000e-07	-1.450037e-06	-2.170194e-09	-1.093593e+01	-1.444116e+02
7.400000e-07	-1.420434e-06	-2.151123e-09	-1.071267e+01	-1.429993e+02
7.500000e-07	-1.390718e-06	-2.145743e-09	-1.048856e+01	-1.415544e+02
7.600000e-07	-1.360833e-06	-2.118682e-09	-1.026317e+01	-1.400772e+02
7.700000e-07	-1.330693e-06	-2.076463e-09	-1.003586e+01	-1.385679e+02
7.800000e-07	-1.300336e-06	-2.058176e-09	-9.806915e+00	-1.370270e+02
7.900000e-07	-1.269816e-06	-2.053079e-09	-9.576739e+00	-1.354549e+02
8.000000e-07	-1.239096e-06	-2.022768e-09	-9.345047e+00	-1.338520e+02
8.100000e-07	-1.208108e-06	-1.980599e-09	-9.111344e+00	-1.322187e+02
8.200000e-07	-1.176827e-06	-1.958969e-09	-8.875431e+00	-1.305551e+02
8.300000e-07	-1.145344e-06	-1.946269e-09	-8.637991e+00	-1.288612e+02
8.400000e-07	-1.113759e-06	-1.919424e-09	-8.399782e+00	-1.271365e+02
8.500000e-07	-1.082064e-06	-1.884130e-09	-8.160742e+00	-1.253805e+02
8.600000e-07	-1.050274e-06	-1.854928e-09	-7.920989e+00	-1.235923e+02
8.700000e-07	-1.018410e-06	-1.831493e-09	-7.680673e+00	-1.217707e+02
8.800000e-07	-9.864225e-07	-1.806495e-09	-7.439430e+00	-1.199140e+02
8.900000e-07	-9.543081e-07	-1.774596e-09	-7.197228e+00	-1.180207e+02
9.000000e-07	-9.220494e-07	-1.736523e-09	-6.953939e+00	-1.160887e+02
9.100000e-07	-8.895933e-07	-1.703768e-09	-6.709161e+00	-1.141159e+02
9.200000e-07	-8.570255e-07	-1.677772e-09	-6.463540e+00	-1.121002e+02
9.300000e-07	-8.242564e-07	-1.647310e-09	-6.216401e+00	-1.100394e+02
9.400000e-07	-7.911545e-07	-1.605413e-09	-5.966752e+00	-1.079311e+02
9.500000e-07	-7.578231e-07	-1.564508e-09	-5.715372e+00	-1.057734e+02
9.600000e-07	-7.242975e-07	-1.537948e-09	-5.462528e+00	-1.035641e+02
9.700000e-07	-6.905420e-07	-1.511056e-09	-5.207950e+00	-1.013012e+02
9.800000e-07	-6.565315e-07	-1.471975e-09	-4.951448e+00	-9.898316e+01
9.900000e-07	-6.223071e-07	-1.429765e-09	-4.693334e+00	-9.660819e+01
1.000000e-06	-5.878302e-07	-1.395162e-09	-4.433315e+00	-9.417488e+01
1.010000e-06	-5.531076e-07	-1.364411e-09	-4.171443e+00	-9.168192e+01
1.020000e-06	-5.182725e-07	-1.326028e-09	-3.908722e+00	-8.912817e+01
1.030000e-06	-4.833561e-07	-1.281268e-09	-3.645389e+00	-8.651258e+01
1.040000e-06	-4.482639e-07	-1.238612e-09	-3.380729e+00	-8.383424e+01
1.050000e-06	-4.129847e-07	-1.199449e-09	-3.114660e+00	-8.109235e+01
1.060000e-06	-3.776381e-07	-1.159849e-09	-2.848082e+00	-7.828620e+01
1.070000e-06	-3.422364e-07	-1.115591e-09	-2.581089e+00	-7.541517e+01
1.080000e-06	-3.067607e-07	-1.066935e-09	-2.313537e+00	-7.247874e+01
1.090000e-06	-2.712396e-07	-1.020278e-09	-2.045643e+00	-6.947652e+01
1.100000e-06	-2.357537e-07	-9.775336e-10	-1.778014e+00	-6.640822e+01
1.110000e-06	-2.002702e-07	-9.330415e-10	-1.510404e+00	-6.327372e+01
1.120000e-06	-1.647157e-07	-8.817094e-10	-1.242258e+00	-6.007307e+01
1.130000e-06	-1.291322e-07	-8.301619e-10	-9.738926e-01	-5.680653e+01
1.140000e-06	-9.352523e-08	-7.831969e-10	-7.053513e-01	-5.347461e+01
1.150000e-06	-5.790300e-08	-7.362731e-10	-4.366946e-01	-5.007808e+01
1.160000e-06	-2.227704e-08	-6.841476e-10	-1.680097e-01	-4.661804e+01
1.170000e-06	1.334070e-08	-6.286411e-10	1.006133e-01	-4.309594e+01
1.180000e-06	4.892667e-08	-5.766759e-10	3.689966e-01	-3.951359e+01
1.190000e-06	8.450305e-08	-5.254250e-10	6.373076e-01	-3.587320e+01
1.200000e-06	1.201050e-07	-4.705053e-10	9.058116e-01	-3.217739e+01
1.210000e-06	1.557093e-07	-4.136644e-10	1.174333e+00	-2.842925e+01
1.220000e-06	1.912779e-07	-3.581239e-10	1.442585e+00	-2.463227e+01
1.230000e-06	2.267866e-07	-3.040559e-10	1.710386e+00	-2.079043e+01
1.240000e-06	2.622382e-07	-2.489849e-10	1.977756e+00	-1.690815e+01
1.250000e-06	2.976788e-07	-1.918289e-10	2.245043e+00	-1.299027e+01
1.260000e-06	3.330565e-07	-1.348114e-10	2.511855e+00	-9.042077e+00
1.270000e-06	3.683406e-07	-7.806527e-11	2.777962e+00	-5.069254e+00
1.280000e-06	4.035958e-07	-2.022408e-11	3.043851e+00	-1.077847e+00
1.290000e-06	4.388051e-07	3.734454e-11	3.309393e+00	2.925774e+00
1.300000e-06	4.739201e-07	9.622845e-11	3.574224e+00	6.934971e+00
1.310000e-06	5.089041e-07	1.544512e-10	3.838068e+00	1.094290e+01
1.320000e-06	5.437154e-07	2.136654e-10	4.100609e+00	1.494260e+01
1.330000e-06	5.783749e-07	2.741090e-10	4.362004e+00	1.892706e+01
1.340000e-06	6.129105e-07	3.357275e-10	4.622466e+00	2.288934e+01
1.350000e-06	6.473061e-07	3.944784e-10	4.881872e+00	2.682266e+01
1.360000e-06	6.815306e-07	4.520222e-10	5.139987e+00	3.072050e+01
1.370000e-06	7.154795e-07	5.113259e-10	5.396024e+00	3.457676e+01
1.380000e-06	7.491549e-07	5.692071e-10	5.649998e+00	3.838580e+01
1.390000e-06	7.825721e-07	6.248762e-10	5.902025e+00	4.214259e+01
1.400000e-06	8.156686e-07	6.780427e-10	6.151633e+00	4.584278e+01
1.410000e-06	8.485776e-07	7.319784e-10	6.399827e+00	4.948278e+01
1.420000e-06	8.812761e-07	7.861533e-10	6.646434e+00	5.305983e+01
1.430000e-06	9.137562e-07	8.380065e-10	6.891393e+00	5.657199e+01
1.440000e-06	9.461082e-07	8.867724e-10	7.135386e+00	6.001817e+01
1.450000e-06	9.782571e-07	9.365624e-10	7.377848e+00	6.339809e+01
1.460000e-06	1.010241e-06	9.869750e-10	7.619066e+00	6.671223e+01
1.470000e-06	1.042162e-06	1.036093e-09	7.859806e+00	6.996176e+01
1.480000e-06	1.074013e-06	1.083190e-09	8.100026e+00	7.314838e+01
1.490000e-06	1.105754e-06	1.129144e-09	8.339404e+00	7.627427e+01
1.500000e-06	1.137416e-06	1.175876e-09	8.578196e+00	7.934184e+01
1.510000e-06	1.168973e-06	1.222773e-09	8.816194e+00	8.235370e+01
1.520000e-06	1.200339e-06	1.268623e-09	9.052749e+00	8.531239e+01
1.530000e-06	1.231535e-06	1.312606e-09	9.288025e+00	8.822033e+01
1.540000e-06	1.262484e-06	1.354783e-09	9.521439e+00	9.107963e+01
1.550000e-06	1.293107e-06	1.396404e-09	9.752396e+00	9.389199e+01
1.560000e-06	1.323420e-06	1.437862e-09	9.981006e+00	9.665865e+01
1.570000e-06	1.353452e-06	1.479309e-09	1.020751e+01	9.938029e+01
1.580000e-06	1.383324e-06	1.518665e-09	1.043280e+01	1.020571e+02
1.590000e-06	1.413069e-06	1.556529e-09	1.065712e+01	1.046886e+02
1.600000e-06	1.442621e-06	1.595135e-09	1.088000e+01	1.072740e+02
1.610000e-06	1.471979e-06	1.634186e-09	1.110141e+01	1.098121e+02
1.620000e-06	1.501097e-06	1.671344e-09	1.132102e+01	1.123012e+02
1.630000e-06	1.529855e-06	1.706235e-09	1.153790e+01	1.147397e+02
1.640000e-06	1.558315e-06	1.741161e-09	1.175255e+01	1.171258e+02
1.650000e-06	1.586535e-06	1.776326e-09	1.196538e+01	1.194578e+02
1.660000e-06	1.614531e-06	1.810524e-09	1.217652e+01	1.217343e+02
1.670000e-06	1.642386e-06	1.843438e-09	1.238660e+01	1.239541e+02
1.680000e-06	1.670130e-06	1.875924e-09	1.259583e+01	1.261164e+02
1.690000e-06	1.697752e-06	1.909104e-09	1.280415e+01	1.282211e+02
1.700000e-06	1.725118e-06	1.943599e-09	1.301055e+01	1.302683e+02
1.710000e-06	1.752083e-06	1.976390e-09	1.321391e+01	1.322588e+02
1.720000e-06	1.778563e-06	2.005565e-09	1.341362e+01	1.341937e+02
1.730000e-06	1.804551e-06	2.033789e-09	1.360962e+01	1.360746e+02
1.740000e-06	1.829986e-06	2.063221e-09	1.380144e+01	1.379033e+02
1.750000e-06	1.854847e-06	2.092617e-09	1.398894e+01	1.396818e+02
1.760000e-06	1.879228e-06	2.118687e-09	1.417282e+01	1.414124e+02
1.770000e-06	1.903211e-06	2.142140e-09	1.435369e+01	1.430971e+02
1.780000e-06	1.926983e-06	2.167214e-09	1.453298e+01	1.447379e+02
1.790000e-06	1.950622e-06	2.194362e-09	1.471125e+01	1.463366e+02
1.800000e-06	1.974021e-06	2.219394e-09	1.488773e+01	1.478947e+02
1.810000e-06	1.997070e-06	2.240253e-09	1.506156e+01	1.494134e+02
1.820000e-06	2.019692e-06	2.259827e-09	1.523218e+01	1.508934e+02
1.830000e-06	2.041929e-06	2.282035e-09	1.539988e+01	1.523352e+02
1.840000e-06	2.063854e-06	2.305082e-09	1.556523e+01	1.537391e+02
1.850000e-06	2.085469e-06	2.325660e-09	1.572825e+01	1.551049e+02
1.860000e-06	2.106789e-06	2.344353e-09	1.588905e+01	1.564325e+02
1.870000e-06	2.127716e-06	2.363566e-09	1.604687e+01	1.577216e+02
1.880000e-06	2.148208e-06	2.384382e-09	1.620142e+01	1.589720e+02
1.890000e-06	2.168353e-06	2.403611e-09	1.635335e+01	1.601836e+02
1.900000e-06	2.188208e-06	2.419895e-09	1.650309e+01	1.613563e+02
1.910000e-06	2.207880e-06	2.436298e-09	1.665145e+01	1.624907e+02
1.920000e-06	2.227354e-06	2.454232e-09	1.679832e+01	1.635873e+02
1.930000e-06	2.246453e-06	2.472356e-09	1.694237e+01	1.646470e+02
1.940000e-06	2.265127e-06	2.488668e-09	1.708320e+01	1.656711e+02
1.950000e-06	2.283327e-06	2.503448e-09	1.722046e+01	1.666611e+02
1.960000e-06	2.301016e-06	2.518362e-09	1.735387e+01	1.676186e+02
1.970000e-06	2.318284e-06	2.534283e-09	1.748410e+01	1.685455e+02
1.980000e-06	2.335187e-06	2.549376e-09	1.761158e+01	1.694436e+02
1.990000e-06	2.351792e-06	2.563212e-09	1.773681e+01	1.703147e+02
2.000000e-06	2.368099e-06	2.578130e-09	1.785980e+01	1.711602e+02
2.010000e-06	2.383951e-06	2.593114e-09	1.797935e+01	1.719816e+02
2.020000e-06	2.399183e-06	2.606127e-09	1.809422e+01	1.727798e+02
2.030000e-06	2.413777e-06	2.618215e-09	1.820429e+01	1.735555e+02
2.040000e-06	2.427871e-06	2.629951e-09	1.831059e+01	1.743091e+02
2.050000e-06	2.441587e-06	2.639593e-09	1.841403e+01	1.750404e+02
2.060000e-06	2.454925e-06	2.649595e-09	1.851462e+01	1.757492e+02
2.070000e-06	2.467832e-06	2.661302e-09	1.861196e+01	1.764347e+02
2.080000e-06	2.480298e-06	2.673314e-09	1.870598e+01	1.770963e+02
2.090000e-06	2.492378e-06	2.684588e-09	1.879709e+01	1.777330e+02
2.100000e-06	2.504029e-06	2.694888e-09	1.888496e+01	1.783441e+02
2.110000e-06	2.515176e-06	2.704582e-09	1.896902e+01	1.789290e+02
2.120000e-06	2.525699e-06	2.713845e-09	1.904839e+01	1.794873e+02
2.130000e-06	2.535518e-06	2.723166e-09	1.912244e+01	1.800187e+02
2.140000e-06	2.544641e-06	2.731161e-09	1.919125e+01	1.805237e+02
2.150000e-06	2.553137e-06	2.739483e-09	1.925533e+01	1.810028e+02
2.160000e-06	2.561207e-06	2.749262e-09	1.931618e+01	1.814571e+02
2.170000e-06	2.568966e-06	2.759159e-09	1.937471e+01	1.818879e+02
2.180000e-06	2.576444e-06	2.767981e-09	1.943110e+01	1.822968e+02
2.190000e-06	2.583516e-06	2.774193e-09	1.948443e+01	1.826857e+02
2.200000e-06	2.590099e-06	2.780811e-09	1.953408e+01	1.830563e+02
2.210000e-06	2.596264e-06	2.788886e-09	1.958058e+01	1.834105e+02
2.220000e-06	2.602042e-06	2.795923e-09	1.962416e+01	1.837500e+02
2.230000e-06	2.607363e-06	2.801332e-09	1.966428e+01	1.840759e+02
2.240000e-06	2.612176e-06	2.806873e-09	1.970058e+01	1.843894e+02
2.250000e-06	2.616512e-06	2.813011e-09	1.973329e+01	1.846908e+02
2.260000e-06	2.620492e-06	2.818050e-09	1.976330e+01	1.849802e+02
2.270000e-06	2.624209e-06	2.822268e-09	1.979134e+01	1.852571e+02
2.280000e-06	2.627563e-06	2.825112e-09	1.981663e+01	1.855204e+02
2.290000e-06	2.630502e-06	2.828166e-09	1.983880e+01	1.857689e+02
2.300000e-06	2.632888e-06	2.834162e-09	1.985679e+01	1.860007e+02
2.310000e-06	2.634508e-06	2.841013e-09	1.986901e+01	1.862140e+02
2.320000e-06	2.635415e-06	2.845763e-09	1.987585e+01	1.864068e+02
2.330000e-06	2.635766e-06	2.849993e-09	1.987850e+01	1.865772e+02
2.340000e-06	2.635683e-06	2.854798e-09	1.987787e+01	1.867235e+02
2.350000e-06	2.635270e-06	2.857990e-09	1.987476e+01	1.868444e+02
2.360000e-06	2.634575e-06	2.861550e-09	1.986951e+01	1.869391e+02
2.370000e-06	2.633512e-06	2.863569e-09	1.986150e+01	1.870071e+02
2.380000e-06	2.632021e-06	2.866027e-09	1.985026e+01	1.870488e+02
2.390000e-06	2.630090e-06	2.872435e-09	1.983569e+01	1.870649e+02
2.400000e-06	2.627721e-06	2.864823e-09	1.981782e+01	1.870567e+02
2.410000e-06	2.624937e-06	2.852759e-09	1.979683e+01	1.870261e+02
2.420000e-06	2.621667e-06	2.810953e-09	1.977217e+01	1.869753e+02
2.430000e-06	2.617940e-06	2.788175e-09	1.974406e+01	1.869066e+02
2.440000e-06	2.613875e-06	2.884788e-09	1.971340e+01	1.868226e+02
2.450000e-06	2.609512e-06	2.908014e-09	1.968050e+01	1.867256e+02
2.460000e-06	2.604824e-06	2.836855e-09	1.964513e+01	1.866178e+02
2.470000e-06	2.599581e-06	2.771962e-09	1.960560e+01	1.865009e+02
2.480000e-06	2.593528e-06	2.831984e-09	1.955995e+01	1.863764e+02
2.490000e-06	2.586885e-06	2.898081e-09	1.950985e+01	1.862448e+02
2.500000e-06	2.579892e-06	2.873903e-09	1.945710e+01	1.861064e+02
2.510000e-06	2.572373e-06	2.817709e-09	1.940040e+01	1.859604e+02
2.520000e-06	2.564325e-06	2.762611e-09	1.933970e+01	1.858059e+02
2.530000e-06	2.555944e-06	2.820552e-09	1.927649e+01	1.856410e+02
2.540000e-06	2.547255e-06	2.885817e-09	1.921096e+01	1.854637e+02
2.550000e-06	2.538002e-06	2.867289e-09	1.914118e+01	1.852715e+02
2.560000e-06	2.528136e-06	2.717562e-09	1.906677e+01	1.850618e+02
2.570000e-06	2.517963e-06	2.731151e-09	1.899005e+01	1.848320e+02
2.580000e-06	2.507434e-06	2.897412e-09	1.891064e+01	1.845797e+02
2.590000e-06	2.496293e-06	2.877736e-09	1.882662e+01	1.843028e+02
2.600000e-06	2.484696e-06	2.691018e-09	1.873916e+01	1.839995e+02
2.610000e-06	2.472791e-06	2.697618e-09	1.864937e+01	1.836687e+02
2.620000e-06	2.460443e-06	2.880806e-09	1.855624e+01	1.833096e+02
2.630000e-06	2.447516e-06	2.829252e-09	1.845874e+01	1.829223e+02
2.640000e-06	2.434038e-06	2.693371e-09	1.835710e+01	1.825073e+02
2.650000e-06	2.419912e-06	2.739260e-09	1.825057e+01	1.820656e+02
2.660000e-06	2.404969e-06	2.805886e-09	1.813786e+01	1.815987e+02
2.670000e-06	2.389381e-06	2.745526e-09	1.802030e+01	1.811084e+02
2.680000e-06	2.373440e-06	2.739943e-09	1.790008e+01	1.805967e+02
2.690000e-06	2.357226e-06	2.775892e-09	1.777779e+01	1.800657e+02
2.700000e-06	2.340684e-06	2.692988e-09	1.765304e+01	1.795173e+02
2.710000e-06	2.323873e-06	2.689222e-09	1.752625e+01	1.789533e+02
2.720000e-06	2.306746e-06	2.789961e-09	1.739708e+01	1.783752e+02
2.730000e-06	2.289147e-06	2.742125e-09	1.726436e+01	1.777840e+02
2.740000e-06	2.271102e-06	2.611292e-09	1.712826e+01	1.771803e+02
2.750000e-06	2.252739e-06	2.664669e-09	1.698977e+01	1.765644e+02
2.760000e-06	2.234043e-06	2.765517e-09	1.684877e+01	1.759359e+02
2.770000e-06	2.214883e-06	2.682349e-09	1.670427e+01	1.752941e+02
2.780000e-06	2.195303e-06	2.595347e-09	1.655660e+01	1.746379e+02
2.790000e-06	2.175484e-06	2.652058e-09	1.640713e+01	1.739661e+02
2.800000e-06	2.155467e-06	2.699985e-09	1.625617e+01	1.732770e+02
2.810000e-06	2.135196e-06	2.632598e-09	1.610328e+01	1.725692e+02
2.820000e-06	2.114676e-06	2.591156e-09	1.594853e+01	1.718410e+02
2.830000e-06	2.093771e-06	2.627723e-09	1.579086e+01	1.710912e+02
2.840000e-06	2.072281e-06	2.620822e-09	1.562879e+01	1.703185e+02
2.850000e-06	2.050210e-06	2.575983e-09	1.546233e+01	1.695219e+02
2.860000e-06	2.027553e-06	2.586192e-09	1.529146e+01	1.687009e+02
2.870000e-06	2.004320e-06	2.585155e-09	1.511624e+01	1.678550e+02
2.880000e-06	1.980646e-06	2.537854e-09	1.493769e+01	1.669843e+02
2.890000e-06	1.956733e-06	2.540341e-09	1.475735e+01	1.660888e+02
2.900000e-06	1.932613e-06	2.560665e-09	1.457544e+01	1.651689e+02
2.910000e-06	1.908249e-06	2.515862e-09	1.439169e+01	1.642252e+02
2.920000e-06	1.883653e-06	2.478399e-09	1.420619e+01	1.632580e+02
2.930000e-06	1.858752e-06	2.501126e-09	1.401839e+01	1.622679e+02
2.940000e-06	1.833440e-06	2.500088e-09	1.382749e+01	1.612552e+02
2.950000e-06	1.807759e-06	2.452603e-09	1.363381e+01	1.602201e+02
