# Temperatura_=_20.0
# Concentracion g/m^3_=_9000.0
# C_Vs_to_Am_M_A/Vsm_=_65563218390.804596
# pendiente_HvsI_1/m_=_3716.3
# ordenada_HvsI_A/m_=_1297.0
# frecuencia_Hz_=_213043.54385090177

Tiempo_(s)	Campo_(V.s)	Magnetizacion_(V.s)	Campo_(kA/m)	Magnetizacion_(A/m)
0.000000e+00	-2.631913e-06	-2.847778e-09	-1.982429e+01	-1.875218e+02
1.000000e-08	-2.631980e-06	-2.847903e-09	-1.982479e+01	-1.876082e+02
2.000000e-08	-2.631653e-06	-2.850166e-09	-1.982233e+01	-1.876688e+02
3.000000e-08	-2.630709e-06	-2.850930e-09	-1.981521e+01	-1.877039e+02
4.000000e-08	-2.629022e-06	-2.835338e-09	-1.980251e+01	-1.877143e+02
5.000000e-08	-2.626627e-06	-2.805134e-09	-1.978447e+01	-1.877017e+02
6.000000e-08	-2.623582e-06	-2.826282e-09	-1.976153e+01	-1.876680e+02
7.000000e-08	-2.620068e-06	-2.943517e-09	-1.973506e+01	-1.876154e+02
8.000000e-08	-2.616231e-06	-2.974200e-09	-1.970616e+01	-1.875466e+02
9.000000e-08	-2.612156e-06	-2.796316e-09	-1.967547e+01	-1.874641e+02
1.000000e-07	-2.607804e-06	-2.696638e-09	-1.964269e+01	-1.873704e+02
1.100000e-07	-2.602909e-06	-2.831950e-09	-1.960582e+01	-1.872677e+02
1.200000e-07	-2.597456e-06	-2.996736e-09	-1.956474e+01	-1.871578e+02
1.300000e-07	-2.591698e-06	-2.913065e-09	-1.952137e+01	-1.870419e+02
1.400000e-07	-2.585526e-06	-2.736605e-09	-1.947489e+01	-1.869204e+02
1.500000e-07	-2.578646e-06	-2.706092e-09	-1.942306e+01	-1.867934e+02
1.600000e-07	-2.571267e-06	-2.838534e-09	-1.936748e+01	-1.866600e+02
1.700000e-07	-2.563702e-06	-2.992529e-09	-1.931051e+01	-1.865185e+02
1.800000e-07	-2.555877e-06	-2.888782e-09	-1.925157e+01	-1.863671e+02
1.900000e-07	-2.547531e-06	-2.660322e-09	-1.918870e+01	-1.862030e+02
2.000000e-07	-2.538750e-06	-2.677404e-09	-1.912256e+01	-1.860233e+02
2.100000e-07	-2.529540e-06	-3.002498e-09	-1.905318e+01	-1.858251e+02
2.200000e-07	-2.519547e-06	-3.034477e-09	-1.897792e+01	-1.856052e+02
2.300000e-07	-2.508651e-06	-2.689607e-09	-1.889584e+01	-1.853608e+02
2.400000e-07	-2.497179e-06	-2.636168e-09	-1.880943e+01	-1.850894e+02
2.500000e-07	-2.485413e-06	-2.948422e-09	-1.872081e+01	-1.847888e+02
2.600000e-07	-2.473198e-06	-3.001467e-09	-1.862880e+01	-1.844577e+02
2.700000e-07	-2.460391e-06	-2.722627e-09	-1.853233e+01	-1.840951e+02
2.800000e-07	-2.447160e-06	-2.680155e-09	-1.843267e+01	-1.837010e+02
2.900000e-07	-2.433542e-06	-2.823727e-09	-1.833010e+01	-1.832758e+02
3.000000e-07	-2.419399e-06	-2.843800e-09	-1.822358e+01	-1.828206e+02
3.100000e-07	-2.404687e-06	-2.801648e-09	-1.811276e+01	-1.823371e+02
3.200000e-07	-2.389309e-06	-2.771349e-09	-1.799692e+01	-1.818274e+02
3.300000e-07	-2.373261e-06	-2.684045e-09	-1.787605e+01	-1.812935e+02
3.400000e-07	-2.356645e-06	-2.703000e-09	-1.775089e+01	-1.807381e+02
3.500000e-07	-2.339712e-06	-2.854936e-09	-1.762335e+01	-1.801634e+02
3.600000e-07	-2.322568e-06	-2.792022e-09	-1.749421e+01	-1.795716e+02
3.700000e-07	-2.305065e-06	-2.585317e-09	-1.736238e+01	-1.789646e+02
3.800000e-07	-2.287195e-06	-2.649023e-09	-1.722777e+01	-1.783440e+02
3.900000e-07	-2.268952e-06	-2.847213e-09	-1.709036e+01	-1.777107e+02
4.000000e-07	-2.250206e-06	-2.750087e-09	-1.694916e+01	-1.770654e+02
4.100000e-07	-2.230957e-06	-2.554672e-09	-1.680417e+01	-1.764081e+02
4.200000e-07	-2.211394e-06	-2.631448e-09	-1.665682e+01	-1.757385e+02
4.300000e-07	-2.191702e-06	-2.763931e-09	-1.650850e+01	-1.750557e+02
4.400000e-07	-2.171841e-06	-2.666995e-09	-1.635890e+01	-1.743587e+02
4.500000e-07	-2.151702e-06	-2.555551e-09	-1.620720e+01	-1.736462e+02
4.600000e-07	-2.131229e-06	-2.613530e-09	-1.605300e+01	-1.729166e+02
4.700000e-07	-2.110326e-06	-2.650703e-09	-1.589555e+01	-1.721686e+02
4.800000e-07	-2.088958e-06	-2.592583e-09	-1.573460e+01	-1.714007e+02
4.900000e-07	-2.067298e-06	-2.569808e-09	-1.557145e+01	-1.706118e+02
5.000000e-07	-2.045372e-06	-2.565002e-09	-1.540630e+01	-1.698006e+02
5.100000e-07	-2.022998e-06	-2.531567e-09	-1.523777e+01	-1.689665e+02
5.200000e-07	-2.000177e-06	-2.546180e-09	-1.506588e+01	-1.681088e+02
5.300000e-07	-1.977060e-06	-2.565540e-09	-1.489175e+01	-1.672274e+02
5.400000e-07	-1.953705e-06	-2.495600e-09	-1.471584e+01	-1.663220e+02
5.500000e-07	-1.930099e-06	-2.446505e-09	-1.453803e+01	-1.653928e+02
5.600000e-07	-1.906263e-06	-2.502404e-09	-1.435850e+01	-1.644399e+02
5.700000e-07	-1.882220e-06	-2.517334e-09	-1.417740e+01	-1.634636e+02
5.800000e-07	-1.857842e-06	-2.429680e-09	-1.399377e+01	-1.624640e+02
5.900000e-07	-1.833009e-06	-2.385278e-09	-1.380672e+01	-1.614413e+02
6.000000e-07	-1.807705e-06	-2.434448e-09	-1.361612e+01	-1.603954e+02
6.100000e-07	-1.781824e-06	-2.442433e-09	-1.342118e+01	-1.593261e+02
6.200000e-07	-1.755361e-06	-2.367148e-09	-1.322186e+01	-1.582329e+02
6.300000e-07	-1.728437e-06	-2.328488e-09	-1.301906e+01	-1.571153e+02
6.400000e-07	-1.701092e-06	-2.357075e-09	-1.281309e+01	-1.559723e+02
6.500000e-07	-1.673492e-06	-2.357568e-09	-1.260520e+01	-1.548031e+02
6.600000e-07	-1.645825e-06	-2.311676e-09	-1.239680e+01	-1.536065e+02
6.700000e-07	-1.618040e-06	-2.281511e-09	-1.218752e+01	-1.523814e+02
6.800000e-07	-1.590042e-06	-2.271762e-09	-1.197663e+01	-1.511266e+02
6.900000e-07	-1.561701e-06	-2.260574e-09	-1.176316e+01	-1.498411e+02
7.000000e-07	-1.533099e-06	-2.251669e-09	-1.154772e+01	-1.485239e+02
7.100000e-07	-1.504252e-06	-2.224617e-09	-1.133044e+01	-1.471742e+02
7.200000e-07	-1.475109e-06	-2.177329e-09	-1.111093e+01	-1.457916e+02
7.300000e-07	-1.445805e-06	-2.162921e-09	-1.089020e+01	-1.443755e+02
7.400000e-07	-1.416263e-06	-2.174877e-09	-1.066768e+01	-1.429259e+02
7.500000e-07	-1.386472e-06	-2.144141e-09	-1.044329e+01	-1.414428e+02
7.600000e-07	-1.356465e-06	-2.083797e-09	-1.021726e+01	-1.399266e+02
7.700000e-07	-1.326226e-06	-2.066236e-09	-9.989499e+00	-1.383776e+02
7.800000e-07	-1.295815e-06	-2.076956e-09	-9.760432e+00	-1.367963e+02
7.900000e-07	-1.265180e-06	-2.048554e-09	-9.529677e+00	-1.351832e+02
8.000000e-07	-1.234312e-06	-1.993419e-09	-9.297173e+00	-1.335389e+02
8.100000e-07	-1.203181e-06	-1.966230e-09	-9.062687e+00	-1.318638e+02
8.200000e-07	-1.171845e-06	-1.960442e-09	-8.826658e+00	-1.301581e+02
8.300000e-07	-1.140426e-06	-1.938672e-09	-8.589999e+00	-1.284219e+02
8.400000e-07	-1.108874e-06	-1.898780e-09	-8.352342e+00	-1.266552e+02
8.500000e-07	-1.077189e-06	-1.863986e-09	-8.113682e+00	-1.248574e+02
8.600000e-07	-1.045391e-06	-1.840253e-09	-7.874172e+00	-1.230281e+02
8.700000e-07	-1.013433e-06	-1.818869e-09	-7.633451e+00	-1.211663e+02
8.800000e-07	-9.813508e-07	-1.791096e-09	-7.391802e+00	-1.192709e+02
8.900000e-07	-9.491934e-07	-1.752067e-09	-7.149583e+00	-1.173406e+02
9.000000e-07	-9.168358e-07	-1.714138e-09	-6.905857e+00	-1.153738e+02
9.100000e-07	-8.841363e-07	-1.689058e-09	-6.659555e+00	-1.133689e+02
9.200000e-07	-8.512463e-07	-1.665089e-09	-6.411819e+00	-1.113240e+02
9.300000e-07	-8.182693e-07	-1.623830e-09	-6.163428e+00	-1.092372e+02
9.400000e-07	-7.850114e-07	-1.576858e-09	-5.912919e+00	-1.071066e+02
9.500000e-07	-7.514742e-07	-1.549503e-09	-5.660308e+00	-1.049301e+02
9.600000e-07	-7.177058e-07	-1.528505e-09	-5.405956e+00	-1.027057e+02
9.700000e-07	-6.836742e-07	-1.490623e-09	-5.149620e+00	-1.004315e+02
9.800000e-07	-6.495156e-07	-1.445658e-09	-4.892329e+00	-9.810539e+01
9.900000e-07	-6.152438e-07	-1.412472e-09	-4.634184e+00	-9.572544e+01
1.000000e-06	-5.806755e-07	-1.385257e-09	-4.373806e+00	-9.328972e+01
1.010000e-06	-5.458696e-07	-1.349592e-09	-4.111639e+00	-9.079637e+01
1.020000e-06	-5.109233e-07	-1.307419e-09	-3.848414e+00	-8.824356e+01
1.030000e-06	-4.758361e-07	-1.265293e-09	-3.584127e+00	-8.562956e+01
1.040000e-06	-4.406254e-07	-1.225902e-09	-3.318911e+00	-8.295272e+01
1.050000e-06	-4.052801e-07	-1.187079e-09	-3.052680e+00	-8.021150e+01
1.060000e-06	-3.698616e-07	-1.144103e-09	-2.785898e+00	-7.740448e+01
1.070000e-06	-3.344500e-07	-1.097962e-09	-2.519168e+00	-7.453041e+01
1.080000e-06	-2.989961e-07	-1.053589e-09	-2.252120e+00	-7.158822e+01
1.090000e-06	-2.634594e-07	-1.012414e-09	-1.984448e+00	-6.857707e+01
1.100000e-06	-2.278973e-07	-9.692016e-10	-1.716585e+00	-6.549638e+01
1.110000e-06	-1.923235e-07	-9.192667e-10	-1.448633e+00	-6.234582e+01
1.120000e-06	-1.567490e-07	-8.672777e-10	-1.180676e+00	-5.912540e+01
1.130000e-06	-1.211846e-07	-8.192386e-10	-9.127956e-01	-5.583546e+01
1.140000e-06	-8.563350e-08	-7.722008e-10	-6.450149e-01	-5.247669e+01
1.150000e-06	-5.008428e-08	-7.199854e-10	-3.772484e-01	-4.905017e+01
1.160000e-06	-1.449545e-08	-6.663075e-10	-1.091837e-01	-4.555733e+01
1.170000e-06	2.111189e-08	-6.163937e-10	1.590205e-01	-4.200004e+01
1.180000e-06	5.670627e-08	-5.663050e-10	4.271270e-01	-3.838053e+01
1.190000e-06	9.230313e-08	-5.127501e-10	6.952523e-01	-3.470146e+01
1.200000e-06	1.278853e-07	-4.595794e-10	9.632669e-01	-3.096587e+01
1.210000e-06	1.634347e-07	-4.062387e-10	1.231034e+00	-2.717721e+01
1.220000e-06	1.989670e-07	-3.491051e-10	1.498674e+00	-2.333933e+01
1.230000e-06	2.345100e-07	-2.911599e-10	1.766393e+00	-1.945649e+01
1.240000e-06	2.700525e-07	-2.347581e-10	2.034109e+00	-1.553333e+01
1.250000e-06	3.055553e-07	-1.789232e-10	2.301526e+00	-1.157490e+01
1.260000e-06	3.410045e-07	-1.213559e-10	2.568539e+00	-7.586647e+00
1.270000e-06	3.763706e-07	-6.298221e-11	2.834926e+00	-3.574382e+00
1.280000e-06	4.116419e-07	-3.371124e-12	3.100599e+00	4.557132e-01
1.290000e-06	4.468401e-07	5.643833e-11	3.365721e+00	4.497129e+00
1.300000e-06	4.819360e-07	1.144243e-10	3.630073e+00	8.543065e+00
1.310000e-06	5.169236e-07	1.737601e-10	3.893609e+00	1.258649e+01
1.320000e-06	5.518281e-07	2.350181e-10	4.156519e+00	1.662020e+01
1.330000e-06	5.866326e-07	2.973074e-10	4.418677e+00	2.063693e+01
1.340000e-06	6.212673e-07	3.548849e-10	4.679554e+00	2.462944e+01
1.350000e-06	6.557543e-07	4.130135e-10	4.939320e+00	2.859063e+01
1.360000e-06	6.900273e-07	4.743978e-10	5.197474e+00	3.251366e+01
1.370000e-06	7.239417e-07	5.360866e-10	5.452926e+00	3.639212e+01
1.380000e-06	7.576180e-07	5.945401e-10	5.706585e+00	4.022010e+01
1.390000e-06	7.911808e-07	6.483634e-10	5.959389e+00	4.399238e+01
1.400000e-06	8.244405e-07	7.017659e-10	6.209911e+00	4.770449e+01
1.410000e-06	8.573934e-07	7.569827e-10	6.458120e+00	5.135283e+01
1.420000e-06	8.900916e-07	8.122288e-10	6.704412e+00	5.493473e+01
1.430000e-06	9.225372e-07	8.628599e-10	6.948802e+00	5.844852e+01
1.440000e-06	9.548546e-07	9.117068e-10	7.192225e+00	6.189345e+01
1.450000e-06	9.869963e-07	9.629257e-10	7.434325e+00	6.526975e+01
1.460000e-06	1.018959e-06	1.015743e-09	7.675075e+00	6.857849e+01
1.470000e-06	1.050805e-06	1.065357e-09	7.914946e+00	7.182152e+01
1.480000e-06	1.082564e-06	1.110596e-09	8.154171e+00	7.500127e+01
1.490000e-06	1.114256e-06	1.155376e-09	8.392882e+00	7.812065e+01
1.500000e-06	1.145892e-06	1.203650e-09	8.631169e+00	8.118282e+01
1.510000e-06	1.177395e-06	1.253367e-09	8.868462e+00	8.419104e+01
1.520000e-06	1.208757e-06	1.299855e-09	9.104689e+00	8.714842e+01
1.530000e-06	1.239944e-06	1.342518e-09	9.339596e+00	9.005780e+01
1.540000e-06	1.270879e-06	1.384843e-09	9.572606e+00	9.292156e+01
1.550000e-06	1.301522e-06	1.428192e-09	9.803420e+00	9.574150e+01
1.560000e-06	1.331842e-06	1.470281e-09	1.003179e+01	9.851874e+01
1.570000e-06	1.361877e-06	1.509431e-09	1.025803e+01	1.012537e+02
1.580000e-06	1.391698e-06	1.547187e-09	1.048265e+01	1.039460e+02
1.590000e-06	1.421401e-06	1.586492e-09	1.070638e+01	1.065948e+02
1.600000e-06	1.450943e-06	1.626287e-09	1.092890e+01	1.091983e+02
1.610000e-06	1.480295e-06	1.664156e-09	1.114999e+01	1.117545e+02
1.620000e-06	1.509411e-06	1.700212e-09	1.136929e+01	1.142609e+02
1.630000e-06	1.538176e-06	1.735627e-09	1.158596e+01	1.167151e+02
1.640000e-06	1.566542e-06	1.772756e-09	1.179962e+01	1.191143e+02
1.650000e-06	1.594645e-06	1.810189e-09	1.201130e+01	1.214562e+02
1.660000e-06	1.622585e-06	1.844658e-09	1.222175e+01	1.237387e+02
1.670000e-06	1.650371e-06	1.876657e-09	1.243105e+01	1.259603e+02
1.680000e-06	1.678052e-06	1.908963e-09	1.263954e+01	1.281198e+02
1.690000e-06	1.705613e-06	1.942282e-09	1.284714e+01	1.302171e+02
1.700000e-06	1.733054e-06	1.973933e-09	1.305384e+01	1.322524e+02
1.710000e-06	1.760128e-06	2.003811e-09	1.325776e+01	1.342267e+02
1.720000e-06	1.786638e-06	2.032973e-09	1.345745e+01	1.361416e+02
1.730000e-06	1.812591e-06	2.062389e-09	1.365293e+01	1.379993e+02
1.740000e-06	1.837874e-06	2.092945e-09	1.384336e+01	1.398022e+02
1.750000e-06	1.862560e-06	2.121718e-09	1.402931e+01	1.415531e+02
1.760000e-06	1.886864e-06	2.147154e-09	1.421237e+01	1.432550e+02
1.770000e-06	1.910860e-06	2.170889e-09	1.439312e+01	1.449106e+02
1.780000e-06	1.934653e-06	2.194489e-09	1.457233e+01	1.465226e+02
1.790000e-06	1.958288e-06	2.217854e-09	1.475036e+01	1.480933e+02
1.800000e-06	1.981649e-06	2.239946e-09	1.492632e+01	1.496247e+02
1.810000e-06	2.004622e-06	2.261191e-09	1.509936e+01	1.511184e+02
1.820000e-06	2.027196e-06	2.282063e-09	1.526940e+01	1.525753e+02
1.830000e-06	2.049351e-06	2.305042e-09	1.543627e+01	1.539960e+02
1.840000e-06	2.071182e-06	2.329626e-09	1.560071e+01	1.553808e+02
1.850000e-06	2.092763e-06	2.350501e-09	1.576326e+01	1.567293e+02
1.860000e-06	2.114005e-06	2.370244e-09	1.592326e+01	1.580413e+02
1.870000e-06	2.134869e-06	2.390938e-09	1.608041e+01	1.593163e+02
1.880000e-06	2.155278e-06	2.410375e-09	1.623414e+01	1.605537e+02
1.890000e-06	2.175314e-06	2.427783e-09	1.638505e+01	1.617532e+02
1.900000e-06	2.195160e-06	2.443838e-09	1.653454e+01	1.629145e+02
1.910000e-06	2.214850e-06	2.460560e-09	1.668285e+01	1.640379e+02
1.920000e-06	2.234290e-06	2.478451e-09	1.682928e+01	1.651238e+02
1.930000e-06	2.253316e-06	2.495915e-09	1.697259e+01	1.661731e+02
1.940000e-06	2.271911e-06	2.512166e-09	1.711265e+01	1.671870e+02
1.950000e-06	2.290050e-06	2.528398e-09	1.724928e+01	1.681669e+02
1.960000e-06	2.307698e-06	2.545339e-09	1.738221e+01	1.691148e+02
1.970000e-06	2.324848e-06	2.561472e-09	1.751139e+01	1.700324e+02
1.980000e-06	2.341658e-06	2.575306e-09	1.763801e+01	1.709218e+02
1.990000e-06	2.358249e-06	2.588904e-09	1.776298e+01	1.717848e+02
2.000000e-06	2.374460e-06	2.604118e-09	1.788508e+01	1.726231e+02
2.010000e-06	2.390169e-06	2.618857e-09	1.800341e+01	1.734382e+02
2.020000e-06	2.405321e-06	2.631325e-09	1.811753e+01	1.742311e+02
2.030000e-06	2.419853e-06	2.643010e-09	1.822699e+01	1.750025e+02
2.040000e-06	2.433871e-06	2.653857e-09	1.833258e+01	1.757526e+02
2.050000e-06	2.447495e-06	2.663877e-09	1.843520e+01	1.764813e+02
2.060000e-06	2.460715e-06	2.674748e-09	1.853478e+01	1.771881e+02
2.070000e-06	2.473494e-06	2.685905e-09	1.863103e+01	1.778722e+02
2.080000e-06	2.485793e-06	2.696805e-09	1.872367e+01	1.785326e+02
2.090000e-06	2.497702e-06	2.709352e-09	1.881338e+01	1.791681e+02
2.100000e-06	2.509292e-06	2.722399e-09	1.890067e+01	1.797778e+02
2.110000e-06	2.520460e-06	2.733103e-09	1.898479e+01	1.803608e+02
2.120000e-06	2.531037e-06	2.743188e-09	1.906446e+01	1.809165e+02
2.130000e-06	2.540807e-06	2.753849e-09	1.913805e+01	1.814446e+02
2.140000e-06	2.549752e-06	2.763006e-09	1.920543e+01	1.819453e+02
2.150000e-06	2.558113e-06	2.770875e-09	1.926841e+01	1.824190e+02
2.160000e-06	2.566076e-06	2.779338e-09	1.932839e+01	1.828668e+02
2.170000e-06	2.573773e-06	2.788617e-09	1.938636e+01	1.832901e+02
2.180000e-06	2.581213e-06	2.797106e-09	1.944240e+01	1.836904e+02
2.190000e-06	2.588269e-06	2.803430e-09	1.949555e+01	1.840697e+02
2.200000e-06	2.594799e-06	2.809045e-09	1.954473e+01	1.844299e+02
2.210000e-06	2.600847e-06	2.815401e-09	1.959029e+01	1.847729e+02
2.220000e-06	2.606512e-06	2.822268e-09	1.963296e+01	1.851003e+02
2.230000e-06	2.611734e-06	2.828801e-09	1.967229e+01	1.854137e+02
2.240000e-06	2.616420e-06	2.833207e-09	1.970759e+01	1.857140e+02
2.250000e-06	2.620622e-06	2.837200e-09	1.973924e+01	1.860017e+02
2.260000e-06	2.624508e-06	2.843089e-09	1.976851e+01	1.862770e+02
2.270000e-06	2.628167e-06	2.848031e-09	1.979607e+01	1.865392e+02
2.280000e-06	2.631577e-06	2.851349e-09	1.982175e+01	1.867875e+02
2.290000e-06	2.634551e-06	2.856806e-09	1.984416e+01	1.870205e+02
2.300000e-06	2.636806e-06	2.864135e-09	1.986114e+01	1.872365e+02
2.310000e-06	2.638226e-06	2.870019e-09	1.987183e+01	1.874336e+02
2.320000e-06	2.638930e-06	2.874263e-09	1.987714e+01	1.876100e+02
2.330000e-06	2.639111e-06	2.878338e-09	1.987850e+01	1.877639e+02
2.340000e-06	2.638978e-06	2.880833e-09	1.987750e+01	1.878937e+02
2.350000e-06	2.638582e-06	2.883317e-09	1.987452e+01	1.879985e+02
2.360000e-06	2.637831e-06	2.885656e-09	1.986886e+01	1.880774e+02
2.370000e-06	2.636669e-06	2.885069e-09	1.986011e+01	1.881305e+02
2.380000e-06	2.635037e-06	2.895556e-09	1.984782e+01	1.881584e+02
2.390000e-06	2.632960e-06	2.924115e-09	1.983218e+01	1.881620e+02
2.400000e-06	2.630524e-06	2.913902e-09	1.981382e+01	1.881431e+02
2.410000e-06	2.627655e-06	2.809374e-09	1.979221e+01	1.881037e+02
2.420000e-06	2.624270e-06	2.761048e-09	1.976672e+01	1.880462e+02
2.430000e-06	2.620397e-06	2.905999e-09	1.973754e+01	1.879733e+02
2.440000e-06	2.616205e-06	2.991015e-09	1.970597e+01	1.878875e+02
2.450000e-06	2.611915e-06	2.893922e-09	1.967365e+01	1.877912e+02
2.460000e-06	2.607235e-06	2.768174e-09	1.963841e+01	1.876864e+02
2.470000e-06	2.601678e-06	2.805577e-09	1.959654e+01	1.875748e+02
2.480000e-06	2.595416e-06	2.928726e-09	1.954938e+01	1.874575e+02
2.490000e-06	2.588835e-06	2.976835e-09	1.949981e+01	1.873347e+02
2.500000e-06	2.581744e-06	2.882932e-09	1.944640e+01	1.872061e+02
2.510000e-06	2.573911e-06	2.729626e-09	1.938740e+01	1.870708e+02
2.520000e-06	2.565678e-06	2.793168e-09	1.932538e+01	1.869268e+02
2.530000e-06	2.557317e-06	3.002470e-09	1.926241e+01	1.867721e+02
2.540000e-06	2.548470e-06	2.979141e-09	1.919577e+01	1.866039e+02
2.550000e-06	2.538969e-06	2.685385e-09	1.912421e+01	1.864193e+02
2.560000e-06	2.529150e-06	2.688896e-09	1.905025e+01	1.862152e+02
2.570000e-06	2.519080e-06	2.993862e-09	1.897439e+01	1.859885e+02
2.580000e-06	2.508436e-06	2.975549e-09	1.889422e+01	1.857365e+02
2.590000e-06	2.497207e-06	2.675333e-09	1.880964e+01	1.854568e+02
2.600000e-06	2.485670e-06	2.706428e-09	1.872275e+01	1.851474e+02
2.610000e-06	2.473751e-06	2.941112e-09	1.863297e+01	1.848072e+02
2.620000e-06	2.461257e-06	2.858686e-09	1.853886e+01	1.844354e+02
2.630000e-06	2.448305e-06	2.719698e-09	1.844130e+01	1.840321e+02
2.640000e-06	2.434847e-06	2.804358e-09	1.833993e+01	1.835981e+02
2.650000e-06	2.420485e-06	2.812177e-09	1.823175e+01	1.831345e+02
2.660000e-06	2.405279e-06	2.722655e-09	1.811722e+01	1.826432e+02
2.670000e-06	2.389605e-06	2.812323e-09	1.799916e+01	1.821262e+02
2.680000e-06	2.373593e-06	2.850038e-09	1.787855e+01	1.815859e+02
2.690000e-06	2.357306e-06	2.668556e-09	1.775587e+01	1.810247e+02
2.700000e-06	2.340795e-06	2.683600e-09	1.763151e+01	1.804449e+02
2.710000e-06	2.324030e-06	2.874218e-09	1.750523e+01	1.798487e+02
2.720000e-06	2.306793e-06	2.788276e-09	1.737539e+01	1.792377e+02
2.730000e-06	2.289009e-06	2.595934e-09	1.724144e+01	1.786135e+02
2.740000e-06	2.270887e-06	2.692072e-09	1.710494e+01	1.779768e+02
2.750000e-06	2.252487e-06	2.824031e-09	1.696635e+01	1.773282e+02
2.760000e-06	2.233604e-06	2.701256e-09	1.682411e+01	1.766675e+02
2.770000e-06	2.214204e-06	2.598192e-09	1.667799e+01	1.759943e+02
2.780000e-06	2.194531e-06	2.693822e-09	1.652980e+01	1.753077e+02
2.790000e-06	2.174634e-06	2.742634e-09	1.637993e+01	1.746064e+02
2.800000e-06	2.154509e-06	2.636651e-09	1.622835e+01	1.738892e+02
2.810000e-06	2.134240e-06	2.603330e-09	1.607568e+01	1.731545e+02
2.820000e-06	2.113714e-06	2.675992e-09	1.592107e+01	1.724010e+02
2.830000e-06	2.092666e-06	2.652192e-09	1.576253e+01	1.716272e+02
2.840000e-06	2.071021e-06	2.583192e-09	1.559949e+01	1.708319e+02
2.850000e-06	2.048760e-06	2.613704e-09	1.543182e+01	1.700142e+02
2.860000e-06	2.025852e-06	2.620480e-09	1.525927e+01	1.691733e+02
2.870000e-06	2.002376e-06	2.556135e-09	1.508244e+01	1.683088e+02
2.880000e-06	1.978480e-06	2.565824e-09	1.490245e+01	1.674205e+02
2.890000e-06	1.954401e-06	2.597479e-09	1.472108e+01	1.665082e+02
2.900000e-06	1.930176e-06	2.535285e-09	1.453861e+01	1.655721e+02
2.910000e-06	1.905770e-06	2.492591e-09	1.435478e+01	1.646125e+02
2.920000e-06	1.881130e-06	2.538162e-09	1.416919e+01	1.636294e+02
2.930000e-06	1.856090e-06	2.541663e-09	1.398057e+01	1.626232e+02
2.940000e-06	1.830597e-06	2.466655e-09	1.378856e+01	1.615938e+02
2.950000e-06	1.804776e-06	2.440933e-09	1.359407e+01	1.605412e+02
