# Temperatura_=_20.0
# Concentracion g/m^3_=_9000.0
# C_Vs_to_Am_M_A/Vsm_=_65563218390.804596
# pendiente_HvsI_1/m_=_3716.3
# ordenada_HvsI_A/m_=_1297.0
# frecuencia_Hz_=_213042.63537175948

Tiempo_(s)	Campo_(V.s)	Magnetizacion_(V.s)	Campo_(kA/m)	Magnetizacion_(A/m)
0.000000e+00	-2.628874e-06	-2.860548e-09	-1.982237e+01	-1.879200e+02
1.000000e-08	-2.629105e-06	-2.862085e-09	-1.982412e+01	-1.880064e+02
2.000000e-08	-2.629033e-06	-2.863740e-09	-1.982358e+01	-1.880687e+02
3.000000e-08	-2.628467e-06	-2.864819e-09	-1.981931e+01	-1.881070e+02
4.000000e-08	-2.627277e-06	-2.862248e-09	-1.981034e+01	-1.881215e+02
5.000000e-08	-2.625325e-06	-2.842754e-09	-1.979562e+01	-1.881130e+02
6.000000e-08	-2.622643e-06	-2.830692e-09	-1.977540e+01	-1.880823e+02
7.000000e-08	-2.619431e-06	-2.882770e-09	-1.975117e+01	-1.880306e+02
8.000000e-08	-2.615836e-06	-2.953360e-09	-1.972407e+01	-1.879594e+02
9.000000e-08	-2.611960e-06	-2.895652e-09	-1.969484e+01	-1.878702e+02
1.000000e-07	-2.607729e-06	-2.766177e-09	-1.966294e+01	-1.877648e+02
1.100000e-07	-2.603069e-06	-2.808405e-09	-1.962780e+01	-1.876449e+02
1.200000e-07	-2.597963e-06	-2.902979e-09	-1.958930e+01	-1.875123e+02
1.300000e-07	-2.592447e-06	-2.939947e-09	-1.954771e+01	-1.873686e+02
1.400000e-07	-2.586568e-06	-2.837191e-09	-1.950338e+01	-1.872153e+02
1.500000e-07	-2.580123e-06	-2.763594e-09	-1.945478e+01	-1.870534e+02
1.600000e-07	-2.573050e-06	-2.793242e-09	-1.940145e+01	-1.868838e+02
1.700000e-07	-2.565619e-06	-2.891062e-09	-1.934542e+01	-1.867069e+02
1.800000e-07	-2.557965e-06	-2.956275e-09	-1.928771e+01	-1.865228e+02
1.900000e-07	-2.549931e-06	-2.776693e-09	-1.922713e+01	-1.863309e+02
2.000000e-07	-2.541420e-06	-2.710254e-09	-1.916295e+01	-1.861306e+02
2.100000e-07	-2.532432e-06	-2.837475e-09	-1.909518e+01	-1.859205e+02
2.200000e-07	-2.522909e-06	-2.998863e-09	-1.902338e+01	-1.856990e+02
2.300000e-07	-2.512615e-06	-2.830299e-09	-1.894575e+01	-1.854643e+02
2.400000e-07	-2.501554e-06	-2.678668e-09	-1.886235e+01	-1.852143e+02
2.500000e-07	-2.490063e-06	-2.830159e-09	-1.877571e+01	-1.849469e+02
2.600000e-07	-2.478150e-06	-2.930896e-09	-1.868588e+01	-1.846599e+02
2.700000e-07	-2.465673e-06	-2.829846e-09	-1.859180e+01	-1.843512e+02
2.800000e-07	-2.452684e-06	-2.722782e-09	-1.849386e+01	-1.840190e+02
2.900000e-07	-2.439304e-06	-2.799445e-09	-1.839297e+01	-1.836616e+02
3.000000e-07	-2.425473e-06	-2.796724e-09	-1.828869e+01	-1.832779e+02
3.100000e-07	-2.411090e-06	-2.803254e-09	-1.818023e+01	-1.828671e+02
3.200000e-07	-2.396194e-06	-2.812019e-09	-1.806791e+01	-1.824288e+02
3.300000e-07	-2.380578e-06	-2.742922e-09	-1.795016e+01	-1.819630e+02
3.400000e-07	-2.364196e-06	-2.692446e-09	-1.782664e+01	-1.814703e+02
3.500000e-07	-2.347433e-06	-2.790360e-09	-1.770024e+01	-1.809516e+02
3.600000e-07	-2.330425e-06	-2.833395e-09	-1.757199e+01	-1.804082e+02
3.700000e-07	-2.313103e-06	-2.685853e-09	-1.744138e+01	-1.798415e+02
3.800000e-07	-2.295434e-06	-2.650273e-09	-1.730816e+01	-1.792531e+02
3.900000e-07	-2.277487e-06	-2.766332e-09	-1.717283e+01	-1.786448e+02
4.000000e-07	-2.259168e-06	-2.783873e-09	-1.703470e+01	-1.780182e+02
4.100000e-07	-2.240306e-06	-2.656150e-09	-1.689247e+01	-1.773748e+02
4.200000e-07	-2.221018e-06	-2.633971e-09	-1.674704e+01	-1.767159e+02
4.300000e-07	-2.201458e-06	-2.711099e-09	-1.659955e+01	-1.760426e+02
4.400000e-07	-2.181659e-06	-2.702232e-09	-1.645026e+01	-1.753554e+02
4.500000e-07	-2.161629e-06	-2.624590e-09	-1.629923e+01	-1.746547e+02
4.600000e-07	-2.141338e-06	-2.618985e-09	-1.614623e+01	-1.739403e+02
4.700000e-07	-2.120682e-06	-2.648845e-09	-1.599048e+01	-1.732118e+02
4.800000e-07	-2.099600e-06	-2.619841e-09	-1.583152e+01	-1.724683e+02
4.900000e-07	-2.078174e-06	-2.595181e-09	-1.566996e+01	-1.717088e+02
5.000000e-07	-2.056492e-06	-2.597544e-09	-1.550647e+01	-1.709319e+02
5.100000e-07	-2.034434e-06	-2.569135e-09	-1.534015e+01	-1.701364e+02
5.200000e-07	-2.011929e-06	-2.551203e-09	-1.517046e+01	-1.693207e+02
5.300000e-07	-1.989064e-06	-2.571318e-09	-1.499805e+01	-1.684834e+02
5.400000e-07	-1.965869e-06	-2.547784e-09	-1.482315e+01	-1.676232e+02
5.500000e-07	-1.942420e-06	-2.494084e-09	-1.464634e+01	-1.667389e+02
5.600000e-07	-1.918768e-06	-2.499432e-09	-1.446800e+01	-1.658297e+02
5.700000e-07	-1.894912e-06	-2.525005e-09	-1.428812e+01	-1.648946e+02
5.800000e-07	-1.870726e-06	-2.486166e-09	-1.410575e+01	-1.639334e+02
5.900000e-07	-1.846089e-06	-2.438934e-09	-1.391998e+01	-1.629456e+02
6.000000e-07	-1.820983e-06	-2.442420e-09	-1.373068e+01	-1.619310e+02
6.100000e-07	-1.795372e-06	-2.455954e-09	-1.353756e+01	-1.608899e+02
6.200000e-07	-1.769225e-06	-2.422051e-09	-1.334041e+01	-1.598221e+02
6.300000e-07	-1.742539e-06	-2.374659e-09	-1.313919e+01	-1.587277e+02
6.400000e-07	-1.715426e-06	-2.371468e-09	-1.293475e+01	-1.576069e+02
6.500000e-07	-1.688048e-06	-2.377772e-09	-1.272831e+01	-1.564596e+02
6.600000e-07	-1.660505e-06	-2.349584e-09	-1.252063e+01	-1.552855e+02
6.700000e-07	-1.632791e-06	-2.315266e-09	-1.231166e+01	-1.540843e+02
6.800000e-07	-1.604901e-06	-2.300925e-09	-1.210136e+01	-1.528555e+02
6.900000e-07	-1.576863e-06	-2.286990e-09	-1.188995e+01	-1.515982e+02
7.000000e-07	-1.548586e-06	-2.271163e-09	-1.167673e+01	-1.503118e+02
7.100000e-07	-1.519991e-06	-2.254931e-09	-1.146112e+01	-1.489951e+02
7.200000e-07	-1.491065e-06	-2.219912e-09	-1.124301e+01	-1.476473e+02
7.300000e-07	-1.461861e-06	-2.188270e-09	-1.102280e+01	-1.462673e+02
7.400000e-07	-1.432435e-06	-2.184389e-09	-1.080092e+01	-1.448543e+02
7.500000e-07	-1.402805e-06	-2.170577e-09	-1.057751e+01	-1.434075e+02
7.600000e-07	-1.372947e-06	-2.125082e-09	-1.035237e+01	-1.419263e+02
7.700000e-07	-1.342895e-06	-2.090417e-09	-1.012577e+01	-1.404106e+02
7.800000e-07	-1.312648e-06	-2.087376e-09	-9.897699e+00	-1.388603e+02
7.900000e-07	-1.282152e-06	-2.074125e-09	-9.667753e+00	-1.372758e+02
8.000000e-07	-1.251407e-06	-2.032338e-09	-9.435925e+00	-1.356574e+02
8.100000e-07	-1.220527e-06	-1.995049e-09	-9.203081e+00	-1.340061e+02
8.200000e-07	-1.189491e-06	-1.977441e-09	-8.969063e+00	-1.323227e+02
8.300000e-07	-1.158177e-06	-1.958630e-09	-8.732946e+00	-1.306082e+02
8.400000e-07	-1.126683e-06	-1.925877e-09	-8.495478e+00	-1.288636e+02
8.500000e-07	-1.095093e-06	-1.890798e-09	-8.257278e+00	-1.270895e+02
8.600000e-07	-1.063384e-06	-1.865166e-09	-8.018183e+00	-1.252866e+02
8.700000e-07	-1.031571e-06	-1.842994e-09	-7.778305e+00	-1.234551e+02
8.800000e-07	-9.996793e-07	-1.817626e-09	-7.537836e+00	-1.215948e+02
8.900000e-07	-9.676735e-07	-1.786509e-09	-7.296504e+00	-1.197049e+02
9.000000e-07	-9.354914e-07	-1.749773e-09	-7.053843e+00	-1.177842e+02
9.100000e-07	-9.029999e-07	-1.717967e-09	-6.808849e+00	-1.158309e+02
9.200000e-07	-8.702861e-07	-1.692555e-09	-6.562178e+00	-1.138427e+02
9.300000e-07	-8.374370e-07	-1.659439e-09	-6.314488e+00	-1.118167e+02
9.400000e-07	-8.043699e-07	-1.616530e-09	-6.065153e+00	-1.097497e+02
9.500000e-07	-7.710657e-07	-1.581277e-09	-5.814031e+00	-1.076382e+02
9.600000e-07	-7.375381e-07	-1.557392e-09	-5.561224e+00	-1.054786e+02
9.700000e-07	-7.037415e-07	-1.526327e-09	-5.306390e+00	-1.032670e+02
9.800000e-07	-6.697060e-07	-1.486164e-09	-5.049753e+00	-1.009999e+02
9.900000e-07	-6.354943e-07	-1.450185e-09	-4.791789e+00	-9.867367e+01
1.000000e-06	-6.010748e-07	-1.420348e-09	-4.532256e+00	-9.628532e+01
1.010000e-06	-5.664313e-07	-1.388150e-09	-4.271036e+00	-9.383215e+01
1.020000e-06	-5.316422e-07	-1.350310e-09	-4.008717e+00	-9.131198e+01
1.030000e-06	-4.967424e-07	-1.310166e-09	-3.745564e+00	-8.872319e+01
1.040000e-06	-4.616825e-07	-1.268767e-09	-3.481203e+00	-8.606475e+01
1.050000e-06	-4.264759e-07	-1.227736e-09	-3.215737e+00	-8.333613e+01
1.060000e-06	-3.911536e-07	-1.188098e-09	-2.949397e+00	-8.053736e+01
1.070000e-06	-3.558209e-07	-1.144746e-09	-2.682980e+00	-7.766887e+01
1.080000e-06	-3.204652e-07	-1.096690e-09	-2.416389e+00	-7.473144e+01
1.090000e-06	-2.850228e-07	-1.050862e-09	-2.149144e+00	-7.172612e+01
1.100000e-06	-2.495408e-07	-1.009777e-09	-1.881601e+00	-6.865410e+01
1.110000e-06	-2.140286e-07	-9.652159e-10	-1.613830e+00	-6.551660e+01
1.120000e-06	-1.785106e-07	-9.143169e-10	-1.346015e+00	-6.231483e+01
1.130000e-06	-1.429968e-07	-8.651431e-10	-1.078232e+00	-5.904990e+01
1.140000e-06	-1.074481e-07	-8.181061e-10	-8.101858e-01	-5.572280e+01
1.150000e-06	-7.188744e-08	-7.678542e-10	-5.420495e-01	-5.233438e+01
1.160000e-06	-3.630557e-08	-7.138064e-10	-2.737532e-01	-4.888537e+01
1.170000e-06	-7.324614e-10	-6.607055e-10	-5.522945e-03	-4.537645e+01
1.180000e-06	3.481390e-08	-6.085183e-10	2.625056e-01	-4.180835e+01
1.190000e-06	7.037333e-08	-5.552365e-10	5.306327e-01	-3.818191e+01
1.200000e-06	1.059289e-07	-5.025272e-10	7.987311e-01	-3.449825e+01
1.210000e-06	1.414507e-07	-4.495797e-10	1.066574e+00	-3.075885e+01
1.220000e-06	1.769697e-07	-3.925989e-10	1.334396e+00	-2.696573e+01
1.230000e-06	2.125035e-07	-3.347862e-10	1.602330e+00	-2.312151e+01
1.240000e-06	2.480205e-07	-2.802296e-10	1.870137e+00	-1.922955e+01
1.250000e-06	2.835114e-07	-2.235185e-10	2.137748e+00	-1.529400e+01
1.260000e-06	3.189381e-07	-1.637403e-10	2.404874e+00	-1.131982e+01
1.270000e-06	3.543185e-07	-1.048476e-10	2.671652e+00	-7.312796e+00
1.280000e-06	3.896238e-07	-4.688791e-11	2.937863e+00	-3.279465e+00
1.290000e-06	4.248626e-07	1.255094e-11	3.203572e+00	7.729468e-01
1.300000e-06	4.600711e-07	7.335334e-11	3.469053e+00	4.836662e+00
1.310000e-06	4.951446e-07	1.325483e-10	3.733516e+00	8.903510e+00
1.320000e-06	5.300863e-07	1.933500e-10	3.996985e+00	1.296511e+01
1.330000e-06	5.648697e-07	2.526964e-10	4.259261e+00	1.701306e+01
1.340000e-06	5.994128e-07	3.125794e-10	4.519725e+00	2.103916e+01
1.350000e-06	6.338299e-07	3.737464e-10	4.779238e+00	2.503559e+01
1.360000e-06	6.680721e-07	4.337941e-10	5.037433e+00	2.899512e+01
1.370000e-06	7.020325e-07	4.921178e-10	5.293503e+00	3.291125e+01
1.380000e-06	7.358358e-07	5.501201e-10	5.548388e+00	3.677837e+01
1.390000e-06	7.694245e-07	6.078896e-10	5.801656e+00	4.059182e+01
1.400000e-06	8.026990e-07	6.636154e-10	6.052554e+00	4.434795e+01
1.410000e-06	8.357564e-07	7.182852e-10	6.301815e+00	4.804415e+01
1.420000e-06	8.685930e-07	7.718962e-10	6.549411e+00	5.167880e+01
1.430000e-06	9.011706e-07	8.237876e-10	6.795055e+00	5.525118e+01
1.440000e-06	9.335385e-07	8.739568e-10	7.039117e+00	5.876138e+01
1.450000e-06	9.657144e-07	9.247185e-10	7.281731e+00	6.221018e+01
1.460000e-06	9.977325e-07	9.760872e-10	7.523156e+00	6.559885e+01
1.470000e-06	1.029609e-06	1.027443e-09	7.763513e+00	6.892902e+01
1.480000e-06	1.061371e-06	1.076115e-09	8.003004e+00	7.220251e+01
1.490000e-06	1.093067e-06	1.123246e-09	8.242000e+00	7.542118e+01
1.500000e-06	1.124729e-06	1.170528e-09	8.480743e+00	7.858674e+01
1.510000e-06	1.156310e-06	1.218246e-09	8.718868e+00	8.170069e+01
1.520000e-06	1.187739e-06	1.265371e-09	8.955856e+00	8.476421e+01
1.530000e-06	1.219003e-06	1.310918e-09	9.191591e+00	8.777807e+01
1.540000e-06	1.250074e-06	1.354307e-09	9.425877e+00	9.074266e+01
1.550000e-06	1.280863e-06	1.397328e-09	9.658035e+00	9.365791e+01
1.560000e-06	1.311332e-06	1.439833e-09	9.887779e+00	9.652340e+01
1.570000e-06	1.341551e-06	1.481595e-09	1.011564e+01	9.933836e+01
1.580000e-06	1.371496e-06	1.522020e-09	1.034143e+01	1.021018e+02
1.590000e-06	1.401228e-06	1.560790e-09	1.056561e+01	1.048124e+02
1.600000e-06	1.430790e-06	1.599134e-09	1.078852e+01	1.074691e+02
1.610000e-06	1.460146e-06	1.638838e-09	1.100988e+01	1.100704e+02
1.620000e-06	1.489265e-06	1.675714e-09	1.122944e+01	1.126153e+02
1.630000e-06	1.518151e-06	1.709680e-09	1.144724e+01	1.151027e+02
1.640000e-06	1.546800e-06	1.745047e-09	1.166326e+01	1.175319e+02
1.650000e-06	1.575149e-06	1.782304e-09	1.187702e+01	1.199023e+02
1.660000e-06	1.603211e-06	1.818849e-09	1.208862e+01	1.222138e+02
1.670000e-06	1.631062e-06	1.852653e-09	1.229862e+01	1.244665e+02
1.680000e-06	1.658758e-06	1.885430e-09	1.250746e+01	1.266607e+02
1.690000e-06	1.686335e-06	1.918104e-09	1.271540e+01	1.287972e+02
1.700000e-06	1.713811e-06	1.950980e-09	1.292257e+01	1.308768e+02
1.710000e-06	1.741019e-06	1.982262e-09	1.312772e+01	1.329006e+02
1.720000e-06	1.767784e-06	2.011693e-09	1.332954e+01	1.348698e+02
1.730000e-06	1.794114e-06	2.040667e-09	1.352808e+01	1.367857e+02
1.740000e-06	1.819898e-06	2.069280e-09	1.372249e+01	1.386496e+02
1.750000e-06	1.845029e-06	2.096910e-09	1.391198e+01	1.404629e+02
1.760000e-06	1.869601e-06	2.124898e-09	1.409726e+01	1.422268e+02
1.770000e-06	1.893768e-06	2.150589e-09	1.427949e+01	1.439426e+02
1.780000e-06	1.917644e-06	2.175387e-09	1.445953e+01	1.456115e+02
1.790000e-06	1.941284e-06	2.201119e-09	1.463778e+01	1.472345e+02
1.800000e-06	1.964719e-06	2.226378e-09	1.481448e+01	1.488127e+02
1.810000e-06	1.987874e-06	2.249893e-09	1.498907e+01	1.503471e+02
1.820000e-06	2.010674e-06	2.270520e-09	1.516099e+01	1.518386e+02
1.830000e-06	2.033108e-06	2.291443e-09	1.533015e+01	1.532883e+02
1.840000e-06	2.055192e-06	2.315325e-09	1.549667e+01	1.546969e+02
1.850000e-06	2.076933e-06	2.339247e-09	1.566060e+01	1.560656e+02
1.860000e-06	2.098377e-06	2.358850e-09	1.582230e+01	1.573953e+02
1.870000e-06	2.119455e-06	2.378082e-09	1.598123e+01	1.586872e+02
1.880000e-06	2.140123e-06	2.399899e-09	1.613707e+01	1.599422e+02
1.890000e-06	2.160420e-06	2.420360e-09	1.629012e+01	1.611615e+02
1.900000e-06	2.180377e-06	2.437344e-09	1.644060e+01	1.623462e+02
1.910000e-06	2.200080e-06	2.454154e-09	1.658916e+01	1.634975e+02
1.920000e-06	2.219546e-06	2.472100e-09	1.673594e+01	1.646165e+02
1.930000e-06	2.238766e-06	2.490378e-09	1.688087e+01	1.657042e+02
1.940000e-06	2.257632e-06	2.508875e-09	1.702312e+01	1.667616e+02
1.950000e-06	2.276055e-06	2.525833e-09	1.716203e+01	1.677895e+02
1.960000e-06	2.294034e-06	2.542078e-09	1.729760e+01	1.687887e+02
1.970000e-06	2.311529e-06	2.559042e-09	1.742951e+01	1.697598e+02
1.980000e-06	2.328659e-06	2.575795e-09	1.755868e+01	1.707032e+02
1.990000e-06	2.345515e-06	2.590227e-09	1.768578e+01	1.716192e+02
2.000000e-06	2.362002e-06	2.605714e-09	1.781009e+01	1.725080e+02
2.010000e-06	2.378029e-06	2.622342e-09	1.793094e+01	1.733696e+02
2.020000e-06	2.393618e-06	2.636730e-09	1.804849e+01	1.742041e+02
2.030000e-06	2.408661e-06	2.649855e-09	1.816191e+01	1.750112e+02
2.040000e-06	2.423047e-06	2.661018e-09	1.827039e+01	1.757909e+02
2.050000e-06	2.436943e-06	2.670283e-09	1.837517e+01	1.765431e+02
2.060000e-06	2.450452e-06	2.680522e-09	1.847703e+01	1.772677e+02
2.070000e-06	2.463526e-06	2.693289e-09	1.857561e+01	1.779645e+02
2.080000e-06	2.476093e-06	2.705483e-09	1.867037e+01	1.786338e+02
2.090000e-06	2.488217e-06	2.716486e-09	1.876179e+01	1.792756e+02
2.100000e-06	2.499979e-06	2.728190e-09	1.885048e+01	1.798904e+02
2.110000e-06	2.511297e-06	2.740157e-09	1.893582e+01	1.804787e+02
2.120000e-06	2.522114e-06	2.749396e-09	1.901738e+01	1.810410e+02
2.130000e-06	2.532333e-06	2.756083e-09	1.909444e+01	1.815781e+02
2.140000e-06	2.541751e-06	2.764352e-09	1.916545e+01	1.820909e+02
2.150000e-06	2.550419e-06	2.774190e-09	1.923080e+01	1.825803e+02
2.160000e-06	2.558589e-06	2.783540e-09	1.929241e+01	1.830474e+02
2.170000e-06	2.566427e-06	2.791536e-09	1.935151e+01	1.834933e+02
2.180000e-06	2.573955e-06	2.799932e-09	1.940827e+01	1.839189e+02
2.190000e-06	2.581116e-06	2.809717e-09	1.946227e+01	1.843253e+02
2.200000e-06	2.587870e-06	2.817635e-09	1.951320e+01	1.847133e+02
2.210000e-06	2.594209e-06	2.823512e-09	1.956099e+01	1.850836e+02
2.220000e-06	2.600103e-06	2.829627e-09	1.960544e+01	1.854368e+02
2.230000e-06	2.605539e-06	2.835867e-09	1.964643e+01	1.857734e+02
2.240000e-06	2.610514e-06	2.840250e-09	1.968394e+01	1.860935e+02
2.250000e-06	2.615045e-06	2.843890e-09	1.971810e+01	1.863971e+02
2.260000e-06	2.619191e-06	2.848215e-09	1.974936e+01	1.866839e+02
2.270000e-06	2.623008e-06	2.852497e-09	1.977815e+01	1.869535e+02
2.280000e-06	2.626522e-06	2.858061e-09	1.980464e+01	1.872053e+02
2.290000e-06	2.629723e-06	2.864049e-09	1.982878e+01	1.874385e+02
2.300000e-06	2.632420e-06	2.870892e-09	1.984912e+01	1.876522e+02
2.310000e-06	2.634407e-06	2.877444e-09	1.986409e+01	1.878456e+02
2.320000e-06	2.635656e-06	2.881715e-09	1.987352e+01	1.880176e+02
2.330000e-06	2.636238e-06	2.884314e-09	1.987790e+01	1.881675e+02
2.340000e-06	2.636317e-06	2.887906e-09	1.987850e+01	1.882945e+02
2.350000e-06	2.636052e-06	2.891210e-09	1.987650e+01	1.883979e+02
2.360000e-06	2.635461e-06	2.892282e-09	1.987204e+01	1.884774e+02
2.370000e-06	2.634473e-06	2.891814e-09	1.986460e+01	1.885327e+02
2.380000e-06	2.633093e-06	2.893680e-09	1.985419e+01	1.885641e+02
2.390000e-06	2.631249e-06	2.909524e-09	1.984028e+01	1.885719e+02
2.400000e-06	2.628988e-06	2.923141e-09	1.982324e+01	1.885568e+02
2.410000e-06	2.626361e-06	2.877125e-09	1.980343e+01	1.885200e+02
2.420000e-06	2.623220e-06	2.807561e-09	1.977974e+01	1.884625e+02
2.430000e-06	2.619547e-06	2.842385e-09	1.975205e+01	1.883860e+02
2.440000e-06	2.615495e-06	2.949401e-09	1.972150e+01	1.882920e+02
2.450000e-06	2.611248e-06	2.913280e-09	1.968947e+01	1.881823e+02
2.460000e-06	2.606745e-06	2.849270e-09	1.965552e+01	1.880588e+02
2.470000e-06	2.601597e-06	2.811703e-09	1.961670e+01	1.879229e+02
2.480000e-06	2.595737e-06	2.866742e-09	1.957251e+01	1.877765e+02
2.490000e-06	2.589503e-06	2.930961e-09	1.952551e+01	1.876207e+02
2.500000e-06	2.582882e-06	2.926082e-09	1.947558e+01	1.874567e+02
2.510000e-06	2.575582e-06	2.831754e-09	1.942054e+01	1.872852e+02
2.520000e-06	2.567688e-06	2.758642e-09	1.936102e+01	1.871064e+02
2.530000e-06	2.559473e-06	2.905456e-09	1.929907e+01	1.869203e+02
2.540000e-06	2.550879e-06	2.971663e-09	1.923428e+01	1.867262e+02
2.550000e-06	2.541731e-06	2.833602e-09	1.916530e+01	1.865234e+02
2.560000e-06	2.532106e-06	2.699906e-09	1.909272e+01	1.863103e+02
2.570000e-06	2.522124e-06	2.870289e-09	1.901745e+01	1.860853e+02
2.580000e-06	2.511715e-06	2.964633e-09	1.893897e+01	1.858465e+02
2.590000e-06	2.500799e-06	2.793876e-09	1.885666e+01	1.855918e+02
2.600000e-06	2.489509e-06	2.728637e-09	1.877153e+01	1.853190e+02
2.610000e-06	2.477899e-06	2.858154e-09	1.868398e+01	1.850259e+02
2.620000e-06	2.465773e-06	2.874512e-09	1.859255e+01	1.847106e+02
2.630000e-06	2.453068e-06	2.763049e-09	1.849675e+01	1.843713e+02
2.640000e-06	2.439868e-06	2.815348e-09	1.839722e+01	1.840064e+02
2.650000e-06	2.426015e-06	2.832211e-09	1.829277e+01	1.836149e+02
2.660000e-06	2.411280e-06	2.740135e-09	1.818167e+01	1.831961e+02
2.670000e-06	2.395875e-06	2.781871e-09	1.806550e+01	1.827498e+02
2.680000e-06	2.380103e-06	2.864113e-09	1.794658e+01	1.822762e+02
2.690000e-06	2.364016e-06	2.751992e-09	1.782528e+01	1.817758e+02
2.700000e-06	2.347619e-06	2.677721e-09	1.770164e+01	1.812498e+02
2.710000e-06	2.330971e-06	2.816203e-09	1.757611e+01	1.806995e+02
2.720000e-06	2.314031e-06	2.820161e-09	1.744838e+01	1.801264e+02
2.730000e-06	2.296640e-06	2.678359e-09	1.731725e+01	1.795321e+02
2.740000e-06	2.278766e-06	2.686966e-09	1.718247e+01	1.789184e+02
2.750000e-06	2.260532e-06	2.773834e-09	1.704499e+01	1.782869e+02
2.760000e-06	2.241933e-06	2.733873e-09	1.690475e+01	1.776390e+02
2.770000e-06	2.222801e-06	2.658309e-09	1.676048e+01	1.769760e+02
2.780000e-06	2.203274e-06	2.681209e-09	1.661324e+01	1.762987e+02
2.790000e-06	2.183545e-06	2.712893e-09	1.646448e+01	1.756077e+02
2.800000e-06	2.163544e-06	2.678980e-09	1.631367e+01	1.749032e+02
2.810000e-06	2.143323e-06	2.631496e-09	1.616120e+01	1.741849e+02
2.820000e-06	2.122909e-06	2.654093e-09	1.600727e+01	1.734522e+02
2.830000e-06	2.102164e-06	2.666683e-09	1.585085e+01	1.727043e+02
2.840000e-06	2.080921e-06	2.612957e-09	1.569067e+01	1.719400e+02
2.850000e-06	2.059103e-06	2.599396e-09	1.552616e+01	1.711579e+02
2.860000e-06	2.036728e-06	2.625377e-09	1.535744e+01	1.703568e+02
2.870000e-06	2.013780e-06	2.586885e-09	1.518441e+01	1.695350e+02
2.880000e-06	1.990248e-06	2.558189e-09	1.500697e+01	1.686912e+02
2.890000e-06	1.966347e-06	2.584931e-09	1.482675e+01	1.678242e+02
2.900000e-06	1.942251e-06	2.562815e-09	1.464506e+01	1.669328e+02
2.910000e-06	1.917936e-06	2.514474e-09	1.446173e+01	1.660161e+02
2.920000e-06	1.893430e-06	2.523430e-09	1.427694e+01	1.650735e+02
2.930000e-06	1.868738e-06	2.537038e-09	1.409076e+01	1.641046e+02
2.940000e-06	1.843645e-06	2.496545e-09	1.390155e+01	1.631090e+02
