# Temperatura_=_20.0
# Concentracion g/m^3_=_9000.0
# C_Vs_to_Am_M_A/Vsm_=_65563218390.804596
# pendiente_HvsI_1/m_=_3716.3
# ordenada_HvsI_A/m_=_1297.0
# frecuencia_Hz_=_213046.3027848238

Tiempo_(s)	Campo_(V.s)	Magnetizacion_(V.s)	Campo_(kA/m)	Magnetizacion_(A/m)
0.000000e+00	-2.631158e-06	-1.276572e-09	-1.981436e+01	-8.332463e+01
1.000000e-08	-2.631294e-06	-1.276629e-09	-1.981539e+01	-8.338764e+01
2.000000e-08	-2.631188e-06	-1.277255e-09	-1.981458e+01	-8.343870e+01
3.000000e-08	-2.630763e-06	-1.276852e-09	-1.981138e+01	-8.347803e+01
4.000000e-08	-2.629777e-06	-1.273318e-09	-1.980396e+01	-8.350609e+01
5.000000e-08	-2.628040e-06	-1.253532e-09	-1.979088e+01	-8.352356e+01
6.000000e-08	-2.625557e-06	-1.233481e-09	-1.977217e+01	-8.353128e+01
7.000000e-08	-2.622447e-06	-1.282830e-09	-1.974876e+01	-8.353019e+01
8.000000e-08	-2.618850e-06	-1.359281e-09	-1.972167e+01	-8.352130e+01
9.000000e-08	-2.614939e-06	-1.320575e-09	-1.969222e+01	-8.350557e+01
1.000000e-07	-2.610751e-06	-1.185925e-09	-1.966068e+01	-8.348389e+01
1.100000e-07	-2.606168e-06	-1.190263e-09	-1.962617e+01	-8.345696e+01
1.200000e-07	-2.601057e-06	-1.306133e-09	-1.958768e+01	-8.342530e+01
1.300000e-07	-2.595451e-06	-1.364447e-09	-1.954546e+01	-8.338914e+01
1.400000e-07	-2.589529e-06	-1.275275e-09	-1.950086e+01	-8.334842e+01
1.500000e-07	-2.583105e-06	-1.177180e-09	-1.945248e+01	-8.330282e+01
1.600000e-07	-2.576026e-06	-1.191156e-09	-1.939918e+01	-8.325169e+01
1.700000e-07	-2.568545e-06	-1.315411e-09	-1.934284e+01	-8.319418e+01
1.800000e-07	-2.560839e-06	-1.380416e-09	-1.928481e+01	-8.312921e+01
1.900000e-07	-2.552758e-06	-1.233298e-09	-1.922395e+01	-8.305557e+01
2.000000e-07	-2.544160e-06	-1.106030e-09	-1.915921e+01	-8.297202e+01
2.100000e-07	-2.535251e-06	-1.236036e-09	-1.909211e+01	-8.287731e+01
2.200000e-07	-2.526014e-06	-1.437259e-09	-1.902256e+01	-8.277034e+01
2.300000e-07	-2.515919e-06	-1.310573e-09	-1.894653e+01	-8.265018e+01
2.400000e-07	-2.504926e-06	-1.105866e-09	-1.886375e+01	-8.251615e+01
2.500000e-07	-2.493407e-06	-1.199565e-09	-1.877700e+01	-8.236792e+01
2.600000e-07	-2.481499e-06	-1.389807e-09	-1.868733e+01	-8.220546e+01
2.700000e-07	-2.469092e-06	-1.301072e-09	-1.859390e+01	-8.202914e+01
2.800000e-07	-2.456143e-06	-1.150270e-09	-1.849638e+01	-8.183966e+01
2.900000e-07	-2.442761e-06	-1.189888e-09	-1.839560e+01	-8.163807e+01
3.000000e-07	-2.428990e-06	-1.266539e-09	-1.829190e+01	-8.142567e+01
3.100000e-07	-2.414844e-06	-1.265108e-09	-1.818537e+01	-8.120397e+01
3.200000e-07	-2.400161e-06	-1.239071e-09	-1.807480e+01	-8.097460e+01
3.300000e-07	-2.384739e-06	-1.197647e-09	-1.795866e+01	-8.073923e+01
3.400000e-07	-2.368520e-06	-1.152989e-09	-1.783652e+01	-8.049945e+01
3.500000e-07	-2.351773e-06	-1.231613e-09	-1.771041e+01	-8.025671e+01
3.600000e-07	-2.334808e-06	-1.295741e-09	-1.758265e+01	-8.001222e+01
3.700000e-07	-2.317543e-06	-1.187804e-09	-1.745263e+01	-7.976691e+01
3.800000e-07	-2.299852e-06	-1.098790e-09	-1.731941e+01	-7.952134e+01
3.900000e-07	-2.281863e-06	-1.213925e-09	-1.718394e+01	-7.927568e+01
4.000000e-07	-2.263570e-06	-1.301918e-09	-1.704618e+01	-7.902975e+01
4.100000e-07	-2.244707e-06	-1.176343e-09	-1.690412e+01	-7.878297e+01
4.200000e-07	-2.225314e-06	-1.090731e-09	-1.675808e+01	-7.853445e+01
4.300000e-07	-2.205695e-06	-1.198909e-09	-1.661034e+01	-7.828301e+01
4.400000e-07	-2.185891e-06	-1.259760e-09	-1.646120e+01	-7.802728e+01
4.500000e-07	-2.165792e-06	-1.159291e-09	-1.630984e+01	-7.776577e+01
4.600000e-07	-2.145419e-06	-1.115259e-09	-1.615642e+01	-7.749695e+01
4.700000e-07	-2.124789e-06	-1.181433e-09	-1.600107e+01	-7.721934e+01
4.800000e-07	-2.103796e-06	-1.193377e-09	-1.584298e+01	-7.693160e+01
4.900000e-07	-2.082383e-06	-1.148329e-09	-1.568172e+01	-7.663259e+01
5.000000e-07	-2.060607e-06	-1.141223e-09	-1.551773e+01	-7.632143e+01
5.100000e-07	-2.038546e-06	-1.137012e-09	-1.535160e+01	-7.599752e+01
5.200000e-07	-2.016123e-06	-1.125043e-09	-1.518274e+01	-7.566056e+01
5.300000e-07	-1.993254e-06	-1.146856e-09	-1.501052e+01	-7.531056e+01
5.400000e-07	-1.970011e-06	-1.144654e-09	-1.483549e+01	-7.494779e+01
5.500000e-07	-1.946563e-06	-1.094266e-09	-1.465891e+01	-7.457276e+01
5.600000e-07	-1.922906e-06	-1.088423e-09	-1.448075e+01	-7.418614e+01
5.700000e-07	-1.898981e-06	-1.135835e-09	-1.430058e+01	-7.378871e+01
5.800000e-07	-1.874815e-06	-1.127229e-09	-1.411860e+01	-7.338127e+01
5.900000e-07	-1.850328e-06	-1.064150e-09	-1.393420e+01	-7.296459e+01
6.000000e-07	-1.825367e-06	-1.056637e-09	-1.374622e+01	-7.253930e+01
6.100000e-07	-1.799860e-06	-1.100365e-09	-1.355414e+01	-7.210588e+01
6.200000e-07	-1.773823e-06	-1.090977e-09	-1.335806e+01	-7.166458e+01
6.300000e-07	-1.747232e-06	-1.037179e-09	-1.315781e+01	-7.121539e+01
6.400000e-07	-1.720156e-06	-1.031447e-09	-1.295391e+01	-7.075807e+01
6.500000e-07	-1.692745e-06	-1.062703e-09	-1.274749e+01	-7.029208e+01
6.600000e-07	-1.665090e-06	-1.054075e-09	-1.253923e+01	-6.981667e+01
6.700000e-07	-1.637265e-06	-1.023694e-09	-1.232968e+01	-6.933089e+01
6.800000e-07	-1.609315e-06	-1.017339e-09	-1.211921e+01	-6.883367e+01
6.900000e-07	-1.581146e-06	-1.015566e-09	-1.190707e+01	-6.832382e+01
7.000000e-07	-1.552750e-06	-1.009799e-09	-1.169323e+01	-6.780017e+01
7.100000e-07	-1.524137e-06	-1.005927e-09	-1.147776e+01	-6.726162e+01
7.200000e-07	-1.495206e-06	-9.878906e-10	-1.125989e+01	-6.670715e+01
7.300000e-07	-1.465959e-06	-9.656915e-10	-1.103964e+01	-6.613595e+01
7.400000e-07	-1.436463e-06	-9.701119e-10	-1.081751e+01	-6.554743e+01
7.500000e-07	-1.406766e-06	-9.781921e-10	-1.059388e+01	-6.494123e+01
7.600000e-07	-1.376818e-06	-9.519860e-10	-1.036835e+01	-6.431728e+01
7.700000e-07	-1.346615e-06	-9.231262e-10	-1.014090e+01	-6.367574e+01
7.800000e-07	-1.316255e-06	-9.276110e-10	-9.912269e+00	-6.301703e+01
7.900000e-07	-1.285730e-06	-9.355883e-10	-9.682395e+00	-6.234175e+01
8.000000e-07	-1.254958e-06	-9.113018e-10	-9.450660e+00	-6.165066e+01
8.100000e-07	-1.223936e-06	-8.799198e-10	-9.217044e+00	-6.094459e+01
8.200000e-07	-1.192731e-06	-8.764551e-10	-8.982051e+00	-6.022441e+01
8.300000e-07	-1.161327e-06	-8.808173e-10	-8.745561e+00	-5.949093e+01
8.400000e-07	-1.129786e-06	-8.646637e-10	-8.508036e+00	-5.874484e+01
8.500000e-07	-1.098161e-06	-8.413606e-10	-8.269874e+00	-5.798665e+01
8.600000e-07	-1.066411e-06	-8.321265e-10	-8.030776e+00	-5.721664e+01
8.700000e-07	-1.034554e-06	-8.275910e-10	-7.790875e+00	-5.643482e+01
8.800000e-07	-1.002580e-06	-8.167375e-10	-7.550090e+00	-5.564092e+01
8.900000e-07	-9.704965e-07	-8.014421e-10	-7.308480e+00	-5.483433e+01
9.000000e-07	-9.382826e-07	-7.830519e-10	-7.065887e+00	-5.401419e+01
9.100000e-07	-9.059015e-07	-7.682488e-10	-6.822037e+00	-5.317933e+01
9.200000e-07	-8.732714e-07	-7.611195e-10	-6.576310e+00	-5.232836e+01
9.300000e-07	-8.403792e-07	-7.503870e-10	-6.328610e+00	-5.145969e+01
9.400000e-07	-8.073884e-07	-7.287927e-10	-6.080168e+00	-5.057162e+01
9.500000e-07	-7.742324e-07	-7.097514e-10	-5.830481e+00	-4.966237e+01
9.600000e-07	-7.408160e-07	-7.043723e-10	-5.578833e+00	-4.873014e+01
9.700000e-07	-7.071813e-07	-6.959157e-10	-5.325542e+00	-4.777322e+01
9.800000e-07	-6.733634e-07	-6.752555e-10	-5.070871e+00	-4.678999e+01
9.900000e-07	-6.393352e-07	-6.570723e-10	-4.814616e+00	-4.577901e+01
1.000000e-06	-6.049660e-07	-6.481352e-10	-4.555794e+00	-4.473907e+01
1.010000e-06	-5.702800e-07	-6.376345e-10	-4.294585e+00	-4.366915e+01
1.020000e-06	-5.354493e-07	-6.195254e-10	-4.032287e+00	-4.256852e+01
1.030000e-06	-5.005645e-07	-5.994443e-10	-3.769581e+00	-4.143669e+01
1.040000e-06	-4.655539e-07	-5.828940e-10	-3.505928e+00	-4.027342e+01
1.050000e-06	-4.303498e-07	-5.667996e-10	-3.240818e+00	-3.907869e+01
1.060000e-06	-3.950089e-07	-5.473602e-10	-2.974678e+00	-3.785270e+01
1.070000e-06	-3.596441e-07	-5.262091e-10	-2.708357e+00	-3.659576e+01
1.080000e-06	-3.242456e-07	-5.032039e-10	-2.441783e+00	-3.530836e+01
1.090000e-06	-2.887314e-07	-4.825411e-10	-2.174338e+00	-3.399101e+01
1.100000e-06	-2.531662e-07	-4.656050e-10	-1.906509e+00	-3.264429e+01
1.110000e-06	-2.175889e-07	-4.446182e-10	-1.638588e+00	-3.126878e+01
1.120000e-06	-1.819404e-07	-4.197730e-10	-1.370131e+00	-2.986500e+01
1.130000e-06	-1.462927e-07	-3.981157e-10	-1.101680e+00	-2.843346e+01
1.140000e-06	-1.106526e-07	-3.797588e-10	-8.332868e-01	-2.697457e+01
1.150000e-06	-7.498953e-08	-3.592161e-10	-5.647207e-01	-2.548870e+01
1.160000e-06	-3.933207e-08	-3.333580e-10	-2.961965e-01	-2.397617e+01
1.170000e-06	-3.693343e-09	-3.093224e-10	-2.781331e-02	-2.243725e+01
1.180000e-06	3.192560e-08	-2.876815e-10	2.404209e-01	-2.087224e+01
1.190000e-06	6.756534e-08	-2.641395e-10	5.088116e-01	-1.928145e+01
1.200000e-06	1.031842e-07	-2.390213e-10	7.770449e-01	-1.766529e+01
1.210000e-06	1.387565e-07	-2.153212e-10	1.044928e+00	-1.602431e+01
1.220000e-06	1.743409e-07	-1.916888e-10	1.312902e+00	-1.435922e+01
1.230000e-06	2.099098e-07	-1.677811e-10	1.580760e+00	-1.267098e+01
1.240000e-06	2.454309e-07	-1.466703e-10	1.848256e+00	-1.096080e+01
1.250000e-06	2.808930e-07	-1.232524e-10	2.115310e+00	-9.230214e+00
1.260000e-06	3.163113e-07	-9.720223e-11	2.382033e+00	-7.481052e+00
1.270000e-06	3.517273e-07	-7.141012e-11	2.648739e+00	-5.715499e+00
1.280000e-06	3.870742e-07	-4.503958e-11	2.914924e+00	-3.936067e+00
1.290000e-06	4.223096e-07	-1.728393e-11	3.180270e+00	-2.145583e+00
1.300000e-06	4.574330e-07	9.819607e-12	3.444773e+00	-3.471588e-01
1.310000e-06	4.924618e-07	3.401146e-11	3.708563e+00	1.455858e+00
1.320000e-06	5.273570e-07	6.050671e-11	3.971347e+00	3.259938e+00
1.330000e-06	5.620977e-07	8.792579e-11	4.232967e+00	5.061442e+00
1.340000e-06	5.966676e-07	1.141075e-10	4.493301e+00	6.856697e+00
1.350000e-06	6.310638e-07	1.389301e-10	4.752327e+00	8.642077e+00
1.360000e-06	6.653008e-07	1.647254e-10	5.010154e+00	1.041409e+01
1.370000e-06	6.992585e-07	1.918958e-10	5.265878e+00	1.216944e+01
1.380000e-06	7.329143e-07	2.187459e-10	5.519329e+00	1.390515e+01
1.390000e-06	7.663376e-07	2.451400e-10	5.771028e+00	1.561856e+01
1.400000e-06	7.995636e-07	2.708529e-10	6.021242e+00	1.730746e+01
1.410000e-06	8.325850e-07	2.950613e-10	6.269915e+00	1.897005e+01
1.420000e-06	8.653808e-07	3.176946e-10	6.516889e+00	2.060504e+01
1.430000e-06	8.979389e-07	3.385603e-10	6.762073e+00	2.221159e+01
1.440000e-06	9.303048e-07	3.594501e-10	7.005809e+00	2.378933e+01
1.450000e-06	9.625238e-07	3.820633e-10	7.248440e+00	2.533834e+01
1.460000e-06	9.946406e-07	4.043022e-10	7.490300e+00	2.685907e+01
1.470000e-06	1.026645e-06	4.269745e-10	7.731317e+00	2.835230e+01
1.480000e-06	1.058570e-06	4.483730e-10	7.971728e+00	2.981906e+01
1.490000e-06	1.090436e-06	4.680031e-10	8.211706e+00	3.126056e+01
1.500000e-06	1.122204e-06	4.885494e-10	8.450934e+00	3.267809e+01
1.510000e-06	1.153912e-06	5.102216e-10	8.689721e+00	3.407294e+01
1.520000e-06	1.185510e-06	5.311873e-10	8.927675e+00	3.544632e+01
1.530000e-06	1.216891e-06	5.509807e-10	9.163994e+00	3.679931e+01
1.540000e-06	1.247958e-06	5.688130e-10	9.397945e+00	3.813275e+01
1.550000e-06	1.278684e-06	5.877500e-10	9.629331e+00	3.944725e+01
1.560000e-06	1.309092e-06	6.079991e-10	9.858330e+00	4.074312e+01
1.570000e-06	1.339219e-06	6.279089e-10	1.008521e+01	4.202038e+01
1.580000e-06	1.369169e-06	6.460648e-10	1.031075e+01	4.327876e+01
1.590000e-06	1.399019e-06	6.619809e-10	1.053553e+01	4.451772e+01
1.600000e-06	1.428698e-06	6.786146e-10	1.075904e+01	4.573648e+01
1.610000e-06	1.458167e-06	6.958258e-10	1.098096e+01	4.693411e+01
1.620000e-06	1.487442e-06	7.105259e-10	1.120142e+01	4.810952e+01
1.630000e-06	1.516395e-06	7.256865e-10	1.141946e+01	4.926159e+01
1.640000e-06	1.545044e-06	7.425198e-10	1.163521e+01	5.038921e+01
1.650000e-06	1.573413e-06	7.595549e-10	1.184884e+01	5.149134e+01
1.660000e-06	1.601508e-06	7.759383e-10	1.206041e+01	5.256708e+01
1.670000e-06	1.629471e-06	7.910522e-10	1.227099e+01	5.361570e+01
1.680000e-06	1.657338e-06	8.060657e-10	1.248085e+01	5.463669e+01
1.690000e-06	1.685080e-06	8.206182e-10	1.268977e+01	5.562981e+01
1.700000e-06	1.712687e-06	8.340652e-10	1.289767e+01	5.659504e+01
1.710000e-06	1.740070e-06	8.488305e-10	1.310388e+01	5.753261e+01
1.720000e-06	1.766967e-06	8.630970e-10	1.330643e+01	5.844298e+01
1.730000e-06	1.793272e-06	8.746265e-10	1.350453e+01	5.932682e+01
1.740000e-06	1.819012e-06	8.874412e-10	1.369836e+01	6.018493e+01
1.750000e-06	1.844110e-06	9.007557e-10	1.388737e+01	6.101824e+01
1.760000e-06	1.868668e-06	9.139490e-10	1.407230e+01	6.182773e+01
1.770000e-06	1.892884e-06	9.248463e-10	1.425467e+01	6.261439e+01
1.780000e-06	1.916873e-06	9.339037e-10	1.443532e+01	6.337918e+01
1.790000e-06	1.940673e-06	9.444866e-10	1.461455e+01	6.412302e+01
1.800000e-06	1.964307e-06	9.561163e-10	1.479253e+01	6.484668e+01
1.810000e-06	1.987661e-06	9.660495e-10	1.496840e+01	6.555084e+01
1.820000e-06	2.010554e-06	9.736966e-10	1.514080e+01	6.623608e+01
1.830000e-06	2.033045e-06	9.823497e-10	1.531017e+01	6.690282e+01
1.840000e-06	2.055256e-06	9.939596e-10	1.547743e+01	6.755141e+01
1.850000e-06	2.077154e-06	1.006555e-09	1.564234e+01	6.818208e+01
1.860000e-06	2.098768e-06	1.016225e-09	1.580511e+01	6.879503e+01
1.870000e-06	2.120004e-06	1.024270e-09	1.596503e+01	6.939045e+01
1.880000e-06	2.140699e-06	1.033913e-09	1.612087e+01	6.996849e+01
1.890000e-06	2.160955e-06	1.044254e-09	1.627342e+01	7.052939e+01
1.900000e-06	2.180981e-06	1.052376e-09	1.642423e+01	7.107341e+01
1.910000e-06	2.200850e-06	1.058172e-09	1.657386e+01	7.160092e+01
1.920000e-06	2.220532e-06	1.064615e-09	1.672207e+01	7.211236e+01
1.930000e-06	2.239913e-06	1.073337e-09	1.686803e+01	7.260827e+01
1.940000e-06	2.258841e-06	1.082975e-09	1.701056e+01	7.308924e+01
1.950000e-06	2.277213e-06	1.089923e-09	1.714892e+01	7.355595e+01
1.960000e-06	2.295058e-06	1.094837e-09	1.728330e+01	7.400909e+01
1.970000e-06	2.312521e-06	1.102304e-09	1.741481e+01	7.444937e+01
1.980000e-06	2.329653e-06	1.111354e-09	1.754383e+01	7.487744e+01
1.990000e-06	2.346503e-06	1.118367e-09	1.767072e+01	7.529391e+01
2.000000e-06	2.363067e-06	1.124818e-09	1.779545e+01	7.569928e+01
2.010000e-06	2.379215e-06	1.132205e-09	1.791706e+01	7.609394e+01
2.020000e-06	2.394794e-06	1.139438e-09	1.803438e+01	7.647814e+01
2.030000e-06	2.409785e-06	1.146346e-09	1.814727e+01	7.685201e+01
2.040000e-06	2.424241e-06	1.151585e-09	1.825613e+01	7.721551e+01
2.050000e-06	2.438262e-06	1.154682e-09	1.836173e+01	7.756850e+01
2.060000e-06	2.451842e-06	1.158542e-09	1.846399e+01	7.791076e+01
2.070000e-06	2.464956e-06	1.164370e-09	1.856274e+01	7.824198e+01
2.080000e-06	2.477632e-06	1.169555e-09	1.865821e+01	7.856184e+01
2.090000e-06	2.489881e-06	1.173529e-09	1.875045e+01	7.887004e+01
2.100000e-06	2.501749e-06	1.179670e-09	1.883983e+01	7.916632e+01
2.110000e-06	2.513188e-06	1.187588e-09	1.892596e+01	7.945053e+01
2.120000e-06	2.524096e-06	1.193310e-09	1.900811e+01	7.972264e+01
2.130000e-06	2.534328e-06	1.196354e-09	1.908516e+01	7.998276e+01
2.140000e-06	2.543810e-06	1.198915e-09	1.915657e+01	8.023117e+01
2.150000e-06	2.552557e-06	1.202403e-09	1.922244e+01	8.046830e+01
2.160000e-06	2.560780e-06	1.206137e-09	1.928437e+01	8.069471e+01
2.170000e-06	2.568732e-06	1.210436e-09	1.934425e+01	8.091107e+01
2.180000e-06	2.576437e-06	1.216250e-09	1.940227e+01	8.111815e+01
2.190000e-06	2.583756e-06	1.222712e-09	1.945739e+01	8.131672e+01
2.200000e-06	2.590647e-06	1.226229e-09	1.950928e+01	8.150757e+01
2.210000e-06	2.597066e-06	1.227856e-09	1.955762e+01	8.169138e+01
2.220000e-06	2.603023e-06	1.231976e-09	1.960248e+01	8.186876e+01
2.230000e-06	2.608581e-06	1.235286e-09	1.964434e+01	8.204011e+01
2.240000e-06	2.613660e-06	1.235473e-09	1.968259e+01	8.220569e+01
2.250000e-06	2.618275e-06	1.236727e-09	1.971734e+01	8.236554e+01
2.260000e-06	2.622506e-06	1.239670e-09	1.974920e+01	8.251945e+01
2.270000e-06	2.626431e-06	1.241081e-09	1.977876e+01	8.266706e+01
2.280000e-06	2.630059e-06	1.242898e-09	1.980608e+01	8.280780e+01
2.290000e-06	2.633328e-06	1.246265e-09	1.983070e+01	8.294095e+01
2.300000e-06	2.635979e-06	1.250926e-09	1.985066e+01	8.306572e+01
2.310000e-06	2.637852e-06	1.256232e-09	1.986476e+01	8.318126e+01
2.320000e-06	2.638996e-06	1.258643e-09	1.987338e+01	8.328675e+01
2.330000e-06	2.639541e-06	1.260330e-09	1.987748e+01	8.338147e+01
2.340000e-06	2.639676e-06	1.263539e-09	1.987850e+01	8.346482e+01
2.350000e-06	2.639505e-06	1.266329e-09	1.987721e+01	8.353638e+01
2.360000e-06	2.639026e-06	1.268184e-09	1.987361e+01	8.359598e+01
2.370000e-06	2.638209e-06	1.269345e-09	1.986745e+01	8.364367e+01
2.380000e-06	2.636977e-06	1.270514e-09	1.985818e+01	8.367974e+01
2.390000e-06	2.635252e-06	1.285682e-09	1.984519e+01	8.370473e+01
2.400000e-06	2.633137e-06	1.310774e-09	1.982926e+01	8.371937e+01
2.410000e-06	2.630631e-06	1.271071e-09	1.981039e+01	8.372452e+01
2.420000e-06	2.627609e-06	1.199485e-09	1.978763e+01	8.372117e+01
2.430000e-06	2.624066e-06	1.220577e-09	1.976095e+01	8.371031e+01
2.440000e-06	2.620062e-06	1.324454e-09	1.973079e+01	8.369289e+01
2.450000e-06	2.615855e-06	1.326812e-09	1.969911e+01	8.366975e+01
2.460000e-06	2.611539e-06	1.247812e-09	1.966661e+01	8.364155e+01
2.470000e-06	2.606592e-06	1.194568e-09	1.962936e+01	8.360870e+01
2.480000e-06	2.600647e-06	1.248070e-09	1.958459e+01	8.357138e+01
2.490000e-06	2.594126e-06	1.326216e-09	1.953548e+01	8.352943e+01
2.500000e-06	2.587295e-06	1.338375e-09	1.948404e+01	8.348242e+01
2.510000e-06	2.579891e-06	1.238798e-09	1.942829e+01	8.342967e+01
2.520000e-06	2.571970e-06	1.164534e-09	1.936863e+01	8.337022e+01
2.530000e-06	2.563835e-06	1.287953e-09	1.930737e+01	8.330296e+01
2.540000e-06	2.555433e-06	1.401437e-09	1.924410e+01	8.322667e+01
2.550000e-06	2.546420e-06	1.274009e-09	1.917623e+01	8.314007e+01
2.560000e-06	2.536829e-06	1.108596e-09	1.910400e+01	8.304198e+01
2.570000e-06	2.526969e-06	1.249860e-09	1.902974e+01	8.293132e+01
2.580000e-06	2.516745e-06	1.406220e-09	1.895276e+01	8.280724e+01
2.590000e-06	2.505935e-06	1.269806e-09	1.887134e+01	8.266916e+01
2.600000e-06	2.494632e-06	1.126167e-09	1.878622e+01	8.251682e+01
2.610000e-06	2.482967e-06	1.255856e-09	1.869838e+01	8.235033e+01
2.620000e-06	2.470837e-06	1.339635e-09	1.860703e+01	8.217016e+01
2.630000e-06	2.458136e-06	1.235871e-09	1.851139e+01	8.197711e+01
2.640000e-06	2.444911e-06	1.212958e-09	1.841180e+01	8.177231e+01
2.650000e-06	2.431032e-06	1.270661e-09	1.830728e+01	8.155714e+01
2.660000e-06	2.416295e-06	1.234763e-09	1.819629e+01	8.133314e+01
2.670000e-06	2.400857e-06	1.228887e-09	1.808004e+01	8.110198e+01
2.680000e-06	2.385064e-06	1.297946e-09	1.796111e+01	8.086530e+01
2.690000e-06	2.369025e-06	1.240254e-09	1.784032e+01	8.062467e+01
2.700000e-06	2.352626e-06	1.155659e-09	1.771683e+01	8.038148e+01
2.710000e-06	2.335943e-06	1.248325e-09	1.759119e+01	8.013685e+01
2.720000e-06	2.319001e-06	1.318937e-09	1.746361e+01	7.989160e+01
2.730000e-06	2.301604e-06	1.201712e-09	1.733260e+01	7.964618e+01
2.740000e-06	2.283709e-06	1.140170e-09	1.719784e+01	7.940066e+01
2.750000e-06	2.265505e-06	1.246042e-09	1.706075e+01	7.915474e+01
2.760000e-06	2.246980e-06	1.282888e-09	1.692125e+01	7.890773e+01
2.770000e-06	2.227975e-06	1.179988e-09	1.677812e+01	7.865864e+01
2.780000e-06	2.208541e-06	1.144920e-09	1.663177e+01	7.840625e+01
2.790000e-06	2.188804e-06	1.225959e-09	1.648314e+01	7.814913e+01
2.800000e-06	2.168870e-06	1.235727e-09	1.633302e+01	7.788577e+01
2.810000e-06	2.148752e-06	1.157174e-09	1.618152e+01	7.761464e+01
2.820000e-06	2.128401e-06	1.162882e-09	1.602826e+01	7.733431e+01
2.830000e-06	2.107702e-06	1.213305e-09	1.587238e+01	7.704348e+01
2.840000e-06	2.086429e-06	1.183637e-09	1.571219e+01	7.674109e+01
2.850000e-06	2.064591e-06	1.153941e-09	1.554773e+01	7.642634e+01
2.860000e-06	2.042212e-06	1.181067e-09	1.537921e+01	7.609871e+01
2.870000e-06	2.019127e-06	1.169788e-09	1.520536e+01	7.575801e+01
2.880000e-06	1.995496e-06	1.139351e-09	1.502740e+01	7.540432e+01
2.890000e-06	1.971631e-06	1.162217e-09	1.484768e+01	7.503799e+01
2.900000e-06	1.947607e-06	1.169316e-09	1.466676e+01	7.465959e+01
2.910000e-06	1.923392e-06	1.127835e-09	1.448441e+01	7.426983e+01
2.920000e-06	1.898946e-06	1.120796e-09	1.430032e+01	7.386949e+01
2.930000e-06	1.874134e-06	1.155131e-09	1.411346e+01	7.345939e+01
2.940000e-06	1.848933e-06	1.147195e-09	1.392369e+01	7.304024e+01
