# Temperatura_=_20.0
# Concentracion g/m^3_=_9000.0
# C_Vs_to_Am_M_A/Vsm_=_65563218390.804596
# pendiente_HvsI_1/m_=_3716.3
# ordenada_HvsI_A/m_=_1297.0
# frecuencia_Hz_=_213043.30854314988

Tiempo_(s)	Campo_(V.s)	Magnetizacion_(V.s)	Campo_(kA/m)	Magnetizacion_(A/m)
0.000000e+00	-2.627952e-06	-2.830486e-09	-1.981987e+01	-1.865588e+02
1.000000e-08	-2.627943e-06	-2.829978e-09	-1.981979e+01	-1.866243e+02
2.000000e-08	-2.627559e-06	-2.830658e-09	-1.981690e+01	-1.866639e+02
3.000000e-08	-2.626638e-06	-2.829024e-09	-1.980996e+01	-1.866783e+02
4.000000e-08	-2.625037e-06	-2.814647e-09	-1.979788e+01	-1.866682e+02
5.000000e-08	-2.622638e-06	-2.804155e-09	-1.977979e+01	-1.866353e+02
6.000000e-08	-2.619566e-06	-2.836888e-09	-1.975662e+01	-1.865818e+02
7.000000e-08	-2.616039e-06	-2.868448e-09	-1.973002e+01	-1.865100e+02
8.000000e-08	-2.612194e-06	-2.863817e-09	-1.970102e+01	-1.864227e+02
9.000000e-08	-2.608064e-06	-2.826043e-09	-1.966987e+01	-1.863230e+02
1.000000e-07	-2.603566e-06	-2.786510e-09	-1.963595e+01	-1.862136e+02
1.100000e-07	-2.598635e-06	-2.780650e-09	-1.959876e+01	-1.860973e+02
1.200000e-07	-2.593263e-06	-2.848225e-09	-1.955825e+01	-1.859764e+02
1.300000e-07	-2.587427e-06	-2.891112e-09	-1.951423e+01	-1.858527e+02
1.400000e-07	-2.581105e-06	-2.788343e-09	-1.946655e+01	-1.857274e+02
1.500000e-07	-2.574233e-06	-2.737049e-09	-1.941472e+01	-1.856009e+02
1.600000e-07	-2.566841e-06	-2.799288e-09	-1.935897e+01	-1.854728e+02
1.700000e-07	-2.559163e-06	-2.890244e-09	-1.930106e+01	-1.853419e+02
1.800000e-07	-2.551253e-06	-2.824694e-09	-1.924141e+01	-1.852064e+02
1.900000e-07	-2.542922e-06	-2.764679e-09	-1.917857e+01	-1.850636e+02
2.000000e-07	-2.534117e-06	-2.779870e-09	-1.911216e+01	-1.849104e+02
2.100000e-07	-2.524758e-06	-2.824445e-09	-1.904158e+01	-1.847431e+02
2.200000e-07	-2.514735e-06	-2.873072e-09	-1.896599e+01	-1.845580e+02
2.300000e-07	-2.503978e-06	-2.844051e-09	-1.888486e+01	-1.843512e+02
2.400000e-07	-2.492525e-06	-2.786544e-09	-1.879848e+01	-1.841191e+02
2.500000e-07	-2.480645e-06	-2.749570e-09	-1.870888e+01	-1.838583e+02
2.600000e-07	-2.468391e-06	-2.879626e-09	-1.861647e+01	-1.835661e+02
2.700000e-07	-2.455597e-06	-2.889598e-09	-1.851997e+01	-1.832402e+02
2.800000e-07	-2.442311e-06	-2.739701e-09	-1.841977e+01	-1.828792e+02
2.900000e-07	-2.428649e-06	-2.705209e-09	-1.831673e+01	-1.824826e+02
3.000000e-07	-2.414515e-06	-2.845960e-09	-1.821013e+01	-1.820506e+02
3.100000e-07	-2.399825e-06	-2.850389e-09	-1.809935e+01	-1.815842e+02
3.200000e-07	-2.384474e-06	-2.709050e-09	-1.798357e+01	-1.810852e+02
3.300000e-07	-2.368386e-06	-2.715437e-09	-1.786223e+01	-1.805557e+02
3.400000e-07	-2.351805e-06	-2.778860e-09	-1.773718e+01	-1.799987e+02
3.500000e-07	-2.334959e-06	-2.758021e-09	-1.761013e+01	-1.794171e+02
3.600000e-07	-2.317748e-06	-2.725348e-09	-1.748032e+01	-1.788141e+02
3.700000e-07	-2.300145e-06	-2.732411e-09	-1.734756e+01	-1.781926e+02
3.800000e-07	-2.282200e-06	-2.691761e-09	-1.721222e+01	-1.775556e+02
3.900000e-07	-2.263883e-06	-2.688425e-09	-1.707408e+01	-1.769053e+02
4.000000e-07	-2.245127e-06	-2.740003e-09	-1.693262e+01	-1.762436e+02
4.100000e-07	-2.225922e-06	-2.704430e-09	-1.678777e+01	-1.755719e+02
4.200000e-07	-2.206333e-06	-2.615333e-09	-1.664004e+01	-1.748906e+02
4.300000e-07	-2.186487e-06	-2.638262e-09	-1.649036e+01	-1.742000e+02
4.400000e-07	-2.166511e-06	-2.705419e-09	-1.633970e+01	-1.734992e+02
4.500000e-07	-2.146254e-06	-2.651227e-09	-1.618693e+01	-1.727873e+02
4.600000e-07	-2.125658e-06	-2.573007e-09	-1.603159e+01	-1.720625e+02
4.700000e-07	-2.104728e-06	-2.602112e-09	-1.587374e+01	-1.713231e+02
4.800000e-07	-2.083415e-06	-2.641923e-09	-1.571300e+01	-1.705669e+02
4.900000e-07	-2.061786e-06	-2.592177e-09	-1.554987e+01	-1.697920e+02
5.000000e-07	-2.039866e-06	-2.544113e-09	-1.538455e+01	-1.689964e+02
5.100000e-07	-2.017544e-06	-2.558577e-09	-1.521620e+01	-1.681781e+02
5.200000e-07	-1.994773e-06	-2.558954e-09	-1.504446e+01	-1.673359e+02
5.300000e-07	-1.971617e-06	-2.532257e-09	-1.486982e+01	-1.664687e+02
5.400000e-07	-1.948193e-06	-2.519506e-09	-1.469316e+01	-1.655756e+02
5.500000e-07	-1.924599e-06	-2.499103e-09	-1.451522e+01	-1.646565e+02
5.600000e-07	-1.900816e-06	-2.474638e-09	-1.433584e+01	-1.637113e+02
5.700000e-07	-1.876732e-06	-2.475125e-09	-1.415421e+01	-1.627405e+02
5.800000e-07	-1.852266e-06	-2.472206e-09	-1.396968e+01	-1.617447e+02
5.900000e-07	-1.827391e-06	-2.431415e-09	-1.378208e+01	-1.607246e+02
6.000000e-07	-1.802057e-06	-2.401709e-09	-1.359101e+01	-1.596809e+02
6.100000e-07	-1.776208e-06	-2.409012e-09	-1.339606e+01	-1.586142e+02
6.200000e-07	-1.749747e-06	-2.400134e-09	-1.319649e+01	-1.575251e+02
6.300000e-07	-1.722785e-06	-2.360510e-09	-1.299315e+01	-1.564136e+02
6.400000e-07	-1.695475e-06	-2.332920e-09	-1.278718e+01	-1.552796e+02
6.500000e-07	-1.667902e-06	-2.334428e-09	-1.257922e+01	-1.541227e+02
6.600000e-07	-1.640183e-06	-2.326444e-09	-1.237017e+01	-1.529418e+02
6.700000e-07	-1.612332e-06	-2.289629e-09	-1.216012e+01	-1.517359e+02
6.800000e-07	-1.584263e-06	-2.263867e-09	-1.194842e+01	-1.505033e+02
6.900000e-07	-1.555937e-06	-2.259418e-09	-1.173479e+01	-1.492423e+02
7.000000e-07	-1.527290e-06	-2.243006e-09	-1.151874e+01	-1.479510e+02
7.100000e-07	-1.498340e-06	-2.212827e-09	-1.130040e+01	-1.466276e+02
7.200000e-07	-1.469170e-06	-2.188964e-09	-1.108040e+01	-1.452703e+02
7.300000e-07	-1.439788e-06	-2.170470e-09	-1.085880e+01	-1.438774e+02
7.400000e-07	-1.410204e-06	-2.147029e-09	-1.063568e+01	-1.424476e+02
7.500000e-07	-1.380450e-06	-2.125401e-09	-1.041128e+01	-1.409799e+02
7.600000e-07	-1.350544e-06	-2.100362e-09	-1.018573e+01	-1.394739e+02
7.700000e-07	-1.320356e-06	-2.069239e-09	-9.958050e+00	-1.379293e+02
7.800000e-07	-1.289849e-06	-2.048461e-09	-9.727970e+00	-1.363466e+02
7.900000e-07	-1.259164e-06	-2.031021e-09	-9.496539e+00	-1.347262e+02
8.000000e-07	-1.228369e-06	-1.999133e-09	-9.264289e+00	-1.330694e+02
8.100000e-07	-1.197395e-06	-1.962602e-09	-9.030684e+00	-1.313773e+02
8.200000e-07	-1.166136e-06	-1.940636e-09	-8.794928e+00	-1.296513e+02
8.300000e-07	-1.134654e-06	-1.924416e-09	-8.557499e+00	-1.278929e+02
8.400000e-07	-1.103082e-06	-1.893195e-09	-8.319378e+00	-1.261033e+02
8.500000e-07	-1.071434e-06	-1.855652e-09	-8.080696e+00	-1.242837e+02
8.600000e-07	-1.039684e-06	-1.830161e-09	-7.841234e+00	-1.224348e+02
8.700000e-07	-1.007765e-06	-1.810777e-09	-7.600504e+00	-1.205570e+02
8.800000e-07	-9.757038e-07	-1.781774e-09	-7.358702e+00	-1.186501e+02
8.900000e-07	-9.435076e-07	-1.743877e-09	-7.115881e+00	-1.167135e+02
9.000000e-07	-9.111003e-07	-1.710263e-09	-6.871466e+00	-1.147459e+02
9.100000e-07	-8.784788e-07	-1.681548e-09	-6.625437e+00	-1.127457e+02
9.200000e-07	-8.457193e-07	-1.649560e-09	-6.378367e+00	-1.107106e+02
9.300000e-07	-8.127948e-07	-1.612839e-09	-6.130052e+00	-1.086380e+02
9.400000e-07	-7.795932e-07	-1.573597e-09	-5.879648e+00	-1.065249e+02
9.500000e-07	-7.461577e-07	-1.540161e-09	-5.627479e+00	-1.043682e+02
9.600000e-07	-7.124772e-07	-1.513040e-09	-5.373463e+00	-1.021645e+02
9.700000e-07	-6.785864e-07	-1.482691e-09	-5.117860e+00	-9.991049e+01
9.800000e-07	-6.445357e-07	-1.443398e-09	-4.861051e+00	-9.760294e+01
9.900000e-07	-6.103301e-07	-1.403475e-09	-4.603075e+00	-9.523883e+01
1.000000e-06	-5.759213e-07	-1.373660e-09	-4.343566e+00	-9.281540e+01
1.010000e-06	-5.412264e-07	-1.343206e-09	-4.081899e+00	-9.033023e+01
1.020000e-06	-5.063057e-07	-1.301586e-09	-3.818529e+00	-8.778129e+01
1.030000e-06	-4.712647e-07	-1.255583e-09	-3.554251e+00	-8.516694e+01
1.040000e-06	-4.361319e-07	-1.215494e-09	-3.289282e+00	-8.248597e+01
1.050000e-06	-4.008394e-07	-1.178131e-09	-3.023108e+00	-7.973754e+01
1.060000e-06	-3.654330e-07	-1.134202e-09	-2.756075e+00	-7.692116e+01
1.070000e-06	-3.299926e-07	-1.087069e-09	-2.488785e+00	-7.403668e+01
1.080000e-06	-2.945594e-07	-1.042396e-09	-2.221550e+00	-7.108418e+01
1.090000e-06	-2.591066e-07	-1.000705e-09	-1.954167e+00	-6.806397e+01
1.100000e-06	-2.236105e-07	-9.579125e-10	-1.686458e+00	-6.497652e+01
1.110000e-06	-1.880788e-07	-9.108014e-10	-1.418480e+00	-6.182243e+01
1.120000e-06	-1.525181e-07	-8.614954e-10	-1.150283e+00	-5.860241e+01
1.130000e-06	-1.169879e-07	-8.112785e-10	-8.823160e-01	-5.531723e+01
1.140000e-06	-8.142941e-08	-7.637282e-10	-6.141360e-01	-5.196777e+01
1.150000e-06	-4.581504e-08	-7.146440e-10	-3.455344e-01	-4.855503e+01
1.160000e-06	-1.019950e-08	-6.592153e-10	-7.692408e-02	-4.508015e+01
1.170000e-06	2.542493e-08	-6.040384e-10	1.917534e-01	-4.154445e+01
1.180000e-06	6.103552e-08	-5.536066e-10	4.603264e-01	-3.794955e+01
1.190000e-06	9.662083e-08	-5.015406e-10	7.287088e-01	-3.429736e+01
1.200000e-06	1.321626e-07	-4.447721e-10	9.967627e-01	-3.059019e+01
1.210000e-06	1.677029e-07	-3.887574e-10	1.264806e+00	-2.683079e+01
1.220000e-06	2.032762e-07	-3.354658e-10	1.533097e+00	-2.302245e+01
1.230000e-06	2.388397e-07	-2.827956e-10	1.801315e+00	-1.916897e+01
1.240000e-06	2.743543e-07	-2.278760e-10	2.069165e+00	-1.527473e+01
1.250000e-06	3.097858e-07	-1.709660e-10	2.336387e+00	-1.134471e+01
1.260000e-06	3.451539e-07	-1.124298e-10	2.603131e+00	-7.384425e+00
1.270000e-06	3.804931e-07	-5.318575e-11	2.869657e+00	-3.399914e+00
1.280000e-06	4.157923e-07	5.560819e-12	3.135882e+00	6.023287e-01
1.290000e-06	4.509208e-07	6.498312e-11	3.400819e+00	4.615436e+00
1.300000e-06	4.858831e-07	1.240144e-10	3.664503e+00	8.632276e+00
1.310000e-06	5.207651e-07	1.843562e-10	3.927580e+00	1.264556e+01
1.320000e-06	5.555231e-07	2.421223e-10	4.189724e+00	1.664799e+01
1.330000e-06	5.901347e-07	3.005244e-10	4.450762e+00	2.063235e+01
1.340000e-06	6.245734e-07	3.614552e-10	4.710497e+00	2.459169e+01
1.350000e-06	6.588145e-07	4.209722e-10	4.968741e+00	2.851942e+01
1.360000e-06	6.928947e-07	4.785708e-10	5.225773e+00	3.240944e+01
1.370000e-06	7.268126e-07	5.377104e-10	5.481579e+00	3.625622e+01
1.380000e-06	7.605234e-07	5.990360e-10	5.735824e+00	4.005494e+01
1.390000e-06	7.940382e-07	6.552329e-10	5.988591e+00	4.380146e+01
1.400000e-06	8.272166e-07	7.074552e-10	6.238821e+00	4.749246e+01
1.410000e-06	8.600540e-07	7.601639e-10	6.486478e+00	5.112535e+01
1.420000e-06	8.927070e-07	8.113433e-10	6.732746e+00	5.469833e+01
1.430000e-06	9.251447e-07	8.594094e-10	6.977389e+00	5.821034e+01
1.440000e-06	9.573674e-07	9.087064e-10	7.220411e+00	6.166095e+01
1.450000e-06	9.894620e-07	9.595522e-10	7.462466e+00	6.505033e+01
1.460000e-06	1.021427e-06	1.010625e-09	7.703547e+00	6.837914e+01
1.470000e-06	1.053257e-06	1.059098e-09	7.943601e+00	7.164842e+01
1.480000e-06	1.085011e-06	1.106029e-09	8.183095e+00	7.485948e+01
1.490000e-06	1.116712e-06	1.153029e-09	8.422175e+00	7.801378e+01
1.500000e-06	1.148332e-06	1.200516e-09	8.660656e+00	8.111284e+01
1.510000e-06	1.179807e-06	1.248420e-09	8.898041e+00	8.415811e+01
1.520000e-06	1.211139e-06	1.293953e-09	9.134339e+00	8.715091e+01
1.530000e-06	1.242273e-06	1.336027e-09	9.369152e+00	9.009232e+01
1.540000e-06	1.273046e-06	1.377755e-09	9.601240e+00	9.298318e+01
1.550000e-06	1.303543e-06	1.421228e-09	9.831251e+00	9.582400e+01
1.560000e-06	1.333839e-06	1.463483e-09	1.005974e+01	9.861497e+01
1.570000e-06	1.363879e-06	1.503049e-09	1.028630e+01	1.013560e+02
1.580000e-06	1.393679e-06	1.540831e-09	1.051105e+01	1.040466e+02
1.590000e-06	1.423250e-06	1.578427e-09	1.073407e+01	1.066862e+02
1.600000e-06	1.452634e-06	1.617640e-09	1.095569e+01	1.092739e+02
1.610000e-06	1.481851e-06	1.654429e-09	1.117603e+01	1.118088e+02
1.620000e-06	1.510806e-06	1.689045e-09	1.139441e+01	1.142898e+02
1.630000e-06	1.539477e-06	1.725480e-09	1.161065e+01	1.167158e+02
1.640000e-06	1.567874e-06	1.762047e-09	1.182482e+01	1.190861e+02
1.650000e-06	1.596019e-06	1.797515e-09	1.203708e+01	1.213998e+02
1.660000e-06	1.623982e-06	1.830966e-09	1.224798e+01	1.236563e+02
1.670000e-06	1.651792e-06	1.864386e-09	1.245772e+01	1.258553e+02
1.680000e-06	1.679454e-06	1.898826e-09	1.266634e+01	1.279969e+02
1.690000e-06	1.706889e-06	1.930898e-09	1.287326e+01	1.300812e+02
1.700000e-06	1.734100e-06	1.961987e-09	1.307848e+01	1.321088e+02
1.710000e-06	1.760949e-06	1.992944e-09	1.328098e+01	1.340806e+02
1.720000e-06	1.787231e-06	2.023263e-09	1.347919e+01	1.359975e+02
1.730000e-06	1.812976e-06	2.051981e-09	1.367336e+01	1.378608e+02
1.740000e-06	1.838137e-06	2.079038e-09	1.386312e+01	1.396719e+02
1.750000e-06	1.862836e-06	2.106446e-09	1.404941e+01	1.414323e+02
1.760000e-06	1.887188e-06	2.132841e-09	1.423306e+01	1.431434e+02
1.770000e-06	1.911183e-06	2.158804e-09	1.441403e+01	1.448068e+02
1.780000e-06	1.934964e-06	2.184022e-09	1.459339e+01	1.464239e+02
1.790000e-06	1.958533e-06	2.209050e-09	1.477115e+01	1.479959e+02
1.800000e-06	1.981856e-06	2.234199e-09	1.494704e+01	1.495242e+02
1.810000e-06	2.004784e-06	2.257219e-09	1.511997e+01	1.510098e+02
1.820000e-06	2.027278e-06	2.278161e-09	1.528961e+01	1.524536e+02
1.830000e-06	2.049420e-06	2.300459e-09	1.545661e+01	1.538565e+02
1.840000e-06	2.071212e-06	2.324350e-09	1.562097e+01	1.552192e+02
1.850000e-06	2.092746e-06	2.345091e-09	1.578337e+01	1.565424e+02
1.860000e-06	2.113929e-06	2.363443e-09	1.594313e+01	1.578268e+02
1.870000e-06	2.134679e-06	2.383017e-09	1.609963e+01	1.590731e+02
1.880000e-06	2.155044e-06	2.403480e-09	1.625322e+01	1.602819e+02
1.890000e-06	2.175104e-06	2.423042e-09	1.640451e+01	1.614540e+02
1.900000e-06	2.194936e-06	2.440381e-09	1.655408e+01	1.625905e+02
1.910000e-06	2.214541e-06	2.455918e-09	1.670194e+01	1.636922e+02
1.920000e-06	2.233844e-06	2.473190e-09	1.684753e+01	1.647603e+02
1.930000e-06	2.252762e-06	2.492290e-09	1.699020e+01	1.657960e+02
1.940000e-06	2.271223e-06	2.509161e-09	1.712944e+01	1.668006e+02
1.950000e-06	2.289260e-06	2.523351e-09	1.726547e+01	1.677755e+02
1.960000e-06	2.306877e-06	2.538736e-09	1.739834e+01	1.687219e+02
1.970000e-06	2.324045e-06	2.556480e-09	1.752782e+01	1.696411e+02
1.980000e-06	2.340976e-06	2.571239e-09	1.765551e+01	1.705341e+02
1.990000e-06	2.357557e-06	2.584027e-09	1.778056e+01	1.714020e+02
2.000000e-06	2.373711e-06	2.598276e-09	1.790239e+01	1.722455e+02
2.010000e-06	2.389398e-06	2.613357e-09	1.802070e+01	1.730650e+02
2.020000e-06	2.404465e-06	2.628511e-09	1.813434e+01	1.738608e+02
2.030000e-06	2.418978e-06	2.641285e-09	1.824380e+01	1.746330e+02
2.040000e-06	2.432991e-06	2.650739e-09	1.834948e+01	1.753812e+02
2.050000e-06	2.446573e-06	2.659726e-09	1.845191e+01	1.761050e+02
2.060000e-06	2.459756e-06	2.671856e-09	1.855134e+01	1.768039e+02
2.070000e-06	2.472495e-06	2.683854e-09	1.864741e+01	1.774771e+02
2.080000e-06	2.484769e-06	2.693197e-09	1.873999e+01	1.781238e+02
2.090000e-06	2.496563e-06	2.703441e-09	1.882893e+01	1.787436e+02
2.100000e-06	2.507897e-06	2.714344e-09	1.891442e+01	1.793358e+02
2.110000e-06	2.518848e-06	2.723499e-09	1.899701e+01	1.799002e+02
2.120000e-06	2.529232e-06	2.731878e-09	1.907533e+01	1.804366e+02
2.130000e-06	2.538897e-06	2.739464e-09	1.914822e+01	1.809454e+02
2.140000e-06	2.547799e-06	2.747431e-09	1.921536e+01	1.814272e+02
2.150000e-06	2.556101e-06	2.756813e-09	1.927797e+01	1.818827e+02
2.160000e-06	2.564071e-06	2.765891e-09	1.933808e+01	1.823133e+02
2.170000e-06	2.571744e-06	2.774217e-09	1.939594e+01	1.827203e+02
2.180000e-06	2.579085e-06	2.782705e-09	1.945131e+01	1.831053e+02
2.190000e-06	2.585991e-06	2.790511e-09	1.950340e+01	1.834702e+02
2.200000e-06	2.592427e-06	2.796915e-09	1.955193e+01	1.838165e+02
2.210000e-06	2.598423e-06	2.803325e-09	1.959716e+01	1.841458e+02
2.220000e-06	2.604010e-06	2.809551e-09	1.963930e+01	1.844597e+02
2.230000e-06	2.609123e-06	2.815114e-09	1.967785e+01	1.847591e+02
2.240000e-06	2.613734e-06	2.820087e-09	1.971263e+01	1.850448e+02
2.250000e-06	2.617953e-06	2.824611e-09	1.974445e+01	1.853171e+02
2.260000e-06	2.621819e-06	2.828477e-09	1.977361e+01	1.855760e+02
2.270000e-06	2.625426e-06	2.833089e-09	1.980082e+01	1.858208e+02
2.280000e-06	2.628699e-06	2.837229e-09	1.982550e+01	1.860506e+02
2.290000e-06	2.631458e-06	2.841542e-09	1.984631e+01	1.862641e+02
2.300000e-06	2.633527e-06	2.849896e-09	1.986191e+01	1.864598e+02
2.310000e-06	2.634813e-06	2.856690e-09	1.987161e+01	1.866358e+02
2.320000e-06	2.635502e-06	2.858957e-09	1.987680e+01	1.867905e+02
2.330000e-06	2.635727e-06	2.862162e-09	1.987850e+01	1.869224e+02
2.340000e-06	2.635559e-06	2.867593e-09	1.987723e+01	1.870300e+02
2.350000e-06	2.635071e-06	2.871483e-09	1.987356e+01	1.871124e+02
2.360000e-06	2.634236e-06	2.872666e-09	1.986726e+01	1.871691e+02
2.370000e-06	2.632983e-06	2.875756e-09	1.985781e+01	1.872001e+02
2.380000e-06	2.631310e-06	2.888468e-09	1.984519e+01	1.872059e+02
2.390000e-06	2.629217e-06	2.898387e-09	1.982941e+01	1.871879e+02
2.400000e-06	2.626624e-06	2.865912e-09	1.980985e+01	1.871478e+02
2.410000e-06	2.623611e-06	2.840363e-09	1.978713e+01	1.870878e+02
2.420000e-06	2.620181e-06	2.835405e-09	1.976125e+01	1.870105e+02
2.430000e-06	2.616302e-06	2.848134e-09	1.973200e+01	1.869188e+02
2.440000e-06	2.612165e-06	2.889090e-09	1.970080e+01	1.868156e+02
2.450000e-06	2.607756e-06	2.893118e-09	1.966755e+01	1.867038e+02
2.460000e-06	2.602844e-06	2.831370e-09	1.963050e+01	1.865859e+02
2.470000e-06	2.597267e-06	2.794835e-09	1.958844e+01	1.864641e+02
2.480000e-06	2.591079e-06	2.874900e-09	1.954177e+01	1.863400e+02
2.490000e-06	2.584388e-06	2.915584e-09	1.949130e+01	1.862145e+02
2.500000e-06	2.577205e-06	2.859456e-09	1.943713e+01	1.860877e+02
2.510000e-06	2.569485e-06	2.795338e-09	1.937891e+01	1.859591e+02
2.520000e-06	2.561327e-06	2.840078e-09	1.931738e+01	1.858271e+02
2.530000e-06	2.552803e-06	2.872858e-09	1.925309e+01	1.856896e+02
2.540000e-06	2.543838e-06	2.856299e-09	1.918548e+01	1.855438e+02
2.550000e-06	2.534421e-06	2.829825e-09	1.911446e+01	1.853863e+02
2.560000e-06	2.524545e-06	2.795101e-09	1.903998e+01	1.852135e+02
2.570000e-06	2.514280e-06	2.801930e-09	1.896255e+01	1.850215e+02
2.580000e-06	2.503581e-06	2.853853e-09	1.888186e+01	1.848065e+02
2.590000e-06	2.492353e-06	2.876011e-09	1.879718e+01	1.845649e+02
2.600000e-06	2.480704e-06	2.753736e-09	1.870933e+01	1.842937e+02
2.610000e-06	2.468596e-06	2.736212e-09	1.861801e+01	1.839901e+02
2.620000e-06	2.456042e-06	2.864092e-09	1.852333e+01	1.836523e+02
2.630000e-06	2.443008e-06	2.867396e-09	1.842503e+01	1.832791e+02
2.640000e-06	2.429341e-06	2.717841e-09	1.832195e+01	1.828703e+02
2.650000e-06	2.415000e-06	2.733031e-09	1.821379e+01	1.824263e+02
2.660000e-06	2.399893e-06	2.855373e-09	1.809986e+01	1.819485e+02
2.670000e-06	2.384157e-06	2.788164e-09	1.798118e+01	1.814388e+02
2.680000e-06	2.368079e-06	2.708841e-09	1.785992e+01	1.808996e+02
2.690000e-06	2.351781e-06	2.766119e-09	1.773700e+01	1.803339e+02
2.700000e-06	2.335242e-06	2.770097e-09	1.761226e+01	1.797447e+02
2.710000e-06	2.318391e-06	2.702995e-09	1.748518e+01	1.791351e+02
2.720000e-06	2.301118e-06	2.741840e-09	1.735490e+01	1.785081e+02
2.730000e-06	2.283382e-06	2.759137e-09	1.722114e+01	1.778664e+02
2.740000e-06	2.265230e-06	2.663580e-09	1.708423e+01	1.772122e+02
2.750000e-06	2.246692e-06	2.670882e-09	1.694442e+01	1.765472e+02
2.760000e-06	2.227788e-06	2.743415e-09	1.680185e+01	1.758723e+02
2.770000e-06	2.208456e-06	2.689299e-09	1.665605e+01	1.751881e+02
2.780000e-06	2.188736e-06	2.609220e-09	1.650732e+01	1.744942e+02
2.790000e-06	2.168811e-06	2.646497e-09	1.635705e+01	1.737899e+02
2.800000e-06	2.148730e-06	2.683211e-09	1.620560e+01	1.730739e+02
2.810000e-06	2.128430e-06	2.629186e-09	1.605250e+01	1.723445e+02
2.820000e-06	2.107825e-06	2.585905e-09	1.589709e+01	1.715997e+02
2.830000e-06	2.086733e-06	2.611439e-09	1.573802e+01	1.708375e+02
2.840000e-06	2.065041e-06	2.620516e-09	1.557442e+01	1.700558e+02
2.850000e-06	2.042739e-06	2.575145e-09	1.540622e+01	1.692527e+02
2.860000e-06	2.019869e-06	2.556827e-09	1.523374e+01	1.684264e+02
2.870000e-06	1.996500e-06	2.572905e-09	1.505749e+01	1.675758e+02
2.880000e-06	1.972706e-06	2.548051e-09	1.487804e+01	1.666998e+02
2.890000e-06	1.948682e-06	2.516698e-09	1.469685e+01	1.657979e+02
2.900000e-06	1.924514e-06	2.526786e-09	1.451457e+01	1.648699e+02
2.910000e-06	1.900112e-06	2.512671e-09	1.433054e+01	1.639159e+02
2.920000e-06	1.875403e-06	2.477691e-09	1.414418e+01	1.629366e+02
2.930000e-06	1.850277e-06	2.476715e-09	1.395468e+01	1.619324e+02
2.940000e-06	1.824788e-06	2.476614e-09	1.376245e+01	1.609042e+02
2.950000e-06	1.799050e-06	2.446773e-09	1.356833e+01	1.598526e+02
