# Temperatura_=_20.0
# Concentracion g/m^3_=_9000.0
# C_Vs_to_Am_M_A/Vsm_=_65563218390.804596
# pendiente_HvsI_1/m_=_3716.3
# ordenada_HvsI_A/m_=_1297.0
# frecuencia_Hz_=_212868.85772616757

Tiempo_(s)	Campo_(V.s)	Magnetizacion_(V.s)	Campo_(kA/m)	Magnetizacion_(A/m)
0.000000e+00	-5.300523e-06	-4.051590e-09	-3.842303e+01	-2.656388e+02
1.000000e-08	-5.300370e-06	-4.050824e-09	-3.842192e+01	-2.656311e+02
2.000000e-08	-5.299218e-06	-4.054608e-09	-3.841357e+01	-2.656143e+02
3.000000e-08	-5.296735e-06	-4.055087e-09	-3.839557e+01	-2.655890e+02
4.000000e-08	-5.293230e-06	-4.052658e-09	-3.837016e+01	-2.655554e+02
5.000000e-08	-5.289060e-06	-4.048949e-09	-3.833993e+01	-2.655132e+02
6.000000e-08	-5.284080e-06	-4.044278e-09	-3.830384e+01	-2.654620e+02
7.000000e-08	-5.278199e-06	-4.038816e-09	-3.826121e+01	-2.654009e+02
8.000000e-08	-5.271410e-06	-4.029580e-09	-3.821199e+01	-2.653287e+02
9.000000e-08	-5.263751e-06	-4.061439e-09	-3.815647e+01	-2.652441e+02
1.000000e-07	-5.255141e-06	-4.107967e-09	-3.809406e+01	-2.651456e+02
1.100000e-07	-5.245094e-06	-4.119558e-09	-3.802123e+01	-2.650316e+02
1.200000e-07	-5.233708e-06	-4.024521e-09	-3.793869e+01	-2.649006e+02
1.300000e-07	-5.221537e-06	-3.914093e-09	-3.785046e+01	-2.647509e+02
1.400000e-07	-5.208582e-06	-4.028026e-09	-3.775655e+01	-2.645812e+02
1.500000e-07	-5.194727e-06	-4.151741e-09	-3.765612e+01	-2.643902e+02
1.600000e-07	-5.180125e-06	-3.998022e-09	-3.755028e+01	-2.641768e+02
1.700000e-07	-5.164408e-06	-4.011394e-09	-3.743634e+01	-2.639402e+02
1.800000e-07	-5.147250e-06	-3.990472e-09	-3.731196e+01	-2.636798e+02
1.900000e-07	-5.129309e-06	-3.929791e-09	-3.718191e+01	-2.633950e+02
2.000000e-07	-5.110990e-06	-4.140998e-09	-3.704912e+01	-2.630856e+02
2.100000e-07	-5.091802e-06	-4.071823e-09	-3.691003e+01	-2.627516e+02
2.200000e-07	-5.071639e-06	-3.839826e-09	-3.676387e+01	-2.623931e+02
2.300000e-07	-5.050797e-06	-3.959489e-09	-3.661279e+01	-2.620101e+02
2.400000e-07	-5.029147e-06	-4.167121e-09	-3.645585e+01	-2.616030e+02
2.500000e-07	-5.006459e-06	-3.993067e-09	-3.629138e+01	-2.611722e+02
2.600000e-07	-4.982885e-06	-3.888958e-09	-3.612050e+01	-2.607181e+02
2.700000e-07	-4.958587e-06	-3.913484e-09	-3.594436e+01	-2.602413e+02
2.800000e-07	-4.933451e-06	-3.953424e-09	-3.576215e+01	-2.597424e+02
2.900000e-07	-4.907159e-06	-4.031294e-09	-3.557156e+01	-2.592222e+02
3.000000e-07	-4.879672e-06	-3.907533e-09	-3.537231e+01	-2.586814e+02
3.100000e-07	-4.851401e-06	-3.865566e-09	-3.516738e+01	-2.581208e+02
3.200000e-07	-4.822359e-06	-3.932564e-09	-3.495686e+01	-2.575415e+02
3.300000e-07	-4.792353e-06	-3.911947e-09	-3.473935e+01	-2.569445e+02
3.400000e-07	-4.761545e-06	-3.941111e-09	-3.451602e+01	-2.563308e+02
3.500000e-07	-4.730057e-06	-3.924782e-09	-3.428777e+01	-2.557014e+02
3.600000e-07	-4.697838e-06	-3.788016e-09	-3.405421e+01	-2.550575e+02
3.700000e-07	-4.664922e-06	-3.862059e-09	-3.381561e+01	-2.544000e+02
3.800000e-07	-4.631020e-06	-3.991903e-09	-3.356986e+01	-2.537297e+02
3.900000e-07	-4.595912e-06	-3.856152e-09	-3.331536e+01	-2.530474e+02
4.000000e-07	-4.559904e-06	-3.747378e-09	-3.305435e+01	-2.523533e+02
4.100000e-07	-4.523303e-06	-3.869093e-09	-3.278903e+01	-2.516479e+02
4.200000e-07	-4.486023e-06	-3.911065e-09	-3.251879e+01	-2.509308e+02
4.300000e-07	-4.447732e-06	-3.791123e-09	-3.224122e+01	-2.502016e+02
4.400000e-07	-4.408541e-06	-3.773239e-09	-3.195713e+01	-2.494595e+02
4.500000e-07	-4.368825e-06	-3.802869e-09	-3.166923e+01	-2.487036e+02
4.600000e-07	-4.328672e-06	-3.792298e-09	-3.137817e+01	-2.479323e+02
4.700000e-07	-4.287756e-06	-3.785140e-09	-3.108157e+01	-2.471442e+02
4.800000e-07	-4.245716e-06	-3.759060e-09	-3.077682e+01	-2.463375e+02
4.900000e-07	-4.202640e-06	-3.728377e-09	-3.046457e+01	-2.455104e+02
5.000000e-07	-4.158824e-06	-3.723274e-09	-3.014695e+01	-2.446612e+02
5.100000e-07	-4.114455e-06	-3.741473e-09	-2.982533e+01	-2.437881e+02
5.200000e-07	-4.069473e-06	-3.721754e-09	-2.949925e+01	-2.428896e+02
5.300000e-07	-4.023733e-06	-3.666852e-09	-2.916769e+01	-2.419644e+02
5.400000e-07	-3.977169e-06	-3.657094e-09	-2.883015e+01	-2.410114e+02
5.500000e-07	-3.929926e-06	-3.678493e-09	-2.848769e+01	-2.400299e+02
5.600000e-07	-3.882232e-06	-3.670244e-09	-2.814196e+01	-2.390193e+02
5.700000e-07	-3.833913e-06	-3.614183e-09	-2.779170e+01	-2.379796e+02
5.800000e-07	-3.784652e-06	-3.586589e-09	-2.743461e+01	-2.369108e+02
5.900000e-07	-3.734352e-06	-3.617273e-09	-2.706999e+01	-2.358130e+02
6.000000e-07	-3.683116e-06	-3.602681e-09	-2.669858e+01	-2.346867e+02
6.100000e-07	-3.631115e-06	-3.547449e-09	-2.632163e+01	-2.335320e+02
6.200000e-07	-3.578383e-06	-3.523754e-09	-2.593939e+01	-2.323493e+02
6.300000e-07	-3.525001e-06	-3.526610e-09	-2.555242e+01	-2.311386e+02
6.400000e-07	-3.471072e-06	-3.509138e-09	-2.516150e+01	-2.298999e+02
6.500000e-07	-3.416519e-06	-3.475156e-09	-2.476605e+01	-2.286327e+02
6.600000e-07	-3.361321e-06	-3.457439e-09	-2.436592e+01	-2.273363e+02
6.700000e-07	-3.305623e-06	-3.434439e-09	-2.396217e+01	-2.260098e+02
6.800000e-07	-3.249546e-06	-3.418194e-09	-2.355567e+01	-2.246518e+02
6.900000e-07	-3.192964e-06	-3.410238e-09	-2.314552e+01	-2.232609e+02
7.000000e-07	-3.135471e-06	-3.376141e-09	-2.272876e+01	-2.218353e+02
7.100000e-07	-3.076998e-06	-3.340265e-09	-2.230489e+01	-2.203734e+02
7.200000e-07	-3.017847e-06	-3.325929e-09	-2.187611e+01	-2.188731e+02
7.300000e-07	-2.958252e-06	-3.317451e-09	-2.144411e+01	-2.173328e+02
7.400000e-07	-2.898309e-06	-3.282266e-09	-2.100959e+01	-2.157509e+02
7.500000e-07	-2.837862e-06	-3.239101e-09	-2.057141e+01	-2.141259e+02
7.600000e-07	-2.776870e-06	-3.224918e-09	-2.012929e+01	-2.124566e+02
7.700000e-07	-2.715499e-06	-3.210245e-09	-1.968441e+01	-2.107419e+02
7.800000e-07	-2.653775e-06	-3.177156e-09	-1.923698e+01	-2.089812e+02
7.900000e-07	-2.591606e-06	-3.139398e-09	-1.878632e+01	-2.071738e+02
8.000000e-07	-2.528904e-06	-3.113237e-09	-1.833180e+01	-2.053192e+02
8.100000e-07	-2.465725e-06	-3.095732e-09	-1.787382e+01	-2.034169e+02
8.200000e-07	-2.402226e-06	-3.065040e-09	-1.741352e+01	-2.014662e+02
8.300000e-07	-2.338450e-06	-3.028579e-09	-1.695122e+01	-1.994662e+02
8.400000e-07	-2.274348e-06	-2.993981e-09	-1.648655e+01	-1.974158e+02
8.500000e-07	-2.209931e-06	-2.962348e-09	-1.601960e+01	-1.953132e+02
8.600000e-07	-2.145227e-06	-2.934908e-09	-1.555056e+01	-1.931562e+02
8.700000e-07	-2.080115e-06	-2.900721e-09	-1.507857e+01	-1.909421e+02
8.800000e-07	-2.014393e-06	-2.860992e-09	-1.460216e+01	-1.886673e+02
8.900000e-07	-1.948003e-06	-2.822245e-09	-1.412090e+01	-1.863279e+02
9.000000e-07	-1.881217e-06	-2.790244e-09	-1.363678e+01	-1.839193e+02
9.100000e-07	-1.814162e-06	-2.755848e-09	-1.315070e+01	-1.814363e+02
9.200000e-07	-1.746794e-06	-2.706513e-09	-1.266236e+01	-1.788735e+02
9.300000e-07	-1.679151e-06	-2.658898e-09	-1.217202e+01	-1.762250e+02
9.400000e-07	-1.611244e-06	-2.619972e-09	-1.167977e+01	-1.734848e+02
9.500000e-07	-1.543206e-06	-2.578206e-09	-1.118656e+01	-1.706469e+02
9.600000e-07	-1.475036e-06	-2.527748e-09	-1.069241e+01	-1.677052e+02
9.700000e-07	-1.406639e-06	-2.475154e-09	-1.019660e+01	-1.646536e+02
9.800000e-07	-1.337977e-06	-2.431875e-09	-9.698877e+00	-1.614863e+02
9.900000e-07	-1.269076e-06	-2.386900e-09	-9.199418e+00	-1.581973e+02
1.000000e-06	-1.199976e-06	-2.334878e-09	-8.698523e+00	-1.547808e+02
1.010000e-06	-1.130676e-06	-2.277974e-09	-8.196170e+00	-1.512307e+02
1.020000e-06	-1.061071e-06	-2.216040e-09	-7.691609e+00	-1.475407e+02
1.030000e-06	-9.912179e-07	-2.157352e-09	-7.185251e+00	-1.437043e+02
1.040000e-06	-9.212799e-07	-2.097449e-09	-6.678278e+00	-1.397142e+02
1.050000e-06	-8.511973e-07	-2.032978e-09	-6.170255e+00	-1.355623e+02
1.060000e-06	-7.808711e-07	-1.965188e-09	-5.660466e+00	-1.312398e+02
1.070000e-06	-7.103313e-07	-1.895665e-09	-5.149130e+00	-1.267370e+02
1.080000e-06	-6.396533e-07	-1.826732e-09	-4.636791e+00	-1.220431e+02
1.090000e-06	-5.688193e-07	-1.749781e-09	-4.123321e+00	-1.171466e+02
1.100000e-06	-4.979050e-07	-1.667200e-09	-3.609270e+00	-1.120353e+02
1.110000e-06	-4.269436e-07	-1.585812e-09	-3.094877e+00	-1.066965e+02
1.120000e-06	-3.558707e-07	-1.504137e-09	-2.579675e+00	-1.011175e+02
1.130000e-06	-2.847405e-07	-1.417418e-09	-2.064059e+00	-9.528611e+01
1.140000e-06	-2.135975e-07	-1.321909e-09	-1.548349e+00	-8.919101e+01
1.150000e-06	-1.424315e-07	-1.224027e-09	-1.032473e+00	-8.282258e+01
1.160000e-06	-7.127050e-08	-1.123830e-09	-5.166336e-01	-7.617340e+01
1.170000e-06	-1.341429e-10	-1.017735e-09	-9.723900e-04	-6.923898e+01
1.180000e-06	7.103449e-08	-9.072472e-10	5.149228e-01	-6.201833e+01
1.190000e-06	1.421748e-07	-7.931179e-10	1.030613e+00	-5.451458e+01
1.200000e-06	2.132543e-07	-6.767077e-10	1.545862e+00	-4.673539e+01
1.210000e-06	2.843205e-07	-5.544398e-10	2.061015e+00	-3.869333e+01
1.220000e-06	3.552920e-07	-4.276855e-10	2.575480e+00	-3.040604e+01
1.230000e-06	4.261374e-07	-2.998887e-10	3.089033e+00	-2.189627e+01
1.240000e-06	4.968555e-07	-1.677990e-10	3.601662e+00	-1.319170e+01
1.250000e-06	5.674462e-07	-3.459137e-11	4.113368e+00	-4.324550e+00
1.260000e-06	6.379669e-07	1.018589e-10	4.624566e+00	4.668890e+00
1.270000e-06	7.083706e-07	2.422322e-10	5.134916e+00	1.374902e+01
1.280000e-06	7.785954e-07	3.821212e-10	5.643970e+00	2.287372e+01
1.290000e-06	8.487055e-07	5.220939e-10	6.152192e+00	3.199937e+01
1.300000e-06	9.186578e-07	6.587431e-10	6.659270e+00	4.108178e+01
1.310000e-06	9.883989e-07	7.973797e-10	7.164817e+00	5.007730e+01
1.320000e-06	1.057958e-06	9.332060e-10	7.669045e+00	5.894383e+01
1.330000e-06	1.127373e-06	1.065309e-09	8.172228e+00	6.764181e+01
1.340000e-06	1.196582e-06	1.194984e-09	8.673916e+00	7.613507e+01
1.350000e-06	1.265537e-06	1.320137e-09	9.173767e+00	8.439164e+01
1.360000e-06	1.334284e-06	1.441769e-09	9.672108e+00	9.238424e+01
1.370000e-06	1.402838e-06	1.554443e-09	1.016905e+01	1.000908e+02
1.380000e-06	1.471145e-06	1.661952e-09	1.066420e+01	1.074946e+02
1.390000e-06	1.539208e-06	1.766595e-09	1.115758e+01	1.145842e+02
1.400000e-06	1.607144e-06	1.866813e-09	1.165005e+01	1.213537e+02
1.410000e-06	1.674942e-06	1.963528e-09	1.214151e+01	1.278018e+02
1.420000e-06	1.742517e-06	2.055576e-09	1.263135e+01	1.339319e+02
1.430000e-06	1.809857e-06	2.142876e-09	1.311949e+01	1.397511e+02
1.440000e-06	1.876889e-06	2.227634e-09	1.360541e+01	1.452697e+02
1.450000e-06	1.943509e-06	2.307719e-09	1.408833e+01	1.505008e+02
1.460000e-06	2.009643e-06	2.383180e-09	1.456773e+01	1.554588e+02
1.470000e-06	2.075185e-06	2.454419e-09	1.504284e+01	1.601597e+02
1.480000e-06	2.140104e-06	2.522191e-09	1.551343e+01	1.646198e+02
1.490000e-06	2.204577e-06	2.586079e-09	1.598079e+01	1.688551e+02
1.500000e-06	2.268732e-06	2.646775e-09	1.644584e+01	1.728815e+02
1.510000e-06	2.332575e-06	2.704813e-09	1.690863e+01	1.767138e+02
1.520000e-06	2.396160e-06	2.758044e-09	1.736955e+01	1.803656e+02
1.530000e-06	2.459459e-06	2.808558e-09	1.782840e+01	1.838494e+02
1.540000e-06	2.522327e-06	2.857007e-09	1.828413e+01	1.871764e+02
1.550000e-06	2.584678e-06	2.902878e-09	1.873611e+01	1.903566e+02
1.560000e-06	2.646558e-06	2.946568e-09	1.918467e+01	1.933988e+02
1.570000e-06	2.708030e-06	2.986500e-09	1.963027e+01	1.963109e+02
1.580000e-06	2.769111e-06	3.026985e-09	2.007304e+01	1.991000e+02
1.590000e-06	2.829696e-06	3.066551e-09	2.051222e+01	2.017727e+02
1.600000e-06	2.889759e-06	3.103135e-09	2.094761e+01	2.043351e+02
1.610000e-06	2.949367e-06	3.138108e-09	2.137971e+01	2.067930e+02
1.620000e-06	3.008587e-06	3.170225e-09	2.180898e+01	2.091520e+02
1.630000e-06	3.067270e-06	3.201793e-09	2.223437e+01	2.114179e+02
1.640000e-06	3.125124e-06	3.232396e-09	2.265375e+01	2.135960e+02
1.650000e-06	3.182087e-06	3.263011e-09	2.306667e+01	2.156917e+02
1.660000e-06	3.238355e-06	3.293059e-09	2.347456e+01	2.177102e+02
1.670000e-06	3.294173e-06	3.320769e-09	2.387917e+01	2.196567e+02
1.680000e-06	3.349594e-06	3.348546e-09	2.428092e+01	2.215355e+02
1.690000e-06	3.404510e-06	3.376182e-09	2.467899e+01	2.233511e+02
1.700000e-06	3.458848e-06	3.402049e-09	2.507289e+01	2.251070e+02
1.710000e-06	3.512590e-06	3.425139e-09	2.546246e+01	2.268064e+02
1.720000e-06	3.565726e-06	3.448770e-09	2.584763e+01	2.284517e+02
1.730000e-06	3.618229e-06	3.473211e-09	2.622822e+01	2.300449e+02
1.740000e-06	3.670022e-06	3.496291e-09	2.660367e+01	2.315872e+02
1.750000e-06	3.721034e-06	3.519039e-09	2.697345e+01	2.330795e+02
1.760000e-06	3.771082e-06	3.541298e-09	2.733624e+01	2.345221e+02
1.770000e-06	3.820132e-06	3.561483e-09	2.769181e+01	2.359152e+02
1.780000e-06	3.868423e-06	3.578508e-09	2.804186e+01	2.372587e+02
1.790000e-06	3.916152e-06	3.596172e-09	2.838785e+01	2.385526e+02
1.800000e-06	3.963360e-06	3.616098e-09	2.873005e+01	2.397969e+02
1.810000e-06	4.009882e-06	3.634290e-09	2.906728e+01	2.409921e+02
1.820000e-06	4.055683e-06	3.650683e-09	2.939929e+01	2.421389e+02
1.830000e-06	4.100724e-06	3.667633e-09	2.972579e+01	2.432382e+02
1.840000e-06	4.145019e-06	3.684167e-09	3.004688e+01	2.442916e+02
1.850000e-06	4.188821e-06	3.699862e-09	3.036440e+01	2.453010e+02
1.860000e-06	4.232119e-06	3.715558e-09	3.067826e+01	2.462687e+02
1.870000e-06	4.274519e-06	3.731082e-09	3.098561e+01	2.471972e+02
1.880000e-06	4.315748e-06	3.745915e-09	3.128448e+01	2.480892e+02
1.890000e-06	4.356091e-06	3.759358e-09	3.157692e+01	2.489475e+02
1.900000e-06	4.395845e-06	3.770891e-09	3.186509e+01	2.497747e+02
1.910000e-06	4.434880e-06	3.781623e-09	3.214806e+01	2.505733e+02
1.920000e-06	4.473104e-06	3.794310e-09	3.242514e+01	2.513456e+02
1.930000e-06	4.510583e-06	3.807287e-09	3.269682e+01	2.520934e+02
1.940000e-06	4.547323e-06	3.819049e-09	3.296315e+01	2.528180e+02
1.950000e-06	4.583375e-06	3.830067e-09	3.322448e+01	2.535204e+02
1.960000e-06	4.618817e-06	3.840513e-09	3.348140e+01	2.542012e+02
1.970000e-06	4.653380e-06	3.851295e-09	3.373194e+01	2.548604e+02
1.980000e-06	4.686741e-06	3.861470e-09	3.397377e+01	2.554978e+02
1.990000e-06	4.719075e-06	3.869781e-09	3.420816e+01	2.561130e+02
2.000000e-06	4.750681e-06	3.878637e-09	3.443727e+01	2.567055e+02
2.010000e-06	4.781578e-06	3.889314e-09	3.466124e+01	2.572745e+02
2.020000e-06	4.811662e-06	3.899152e-09	3.487932e+01	2.578198e+02
2.030000e-06	4.840954e-06	3.907582e-09	3.509165e+01	2.583408e+02
2.040000e-06	4.869454e-06	3.916167e-09	3.529824e+01	2.588376e+02
2.050000e-06	4.897249e-06	3.925717e-09	3.549973e+01	2.593105e+02
2.060000e-06	4.924333e-06	3.934951e-09	3.569606e+01	2.597600e+02
2.070000e-06	4.950383e-06	3.942018e-09	3.588489e+01	2.601870e+02
2.080000e-06	4.975237e-06	3.948736e-09	3.606506e+01	2.605927e+02
2.090000e-06	4.999113e-06	3.955596e-09	3.623813e+01	2.609786e+02
2.100000e-06	5.022166e-06	3.960996e-09	3.640524e+01	2.613461e+02
2.110000e-06	5.044375e-06	3.965814e-09	3.656623e+01	2.616968e+02
2.120000e-06	5.065795e-06	3.970208e-09	3.672151e+01	2.620323e+02
2.130000e-06	5.086416e-06	3.974668e-09	3.687099e+01	2.623538e+02
2.140000e-06	5.106325e-06	3.980845e-09	3.701530e+01	2.626626e+02
2.150000e-06	5.125572e-06	3.987594e-09	3.715482e+01	2.629595e+02
2.160000e-06	5.143879e-06	3.993893e-09	3.728753e+01	2.632448e+02
2.170000e-06	5.161194e-06	3.999139e-09	3.741304e+01	2.635187e+02
2.180000e-06	5.177654e-06	4.004058e-09	3.753236e+01	2.637811e+02
2.190000e-06	5.193142e-06	4.009386e-09	3.764463e+01	2.640312e+02
2.200000e-06	5.207560e-06	4.013236e-09	3.774914e+01	2.642683e+02
2.210000e-06	5.220986e-06	4.015829e-09	3.784647e+01	2.644915e+02
2.220000e-06	5.233508e-06	4.019411e-09	3.793724e+01	2.646996e+02
2.230000e-06	5.245049e-06	4.023546e-09	3.802090e+01	2.648916e+02
2.240000e-06	5.255346e-06	4.027012e-09	3.809554e+01	2.650666e+02
2.250000e-06	5.264371e-06	4.031490e-09	3.816096e+01	2.652239e+02
2.260000e-06	5.272457e-06	4.034679e-09	3.821958e+01	2.653629e+02
2.270000e-06	5.279711e-06	4.036631e-09	3.827216e+01	2.654835e+02
2.280000e-06	5.286098e-06	4.039142e-09	3.831846e+01	2.655859e+02
2.290000e-06	5.291643e-06	4.042786e-09	3.835866e+01	2.656706e+02
2.300000e-06	5.296331e-06	4.046132e-09	3.839264e+01	2.657384e+02
2.310000e-06	5.300234e-06	4.047803e-09	3.842093e+01	2.657903e+02
2.320000e-06	5.303248e-06	4.049256e-09	3.844278e+01	2.658276e+02
2.330000e-06	5.305004e-06	4.051356e-09	3.845551e+01	2.658515e+02
2.340000e-06	5.305623e-06	4.054654e-09	3.846000e+01	2.658634e+02
2.350000e-06	5.305460e-06	4.058155e-09	3.845881e+01	2.658645e+02
2.360000e-06	5.304438e-06	4.060500e-09	3.845141e+01	2.658559e+02
2.370000e-06	5.302579e-06	4.058808e-09	3.843793e+01	2.658383e+02
2.380000e-06	5.299887e-06	4.056799e-09	3.841842e+01	2.658121e+02
2.390000e-06	5.296374e-06	4.056744e-09	3.839295e+01	2.657777e+02
2.400000e-06	5.292169e-06	4.056833e-09	3.836247e+01	2.657346e+02
2.410000e-06	5.287212e-06	4.057549e-09	3.832654e+01	2.656824e+02
2.420000e-06	5.281167e-06	4.066567e-09	3.828272e+01	2.656203e+02
2.430000e-06	5.273938e-06	4.063192e-09	3.823032e+01	2.655469e+02
2.440000e-06	5.265804e-06	3.984674e-09	3.817135e+01	2.654610e+02
2.450000e-06	5.256529e-06	3.957603e-09	3.810412e+01	2.653610e+02
2.460000e-06	5.245868e-06	3.994627e-09	3.802684e+01	2.652454e+02
2.470000e-06	5.234258e-06	4.154872e-09	3.794268e+01	2.651126e+02
2.480000e-06	5.222370e-06	4.118716e-09	3.785651e+01	2.649609e+02
2.490000e-06	5.209943e-06	3.927751e-09	3.776642e+01	2.647892e+02
2.500000e-06	5.195849e-06	4.056450e-09	3.766426e+01	2.645960e+02
2.510000e-06	5.180358e-06	4.033106e-09	3.755196e+01	2.643803e+02
2.520000e-06	5.164534e-06	4.019062e-09	3.743726e+01	2.641414e+02
2.530000e-06	5.147947e-06	4.145051e-09	3.731702e+01	2.638785e+02
2.540000e-06	5.130029e-06	3.986091e-09	3.718713e+01	2.635913e+02
2.550000e-06	5.111465e-06	3.855377e-09	3.705256e+01	2.632794e+02
2.560000e-06	5.092463e-06	4.103419e-09	3.691482e+01	2.629430e+02
2.570000e-06	5.072624e-06	4.112681e-09	3.677101e+01	2.625819e+02
2.580000e-06	5.051731e-06	3.845302e-09	3.661956e+01	2.621965e+02
2.590000e-06	5.029522e-06	4.002985e-09	3.645857e+01	2.617870e+02
2.600000e-06	5.006198e-06	4.111997e-09	3.628949e+01	2.613539e+02
2.610000e-06	4.982103e-06	3.971603e-09	3.611483e+01	2.608975e+02
2.620000e-06	4.957032e-06	3.971131e-09	3.593309e+01	2.604185e+02
2.630000e-06	4.931189e-06	3.938588e-09	3.574576e+01	2.599175e+02
2.640000e-06	4.904792e-06	3.932690e-09	3.555441e+01	2.593951e+02
2.650000e-06	4.877426e-06	4.011518e-09	3.535604e+01	2.588523e+02
2.660000e-06	4.849297e-06	3.934594e-09	3.515213e+01	2.582898e+02
2.670000e-06	4.820466e-06	3.947166e-09	3.494314e+01	2.577087e+02
2.680000e-06	4.790255e-06	3.934095e-09	3.472414e+01	2.571100e+02
2.690000e-06	4.758834e-06	3.828197e-09	3.449637e+01	2.564946e+02
2.700000e-06	4.726825e-06	4.009370e-09	3.426434e+01	2.558638e+02
2.710000e-06	4.694029e-06	3.964449e-09	3.402660e+01	2.552185e+02
2.720000e-06	4.660209e-06	3.732115e-09	3.378145e+01	2.545596e+02
2.730000e-06	4.625586e-06	3.874395e-09	3.353047e+01	2.538881e+02
2.740000e-06	4.590361e-06	3.957243e-09	3.327513e+01	2.532046e+02
2.750000e-06	4.554435e-06	3.849166e-09	3.301470e+01	2.525094e+02
2.760000e-06	4.517745e-06	3.780190e-09	3.274874e+01	2.518028e+02
2.770000e-06	4.480113e-06	3.807487e-09	3.247595e+01	2.510845e+02
2.780000e-06	4.441395e-06	3.874563e-09	3.219528e+01	2.503541e+02
2.790000e-06	4.401807e-06	3.792560e-09	3.190831e+01	2.496107e+02
2.800000e-06	4.361522e-06	3.770333e-09	3.161629e+01	2.488533e+02
2.810000e-06	4.320558e-06	3.800665e-09	3.131935e+01	2.480804e+02
2.820000e-06	4.278909e-06	3.748469e-09	3.101744e+01	2.472905e+02
2.830000e-06	4.236490e-06	3.759612e-09	3.070994e+01	2.464819e+02
2.840000e-06	4.193325e-06	3.751568e-09	3.039705e+01	2.456527e+02
2.850000e-06	4.149665e-06	3.739311e-09	3.008056e+01	2.448011e+02
2.860000e-06	4.105566e-06	3.707423e-09	2.976089e+01	2.439256e+02
2.870000e-06	4.060935e-06	3.682235e-09	2.943736e+01	2.430244e+02
2.880000e-06	4.015545e-06	3.733208e-09	2.910834e+01	2.420965e+02
2.890000e-06	3.969277e-06	3.670840e-09	2.877294e+01	2.411406e+02
2.900000e-06	3.922301e-06	3.629057e-09	2.843242e+01	2.401562e+02
2.910000e-06	3.874788e-06	3.663282e-09	2.808800e+01	2.391428e+02
2.920000e-06	3.826569e-06	3.650460e-09	2.773847e+01	2.381002e+02
2.930000e-06	3.777414e-06	3.611473e-09	2.738214e+01	2.370284e+02
2.940000e-06	3.727449e-06	3.571679e-09	2.701995e+01	2.359278e+02
2.950000e-06	3.676902e-06	3.599994e-09	2.665354e+01	2.347986e+02
