# Temperatura_=_20.0
# Concentracion g/m^3_=_9000.0
# C_Vs_to_Am_M_A/Vsm_=_65563218390.804596
# pendiente_HvsI_1/m_=_3716.3
# ordenada_HvsI_A/m_=_1297.0
# frecuencia_Hz_=_212870.17491477873

Tiempo_(s)	Campo_(V.s)	Magnetizacion_(V.s)	Campo_(kA/m)	Magnetizacion_(A/m)
0.000000e+00	-5.301392e-06	-4.043304e-09	-3.841947e+01	-2.692548e+02
1.000000e-08	-5.300546e-06	-4.045285e-09	-3.841334e+01	-2.692380e+02
2.000000e-08	-5.298461e-06	-4.046190e-09	-3.839823e+01	-2.692340e+02
3.000000e-08	-5.295304e-06	-4.042955e-09	-3.837535e+01	-2.692412e+02
4.000000e-08	-5.291362e-06	-4.040260e-09	-3.834678e+01	-2.692559e+02
5.000000e-08	-5.286629e-06	-4.038057e-09	-3.831248e+01	-2.692722e+02
6.000000e-08	-5.281055e-06	-4.032449e-09	-3.827209e+01	-2.692821e+02
7.000000e-08	-5.274626e-06	-4.019875e-09	-3.822549e+01	-2.692761e+02
8.000000e-08	-5.267309e-06	-4.027405e-09	-3.817247e+01	-2.692436e+02
9.000000e-08	-5.259043e-06	-4.072482e-09	-3.811256e+01	-2.691733e+02
1.000000e-07	-5.249494e-06	-4.117782e-09	-3.804336e+01	-2.690541e+02
1.100000e-07	-5.238572e-06	-4.075695e-09	-3.796421e+01	-2.688756e+02
1.200000e-07	-5.226722e-06	-3.942882e-09	-3.787833e+01	-2.686289e+02
1.300000e-07	-5.214104e-06	-3.930316e-09	-3.778689e+01	-2.683068e+02
1.400000e-07	-5.200637e-06	-4.088308e-09	-3.768929e+01	-2.679047e+02
1.500000e-07	-5.186287e-06	-4.092898e-09	-3.758529e+01	-2.674207e+02
1.600000e-07	-5.170880e-06	-4.009692e-09	-3.747364e+01	-2.668557e+02
1.700000e-07	-5.154194e-06	-3.988547e-09	-3.735271e+01	-2.662137e+02
1.800000e-07	-5.136488e-06	-3.914292e-09	-3.722440e+01	-2.655014e+02
1.900000e-07	-5.118312e-06	-3.996462e-09	-3.709268e+01	-2.647279e+02
2.000000e-07	-5.099470e-06	-4.137551e-09	-3.695613e+01	-2.639043e+02
2.100000e-07	-5.079591e-06	-4.017909e-09	-3.681207e+01	-2.630433e+02
2.200000e-07	-5.058881e-06	-3.908829e-09	-3.666198e+01	-2.621582e+02
2.300000e-07	-5.037510e-06	-4.103462e-09	-3.650710e+01	-2.612627e+02
2.400000e-07	-5.015239e-06	-4.196282e-09	-3.634571e+01	-2.603696e+02
2.500000e-07	-4.992000e-06	-4.039971e-09	-3.617729e+01	-2.594908e+02
2.600000e-07	-4.967995e-06	-3.928026e-09	-3.600332e+01	-2.586363e+02
2.700000e-07	-4.943066e-06	-3.904753e-09	-3.582266e+01	-2.578142e+02
2.800000e-07	-4.916993e-06	-3.998897e-09	-3.563371e+01	-2.570298e+02
2.900000e-07	-4.889921e-06	-4.061420e-09	-3.543752e+01	-2.562859e+02
3.000000e-07	-4.862022e-06	-3.960543e-09	-3.523533e+01	-2.555828e+02
3.100000e-07	-4.833319e-06	-3.869648e-09	-3.502732e+01	-2.549180e+02
3.200000e-07	-4.803713e-06	-3.903509e-09	-3.481276e+01	-2.542872e+02
3.300000e-07	-4.773254e-06	-3.982170e-09	-3.459202e+01	-2.536839e+02
3.400000e-07	-4.742115e-06	-3.996676e-09	-3.436636e+01	-2.531004e+02
3.500000e-07	-4.710255e-06	-3.888645e-09	-3.413547e+01	-2.525284e+02
3.600000e-07	-4.677559e-06	-3.803772e-09	-3.389852e+01	-2.519589e+02
3.700000e-07	-4.643970e-06	-3.908458e-09	-3.365510e+01	-2.513834e+02
3.800000e-07	-4.609357e-06	-3.994794e-09	-3.340426e+01	-2.507939e+02
3.900000e-07	-4.573692e-06	-3.873793e-09	-3.314579e+01	-2.501838e+02
4.000000e-07	-4.537255e-06	-3.776976e-09	-3.288173e+01	-2.495476e+02
4.100000e-07	-4.500163e-06	-3.856082e-09	-3.261292e+01	-2.488812e+02
4.200000e-07	-4.462241e-06	-3.904637e-09	-3.233809e+01	-2.481826e+02
4.300000e-07	-4.423399e-06	-3.848650e-09	-3.205661e+01	-2.474507e+02
4.400000e-07	-4.383906e-06	-3.791407e-09	-3.177040e+01	-2.466864e+02
4.500000e-07	-4.343966e-06	-3.772635e-09	-3.148095e+01	-2.458912e+02
4.600000e-07	-4.303321e-06	-3.802823e-09	-3.118640e+01	-2.450680e+02
4.700000e-07	-4.261653e-06	-3.832608e-09	-3.088442e+01	-2.442196e+02
4.800000e-07	-4.218927e-06	-3.779749e-09	-3.057479e+01	-2.433495e+02
4.900000e-07	-4.175344e-06	-3.701628e-09	-3.025894e+01	-2.424608e+02
5.000000e-07	-4.131156e-06	-3.722427e-09	-2.993870e+01	-2.415560e+02
5.100000e-07	-4.086401e-06	-3.774070e-09	-2.961437e+01	-2.406370e+02
5.200000e-07	-4.040966e-06	-3.735045e-09	-2.928510e+01	-2.397050e+02
5.300000e-07	-3.994788e-06	-3.661887e-09	-2.895044e+01	-2.387600e+02
5.400000e-07	-3.947895e-06	-3.648381e-09	-2.861061e+01	-2.378011e+02
5.500000e-07	-3.900449e-06	-3.687515e-09	-2.826676e+01	-2.368266e+02
5.600000e-07	-3.852379e-06	-3.692658e-09	-2.791839e+01	-2.358337e+02
5.700000e-07	-3.803424e-06	-3.628139e-09	-2.756362e+01	-2.348195e+02
5.800000e-07	-3.753349e-06	-3.582312e-09	-2.720072e+01	-2.337804e+02
5.900000e-07	-3.702287e-06	-3.604338e-09	-2.683067e+01	-2.327127e+02
6.000000e-07	-3.650517e-06	-3.622890e-09	-2.645549e+01	-2.316128e+02
6.100000e-07	-3.598005e-06	-3.577751e-09	-2.607493e+01	-2.304774e+02
6.200000e-07	-3.544824e-06	-3.520765e-09	-2.568953e+01	-2.293039e+02
6.300000e-07	-3.491097e-06	-3.511568e-09	-2.530016e+01	-2.280900e+02
6.400000e-07	-3.436767e-06	-3.522987e-09	-2.490643e+01	-2.268342e+02
6.500000e-07	-3.381795e-06	-3.511110e-09	-2.450805e+01	-2.255356e+02
6.600000e-07	-3.326317e-06	-3.464396e-09	-2.410600e+01	-2.241942e+02
6.700000e-07	-3.270397e-06	-3.424246e-09	-2.370074e+01	-2.228103e+02
6.800000e-07	-3.213954e-06	-3.427583e-09	-2.329169e+01	-2.213848e+02
6.900000e-07	-3.156748e-06	-3.431648e-09	-2.287712e+01	-2.199188e+02
7.000000e-07	-3.098606e-06	-3.390519e-09	-2.245576e+01	-2.184137e+02
7.100000e-07	-3.039662e-06	-3.335581e-09	-2.202859e+01	-2.168705e+02
7.200000e-07	-2.980191e-06	-3.320013e-09	-2.159761e+01	-2.152902e+02
7.300000e-07	-2.920381e-06	-3.322544e-09	-2.116416e+01	-2.136737e+02
7.400000e-07	-2.860153e-06	-3.291724e-09	-2.072768e+01	-2.120209e+02
7.500000e-07	-2.799422e-06	-3.244946e-09	-2.028756e+01	-2.103317e+02
7.600000e-07	-2.738222e-06	-3.218135e-09	-1.984404e+01	-2.086052e+02
7.700000e-07	-2.676621e-06	-3.210768e-09	-1.939761e+01	-2.068399e+02
7.800000e-07	-2.614581e-06	-3.193419e-09	-1.894801e+01	-2.050340e+02
7.900000e-07	-2.552042e-06	-3.149542e-09	-1.849478e+01	-2.031852e+02
8.000000e-07	-2.489054e-06	-3.108748e-09	-1.803831e+01	-2.012906e+02
8.100000e-07	-2.425708e-06	-3.088371e-09	-1.757924e+01	-1.993473e+02
8.200000e-07	-2.362043e-06	-3.068936e-09	-1.711785e+01	-1.973522e+02
8.300000e-07	-2.298095e-06	-3.028599e-09	-1.665442e+01	-1.953021e+02
8.400000e-07	-2.233842e-06	-2.980198e-09	-1.618877e+01	-1.931937e+02
8.500000e-07	-2.169195e-06	-2.951670e-09	-1.572027e+01	-1.910239e+02
8.600000e-07	-2.104123e-06	-2.933446e-09	-1.524869e+01	-1.887895e+02
8.700000e-07	-2.038578e-06	-2.900576e-09	-1.477368e+01	-1.864876e+02
8.800000e-07	-1.972507e-06	-2.851321e-09	-1.429486e+01	-1.841152e+02
8.900000e-07	-1.905922e-06	-2.807049e-09	-1.381232e+01	-1.816696e+02
9.000000e-07	-1.839021e-06	-2.779331e-09	-1.332748e+01	-1.791477e+02
9.100000e-07	-1.771858e-06	-2.745073e-09	-1.284075e+01	-1.765466e+02
9.200000e-07	-1.704402e-06	-2.690353e-09	-1.235189e+01	-1.738634e+02
9.300000e-07	-1.636687e-06	-2.633923e-09	-1.186116e+01	-1.710948e+02
9.400000e-07	-1.568762e-06	-2.593269e-09	-1.136890e+01	-1.682371e+02
9.500000e-07	-1.500709e-06	-2.558309e-09	-1.087572e+01	-1.652865e+02
9.600000e-07	-1.432478e-06	-2.507494e-09	-1.038124e+01	-1.622387e+02
9.700000e-07	-1.363928e-06	-2.449876e-09	-9.884461e+00	-1.590889e+02
9.800000e-07	-1.295100e-06	-2.402212e-09	-9.385659e+00	-1.558316e+02
9.900000e-07	-1.226119e-06	-2.360754e-09	-8.885749e+00	-1.524610e+02
1.000000e-06	-1.156937e-06	-2.310502e-09	-8.384382e+00	-1.489704e+02
1.010000e-06	-1.087469e-06	-2.242822e-09	-7.880943e+00	-1.453525e+02
1.020000e-06	-1.017746e-06	-2.174855e-09	-7.375658e+00	-1.415991e+02
1.030000e-06	-9.478460e-07	-2.117706e-09	-6.869090e+00	-1.377014e+02
1.040000e-06	-8.777571e-07	-2.061257e-09	-6.361152e+00	-1.336498e+02
1.050000e-06	-8.075064e-07	-1.993546e-09	-5.852042e+00	-1.294338e+02
1.060000e-06	-7.370975e-07	-1.916845e-09	-5.341785e+00	-1.250422e+02
1.070000e-06	-6.665185e-07	-1.846082e-09	-4.830295e+00	-1.204633e+02
1.080000e-06	-5.958205e-07	-1.779931e-09	-4.317943e+00	-1.156846e+02
1.090000e-06	-5.250281e-07	-1.705268e-09	-3.804907e+00	-1.106934e+02
1.100000e-06	-4.541522e-07	-1.618375e-09	-3.291265e+00	-1.054769e+02
1.110000e-06	-3.831946e-07	-1.529044e-09	-2.777032e+00	-1.000225e+02
1.120000e-06	-3.122308e-07	-1.446249e-09	-2.262753e+00	-9.431809e+01
1.130000e-06	-2.412145e-07	-1.359804e-09	-1.748094e+00	-8.835264e+01
1.140000e-06	-1.701230e-07	-1.261791e-09	-1.232890e+00	-8.211657e+01
1.150000e-06	-9.904101e-08	-1.157959e-09	-7.177554e-01	-7.560236e+01
1.160000e-06	-2.795171e-08	-1.055396e-09	-2.025675e-01	-6.880500e+01
1.170000e-06	4.321156e-08	-9.542296e-10	3.131565e-01	-6.172263e+01
1.180000e-06	1.144128e-07	-8.444085e-10	8.291558e-01	-5.435696e+01
1.190000e-06	1.855310e-07	-7.245588e-10	1.344553e+00	-4.671380e+01
1.200000e-06	2.565873e-07	-6.017270e-10	1.859502e+00	-3.880339e+01
1.210000e-06	3.275680e-07	-4.794275e-10	2.373903e+00	-3.064068e+01
1.220000e-06	3.984472e-07	-3.538169e-10	2.887568e+00	-2.224545e+01
1.230000e-06	4.692494e-07	-2.180890e-10	3.400676e+00	-1.364227e+01
1.240000e-06	5.399161e-07	-7.925813e-11	3.912801e+00	-4.860348e+00
1.250000e-06	6.104683e-07	5.578868e-11	4.424096e+00	4.066899e+00
1.260000e-06	6.808601e-07	1.895187e-10	4.934230e+00	1.310232e+01
1.270000e-06	7.510633e-07	3.263389e-10	5.442996e+00	2.220577e+01
1.280000e-06	8.211886e-07	4.674059e-10	5.951197e+00	3.133488e+01
1.290000e-06	8.911162e-07	6.071873e-10	6.457967e+00	4.044604e+01
1.300000e-06	9.608556e-07	7.432483e-10	6.963371e+00	4.949538e+01
1.310000e-06	1.030501e-06	8.788837e-10	7.468093e+00	5.843980e+01
1.320000e-06	1.100040e-06	1.016931e-09	7.972048e+00	6.723801e+01
1.330000e-06	1.169386e-06	1.152643e-09	8.474602e+00	7.585149e+01
1.340000e-06	1.238426e-06	1.279754e-09	8.974941e+00	8.424536e+01
1.350000e-06	1.307274e-06	1.400848e-09	9.473882e+00	9.238914e+01
1.360000e-06	1.375956e-06	1.517926e-09	9.971628e+00	1.002573e+02
1.370000e-06	1.444418e-06	1.629360e-09	1.046777e+01	1.078297e+02
1.380000e-06	1.512669e-06	1.734240e-09	1.096239e+01	1.150916e+02
1.390000e-06	1.580705e-06	1.835353e-09	1.145545e+01	1.220340e+02
1.400000e-06	1.648503e-06	1.935673e-09	1.194679e+01	1.286530e+02
1.410000e-06	1.716113e-06	2.032106e-09	1.243676e+01	1.349499e+02
1.420000e-06	1.783549e-06	2.121413e-09	1.292548e+01	1.409301e+02
1.430000e-06	1.850706e-06	2.204975e-09	1.341217e+01	1.466030e+02
1.440000e-06	1.917539e-06	2.286836e-09	1.389651e+01	1.519808e+02
1.450000e-06	1.983965e-06	2.366493e-09	1.437790e+01	1.570781e+02
1.460000e-06	2.049827e-06	2.439341e-09	1.485520e+01	1.619108e+02
1.470000e-06	2.115114e-06	2.505782e-09	1.532834e+01	1.664957e+02
1.480000e-06	2.179876e-06	2.570149e-09	1.579768e+01	1.708495e+02
1.490000e-06	2.244128e-06	2.634583e-09	1.626331e+01	1.749885e+02
1.500000e-06	2.307994e-06	2.696634e-09	1.672616e+01	1.789280e+02
1.510000e-06	2.371598e-06	2.752785e-09	1.718709e+01	1.826822e+02
1.520000e-06	2.434906e-06	2.803275e-09	1.764589e+01	1.862637e+02
1.530000e-06	2.497858e-06	2.853188e-09	1.810211e+01	1.896837e+02
1.540000e-06	2.560393e-06	2.904860e-09	1.855530e+01	1.929520e+02
1.550000e-06	2.622474e-06	2.952321e-09	1.900521e+01	1.960770e+02
1.560000e-06	2.684175e-06	2.992635e-09	1.945236e+01	1.990662e+02
1.570000e-06	2.745475e-06	3.030991e-09	1.989660e+01	2.019264e+02
1.580000e-06	2.806268e-06	3.071968e-09	2.033717e+01	2.046636e+02
1.590000e-06	2.866518e-06	3.112356e-09	2.077381e+01	2.072836e+02
1.600000e-06	2.926335e-06	3.148789e-09	2.120730e+01	2.097922e+02
1.610000e-06	2.985799e-06	3.182831e-09	2.163824e+01	2.121952e+02
1.620000e-06	3.044767e-06	3.217003e-09	2.206559e+01	2.144985e+02
1.630000e-06	3.103014e-06	3.251538e-09	2.248770e+01	2.167083e+02
1.640000e-06	3.160372e-06	3.283019e-09	2.290339e+01	2.188308e+02
1.650000e-06	3.216942e-06	3.312257e-09	2.331335e+01	2.208723e+02
1.660000e-06	3.272911e-06	3.341345e-09	2.371896e+01	2.228389e+02
1.670000e-06	3.328453e-06	3.369928e-09	2.412147e+01	2.247364e+02
1.680000e-06	3.383593e-06	3.398489e-09	2.452108e+01	2.265701e+02
1.690000e-06	3.438135e-06	3.426302e-09	2.491635e+01	2.283447e+02
1.700000e-06	3.492047e-06	3.451594e-09	2.530705e+01	2.300640e+02
1.710000e-06	3.545408e-06	3.474682e-09	2.569376e+01	2.317310e+02
1.720000e-06	3.598115e-06	3.499103e-09	2.607573e+01	2.333476e+02
1.730000e-06	3.650138e-06	3.523647e-09	2.645274e+01	2.349151e+02
1.740000e-06	3.701537e-06	3.546409e-09	2.682524e+01	2.364337e+02
1.750000e-06	3.752087e-06	3.567200e-09	2.719157e+01	2.379032e+02
1.760000e-06	3.801644e-06	3.587629e-09	2.755071e+01	2.393230e+02
1.770000e-06	3.850265e-06	3.606606e-09	2.790307e+01	2.406919e+02
1.780000e-06	3.898161e-06	3.624605e-09	2.825018e+01	2.420092e+02
1.790000e-06	3.945550e-06	3.644932e-09	2.859361e+01	2.432741e+02
1.800000e-06	3.992327e-06	3.665456e-09	2.893260e+01	2.444866e+02
1.810000e-06	4.038377e-06	3.684342e-09	2.926634e+01	2.456470e+02
1.820000e-06	4.083745e-06	3.701745e-09	2.959512e+01	2.467566e+02
1.830000e-06	4.128351e-06	3.719703e-09	2.991838e+01	2.478173e+02
1.840000e-06	4.172312e-06	3.736427e-09	3.023696e+01	2.488319e+02
1.850000e-06	4.215811e-06	3.751592e-09	3.055221e+01	2.498035e+02
1.860000e-06	4.258613e-06	3.765382e-09	3.086239e+01	2.507361e+02
1.870000e-06	4.300416e-06	3.780338e-09	3.116535e+01	2.516336e+02
1.880000e-06	4.341162e-06	3.797219e-09	3.146063e+01	2.525002e+02
1.890000e-06	4.381073e-06	3.810420e-09	3.174987e+01	2.533396e+02
1.900000e-06	4.420332e-06	3.821553e-09	3.203438e+01	2.541553e+02
1.910000e-06	4.458922e-06	3.832288e-09	3.231404e+01	2.549500e+02
1.920000e-06	4.496756e-06	3.844696e-09	3.258823e+01	2.557256e+02
1.930000e-06	4.533763e-06	3.857685e-09	3.285642e+01	2.564830e+02
1.940000e-06	4.570009e-06	3.868247e-09	3.311909e+01	2.572223e+02
1.950000e-06	4.605686e-06	3.879881e-09	3.337765e+01	2.579427e+02
1.960000e-06	4.640718e-06	3.891749e-09	3.363153e+01	2.586425e+02
1.970000e-06	4.674615e-06	3.902773e-09	3.387718e+01	2.593198e+02
1.980000e-06	4.707295e-06	3.911949e-09	3.411402e+01	2.599720e+02
1.990000e-06	4.739113e-06	3.920097e-09	3.434460e+01	2.605967e+02
2.000000e-06	4.770198e-06	3.930361e-09	3.456988e+01	2.611916e+02
2.010000e-06	4.800530e-06	3.939592e-09	3.478969e+01	2.617551e+02
2.020000e-06	4.830093e-06	3.949212e-09	3.500394e+01	2.622862e+02
2.030000e-06	4.858806e-06	3.959404e-09	3.521202e+01	2.627847e+02
2.040000e-06	4.886768e-06	3.967636e-09	3.541467e+01	2.632514e+02
2.050000e-06	4.914185e-06	3.976423e-09	3.561336e+01	2.636883e+02
2.060000e-06	4.940748e-06	3.983879e-09	3.580586e+01	2.640981e+02
2.070000e-06	4.966027e-06	3.990205e-09	3.598906e+01	2.644842e+02
2.080000e-06	4.990210e-06	3.996386e-09	3.616432e+01	2.648509e+02
2.090000e-06	5.013628e-06	4.002081e-09	3.633402e+01	2.652023e+02
2.100000e-06	5.036228e-06	4.007907e-09	3.649781e+01	2.655427e+02
2.110000e-06	5.057996e-06	4.014627e-09	3.665556e+01	2.658758e+02
2.120000e-06	5.078960e-06	4.021835e-09	3.680749e+01	2.662049e+02
2.130000e-06	5.099134e-06	4.027832e-09	3.695370e+01	2.665321e+02
2.140000e-06	5.118662e-06	4.033551e-09	3.709521e+01	2.668584e+02
2.150000e-06	5.137448e-06	4.039253e-09	3.723136e+01	2.671835e+02
2.160000e-06	5.155295e-06	4.044951e-09	3.736070e+01	2.675060e+02
2.170000e-06	5.172169e-06	4.050343e-09	3.748298e+01	2.678230e+02
2.180000e-06	5.188130e-06	4.054823e-09	3.759865e+01	2.681307e+02
2.190000e-06	5.203034e-06	4.059700e-09	3.770666e+01	2.684248e+02
2.200000e-06	5.216837e-06	4.064654e-09	3.780670e+01	2.687003e+02
2.210000e-06	5.229697e-06	4.069973e-09	3.789989e+01	2.689523e+02
2.220000e-06	5.241668e-06	4.075277e-09	3.798665e+01	2.691762e+02
2.230000e-06	5.252701e-06	4.079025e-09	3.806660e+01	2.693683e+02
2.240000e-06	5.262475e-06	4.082232e-09	3.813744e+01	2.695259e+02
2.250000e-06	5.270974e-06	4.084820e-09	3.819903e+01	2.696478e+02
2.260000e-06	5.278563e-06	4.085780e-09	3.825402e+01	2.697341e+02
2.270000e-06	5.285334e-06	4.088424e-09	3.830309e+01	2.697867e+02
2.280000e-06	5.291212e-06	4.093624e-09	3.834570e+01	2.698092e+02
2.290000e-06	5.296172e-06	4.099047e-09	3.838164e+01	2.698062e+02
2.300000e-06	5.300280e-06	4.100473e-09	3.841141e+01	2.697836e+02
2.310000e-06	5.303594e-06	4.100521e-09	3.843543e+01	2.697478e+02
2.320000e-06	5.305916e-06	4.102430e-09	3.845225e+01	2.697056e+02
2.330000e-06	5.306985e-06	4.103420e-09	3.846000e+01	2.696634e+02
2.340000e-06	5.306983e-06	4.106907e-09	3.845999e+01	2.696266e+02
2.350000e-06	5.306213e-06	4.108438e-09	3.845441e+01	2.695996e+02
2.360000e-06	5.304647e-06	4.105762e-09	3.844306e+01	2.695847e+02
2.370000e-06	5.302220e-06	4.104573e-09	3.842547e+01	2.695824e+02
2.380000e-06	5.298980e-06	4.106651e-09	3.840199e+01	2.695910e+02
2.390000e-06	5.295038e-06	4.108508e-09	3.837342e+01	2.696063e+02
2.400000e-06	5.290399e-06	4.109023e-09	3.833980e+01	2.696222e+02
2.410000e-06	5.284832e-06	4.116806e-09	3.829946e+01	2.696303e+02
2.420000e-06	5.278040e-06	4.125453e-09	3.825023e+01	2.696211e+02
2.430000e-06	5.270174e-06	4.080654e-09	3.819323e+01	2.695835e+02
2.440000e-06	5.261350e-06	4.012323e-09	3.812928e+01	2.695066e+02
2.450000e-06	5.251253e-06	4.009269e-09	3.805611e+01	2.693791e+02
2.460000e-06	5.239947e-06	4.138289e-09	3.797418e+01	2.691908e+02
2.470000e-06	5.228189e-06	4.223029e-09	3.788896e+01	2.689331e+02
2.480000e-06	5.216153e-06	4.075978e-09	3.780174e+01	2.685992e+02
2.490000e-06	5.202820e-06	4.017707e-09	3.770512e+01	2.681849e+02
2.500000e-06	5.187755e-06	4.072198e-09	3.759594e+01	2.676886e+02
2.510000e-06	5.171861e-06	4.059971e-09	3.748075e+01	2.671117e+02
2.520000e-06	5.155470e-06	4.119449e-09	3.736196e+01	2.664586e+02
2.530000e-06	5.137962e-06	4.136603e-09	3.723508e+01	2.657365e+02
2.540000e-06	5.119539e-06	3.934574e-09	3.710157e+01	2.649546e+02
2.550000e-06	5.100676e-06	3.882239e-09	3.696487e+01	2.641246e+02
2.560000e-06	5.081135e-06	4.027039e-09	3.682326e+01	2.632591e+02
2.570000e-06	5.060684e-06	3.895919e-09	3.667504e+01	2.623715e+02
2.580000e-06	5.039095e-06	3.773956e-09	3.651859e+01	2.614755e+02
2.590000e-06	5.016180e-06	3.932739e-09	3.635252e+01	2.605838e+02
2.600000e-06	4.992277e-06	4.009356e-09	3.617929e+01	2.597080e+02
2.610000e-06	4.967527e-06	3.967242e-09	3.599993e+01	2.588579e+02
2.620000e-06	4.941920e-06	3.949335e-09	3.581436e+01	2.580411e+02
2.630000e-06	4.915636e-06	3.884619e-09	3.562387e+01	2.572627e+02
2.640000e-06	4.888563e-06	3.887581e-09	3.542768e+01	2.565249e+02
2.650000e-06	4.860669e-06	3.980436e-09	3.522553e+01	2.558277e+02
2.660000e-06	4.832071e-06	3.973502e-09	3.501827e+01	2.551684e+02
2.670000e-06	4.802337e-06	3.891513e-09	3.480279e+01	2.545420e+02
2.680000e-06	4.771211e-06	3.820754e-09	3.457722e+01	2.539422e+02
2.690000e-06	4.739242e-06	3.882922e-09	3.434554e+01	2.533610e+02
2.700000e-06	4.706673e-06	3.982751e-09	3.410951e+01	2.527898e+02
2.710000e-06	4.673248e-06	3.859368e-09	3.386727e+01	2.522199e+02
2.720000e-06	4.638933e-06	3.743301e-09	3.361860e+01	2.516428e+02
2.730000e-06	4.603935e-06	3.833292e-09	3.336496e+01	2.510506e+02
2.740000e-06	4.568280e-06	3.907639e-09	3.310657e+01	2.504369e+02
2.750000e-06	4.531883e-06	3.848183e-09	3.284280e+01	2.497963e+02
2.760000e-06	4.494640e-06	3.754706e-09	3.257289e+01	2.491252e+02
2.770000e-06	4.456414e-06	3.760202e-09	3.229587e+01	2.484215e+02
2.780000e-06	4.417120e-06	3.811241e-09	3.201110e+01	2.476847e+02
2.790000e-06	4.376992e-06	3.814578e-09	3.172029e+01	2.469155e+02
2.800000e-06	4.336319e-06	3.777699e-09	3.142553e+01	2.461160e+02
2.810000e-06	4.295026e-06	3.709641e-09	3.112628e+01	2.452887e+02
2.820000e-06	4.252954e-06	3.709143e-09	3.082138e+01	2.444368e+02
2.830000e-06	4.210130e-06	3.768977e-09	3.051104e+01	2.435637e+02
2.840000e-06	4.166717e-06	3.756108e-09	3.019642e+01	2.426724e+02
2.850000e-06	4.122759e-06	3.687209e-09	2.987785e+01	2.417653e+02
2.860000e-06	4.078220e-06	3.651823e-09	2.955508e+01	2.408443e+02
2.870000e-06	4.033022e-06	3.688679e-09	2.922753e+01	2.399104e+02
2.880000e-06	3.987052e-06	3.709026e-09	2.889438e+01	2.389633e+02
2.890000e-06	3.940328e-06	3.650437e-09	2.855577e+01	2.380022e+02
2.900000e-06	3.893013e-06	3.602052e-09	2.821287e+01	2.370250e+02
2.910000e-06	3.845100e-06	3.614110e-09	2.786565e+01	2.360292e+02
2.920000e-06	3.796295e-06	3.635521e-09	2.751195e+01	2.350114e+02
2.930000e-06	3.746648e-06	3.601620e-09	2.715216e+01	2.339682e+02
2.940000e-06	3.696342e-06	3.551154e-09	2.678759e+01	2.328958e+02
2.950000e-06	3.645385e-06	3.544282e-09	2.641830e+01	2.317908e+02
