# Temperatura_=_20.0
# Concentracion g/m^3_=_9000.0
# C_Vs_to_Am_M_A/Vsm_=_65563218390.804596
# pendiente_HvsI_1/m_=_3716.3
# ordenada_HvsI_A/m_=_1297.0
# frecuencia_Hz_=_212871.98641306293

Tiempo_(s)	Campo_(V.s)	Magnetizacion_(V.s)	Campo_(kA/m)	Magnetizacion_(A/m)
0.000000e+00	-5.268858e-06	-4.001409e-09	-3.842165e+01	-2.629663e+02
1.000000e-08	-5.268833e-06	-4.000829e-09	-3.842147e+01	-2.630465e+02
2.000000e-08	-5.267923e-06	-4.003372e-09	-3.841483e+01	-2.631076e+02
3.000000e-08	-5.265702e-06	-4.005345e-09	-3.839864e+01	-2.631434e+02
4.000000e-08	-5.262408e-06	-4.003989e-09	-3.837462e+01	-2.631481e+02
5.000000e-08	-5.258440e-06	-4.001153e-09	-3.834568e+01	-2.631163e+02
6.000000e-08	-5.253648e-06	-3.996987e-09	-3.831074e+01	-2.630441e+02
7.000000e-08	-5.247976e-06	-3.991687e-09	-3.826938e+01	-2.629292e+02
8.000000e-08	-5.241440e-06	-3.978587e-09	-3.822171e+01	-2.627711e+02
9.000000e-08	-5.234026e-06	-3.982693e-09	-3.816765e+01	-2.625712e+02
1.000000e-07	-5.225735e-06	-4.047935e-09	-3.810719e+01	-2.623333e+02
1.100000e-07	-5.216122e-06	-4.081448e-09	-3.803709e+01	-2.620630e+02
1.200000e-07	-5.205099e-06	-4.021771e-09	-3.795671e+01	-2.617678e+02
1.300000e-07	-5.193191e-06	-3.839305e-09	-3.786988e+01	-2.614565e+02
1.400000e-07	-5.180545e-06	-3.884194e-09	-3.777765e+01	-2.611389e+02
1.500000e-07	-5.166988e-06	-4.119610e-09	-3.767880e+01	-2.608253e+02
1.600000e-07	-5.152689e-06	-4.037230e-09	-3.757452e+01	-2.605256e+02
1.700000e-07	-5.137454e-06	-3.939749e-09	-3.746343e+01	-2.602490e+02
1.800000e-07	-5.120743e-06	-3.922892e-09	-3.734157e+01	-2.600033e+02
1.900000e-07	-5.102999e-06	-3.865603e-09	-3.721218e+01	-2.597942e+02
2.000000e-07	-5.084907e-06	-3.988707e-09	-3.708025e+01	-2.596254e+02
2.100000e-07	-5.066081e-06	-4.166270e-09	-3.694296e+01	-2.594977e+02
2.200000e-07	-5.046180e-06	-3.925630e-09	-3.679784e+01	-2.594092e+02
2.300000e-07	-5.025544e-06	-3.835617e-09	-3.664736e+01	-2.593554e+02
2.400000e-07	-5.004200e-06	-4.177326e-09	-3.649171e+01	-2.593291e+02
2.500000e-07	-4.981841e-06	-4.158488e-09	-3.632866e+01	-2.593211e+02
2.600000e-07	-4.958536e-06	-3.941118e-09	-3.615872e+01	-2.593203e+02
2.700000e-07	-4.934540e-06	-3.906058e-09	-3.598373e+01	-2.593147e+02
2.800000e-07	-4.909772e-06	-3.948576e-09	-3.580312e+01	-2.592916e+02
2.900000e-07	-4.883934e-06	-4.032885e-09	-3.561470e+01	-2.592387e+02
3.000000e-07	-4.856876e-06	-4.070605e-09	-3.541739e+01	-2.591442e+02
3.100000e-07	-4.828915e-06	-3.910095e-09	-3.521350e+01	-2.589980e+02
3.200000e-07	-4.800203e-06	-3.879271e-09	-3.500412e+01	-2.587918e+02
3.300000e-07	-4.770594e-06	-3.975392e-09	-3.478820e+01	-2.585195e+02
3.400000e-07	-4.740209e-06	-3.980841e-09	-3.456663e+01	-2.581776e+02
3.500000e-07	-4.709156e-06	-3.993572e-09	-3.434018e+01	-2.577652e+02
3.600000e-07	-4.677377e-06	-3.886634e-09	-3.410845e+01	-2.572839e+02
3.700000e-07	-4.644864e-06	-3.803014e-09	-3.387136e+01	-2.567373e+02
3.800000e-07	-4.611571e-06	-3.972267e-09	-3.362857e+01	-2.561314e+02
3.900000e-07	-4.577079e-06	-4.033331e-09	-3.337705e+01	-2.554733e+02
4.000000e-07	-4.541429e-06	-3.813041e-09	-3.311709e+01	-2.547710e+02
4.100000e-07	-4.505155e-06	-3.786390e-09	-3.285256e+01	-2.540331e+02
4.200000e-07	-4.468229e-06	-3.954227e-09	-3.258329e+01	-2.532680e+02
4.300000e-07	-4.430356e-06	-3.926651e-09	-3.230711e+01	-2.524831e+02
4.400000e-07	-4.391523e-06	-3.799559e-09	-3.202394e+01	-2.516850e+02
4.500000e-07	-4.352073e-06	-3.814201e-09	-3.173626e+01	-2.508787e+02
4.600000e-07	-4.312251e-06	-3.840831e-09	-3.144587e+01	-2.500677e+02
4.700000e-07	-4.271834e-06	-3.812905e-09	-3.115114e+01	-2.492535e+02
4.800000e-07	-4.230335e-06	-3.826631e-09	-3.084852e+01	-2.484359e+02
4.900000e-07	-4.187689e-06	-3.791157e-09	-3.053754e+01	-2.476134e+02
5.000000e-07	-4.144228e-06	-3.732881e-09	-3.022061e+01	-2.467829e+02
5.100000e-07	-4.100224e-06	-3.760505e-09	-2.989972e+01	-2.459405e+02
5.200000e-07	-4.055686e-06	-3.791205e-09	-2.957494e+01	-2.450815e+02
5.300000e-07	-4.010403e-06	-3.737019e-09	-2.924472e+01	-2.442011e+02
5.400000e-07	-3.964328e-06	-3.667193e-09	-2.890874e+01	-2.432948e+02
5.500000e-07	-3.917564e-06	-3.686617e-09	-2.856772e+01	-2.423583e+02
5.600000e-07	-3.870224e-06	-3.726727e-09	-2.822251e+01	-2.413884e+02
5.700000e-07	-3.822361e-06	-3.684489e-09	-2.787349e+01	-2.403825e+02
5.800000e-07	-3.773751e-06	-3.618482e-09	-2.751901e+01	-2.393394e+02
5.900000e-07	-3.724070e-06	-3.614627e-09	-2.715673e+01	-2.382587e+02
6.000000e-07	-3.673343e-06	-3.649571e-09	-2.678681e+01	-2.371412e+02
6.100000e-07	-3.621819e-06	-3.624662e-09	-2.641109e+01	-2.359881e+02
6.200000e-07	-3.569589e-06	-3.561866e-09	-2.603022e+01	-2.348017e+02
6.300000e-07	-3.516647e-06	-3.545663e-09	-2.564415e+01	-2.335841e+02
6.400000e-07	-3.463101e-06	-3.547873e-09	-2.525368e+01	-2.323376e+02
6.500000e-07	-3.408971e-06	-3.536524e-09	-2.485896e+01	-2.310642e+02
6.600000e-07	-3.354222e-06	-3.510124e-09	-2.445972e+01	-2.297654e+02
6.700000e-07	-3.298877e-06	-3.474629e-09	-2.405612e+01	-2.284420e+02
6.800000e-07	-3.243118e-06	-3.452271e-09	-2.364952e+01	-2.270937e+02
6.900000e-07	-3.187016e-06	-3.450148e-09	-2.324041e+01	-2.257197e+02
7.000000e-07	-3.130160e-06	-3.445348e-09	-2.282581e+01	-2.243181e+02
7.100000e-07	-3.072272e-06	-3.398088e-09	-2.240368e+01	-2.228863e+02
7.200000e-07	-3.013531e-06	-3.349671e-09	-2.197532e+01	-2.214209e+02
7.300000e-07	-2.954216e-06	-3.353446e-09	-2.154278e+01	-2.199185e+02
7.400000e-07	-2.894554e-06	-3.351468e-09	-2.110771e+01	-2.183751e+02
7.500000e-07	-2.834575e-06	-3.303317e-09	-2.067033e+01	-2.167871e+02
7.600000e-07	-2.774139e-06	-3.256548e-09	-2.022962e+01	-2.151509e+02
7.700000e-07	-2.713207e-06	-3.247175e-09	-1.978530e+01	-2.134636e+02
7.800000e-07	-2.651901e-06	-3.239071e-09	-1.933824e+01	-2.117227e+02
7.900000e-07	-2.590209e-06	-3.199689e-09	-1.888836e+01	-2.099267e+02
8.000000e-07	-2.528014e-06	-3.158815e-09	-1.843483e+01	-2.080743e+02
8.100000e-07	-2.465298e-06	-3.131912e-09	-1.797749e+01	-2.061651e+02
8.200000e-07	-2.402137e-06	-3.111381e-09	-1.751691e+01	-2.041993e+02
8.300000e-07	-2.338670e-06	-3.085182e-09	-1.705409e+01	-2.021771e+02
8.400000e-07	-2.274928e-06	-3.044426e-09	-1.658927e+01	-2.000989e+02
8.500000e-07	-2.210902e-06	-3.005070e-09	-1.612238e+01	-1.979649e+02
8.600000e-07	-2.146665e-06	-2.974314e-09	-1.565395e+01	-1.957751e+02
8.700000e-07	-2.082203e-06	-2.949396e-09	-1.518387e+01	-1.935288e+02
8.800000e-07	-2.017236e-06	-2.914782e-09	-1.471012e+01	-1.912244e+02
8.900000e-07	-1.951619e-06	-2.865647e-09	-1.423163e+01	-1.888597e+02
9.000000e-07	-1.885540e-06	-2.830408e-09	-1.374976e+01	-1.864315e+02
9.100000e-07	-1.819053e-06	-2.804314e-09	-1.326493e+01	-1.839356e+02
9.200000e-07	-1.752133e-06	-2.764078e-09	-1.277693e+01	-1.813669e+02
9.300000e-07	-1.684846e-06	-2.709012e-09	-1.228626e+01	-1.787200e+02
9.400000e-07	-1.617300e-06	-2.658317e-09	-1.179371e+01	-1.759884e+02
9.500000e-07	-1.549626e-06	-2.623549e-09	-1.130021e+01	-1.731657e+02
9.600000e-07	-1.481853e-06	-2.579451e-09	-1.080600e+01	-1.702451e+02
9.700000e-07	-1.413959e-06	-2.524052e-09	-1.031090e+01	-1.672196e+02
9.800000e-07	-1.345884e-06	-2.473921e-09	-9.814479e+00	-1.640827e+02
9.900000e-07	-1.277554e-06	-2.432093e-09	-9.316203e+00	-1.608277e+02
1.000000e-06	-1.209015e-06	-2.388554e-09	-8.816397e+00	-1.574484e+02
1.010000e-06	-1.140191e-06	-2.329573e-09	-8.314521e+00	-1.539385e+02
1.020000e-06	-1.071019e-06	-2.264118e-09	-7.810101e+00	-1.502919e+02
1.030000e-06	-1.001637e-06	-2.203197e-09	-7.304157e+00	-1.465022e+02
1.040000e-06	-9.321625e-07	-2.147984e-09	-6.797531e+00	-1.425629e+02
1.050000e-06	-8.625481e-07	-2.088794e-09	-6.289888e+00	-1.384667e+02
1.060000e-06	-7.927384e-07	-2.017144e-09	-5.780820e+00	-1.342058e+02
1.070000e-06	-7.227941e-07	-1.945214e-09	-5.270771e+00	-1.297712e+02
1.080000e-06	-6.527258e-07	-1.879379e-09	-4.759818e+00	-1.251532e+02
1.090000e-06	-5.824991e-07	-1.813081e-09	-4.247710e+00	-1.203408e+02
1.100000e-06	-5.120764e-07	-1.733086e-09	-3.734172e+00	-1.153222e+02
1.110000e-06	-4.415679e-07	-1.643130e-09	-3.220009e+00	-1.100848e+02
1.120000e-06	-3.710055e-07	-1.561773e-09	-2.705452e+00	-1.046157e+02
1.130000e-06	-3.003435e-07	-1.482292e-09	-2.190170e+00	-9.890207e+01
1.140000e-06	-2.296323e-07	-1.392092e-09	-1.674528e+00	-9.293156e+01
1.150000e-06	-1.588377e-07	-1.290936e-09	-1.158279e+00	-8.669323e+01
1.160000e-06	-8.806047e-08	-1.187398e-09	-6.421560e-01	-8.017814e+01
1.170000e-06	-1.735710e-08	-1.087374e-09	-1.265718e-01	-7.338006e+01
1.180000e-06	5.335949e-08	-9.833398e-10	3.891090e-01	-6.629621e+01
1.190000e-06	1.240592e-07	-8.700043e-10	9.046662e-01	-5.892791e+01
1.200000e-06	1.946883e-07	-7.498895e-10	1.419710e+00	-5.128111e+01
1.210000e-06	2.652295e-07	-6.271893e-10	1.934111e+00	-4.336682e+01
1.220000e-06	3.356956e-07	-5.064706e-10	2.447965e+00	-3.520131e+01
1.230000e-06	4.060938e-07	-3.799980e-10	2.961324e+00	-2.680618e+01
1.240000e-06	4.764063e-07	-2.434682e-10	3.474058e+00	-1.820820e+01
1.250000e-06	5.466291e-07	-1.046296e-10	3.986138e+00	-9.438904e+00
1.260000e-06	6.167516e-07	3.014839e-11	4.497486e+00	-5.340276e-01
1.270000e-06	6.867171e-07	1.611243e-10	5.007690e+00	8.467224e+00
1.280000e-06	7.565153e-07	3.000371e-10	5.516674e+00	1.752309e+01
1.290000e-06	8.262307e-07	4.420432e-10	6.025053e+00	2.659025e+01
1.300000e-06	8.958072e-07	5.801481e-10	6.532420e+00	3.562491e+01
1.310000e-06	9.652346e-07	7.143680e-10	7.038700e+00	4.458385e+01
1.320000e-06	1.034508e-06	8.480488e-10	7.543853e+00	5.342550e+01
1.330000e-06	1.103518e-06	9.846954e-10	8.047094e+00	6.211091e+01
1.340000e-06	1.172324e-06	1.115856e-09	8.548838e+00	7.060459e+01
1.350000e-06	1.240936e-06	1.240643e-09	9.049173e+00	7.887520e+01
1.360000e-06	1.309270e-06	1.359671e-09	9.547480e+00	8.689608e+01
1.370000e-06	1.377364e-06	1.474237e-09	1.004404e+01	9.464559e+01
1.380000e-06	1.445306e-06	1.585874e-09	1.053948e+01	1.021072e+02
1.390000e-06	1.513123e-06	1.692260e-09	1.103402e+01	1.092694e+02
1.400000e-06	1.580835e-06	1.794042e-09	1.152779e+01	1.161258e+02
1.410000e-06	1.648417e-06	1.892839e-09	1.202061e+01	1.226740e+02
1.420000e-06	1.715793e-06	1.987970e-09	1.251193e+01	1.289160e+02
1.430000e-06	1.782890e-06	2.078883e-09	1.300122e+01	1.348570e+02
1.440000e-06	1.849593e-06	2.164456e-09	1.348763e+01	1.405051e+02
1.450000e-06	1.915769e-06	2.245737e-09	1.397020e+01	1.458705e+02
1.460000e-06	1.981417e-06	2.322392e-09	1.444893e+01	1.509649e+02
1.470000e-06	2.046570e-06	2.395272e-09	1.492403e+01	1.558010e+02
1.480000e-06	2.111199e-06	2.465125e-09	1.539532e+01	1.603921e+02
1.490000e-06	2.175384e-06	2.530890e-09	1.586337e+01	1.647516e+02
1.500000e-06	2.239294e-06	2.593148e-09	1.632942e+01	1.688926e+02
1.510000e-06	2.302985e-06	2.651875e-09	1.679387e+01	1.728278e+02
1.520000e-06	2.366366e-06	2.708511e-09	1.725605e+01	1.765696e+02
1.530000e-06	2.429346e-06	2.762544e-09	1.771532e+01	1.801295e+02
1.540000e-06	2.491859e-06	2.812194e-09	1.817117e+01	1.835186e+02
1.550000e-06	2.553941e-06	2.859531e-09	1.862389e+01	1.867473e+02
1.560000e-06	2.615667e-06	2.902291e-09	1.907401e+01	1.898257e+02
1.570000e-06	2.676959e-06	2.941867e-09	1.952097e+01	1.927633e+02
1.580000e-06	2.737724e-06	2.983035e-09	1.996408e+01	1.955692e+02
1.590000e-06	2.797970e-06	3.023005e-09	2.040341e+01	1.982523e+02
1.600000e-06	2.857834e-06	3.062047e-09	2.083994e+01	2.008211e+02
1.610000e-06	2.917425e-06	3.097954e-09	2.127450e+01	2.032836e+02
1.620000e-06	2.976615e-06	3.130953e-09	2.170612e+01	2.056475e+02
1.630000e-06	3.035039e-06	3.163724e-09	2.213216e+01	2.079201e+02
1.640000e-06	3.092518e-06	3.196138e-09	2.255131e+01	2.101077e+02
1.650000e-06	3.149154e-06	3.226058e-09	2.296431e+01	2.122164e+02
1.660000e-06	3.205201e-06	3.253045e-09	2.337302e+01	2.142514e+02
1.670000e-06	3.260892e-06	3.280188e-09	2.377913e+01	2.162169e+02
1.680000e-06	3.316162e-06	3.307552e-09	2.418217e+01	2.181166e+02
1.690000e-06	3.370873e-06	3.335105e-09	2.458114e+01	2.199531e+02
1.700000e-06	3.424979e-06	3.361571e-09	2.497569e+01	2.217286e+02
1.710000e-06	3.478534e-06	3.385406e-09	2.536622e+01	2.234446e+02
1.720000e-06	3.531548e-06	3.408637e-09	2.575281e+01	2.251018e+02
1.730000e-06	3.583944e-06	3.432945e-09	2.613490e+01	2.267009e+02
1.740000e-06	3.635691e-06	3.455823e-09	2.651224e+01	2.282423e+02
1.750000e-06	3.686638e-06	3.476144e-09	2.688377e+01	2.297265e+02
1.760000e-06	3.736617e-06	3.495873e-09	2.724822e+01	2.311541e+02
1.770000e-06	3.785551e-06	3.516394e-09	2.760506e+01	2.325260e+02
1.780000e-06	3.833652e-06	3.535736e-09	2.795582e+01	2.338435e+02
1.790000e-06	3.881251e-06	3.553413e-09	2.830292e+01	2.351085e+02
1.800000e-06	3.928304e-06	3.571365e-09	2.864605e+01	2.363230e+02
1.810000e-06	3.974687e-06	3.589972e-09	2.898428e+01	2.374899e+02
1.820000e-06	4.020362e-06	3.607822e-09	2.931735e+01	2.386121e+02
1.830000e-06	4.065277e-06	3.624814e-09	2.964488e+01	2.396928e+02
1.840000e-06	4.109491e-06	3.641034e-09	2.996730e+01	2.407353e+02
1.850000e-06	4.153227e-06	3.658203e-09	3.028623e+01	2.417427e+02
1.860000e-06	4.196508e-06	3.675987e-09	3.060185e+01	2.427181e+02
1.870000e-06	4.238956e-06	3.691603e-09	3.091138e+01	2.436638e+02
1.880000e-06	4.280234e-06	3.705785e-09	3.121239e+01	2.445820e+02
1.890000e-06	4.320476e-06	3.719696e-09	3.150584e+01	2.454740e+02
1.900000e-06	4.360077e-06	3.733585e-09	3.179463e+01	2.463407e+02
1.910000e-06	4.399053e-06	3.745508e-09	3.207885e+01	2.471822e+02
1.920000e-06	4.437288e-06	3.756604e-09	3.235766e+01	2.479984e+02
1.930000e-06	4.474794e-06	3.768791e-09	3.263117e+01	2.487885e+02
1.940000e-06	4.511457e-06	3.782472e-09	3.289852e+01	2.495516e+02
1.950000e-06	4.547405e-06	3.796253e-09	3.316066e+01	2.502868e+02
1.960000e-06	4.582804e-06	3.807471e-09	3.341880e+01	2.509929e+02
1.970000e-06	4.617370e-06	3.817400e-09	3.367087e+01	2.516695e+02
1.980000e-06	4.650740e-06	3.827315e-09	3.391420e+01	2.523162e+02
1.990000e-06	4.683051e-06	3.836498e-09	3.414983e+01	2.529333e+02
2.000000e-06	4.714634e-06	3.845384e-09	3.438013e+01	2.535216e+02
2.010000e-06	4.745514e-06	3.855067e-09	3.460531e+01	2.540823e+02
2.020000e-06	4.775632e-06	3.864101e-09	3.482495e+01	2.546174e+02
2.030000e-06	4.804961e-06	3.872512e-09	3.503882e+01	2.551291e+02
2.040000e-06	4.833490e-06	3.881552e-09	3.524686e+01	2.556199e+02
2.050000e-06	4.861336e-06	3.890234e-09	3.544992e+01	2.560924e+02
2.060000e-06	4.888538e-06	3.899482e-09	3.564828e+01	2.565490e+02
2.070000e-06	4.914658e-06	3.907931e-09	3.583875e+01	2.569919e+02
2.080000e-06	4.939484e-06	3.915058e-09	3.601979e+01	2.574228e+02
2.090000e-06	4.963385e-06	3.922233e-09	3.619408e+01	2.578428e+02
2.100000e-06	4.986564e-06	3.928170e-09	3.636311e+01	2.582520e+02
2.110000e-06	5.008921e-06	3.933495e-09	3.652614e+01	2.586503e+02
2.120000e-06	5.030440e-06	3.939038e-09	3.668306e+01	2.590364e+02
2.130000e-06	5.051122e-06	3.944822e-09	3.683387e+01	2.594088e+02
2.140000e-06	5.071061e-06	3.950346e-09	3.697928e+01	2.597651e+02
2.150000e-06	5.090365e-06	3.955072e-09	3.712005e+01	2.601030e+02
2.160000e-06	5.108805e-06	3.960357e-09	3.725451e+01	2.604200e+02
2.170000e-06	5.126218e-06	3.965540e-09	3.738149e+01	2.607140e+02
2.180000e-06	5.142795e-06	3.969559e-09	3.750238e+01	2.609833e+02
2.190000e-06	5.158463e-06	3.973400e-09	3.761663e+01	2.612266e+02
2.200000e-06	5.173030e-06	3.977967e-09	3.772285e+01	2.614439e+02
2.210000e-06	5.186612e-06	3.981008e-09	3.782190e+01	2.616357e+02
2.220000e-06	5.199299e-06	3.985093e-09	3.791441e+01	2.618038e+02
2.230000e-06	5.211113e-06	3.992203e-09	3.800056e+01	2.619507e+02
2.240000e-06	5.221828e-06	3.996523e-09	3.807870e+01	2.620796e+02
2.250000e-06	5.231172e-06	3.998780e-09	3.814684e+01	2.621943e+02
2.260000e-06	5.239404e-06	4.000681e-09	3.820687e+01	2.622989e+02
2.270000e-06	5.246865e-06	4.002940e-09	3.826128e+01	2.623974e+02
2.280000e-06	5.253476e-06	4.005672e-09	3.830948e+01	2.624933e+02
2.290000e-06	5.259131e-06	4.007432e-09	3.835072e+01	2.625896e+02
2.300000e-06	5.263867e-06	4.008960e-09	3.838526e+01	2.626882e+02
2.310000e-06	5.267870e-06	4.011500e-09	3.841445e+01	2.627897e+02
2.320000e-06	5.271143e-06	4.015562e-09	3.843832e+01	2.628933e+02
2.330000e-06	5.273288e-06	4.018315e-09	3.845396e+01	2.629970e+02
2.340000e-06	5.274116e-06	4.020951e-09	3.846000e+01	2.630973e+02
2.350000e-06	5.273974e-06	4.023552e-09	3.845896e+01	2.631896e+02
2.360000e-06	5.273101e-06	4.025415e-09	3.845259e+01	2.632682e+02
2.370000e-06	5.271391e-06	4.022309e-09	3.844012e+01	2.633272e+02
2.380000e-06	5.268841e-06	4.018337e-09	3.842153e+01	2.633602e+02
2.390000e-06	5.265499e-06	4.019187e-09	3.839716e+01	2.633615e+02
2.400000e-06	5.261436e-06	4.020028e-09	3.836753e+01	2.633259e+02
2.410000e-06	5.256742e-06	4.020940e-09	3.833330e+01	2.632496e+02
2.420000e-06	5.251122e-06	4.030829e-09	3.829232e+01	2.631305e+02
2.430000e-06	5.244250e-06	4.050889e-09	3.824221e+01	2.629681e+02
2.440000e-06	5.236366e-06	3.988353e-09	3.818472e+01	2.627644e+02
2.450000e-06	5.227490e-06	3.913737e-09	3.811999e+01	2.625230e+02
2.460000e-06	5.217245e-06	3.924797e-09	3.804528e+01	2.622499e+02
2.470000e-06	5.205810e-06	4.112990e-09	3.796189e+01	2.619528e+02
2.480000e-06	5.194051e-06	4.173564e-09	3.787614e+01	2.616405e+02
2.490000e-06	5.182093e-06	3.938292e-09	3.778895e+01	2.613229e+02
2.500000e-06	5.168600e-06	3.870413e-09	3.769055e+01	2.610103e+02
2.510000e-06	5.153297e-06	4.034503e-09	3.757896e+01	2.607126e+02
2.520000e-06	5.137515e-06	3.978212e-09	3.746387e+01	2.604389e+02
2.530000e-06	5.121292e-06	4.042247e-09	3.734557e+01	2.601966e+02
2.540000e-06	5.103752e-06	4.077013e-09	3.721767e+01	2.599916e+02
2.550000e-06	5.085335e-06	3.713227e-09	3.708336e+01	2.598270e+02
2.560000e-06	5.066573e-06	3.816718e-09	3.694655e+01	2.597034e+02
2.570000e-06	5.046997e-06	4.084195e-09	3.680380e+01	2.596187e+02
2.580000e-06	5.026448e-06	3.815818e-09	3.665395e+01	2.595681e+02
2.590000e-06	5.004759e-06	3.692571e-09	3.649579e+01	2.595441e+02
2.600000e-06	4.981787e-06	4.031675e-09	3.632827e+01	2.595374e+02
2.610000e-06	4.957935e-06	3.992737e-09	3.615434e+01	2.595368e+02
2.620000e-06	4.933183e-06	3.892418e-09	3.597384e+01	2.595301e+02
2.630000e-06	4.907544e-06	4.013884e-09	3.578688e+01	2.595047e+02
2.640000e-06	4.881315e-06	3.872508e-09	3.559560e+01	2.594482e+02
2.650000e-06	4.854214e-06	3.927828e-09	3.539798e+01	2.593490e+02
2.660000e-06	4.826248e-06	4.020693e-09	3.519405e+01	2.591973e+02
2.670000e-06	4.797738e-06	3.925333e-09	3.498614e+01	2.589847e+02
2.680000e-06	4.768037e-06	3.947453e-09	3.476956e+01	2.587057e+02
2.690000e-06	4.736806e-06	3.833341e-09	3.454181e+01	2.583568e+02
2.700000e-06	4.704859e-06	3.901238e-09	3.430885e+01	2.579375e+02
2.710000e-06	4.672430e-06	4.091155e-09	3.407237e+01	2.574495e+02
2.720000e-06	4.639068e-06	3.847293e-09	3.382909e+01	2.568968e+02
2.730000e-06	4.604783e-06	3.753461e-09	3.357907e+01	2.562854e+02
2.740000e-06	4.569891e-06	3.961210e-09	3.332464e+01	2.556226e+02
2.750000e-06	4.534383e-06	3.967452e-09	3.306570e+01	2.549164e+02
2.760000e-06	4.498105e-06	3.823833e-09	3.280116e+01	2.541756e+02
2.770000e-06	4.461055e-06	3.771993e-09	3.253098e+01	2.534081e+02
2.780000e-06	4.423045e-06	3.882183e-09	3.225380e+01	2.526218e+02
2.790000e-06	4.383876e-06	3.868778e-09	3.196817e+01	2.518227e+02
2.800000e-06	4.343871e-06	3.783022e-09	3.167645e+01	2.510160e+02
2.810000e-06	4.303332e-06	3.824428e-09	3.138083e+01	2.502046e+02
2.820000e-06	4.262102e-06	3.782003e-09	3.108017e+01	2.493902e+02
2.830000e-06	4.220102e-06	3.765172e-09	3.077389e+01	2.485723e+02
2.840000e-06	4.177455e-06	3.796354e-09	3.046291e+01	2.477493e+02
2.850000e-06	4.134230e-06	3.775899e-09	3.014770e+01	2.469178e+02
2.860000e-06	4.090390e-06	3.739178e-09	2.982801e+01	2.460740e+02
2.870000e-06	4.046014e-06	3.690701e-09	2.950441e+01	2.452132e+02
2.880000e-06	4.001087e-06	3.746641e-09	2.917679e+01	2.443305e+02
2.890000e-06	3.955331e-06	3.753643e-09	2.884313e+01	2.434214e+02
2.900000e-06	3.908649e-06	3.655046e-09	2.850271e+01	2.424818e+02
2.910000e-06	3.861355e-06	3.643505e-09	2.815783e+01	2.415085e+02
2.920000e-06	3.813570e-06	3.684974e-09	2.780938e+01	2.404990e+02
2.930000e-06	3.764923e-06	3.681869e-09	2.745464e+01	2.394522e+02
2.940000e-06	3.715347e-06	3.604551e-09	2.709312e+01	2.383679e+02
2.950000e-06	3.665155e-06	3.590026e-09	2.672711e+01	2.372468e+02
