# Temperatura_=_20.0
# Concentracion g/m^3_=_9000.0
# C_Vs_to_Am_M_A/Vsm_=_65563218390.804596
# pendiente_HvsI_1/m_=_3716.3
# ordenada_HvsI_A/m_=_1297.0
# frecuencia_Hz_=_212875.15073242792

Tiempo_(s)	Campo_(V.s)	Magnetizacion_(V.s)	Campo_(kA/m)	Magnetizacion_(A/m)
0.000000e+00	-5.275674e-06	-4.061628e-09	-3.841436e+01	-2.668464e+02
1.000000e-08	-5.275667e-06	-4.060735e-09	-3.841431e+01	-2.668356e+02
2.000000e-08	-5.274842e-06	-4.063899e-09	-3.840831e+01	-2.668123e+02
3.000000e-08	-5.272749e-06	-4.065420e-09	-3.839306e+01	-2.667761e+02
4.000000e-08	-5.269514e-06	-4.061066e-09	-3.836951e+01	-2.667264e+02
5.000000e-08	-5.265603e-06	-4.057365e-09	-3.834103e+01	-2.666624e+02
6.000000e-08	-5.260978e-06	-4.053887e-09	-3.830735e+01	-2.665831e+02
7.000000e-08	-5.255439e-06	-4.048107e-09	-3.826702e+01	-2.664875e+02
8.000000e-08	-5.248985e-06	-4.034087e-09	-3.822003e+01	-2.663744e+02
9.000000e-08	-5.241706e-06	-4.030562e-09	-3.816703e+01	-2.662432e+02
1.000000e-07	-5.233529e-06	-4.095122e-09	-3.810749e+01	-2.660930e+02
1.100000e-07	-5.224040e-06	-4.140899e-09	-3.803839e+01	-2.659235e+02
1.200000e-07	-5.213153e-06	-4.100739e-09	-3.795912e+01	-2.657344e+02
1.300000e-07	-5.201345e-06	-3.913827e-09	-3.787314e+01	-2.655262e+02
1.400000e-07	-5.188782e-06	-3.913975e-09	-3.778167e+01	-2.652993e+02
1.500000e-07	-5.175337e-06	-4.160100e-09	-3.768376e+01	-2.650547e+02
1.600000e-07	-5.161104e-06	-4.121128e-09	-3.758013e+01	-2.647935e+02
1.700000e-07	-5.145904e-06	-3.980277e-09	-3.746945e+01	-2.645170e+02
1.800000e-07	-5.129280e-06	-3.985681e-09	-3.734841e+01	-2.642266e+02
1.900000e-07	-5.111574e-06	-3.954527e-09	-3.721948e+01	-2.639238e+02
2.000000e-07	-5.093480e-06	-4.004596e-09	-3.708773e+01	-2.636098e+02
2.100000e-07	-5.074704e-06	-4.191643e-09	-3.695102e+01	-2.632856e+02
2.200000e-07	-5.054836e-06	-3.969672e-09	-3.680635e+01	-2.629519e+02
2.300000e-07	-5.034234e-06	-3.805629e-09	-3.665634e+01	-2.626091e+02
2.400000e-07	-5.012971e-06	-4.144943e-09	-3.650151e+01	-2.622569e+02
2.500000e-07	-4.990703e-06	-4.207285e-09	-3.633937e+01	-2.618949e+02
2.600000e-07	-4.967539e-06	-3.945096e-09	-3.617071e+01	-2.615219e+02
2.700000e-07	-4.943650e-06	-3.875864e-09	-3.599675e+01	-2.611365e+02
2.800000e-07	-4.918904e-06	-3.978203e-09	-3.581657e+01	-2.607370e+02
2.900000e-07	-4.893068e-06	-4.055074e-09	-3.562845e+01	-2.603214e+02
3.000000e-07	-4.866049e-06	-4.046066e-09	-3.543171e+01	-2.598875e+02
3.100000e-07	-4.838177e-06	-3.883058e-09	-3.522877e+01	-2.594334e+02
3.200000e-07	-4.809569e-06	-3.886570e-09	-3.502046e+01	-2.589569e+02
3.300000e-07	-4.780068e-06	-3.994360e-09	-3.480565e+01	-2.584564e+02
3.400000e-07	-4.749734e-06	-3.964752e-09	-3.458478e+01	-2.579304e+02
3.500000e-07	-4.718644e-06	-3.966244e-09	-3.435840e+01	-2.573780e+02
3.600000e-07	-4.686807e-06	-3.889060e-09	-3.412658e+01	-2.567985e+02
3.700000e-07	-4.654234e-06	-3.809695e-09	-3.388940e+01	-2.561919e+02
3.800000e-07	-4.620914e-06	-3.969130e-09	-3.364679e+01	-2.555585e+02
3.900000e-07	-4.586447e-06	-4.022274e-09	-3.339581e+01	-2.548991e+02
4.000000e-07	-4.550796e-06	-3.798377e-09	-3.313622e+01	-2.542146e+02
4.100000e-07	-4.514508e-06	-3.773002e-09	-3.287200e+01	-2.535066e+02
4.200000e-07	-4.477655e-06	-3.950605e-09	-3.260365e+01	-2.527763e+02
4.300000e-07	-4.439907e-06	-3.927878e-09	-3.232880e+01	-2.520252e+02
4.400000e-07	-4.401186e-06	-3.773708e-09	-3.204685e+01	-2.512547e+02
4.500000e-07	-4.361833e-06	-3.780581e-09	-3.176031e+01	-2.504661e+02
4.600000e-07	-4.322067e-06	-3.843326e-09	-3.147075e+01	-2.496602e+02
4.700000e-07	-4.281715e-06	-3.829216e-09	-3.117694e+01	-2.488375e+02
4.800000e-07	-4.240350e-06	-3.801586e-09	-3.087574e+01	-2.479983e+02
4.900000e-07	-4.197781e-06	-3.749397e-09	-3.056578e+01	-2.471423e+02
5.000000e-07	-4.154308e-06	-3.734166e-09	-3.024923e+01	-2.462691e+02
5.100000e-07	-4.110275e-06	-3.772155e-09	-2.992861e+01	-2.453775e+02
5.200000e-07	-4.065689e-06	-3.765763e-09	-2.960396e+01	-2.444666e+02
5.300000e-07	-4.020395e-06	-3.707576e-09	-2.927416e+01	-2.435348e+02
5.400000e-07	-3.974314e-06	-3.662786e-09	-2.893862e+01	-2.425805e+02
5.500000e-07	-3.927450e-06	-3.683204e-09	-2.859738e+01	-2.416022e+02
5.600000e-07	-3.880020e-06	-3.712519e-09	-2.825203e+01	-2.405981e+02
5.700000e-07	-3.832116e-06	-3.670932e-09	-2.790322e+01	-2.395669e+02
5.800000e-07	-3.783422e-06	-3.599012e-09	-2.754866e+01	-2.385070e+02
5.900000e-07	-3.733757e-06	-3.591886e-09	-2.718703e+01	-2.374172e+02
6.000000e-07	-3.683142e-06	-3.641197e-09	-2.681848e+01	-2.362965e+02
6.100000e-07	-3.631630e-06	-3.612229e-09	-2.644340e+01	-2.351439e+02
6.200000e-07	-3.579380e-06	-3.533603e-09	-2.606295e+01	-2.339587e+02
6.300000e-07	-3.526432e-06	-3.527805e-09	-2.567741e+01	-2.327403e+02
6.400000e-07	-3.472852e-06	-3.542895e-09	-2.528727e+01	-2.314881e+02
6.500000e-07	-3.418688e-06	-3.519832e-09	-2.489288e+01	-2.302018e+02
6.600000e-07	-3.363875e-06	-3.481381e-09	-2.449376e+01	-2.288806e+02
6.700000e-07	-3.308526e-06	-3.453775e-09	-2.409074e+01	-2.275242e+02
6.800000e-07	-3.252775e-06	-3.439417e-09	-2.368480e+01	-2.261318e+02
6.900000e-07	-3.196567e-06	-3.429654e-09	-2.327552e+01	-2.247029e+02
7.000000e-07	-3.139649e-06	-3.413135e-09	-2.286108e+01	-2.232365e+02
7.100000e-07	-3.081820e-06	-3.368854e-09	-2.244000e+01	-2.217318e+02
7.200000e-07	-3.023152e-06	-3.334605e-09	-2.201282e+01	-2.201877e+02
7.300000e-07	-2.963846e-06	-3.333132e-09	-2.158099e+01	-2.186034e+02
7.400000e-07	-2.904164e-06	-3.314969e-09	-2.114642e+01	-2.169778e+02
7.500000e-07	-2.844184e-06	-3.269792e-09	-2.070968e+01	-2.153097e+02
7.600000e-07	-2.783727e-06	-3.232030e-09	-2.026947e+01	-2.135983e+02
7.700000e-07	-2.722732e-06	-3.220116e-09	-1.982534e+01	-2.118425e+02
7.800000e-07	-2.661340e-06	-3.204477e-09	-1.937831e+01	-2.100415e+02
7.900000e-07	-2.599593e-06	-3.160956e-09	-1.892871e+01	-2.081944e+02
8.000000e-07	-2.537367e-06	-3.120993e-09	-1.847562e+01	-2.063004e+02
8.100000e-07	-2.474610e-06	-3.101592e-09	-1.801866e+01	-2.043585e+02
8.200000e-07	-2.411451e-06	-3.082982e-09	-1.755877e+01	-2.023678e+02
8.300000e-07	-2.347954e-06	-3.044120e-09	-1.709642e+01	-2.003273e+02
8.400000e-07	-2.284111e-06	-2.998902e-09	-1.663156e+01	-1.982354e+02
8.500000e-07	-2.219963e-06	-2.971867e-09	-1.616446e+01	-1.960908e+02
8.600000e-07	-2.155570e-06	-2.945656e-09	-1.569560e+01	-1.938913e+02
8.700000e-07	-2.090942e-06	-2.910023e-09	-1.522501e+01	-1.916347e+02
8.800000e-07	-2.025790e-06	-2.868475e-09	-1.475062e+01	-1.893182e+02
8.900000e-07	-1.959903e-06	-2.826131e-09	-1.427086e+01	-1.869386e+02
9.000000e-07	-1.893572e-06	-2.794613e-09	-1.378788e+01	-1.844922e+02
9.100000e-07	-1.827008e-06	-2.762863e-09	-1.330320e+01	-1.819750e+02
9.200000e-07	-1.760088e-06	-2.717836e-09	-1.281593e+01	-1.793825e+02
9.300000e-07	-1.692768e-06	-2.664382e-09	-1.232575e+01	-1.767098e+02
9.400000e-07	-1.625172e-06	-2.620326e-09	-1.183355e+01	-1.739519e+02
9.500000e-07	-1.557442e-06	-2.587798e-09	-1.134038e+01	-1.711035e+02
9.600000e-07	-1.489601e-06	-2.539813e-09	-1.084640e+01	-1.681590e+02
9.700000e-07	-1.421601e-06	-2.480270e-09	-1.035127e+01	-1.651127e+02
9.800000e-07	-1.353406e-06	-2.430240e-09	-9.854710e+00	-1.619587e+02
9.900000e-07	-1.285013e-06	-2.391856e-09	-9.356711e+00	-1.586909e+02
1.000000e-06	-1.216365e-06	-2.348116e-09	-8.856857e+00	-1.553032e+02
1.010000e-06	-1.147419e-06	-2.285289e-09	-8.354835e+00	-1.517889e+02
1.020000e-06	-1.078180e-06	-2.221212e-09	-7.850671e+00	-1.481411e+02
1.030000e-06	-1.008687e-06	-2.165111e-09	-7.344668e+00	-1.443524e+02
1.040000e-06	-9.390030e-07	-2.109355e-09	-6.837269e+00	-1.404149e+02
1.050000e-06	-8.692259e-07	-2.046789e-09	-6.329193e+00	-1.363200e+02
1.060000e-06	-7.993496e-07	-1.976343e-09	-5.820395e+00	-1.320585e+02
1.070000e-06	-7.292796e-07	-1.907402e-09	-5.310186e+00	-1.276202e+02
1.080000e-06	-6.590823e-07	-1.840662e-09	-4.799050e+00	-1.229947e+02
1.090000e-06	-5.887401e-07	-1.771036e-09	-4.286860e+00	-1.181705e+02
1.100000e-06	-5.182389e-07	-1.691452e-09	-3.773512e+00	-1.131359e+02
1.110000e-06	-4.476612e-07	-1.603945e-09	-3.259606e+00	-1.078792e+02
1.120000e-06	-3.769754e-07	-1.521518e-09	-2.744914e+00	-1.023886e+02
1.130000e-06	-3.062185e-07	-1.440106e-09	-2.229703e+00	-9.665281e+01
1.140000e-06	-2.354376e-07	-1.349555e-09	-1.714318e+00	-9.066183e+01
1.150000e-06	-1.646273e-07	-1.250505e-09	-1.198719e+00	-8.440702e+01
1.160000e-06	-9.380003e-08	-1.151259e-09	-6.829968e-01	-7.788185e+01
1.170000e-06	-2.291291e-08	-1.052540e-09	-1.668383e-01	-7.108244e+01
1.180000e-06	4.799447e-08	-9.465371e-10	3.494676e-01	-6.400808e+01
1.190000e-06	1.188557e-07	-8.335197e-10	8.654373e-01	-5.666172e+01
1.200000e-06	1.896156e-07	-7.167138e-10	1.380669e+00	-4.905038e+01
1.210000e-06	2.602249e-07	-5.967625e-10	1.894805e+00	-4.118543e+01
1.220000e-06	3.307616e-07	-4.758305e-10	2.408412e+00	-3.308281e+01
1.230000e-06	4.012426e-07	-3.493898e-10	2.921613e+00	-2.476303e+01
1.240000e-06	4.716105e-07	-2.177514e-10	3.433991e+00	-1.625110e+01
1.250000e-06	5.419110e-07	-8.701594e-11	3.945878e+00	-7.576202e+00
1.260000e-06	6.121235e-07	4.467246e-11	4.457124e+00	1.228728e+00
1.270000e-06	6.822024e-07	1.778521e-10	4.967397e+00	1.012756e+01
1.280000e-06	7.521948e-07	3.157107e-10	5.477041e+00	1.908170e+01
1.290000e-06	8.220688e-07	4.525713e-10	5.985823e+00	2.805088e+01
1.300000e-06	8.917693e-07	5.880150e-10	6.493341e+00	3.699406e+01
1.310000e-06	9.612798e-07	7.244972e-10	6.999476e+00	4.587036e+01
1.320000e-06	1.030631e-06	8.597363e-10	7.504450e+00	5.463995e+01
1.330000e-06	1.099828e-06	9.940376e-10	8.008301e+00	6.326496e+01
1.340000e-06	1.168820e-06	1.121324e-09	8.510663e+00	7.171030e+01
1.350000e-06	1.237548e-06	1.246430e-09	9.011095e+00	7.994436e+01
1.360000e-06	1.306026e-06	1.369171e-09	9.509712e+00	8.793962e+01
1.370000e-06	1.374294e-06	1.485466e-09	1.000681e+01	9.567309e+01
1.380000e-06	1.442350e-06	1.594980e-09	1.050234e+01	1.031265e+02
1.390000e-06	1.510231e-06	1.699731e-09	1.099662e+01	1.102867e+02
1.400000e-06	1.577992e-06	1.804018e-09	1.149001e+01	1.171450e+02
1.410000e-06	1.645607e-06	1.905679e-09	1.198234e+01	1.236978e+02
1.420000e-06	1.713039e-06	1.999361e-09	1.247334e+01	1.299454e+02
1.430000e-06	1.780237e-06	2.086425e-09	1.296264e+01	1.358921e+02
1.440000e-06	1.847102e-06	2.171394e-09	1.344951e+01	1.415455e+02
1.450000e-06	1.913579e-06	2.255891e-09	1.393356e+01	1.469158e+02
1.460000e-06	1.979595e-06	2.334572e-09	1.441425e+01	1.520154e+02
1.470000e-06	2.044995e-06	2.405183e-09	1.489045e+01	1.568580e+02
1.480000e-06	2.109752e-06	2.473405e-09	1.536197e+01	1.614581e+02
1.490000e-06	2.173998e-06	2.540370e-09	1.582978e+01	1.658306e+02
1.500000e-06	2.237920e-06	2.604074e-09	1.629522e+01	1.699904e+02
1.510000e-06	2.301626e-06	2.661767e-09	1.675909e+01	1.739515e+02
1.520000e-06	2.365083e-06	2.717089e-09	1.722115e+01	1.777273e+02
1.530000e-06	2.428200e-06	2.771906e-09	1.768073e+01	1.813304e+02
1.540000e-06	2.490877e-06	2.823953e-09	1.813710e+01	1.847720e+02
1.550000e-06	2.553055e-06	2.873019e-09	1.858985e+01	1.880624e+02
1.560000e-06	2.614814e-06	2.918133e-09	1.903954e+01	1.912107e+02
1.570000e-06	2.676230e-06	2.961373e-09	1.948673e+01	1.942252e+02
1.580000e-06	2.737196e-06	3.002422e-09	1.993066e+01	1.971132e+02
1.590000e-06	2.797575e-06	3.041147e-09	2.037030e+01	1.998815e+02
1.600000e-06	2.857486e-06	3.079903e-09	2.080654e+01	2.025362e+02
1.610000e-06	2.917108e-06	3.116015e-09	2.124067e+01	2.050834e+02
1.620000e-06	2.976403e-06	3.151060e-09	2.167242e+01	2.075284e+02
1.630000e-06	3.035114e-06	3.184821e-09	2.209992e+01	2.098767e+02
1.640000e-06	3.092909e-06	3.216453e-09	2.252075e+01	2.121335e+02
1.650000e-06	3.149750e-06	3.248117e-09	2.293463e+01	2.143040e+02
1.660000e-06	3.205886e-06	3.278197e-09	2.334338e+01	2.163931e+02
1.670000e-06	3.261619e-06	3.307222e-09	2.374920e+01	2.184057e+02
1.680000e-06	3.316974e-06	3.335269e-09	2.415226e+01	2.203462e+02
1.690000e-06	3.371759e-06	3.363456e-09	2.455117e+01	2.222190e+02
1.700000e-06	3.425949e-06	3.391816e-09	2.494575e+01	2.240278e+02
1.710000e-06	3.479644e-06	3.416776e-09	2.533673e+01	2.257763e+02
1.720000e-06	3.532882e-06	3.439949e-09	2.572437e+01	2.274672e+02
1.730000e-06	3.585439e-06	3.464178e-09	2.610706e+01	2.291032e+02
1.740000e-06	3.637233e-06	3.487659e-09	2.648420e+01	2.306862e+02
1.750000e-06	3.688299e-06	3.509543e-09	2.685603e+01	2.322179e+02
1.760000e-06	3.738410e-06	3.530483e-09	2.722091e+01	2.336995e+02
1.770000e-06	3.787450e-06	3.551514e-09	2.757799e+01	2.351318e+02
1.780000e-06	3.835696e-06	3.571285e-09	2.792929e+01	2.365157e+02
1.790000e-06	3.883419e-06	3.589395e-09	2.827678e+01	2.378517e+02
1.800000e-06	3.930524e-06	3.607693e-09	2.861977e+01	2.391405e+02
1.810000e-06	3.976953e-06	3.626394e-09	2.895783e+01	2.403827e+02
1.820000e-06	4.022775e-06	3.644910e-09	2.929148e+01	2.415793e+02
1.830000e-06	4.067911e-06	3.661362e-09	2.962014e+01	2.427313e+02
1.840000e-06	4.112293e-06	3.677489e-09	2.994331e+01	2.438401e+02
1.850000e-06	4.156110e-06	3.694917e-09	3.026236e+01	2.449072e+02
1.860000e-06	4.199474e-06	3.711903e-09	3.057811e+01	2.459343e+02
1.870000e-06	4.242112e-06	3.727344e-09	3.088857e+01	2.469235e+02
1.880000e-06	4.283553e-06	3.741549e-09	3.119032e+01	2.478768e+02
1.890000e-06	4.323899e-06	3.757132e-09	3.148410e+01	2.487963e+02
1.900000e-06	4.363628e-06	3.771891e-09	3.177338e+01	2.496840e+02
1.910000e-06	4.402769e-06	3.783278e-09	3.205838e+01	2.505419e+02
1.920000e-06	4.441149e-06	3.794420e-09	3.233784e+01	2.513716e+02
1.930000e-06	4.478749e-06	3.806194e-09	3.261162e+01	2.521747e+02
1.940000e-06	4.515471e-06	3.819544e-09	3.287901e+01	2.529524e+02
1.950000e-06	4.551458e-06	3.832317e-09	3.314105e+01	2.537055e+02
1.960000e-06	4.586971e-06	3.842932e-09	3.339963e+01	2.544346e+02
1.970000e-06	4.621744e-06	3.854020e-09	3.365283e+01	2.551400e+02
1.980000e-06	4.655317e-06	3.864852e-09	3.389728e+01	2.558220e+02
1.990000e-06	4.687722e-06	3.875990e-09	3.413324e+01	2.564804e+02
2.000000e-06	4.719383e-06	3.886709e-09	3.436378e+01	2.571151e+02
2.010000e-06	4.750397e-06	3.897731e-09	3.458960e+01	2.577261e+02
2.020000e-06	4.780611e-06	3.908111e-09	3.480961e+01	2.583132e+02
2.030000e-06	4.810019e-06	3.917374e-09	3.502374e+01	2.588766e+02
2.040000e-06	4.838594e-06	3.926705e-09	3.523180e+01	2.594164e+02
2.050000e-06	4.866482e-06	3.934824e-09	3.543487e+01	2.599331e+02
2.060000e-06	4.893746e-06	3.944582e-09	3.563339e+01	2.604273e+02
2.070000e-06	4.920005e-06	3.953485e-09	3.582459e+01	2.608998e+02
2.080000e-06	4.945064e-06	3.960689e-09	3.600705e+01	2.613514e+02
2.090000e-06	4.969106e-06	3.968732e-09	3.618212e+01	2.617832e+02
2.100000e-06	4.992348e-06	3.977272e-09	3.635135e+01	2.621963e+02
2.110000e-06	5.014792e-06	3.985820e-09	3.651477e+01	2.625916e+02
2.120000e-06	5.036408e-06	3.992495e-09	3.667217e+01	2.629700e+02
2.130000e-06	5.057158e-06	3.996967e-09	3.682325e+01	2.633323e+02
2.140000e-06	5.077129e-06	4.001080e-09	3.696868e+01	2.636790e+02
2.150000e-06	5.096499e-06	4.006984e-09	3.710971e+01	2.640105e+02
2.160000e-06	5.115061e-06	4.013404e-09	3.724487e+01	2.643267e+02
2.170000e-06	5.132557e-06	4.019054e-09	3.737227e+01	2.646275e+02
2.180000e-06	5.149156e-06	4.023841e-09	3.749313e+01	2.649125e+02
2.190000e-06	5.164918e-06	4.028124e-09	3.760790e+01	2.651813e+02
2.200000e-06	5.179608e-06	4.034941e-09	3.771487e+01	2.654331e+02
2.210000e-06	5.193289e-06	4.041914e-09	3.781449e+01	2.656673e+02
2.220000e-06	5.206066e-06	4.047679e-09	3.790752e+01	2.658834e+02
2.230000e-06	5.217939e-06	4.052979e-09	3.799397e+01	2.660808e+02
2.240000e-06	5.228788e-06	4.056593e-09	3.807297e+01	2.662591e+02
2.250000e-06	5.238363e-06	4.059472e-09	3.814269e+01	2.664183e+02
2.260000e-06	5.246711e-06	4.061173e-09	3.820347e+01	2.665585e+02
2.270000e-06	5.254175e-06	4.062435e-09	3.825782e+01	2.666801e+02
2.280000e-06	5.260859e-06	4.065173e-09	3.830649e+01	2.667835e+02
2.290000e-06	5.266602e-06	4.069326e-09	3.834831e+01	2.668697e+02
2.300000e-06	5.271363e-06	4.073043e-09	3.838297e+01	2.669395e+02
2.310000e-06	5.275351e-06	4.077303e-09	3.841201e+01	2.669938e+02
2.320000e-06	5.278699e-06	4.081513e-09	3.843639e+01	2.670335e+02
2.330000e-06	5.281004e-06	4.082251e-09	3.845317e+01	2.670596e+02
2.340000e-06	5.281942e-06	4.083158e-09	3.846000e+01	2.670726e+02
2.350000e-06	5.281872e-06	4.084521e-09	3.845949e+01	2.670730e+02
2.360000e-06	5.281101e-06	4.085463e-09	3.845388e+01	2.670610e+02
2.370000e-06	5.279485e-06	4.082091e-09	3.844211e+01	2.670364e+02
2.380000e-06	5.276956e-06	4.077042e-09	3.842370e+01	2.669989e+02
2.390000e-06	5.273640e-06	4.077337e-09	3.839955e+01	2.669479e+02
2.400000e-06	5.269656e-06	4.079134e-09	3.837054e+01	2.668824e+02
2.410000e-06	5.264955e-06	4.080961e-09	3.833632e+01	2.668015e+02
2.420000e-06	5.259282e-06	4.087777e-09	3.829501e+01	2.667041e+02
2.430000e-06	5.252433e-06	4.107554e-09	3.824513e+01	2.665893e+02
2.440000e-06	5.244552e-06	4.056886e-09	3.818775e+01	2.664562e+02
2.450000e-06	5.235702e-06	3.968016e-09	3.812331e+01	2.663041e+02
2.460000e-06	5.225533e-06	3.960505e-09	3.804926e+01	2.661326e+02
2.470000e-06	5.214105e-06	4.133870e-09	3.796605e+01	2.659416e+02
2.480000e-06	5.202302e-06	4.243722e-09	3.788011e+01	2.657315e+02
2.490000e-06	5.190396e-06	4.034274e-09	3.779342e+01	2.655028e+02
2.500000e-06	5.177122e-06	3.908762e-09	3.769677e+01	2.652565e+02
2.510000e-06	5.161979e-06	4.107647e-09	3.758650e+01	2.649937e+02
2.520000e-06	5.146151e-06	4.049295e-09	3.747125e+01	2.647157e+02
2.530000e-06	5.129874e-06	4.067795e-09	3.735273e+01	2.644240e+02
2.540000e-06	5.112360e-06	4.182504e-09	3.722521e+01	2.641201e+02
2.550000e-06	5.093968e-06	3.857789e-09	3.709128e+01	2.638050e+02
2.560000e-06	5.075216e-06	3.881549e-09	3.695474e+01	2.634798e+02
2.570000e-06	5.055643e-06	4.196140e-09	3.681223e+01	2.631452e+02
2.580000e-06	5.035110e-06	3.988493e-09	3.666272e+01	2.628015e+02
2.590000e-06	5.013574e-06	3.767543e-09	3.650590e+01	2.624484e+02
2.600000e-06	4.990763e-06	4.101928e-09	3.633980e+01	2.620853e+02
2.610000e-06	4.966906e-06	4.095861e-09	3.616609e+01	2.617111e+02
2.620000e-06	4.942145e-06	3.878919e-09	3.598580e+01	2.613244e+02
2.630000e-06	4.916492e-06	3.974202e-09	3.579901e+01	2.609234e+02
2.640000e-06	4.890268e-06	3.916075e-09	3.560806e+01	2.605060e+02
2.650000e-06	4.863283e-06	3.967984e-09	3.541157e+01	2.600703e+02
2.660000e-06	4.835364e-06	4.034310e-09	3.520829e+01	2.596139e+02
2.670000e-06	4.806858e-06	3.893225e-09	3.500072e+01	2.591351e+02
2.680000e-06	4.777244e-06	3.937990e-09	3.478509e+01	2.586321e+02
2.690000e-06	4.746157e-06	3.897026e-09	3.455873e+01	2.581036e+02
2.700000e-06	4.714272e-06	3.896441e-09	3.432656e+01	2.575484e+02
2.710000e-06	4.681810e-06	4.061394e-09	3.409019e+01	2.569662e+02
2.720000e-06	4.648433e-06	3.866491e-09	3.384716e+01	2.563569e+02
2.730000e-06	4.614187e-06	3.742927e-09	3.359781e+01	2.557209e+02
2.740000e-06	4.579309e-06	3.954391e-09	3.334384e+01	2.550589e+02
2.750000e-06	4.543748e-06	3.982081e-09	3.308491e+01	2.543720e+02
2.760000e-06	4.507472e-06	3.824966e-09	3.282077e+01	2.536617e+02
2.770000e-06	4.470513e-06	3.745752e-09	3.255165e+01	2.529292e+02
2.780000e-06	4.432621e-06	3.860217e-09	3.227574e+01	2.521762e+02
2.790000e-06	4.393478e-06	3.910322e-09	3.199073e+01	2.514039e+02
2.800000e-06	4.353377e-06	3.785319e-09	3.169874e+01	2.506134e+02
2.810000e-06	4.312767e-06	3.769760e-09	3.140304e+01	2.498058e+02
2.820000e-06	4.271621e-06	3.784819e-09	3.110344e+01	2.489815e+02
2.830000e-06	4.229729e-06	3.786367e-09	3.079841e+01	2.481406e+02
2.840000e-06	4.187091e-06	3.784446e-09	3.048794e+01	2.472830e+02
2.850000e-06	4.143789e-06	3.744475e-09	3.017264e+01	2.464079e+02
2.860000e-06	4.099863e-06	3.738966e-09	2.985280e+01	2.455145e+02
2.870000e-06	4.055453e-06	3.708347e-09	2.952943e+01	2.446016e+02
2.880000e-06	4.010535e-06	3.721163e-09	2.920237e+01	2.436676e+02
2.890000e-06	3.964851e-06	3.740235e-09	2.886972e+01	2.427110e+02
2.900000e-06	3.918248e-06	3.661399e-09	2.853038e+01	2.417301e+02
2.910000e-06	3.870964e-06	3.637336e-09	2.818609e+01	2.407234e+02
2.920000e-06	3.823206e-06	3.674297e-09	2.783835e+01	2.396894e+02
2.930000e-06	3.774649e-06	3.673007e-09	2.748478e+01	2.386266e+02
2.940000e-06	3.725138e-06	3.603597e-09	2.712427e+01	2.375337e+02
2.950000e-06	3.674980e-06	3.576662e-09	2.675905e+01	2.364098e+02
