# Temperatura_=_20.0
# Concentracion g/m^3_=_9000.0
# C_Vs_to_Am_M_A/Vsm_=_65563218390.804596
# pendiente_HvsI_1/m_=_3716.3
# ordenada_HvsI_A/m_=_1297.0
# frecuencia_Hz_=_301075.11982827005

Tiempo_(s)	Campo_(V.s)	Magnetizacion_(V.s)	Campo_(kA/m)	Magnetizacion_(A/m)
0.000000e+00	-6.677000e-06	-5.378173e-09	-5.670348e+01	-3.517993e+02
1.000000e-08	-6.673622e-06	-5.380233e-09	-5.667480e+01	-3.516687e+02
2.000000e-08	-6.668120e-06	-5.380236e-09	-5.662807e+01	-3.515055e+02
3.000000e-08	-6.660571e-06	-5.379044e-09	-5.656396e+01	-3.513131e+02
4.000000e-08	-6.650757e-06	-5.373075e-09	-5.648061e+01	-3.510954e+02
5.000000e-08	-6.638404e-06	-5.367168e-09	-5.637571e+01	-3.508560e+02
6.000000e-08	-6.623544e-06	-5.355435e-09	-5.624951e+01	-3.505985e+02
7.000000e-08	-6.606418e-06	-5.337518e-09	-5.610408e+01	-3.503259e+02
8.000000e-08	-6.587210e-06	-5.378593e-09	-5.594095e+01	-3.500405e+02
9.000000e-08	-6.565661e-06	-5.422878e-09	-5.575795e+01	-3.497439e+02
1.000000e-07	-6.541416e-06	-5.385215e-09	-5.555205e+01	-3.494363e+02
1.100000e-07	-6.514546e-06	-5.342082e-09	-5.532387e+01	-3.491171e+02
1.200000e-07	-6.485422e-06	-5.328420e-09	-5.507653e+01	-3.487838e+02
1.300000e-07	-6.454434e-06	-5.273960e-09	-5.481337e+01	-3.484331e+02
1.400000e-07	-6.421717e-06	-5.276046e-09	-5.453553e+01	-3.480598e+02
1.500000e-07	-6.387001e-06	-5.399881e-09	-5.424071e+01	-3.476580e+02
1.600000e-07	-6.350135e-06	-5.275720e-09	-5.392763e+01	-3.472210e+02
1.700000e-07	-6.311264e-06	-5.246711e-09	-5.359752e+01	-3.467415e+02
1.800000e-07	-6.270059e-06	-5.324418e-09	-5.324759e+01	-3.462127e+02
1.900000e-07	-6.226348e-06	-5.227249e-09	-5.287638e+01	-3.456284e+02
2.000000e-07	-6.180441e-06	-5.285084e-09	-5.248652e+01	-3.449840e+02
2.100000e-07	-6.132153e-06	-5.270147e-09	-5.207645e+01	-3.442762e+02
2.200000e-07	-6.081248e-06	-5.214905e-09	-5.164414e+01	-3.435038e+02
2.300000e-07	-6.027845e-06	-5.235976e-09	-5.119062e+01	-3.426678e+02
2.400000e-07	-5.972162e-06	-5.209797e-09	-5.071774e+01	-3.417705e+02
2.500000e-07	-5.914325e-06	-5.221987e-09	-5.022657e+01	-3.408159e+02
2.600000e-07	-5.854352e-06	-5.196515e-09	-4.971726e+01	-3.398087e+02
2.700000e-07	-5.792278e-06	-5.148858e-09	-4.919010e+01	-3.387535e+02
2.800000e-07	-5.728212e-06	-5.138845e-09	-4.864603e+01	-3.376546e+02
2.900000e-07	-5.662112e-06	-5.147561e-09	-4.808469e+01	-3.365149e+02
3.000000e-07	-5.593839e-06	-5.142046e-09	-4.750489e+01	-3.353357e+02
3.100000e-07	-5.523497e-06	-5.073968e-09	-4.690752e+01	-3.341165e+02
3.200000e-07	-5.451280e-06	-5.093475e-09	-4.629423e+01	-3.328554e+02
3.300000e-07	-5.376960e-06	-5.075479e-09	-4.566308e+01	-3.315487e+02
3.400000e-07	-5.300365e-06	-5.022743e-09	-4.501260e+01	-3.301922e+02
3.500000e-07	-5.221586e-06	-5.033334e-09	-4.434358e+01	-3.287817e+02
3.600000e-07	-5.140762e-06	-5.005057e-09	-4.365720e+01	-3.273132e+02
3.700000e-07	-5.058161e-06	-4.962169e-09	-4.295572e+01	-3.257842e+02
3.800000e-07	-4.973906e-06	-4.927837e-09	-4.224020e+01	-3.241933e+02
3.900000e-07	-4.888122e-06	-4.934445e-09	-4.151168e+01	-3.225412e+02
4.000000e-07	-4.800783e-06	-4.904202e-09	-4.076998e+01	-3.208295e+02
4.100000e-07	-4.711701e-06	-4.858960e-09	-4.001346e+01	-3.190608e+02
4.200000e-07	-4.620768e-06	-4.845159e-09	-3.924122e+01	-3.172379e+02
4.300000e-07	-4.528114e-06	-4.827315e-09	-3.845437e+01	-3.153628e+02
4.400000e-07	-4.433895e-06	-4.796819e-09	-3.765422e+01	-3.134360e+02
4.500000e-07	-4.338102e-06	-4.755426e-09	-3.684072e+01	-3.114557e+02
4.600000e-07	-4.240750e-06	-4.733802e-09	-3.601397e+01	-3.094176e+02
4.700000e-07	-4.141794e-06	-4.696082e-09	-3.517361e+01	-3.073146e+02
4.800000e-07	-4.041363e-06	-4.649162e-09	-3.432071e+01	-3.051373e+02
4.900000e-07	-3.939538e-06	-4.619619e-09	-3.345597e+01	-3.028748e+02
5.000000e-07	-3.836207e-06	-4.595283e-09	-3.257845e+01	-3.005152e+02
5.100000e-07	-3.731530e-06	-4.549314e-09	-3.168949e+01	-2.980471e+02
5.200000e-07	-3.625554e-06	-4.501587e-09	-3.078951e+01	-2.954603e+02
5.300000e-07	-3.518094e-06	-4.474714e-09	-2.987692e+01	-2.927468e+02
5.400000e-07	-3.409363e-06	-4.437109e-09	-2.895354e+01	-2.899013e+02
5.500000e-07	-3.299589e-06	-4.383513e-09	-2.802129e+01	-2.869209e+02
5.600000e-07	-3.188635e-06	-4.333828e-09	-2.707904e+01	-2.838049e+02
5.700000e-07	-3.076425e-06	-4.287707e-09	-2.612611e+01	-2.805540e+02
5.800000e-07	-2.963051e-06	-4.228497e-09	-2.516329e+01	-2.771690e+02
5.900000e-07	-2.848520e-06	-4.173124e-09	-2.419065e+01	-2.736491e+02
6.000000e-07	-2.732787e-06	-4.123933e-09	-2.320781e+01	-2.699914e+02
6.100000e-07	-2.615980e-06	-4.067711e-09	-2.221584e+01	-2.661891e+02
6.200000e-07	-2.498243e-06	-4.001823e-09	-2.121598e+01	-2.622310e+02
6.300000e-07	-2.379591e-06	-3.939114e-09	-2.020834e+01	-2.581016e+02
6.400000e-07	-2.260063e-06	-3.878037e-09	-1.919326e+01	-2.537810e+02
6.500000e-07	-2.139812e-06	-3.805919e-09	-1.817205e+01	-2.492459e+02
6.600000e-07	-2.018875e-06	-3.727886e-09	-1.714501e+01	-2.444704e+02
6.700000e-07	-1.897145e-06	-3.650793e-09	-1.611123e+01	-2.394273e+02
6.800000e-07	-1.774615e-06	-3.570474e-09	-1.507067e+01	-2.340889e+02
6.900000e-07	-1.651330e-06	-3.479992e-09	-1.402369e+01	-2.284272e+02
7.000000e-07	-1.527370e-06	-3.388671e-09	-1.297097e+01	-2.224146e+02
7.100000e-07	-1.402954e-06	-3.294686e-09	-1.191439e+01	-2.160223e+02
7.200000e-07	-1.278216e-06	-3.191436e-09	-1.085507e+01	-2.092197e+02
7.300000e-07	-1.153108e-06	-3.078761e-09	-9.792611e+00	-2.019724e+02
7.400000e-07	-1.027584e-06	-2.961375e-09	-8.726616e+00	-1.942402e+02
7.500000e-07	-9.016591e-07	-2.835080e-09	-7.657213e+00	-1.859755e+02
7.600000e-07	-7.753601e-07	-2.693552e-09	-6.584637e+00	-1.771223e+02
7.700000e-07	-6.487558e-07	-2.544419e-09	-5.509467e+00	-1.676164e+02
7.800000e-07	-5.219033e-07	-2.388026e-09	-4.432190e+00	-1.573861e+02
7.900000e-07	-3.948350e-07	-2.217979e-09	-3.353081e+00	-1.463558e+02
8.000000e-07	-2.676516e-07	-2.033932e-09	-2.272993e+00	-1.344503e+02
8.100000e-07	-1.403872e-07	-1.839263e-09	-1.192218e+00	-1.216005e+02
8.200000e-07	-1.305940e-08	-1.628842e-09	-1.109051e-01	-1.077506e+02
8.300000e-07	1.142702e-07	-1.400065e-09	9.704232e-01	-9.286560e+01
8.400000e-07	2.415498e-07	-1.155982e-09	2.051328e+00	-7.693800e+01
8.500000e-07	3.687134e-07	-8.986769e-10	3.131246e+00	-5.999453e+01
8.600000e-07	4.957678e-07	-6.257156e-10	4.210238e+00	-4.210038e+01
8.700000e-07	6.226632e-07	-3.378113e-10	5.287880e+00	-2.336140e+01
8.800000e-07	7.493335e-07	-4.011559e-11	6.363609e+00	-3.923509e+00
8.900000e-07	8.757602e-07	2.642811e-10	7.437270e+00	1.603090e+01
9.000000e-07	1.001853e-06	5.743481e-10	8.508092e+00	3.628941e+01
9.100000e-07	1.127532e-06	8.872949e-10	9.575408e+00	5.661854e+01
9.200000e-07	1.252779e-06	1.195278e-09	1.063905e+01	7.677462e+01
9.300000e-07	1.377632e-06	1.496474e-09	1.169935e+01	9.651568e+01
9.400000e-07	1.502154e-06	1.787819e-09	1.275683e+01	1.156135e+02
9.500000e-07	1.626324e-06	2.062820e-09	1.381133e+01	1.338647e+02
9.600000e-07	1.749989e-06	2.321347e-09	1.486153e+01	1.511003e+02
9.700000e-07	1.872935e-06	2.566623e-09	1.590563e+01	1.671927e+02
9.800000e-07	1.994995e-06	2.793885e-09	1.694221e+01	1.820593e+02
9.900000e-07	2.116222e-06	2.996547e-09	1.797172e+01	1.956638e+02
1.000000e-06	2.236749e-06	3.181237e-09	1.899528e+01	2.080135e+02
1.010000e-06	2.356564e-06	3.350223e-09	2.001279e+01	2.191543e+02
1.020000e-06	2.475590e-06	3.502576e-09	2.102360e+01	2.291638e+02
1.030000e-06	2.593694e-06	3.636957e-09	2.202658e+01	2.381422e+02
1.040000e-06	2.710802e-06	3.758385e-09	2.302111e+01	2.462036e+02
1.050000e-06	2.826900e-06	3.869847e-09	2.400705e+01	2.534670e+02
1.060000e-06	2.941779e-06	3.971948e-09	2.498264e+01	2.600481e+02
1.070000e-06	3.055333e-06	4.067352e-09	2.594698e+01	2.660534e+02
1.080000e-06	3.167725e-06	4.153755e-09	2.690146e+01	2.715756e+02
1.090000e-06	3.279042e-06	4.231918e-09	2.784681e+01	2.766910e+02
1.100000e-06	3.389187e-06	4.302995e-09	2.878219e+01	2.814592e+02
1.110000e-06	3.498188e-06	4.369698e-09	2.970787e+01	2.859240e+02
1.120000e-06	3.606146e-06	4.431825e-09	3.062469e+01	2.901163e+02
1.130000e-06	3.712821e-06	4.489486e-09	3.153061e+01	2.940565e+02
1.140000e-06	3.818031e-06	4.543200e-09	3.242409e+01	2.977584e+02
1.150000e-06	3.921859e-06	4.593909e-09	3.330584e+01	3.012322e+02
1.160000e-06	4.024304e-06	4.641146e-09	3.417584e+01	3.044870e+02
1.170000e-06	4.125379e-06	4.684413e-09	3.503420e+01	3.075328e+02
1.180000e-06	4.225059e-06	4.725913e-09	3.588072e+01	3.103815e+02
1.190000e-06	4.323129e-06	4.767366e-09	3.671357e+01	3.130469e+02
1.200000e-06	4.419522e-06	4.805750e-09	3.753217e+01	3.155443e+02
1.210000e-06	4.514311e-06	4.839337e-09	3.833715e+01	3.178900e+02
1.220000e-06	4.607560e-06	4.869423e-09	3.912906e+01	3.200995e+02
1.230000e-06	4.699332e-06	4.898532e-09	3.990841e+01	3.221872e+02
1.240000e-06	4.789436e-06	4.925904e-09	4.067361e+01	3.241651e+02
1.250000e-06	4.877699e-06	4.950571e-09	4.142317e+01	3.260426e+02
1.260000e-06	4.964152e-06	4.976140e-09	4.215736e+01	3.278263e+02
1.270000e-06	5.048965e-06	5.002978e-09	4.287763e+01	3.295207e+02
1.280000e-06	5.132192e-06	5.027468e-09	4.358442e+01	3.311282e+02
1.290000e-06	5.213567e-06	5.048166e-09	4.427549e+01	3.326506e+02
1.300000e-06	5.293004e-06	5.067937e-09	4.495009e+01	3.340894e+02
1.310000e-06	5.370614e-06	5.088955e-09	4.560919e+01	3.354467e+02
1.320000e-06	5.446280e-06	5.108670e-09	4.625176e+01	3.367254e+02
1.330000e-06	5.519776e-06	5.124835e-09	4.687592e+01	3.379295e+02
1.340000e-06	5.591168e-06	5.139817e-09	4.748221e+01	3.390643e+02
1.350000e-06	5.660637e-06	5.154535e-09	4.807216e+01	3.401355e+02
1.360000e-06	5.728164e-06	5.170626e-09	4.864562e+01	3.411491e+02
1.370000e-06	5.793555e-06	5.187356e-09	4.920095e+01	3.421107e+02
1.380000e-06	5.856820e-06	5.203087e-09	4.973821e+01	3.430252e+02
1.390000e-06	5.918171e-06	5.217465e-09	5.025923e+01	3.438962e+02
1.400000e-06	5.977608e-06	5.231435e-09	5.076399e+01	3.447260e+02
1.410000e-06	6.034886e-06	5.245620e-09	5.125042e+01	3.455157e+02
1.420000e-06	6.089935e-06	5.257126e-09	5.171792e+01	3.462653e+02
1.430000e-06	6.142731e-06	5.265641e-09	5.216628e+01	3.469741e+02
1.440000e-06	6.192949e-06	5.273938e-09	5.259274e+01	3.476414e+02
1.450000e-06	6.240621e-06	5.284684e-09	5.299759e+01	3.482667e+02
1.460000e-06	6.286110e-06	5.296481e-09	5.338390e+01	3.488500e+02
1.470000e-06	6.329515e-06	5.306995e-09	5.375252e+01	3.493922e+02
1.480000e-06	6.370587e-06	5.316520e-09	5.410131e+01	3.498952e+02
1.490000e-06	6.409311e-06	5.325762e-09	5.443017e+01	3.503616e+02
1.500000e-06	6.445982e-06	5.334300e-09	5.474160e+01	3.507943e+02
1.510000e-06	6.480445e-06	5.341502e-09	5.503427e+01	3.511966e+02
1.520000e-06	6.512530e-06	5.346478e-09	5.530674e+01	3.515712e+02
1.530000e-06	6.542364e-06	5.350962e-09	5.556010e+01	3.519203e+02
1.540000e-06	6.570026e-06	5.355718e-09	5.579502e+01	3.522451e+02
1.550000e-06	6.595308e-06	5.360685e-09	5.600972e+01	3.525456e+02
1.560000e-06	6.618124e-06	5.366144e-09	5.620348e+01	3.528209e+02
1.570000e-06	6.638726e-06	5.370864e-09	5.637844e+01	3.530688e+02
1.580000e-06	6.657189e-06	5.375527e-09	5.653524e+01	3.532868e+02
1.590000e-06	6.673206e-06	5.380304e-09	5.667126e+01	3.534719e+02
1.600000e-06	6.686688e-06	5.384997e-09	5.678576e+01	3.536210e+02
1.610000e-06	6.697580e-06	5.388027e-09	5.687825e+01	3.537315e+02
1.620000e-06	6.705821e-06	5.389212e-09	5.694824e+01	3.538015e+02
1.630000e-06	6.711729e-06	5.389605e-09	5.699841e+01	3.538300e+02
1.640000e-06	6.715454e-06	5.389557e-09	5.703005e+01	3.538169e+02
1.650000e-06	6.716803e-06	5.392824e-09	5.704150e+01	3.537632e+02
1.660000e-06	6.715750e-06	5.388715e-09	5.703256e+01	3.536707e+02
1.670000e-06	6.712565e-06	5.384316e-09	5.700551e+01	3.535421e+02
1.680000e-06	6.707189e-06	5.383441e-09	5.695986e+01	3.533805e+02
1.690000e-06	6.699476e-06	5.382576e-09	5.689436e+01	3.531895e+02
1.700000e-06	6.689612e-06	5.383009e-09	5.681058e+01	3.529729e+02
1.710000e-06	6.677640e-06	5.382236e-09	5.670892e+01	3.527344e+02
1.720000e-06	6.663283e-06	5.393156e-09	5.658699e+01	3.524775e+02
1.730000e-06	6.646698e-06	5.379437e-09	5.644614e+01	3.522053e+02
1.740000e-06	6.628024e-06	5.284742e-09	5.628756e+01	3.519202e+02
1.750000e-06	6.606561e-06	5.284507e-09	5.610529e+01	3.516238e+02
1.760000e-06	6.581830e-06	5.321475e-09	5.589527e+01	3.513165e+02
1.770000e-06	6.554470e-06	5.324480e-09	5.566291e+01	3.509975e+02
1.780000e-06	6.525116e-06	5.415851e-09	5.541363e+01	3.506648e+02
1.790000e-06	6.493913e-06	5.416656e-09	5.514864e+01	3.503149e+02
1.800000e-06	6.461153e-06	5.246435e-09	5.487043e+01	3.499428e+02
1.810000e-06	6.426455e-06	5.365587e-09	5.457576e+01	3.495427e+02
1.820000e-06	6.389338e-06	5.361355e-09	5.426056e+01	3.491078e+02
1.830000e-06	6.350043e-06	5.291189e-09	5.392684e+01	3.486310e+02
1.840000e-06	6.308530e-06	5.434597e-09	5.357430e+01	3.481054e+02
1.850000e-06	6.264873e-06	5.249048e-09	5.320355e+01	3.475248e+02
1.860000e-06	6.219107e-06	5.274046e-09	5.281489e+01	3.468842e+02
1.870000e-06	6.170934e-06	5.345635e-09	5.240579e+01	3.461804e+02
1.880000e-06	6.120551e-06	5.251649e-09	5.197792e+01	3.454121e+02
1.890000e-06	6.067783e-06	5.317142e-09	5.152980e+01	3.445799e+02
1.900000e-06	6.012432e-06	5.209951e-09	5.105973e+01	3.436863e+02
1.910000e-06	5.954868e-06	5.232246e-09	5.057088e+01	3.427351e+02
1.920000e-06	5.895315e-06	5.274102e-09	5.006513e+01	3.417309e+02
1.930000e-06	5.833727e-06	5.183092e-09	4.954210e+01	3.406784e+02
1.940000e-06	5.769864e-06	5.220629e-09	4.899976e+01	3.395820e+02
1.950000e-06	5.703863e-06	5.140021e-09	4.843926e+01	3.384445e+02
1.960000e-06	5.635800e-06	5.178272e-09	4.786124e+01	3.372676e+02
1.970000e-06	5.565496e-06	5.125080e-09	4.726419e+01	3.360508e+02
1.980000e-06	5.493143e-06	5.105738e-09	4.664974e+01	3.347921e+02
1.990000e-06	5.418822e-06	5.136292e-09	4.601858e+01	3.334882e+02
2.000000e-06	5.342420e-06	5.032477e-09	4.536975e+01	3.321349e+02
2.010000e-06	5.263879e-06	5.076995e-09	4.470275e+01	3.307278e+02
2.020000e-06	5.183332e-06	5.032809e-09	4.401871e+01	3.292630e+02
2.030000e-06	5.100991e-06	5.016458e-09	4.331945e+01	3.277378e+02
2.040000e-06	5.016914e-06	4.972353e-09	4.260543e+01	3.261508e+02
2.050000e-06	4.931145e-06	4.945429e-09	4.187706e+01	3.245024e+02
2.060000e-06	4.843499e-06	4.952869e-09	4.113273e+01	3.227943e+02
2.070000e-06	4.754086e-06	4.889120e-09	4.037340e+01	3.210290e+02
2.080000e-06	4.663070e-06	4.885072e-09	3.960047e+01	3.192093e+02
2.090000e-06	4.570442e-06	4.845832e-09	3.881384e+01	3.173374e+02
2.100000e-06	4.476191e-06	4.831292e-09	3.801342e+01	3.154137e+02
2.110000e-06	4.380216e-06	4.785168e-09	3.719837e+01	3.134368e+02
2.120000e-06	4.282765e-06	4.762477e-09	3.637078e+01	3.114024e+02
2.130000e-06	4.183939e-06	4.737854e-09	3.553151e+01	3.093038e+02
2.140000e-06	4.083620e-06	4.682949e-09	3.467957e+01	3.071316e+02
2.150000e-06	3.981780e-06	4.652548e-09	3.381471e+01	3.048750e+02
2.160000e-06	3.878396e-06	4.619371e-09	3.293673e+01	3.025221e+02
2.170000e-06	3.773552e-06	4.590113e-09	3.204636e+01	3.000615e+02
2.180000e-06	3.667419e-06	4.531875e-09	3.114504e+01	2.974829e+02
2.190000e-06	3.560095e-06	4.501958e-09	3.023361e+01	2.947782e+02
2.200000e-06	3.451624e-06	4.466973e-09	2.931243e+01	2.919416e+02
2.210000e-06	3.342010e-06	4.420399e-09	2.838155e+01	2.889703e+02
2.220000e-06	3.231137e-06	4.368775e-09	2.743998e+01	2.858635e+02
2.230000e-06	3.119058e-06	4.324938e-09	2.648816e+01	2.826216e+02
2.240000e-06	3.005771e-06	4.272175e-09	2.552609e+01	2.792456e+02
2.250000e-06	2.891264e-06	4.211362e-09	2.455366e+01	2.757348e+02
2.260000e-06	2.775645e-06	4.160744e-09	2.357177e+01	2.720866e+02
2.270000e-06	2.659018e-06	4.103783e-09	2.258133e+01	2.682943e+02
2.280000e-06	2.541389e-06	4.041420e-09	2.158239e+01	2.643472e+02
2.290000e-06	2.422670e-06	3.974614e-09	2.057418e+01	2.602301e+02
2.300000e-06	2.302861e-06	3.918005e-09	1.955672e+01	2.559234e+02
2.310000e-06	2.182145e-06	3.851680e-09	1.853156e+01	2.514038e+02
2.320000e-06	2.060825e-06	3.775386e-09	1.750126e+01	2.466459e+02
2.330000e-06	1.938975e-06	3.696913e-09	1.646647e+01	2.416222e+02
2.340000e-06	1.816448e-06	3.618281e-09	1.542593e+01	2.363052e+02
2.350000e-06	1.693210e-06	3.529835e-09	1.437935e+01	2.306670e+02
2.360000e-06	1.569365e-06	3.437394e-09	1.332761e+01	2.246797e+02
2.370000e-06	1.444939e-06	3.343195e-09	1.227094e+01	2.183150e+02
2.380000e-06	1.320053e-06	3.240754e-09	1.121036e+01	2.115423e+02
2.390000e-06	1.194785e-06	3.130676e-09	1.014655e+01	2.043274e+02
2.400000e-06	1.069167e-06	3.015055e-09	9.079753e+00	1.966307e+02
2.410000e-06	9.431814e-07	2.896838e-09	8.009835e+00	1.884052e+02
2.420000e-06	8.167782e-07	2.763187e-09	6.936374e+00	1.795956e+02
2.430000e-06	6.901034e-07	2.617420e-09	5.860606e+00	1.701380e+02
2.440000e-06	5.631655e-07	2.462590e-09	4.782604e+00	1.599613e+02
2.450000e-06	4.359772e-07	2.294583e-09	3.702475e+00	1.489902e+02
2.460000e-06	3.086069e-07	2.112285e-09	2.620801e+00	1.371490e+02
2.470000e-06	1.810529e-07	1.918744e-09	1.537566e+00	1.243681e+02
2.480000e-06	5.338358e-08	1.710479e-09	4.533525e-01	1.105906e+02
2.490000e-06	-7.434185e-08	1.482986e-09	-6.313377e-01	9.577953e+01
2.500000e-06	-2.019946e-07	1.242509e-09	-1.715411e+00	7.992538e+01
2.510000e-06	-3.295161e-07	9.913088e-10	-2.798369e+00	6.305221e+01
2.520000e-06	-4.569095e-07	7.246384e-10	-3.880239e+00	4.522237e+01
2.530000e-06	-5.840462e-07	4.383092e-10	-4.959930e+00	2.653879e+01
2.540000e-06	-7.108731e-07	1.406581e-10	-6.036990e+00	7.144598e+00
2.550000e-06	-8.373587e-07	-1.628355e-10	-7.111151e+00	-1.278022e+01
2.560000e-06	-9.634235e-07	-4.711159e-10	-8.181738e+00	-3.302513e+01
2.570000e-06	-1.089090e-06	-7.824134e-10	-9.248943e+00	-5.335782e+01
2.580000e-06	-1.214428e-06	-1.092454e-09	-1.031336e+01	-7.353495e+01
2.590000e-06	-1.339407e-06	-1.394537e-09	-1.137473e+01	-9.331402e+01
2.600000e-06	-1.463932e-06	-1.686536e-09	-1.243224e+01	-1.124654e+02
2.610000e-06	-1.587968e-06	-1.963943e-09	-1.348560e+01	-1.307837e+02
2.620000e-06	-1.711388e-06	-2.226135e-09	-1.453372e+01	-1.480973e+02
2.630000e-06	-1.834083e-06	-2.475165e-09	-1.557569e+01	-1.642751e+02
2.640000e-06	-1.956067e-06	-2.708038e-09	-1.661162e+01	-1.792316e+02
2.650000e-06	-2.077474e-06	-2.920179e-09	-1.764266e+01	-1.929271e+02
2.660000e-06	-2.198316e-06	-3.111114e-09	-1.866889e+01	-2.053659e+02
2.670000e-06	-2.318361e-06	-3.283553e-09	-1.968836e+01	-2.165914e+02
2.680000e-06	-2.437408e-06	-3.439217e-09	-2.069934e+01	-2.266791e+02
2.690000e-06	-2.555360e-06	-3.579232e-09	-2.170103e+01	-2.357281e+02
2.700000e-06	-2.672299e-06	-3.704830e-09	-2.269412e+01	-2.438517e+02
2.710000e-06	-2.788234e-06	-3.817033e-09	-2.367869e+01	-2.511687e+02
2.720000e-06	-2.903007e-06	-3.918516e-09	-2.465338e+01	-2.577954e+02
2.730000e-06	-3.016489e-06	-4.010336e-09	-2.561710e+01	-2.638392e+02
2.740000e-06	-3.128695e-06	-4.093654e-09	-2.657000e+01	-2.693937e+02
2.750000e-06	-3.239692e-06	-4.172607e-09	-2.751263e+01	-2.745366e+02
2.760000e-06	-3.349547e-06	-4.247403e-09	-2.844556e+01	-2.793285e+02
2.770000e-06	-3.458318e-06	-4.317780e-09	-2.936928e+01	-2.838144e+02
2.780000e-06	-3.565997e-06	-4.383065e-09	-3.028373e+01	-2.880259e+02
2.790000e-06	-3.672532e-06	-4.443092e-09	-3.118846e+01	-2.919842e+02
2.800000e-06	-3.777835e-06	-4.499755e-09	-3.208274e+01	-2.957033e+02
2.810000e-06	-3.881721e-06	-4.554999e-09	-3.296497e+01	-2.991937e+02
2.820000e-06	-3.983990e-06	-4.607328e-09	-3.383348e+01	-3.024644e+02
2.830000e-06	-4.084780e-06	-4.654723e-09	-3.468942e+01	-3.055254e+02
2.840000e-06	-4.184220e-06	-4.700602e-09	-3.553390e+01	-3.083883e+02
2.850000e-06	-4.282299e-06	-4.745383e-09	-3.636682e+01	-3.110668e+02
2.860000e-06	-4.378986e-06	-4.786651e-09	-3.718792e+01	-3.135762e+02
2.870000e-06	-4.474021e-06	-4.824606e-09	-3.799499e+01	-3.159328e+02
2.880000e-06	-4.567399e-06	-4.861128e-09	-3.878799e+01	-3.181521e+02
2.890000e-06	-4.659197e-06	-4.896920e-09	-3.956758e+01	-3.202487e+02
2.900000e-06	-4.749346e-06	-4.928985e-09	-4.033315e+01	-3.222347e+02
2.910000e-06	-4.837909e-06	-4.957153e-09	-4.108526e+01	-3.241196e+02
2.920000e-06	-4.924649e-06	-4.983884e-09	-4.182188e+01	-3.259105e+02
2.930000e-06	-5.009534e-06	-5.010675e-09	-4.254276e+01	-3.276116e+02
2.940000e-06	-5.092776e-06	-5.036922e-09	-4.324968e+01	-3.292259e+02
