# Temperatura_=_20.0
# Concentracion g/m^3_=_9000.0
# C_Vs_to_Am_M_A/Vsm_=_65563218390.804596
# pendiente_HvsI_1/m_=_3716.3
# ordenada_HvsI_A/m_=_1297.0
# frecuencia_Hz_=_301073.3846948517

Tiempo_(s)	Campo_(V.s)	Magnetizacion_(V.s)	Campo_(kA/m)	Magnetizacion_(A/m)
0.000000e+00	-6.725575e-06	-5.408666e-09	-5.670321e+01	-3.540218e+02
1.000000e-08	-6.722228e-06	-5.408436e-09	-5.667500e+01	-3.538741e+02
2.000000e-08	-6.716716e-06	-5.404640e-09	-5.662853e+01	-3.536872e+02
3.000000e-08	-6.709153e-06	-5.400575e-09	-5.656476e+01	-3.534661e+02
4.000000e-08	-6.699321e-06	-5.394580e-09	-5.648187e+01	-3.532165e+02
5.000000e-08	-6.686930e-06	-5.389794e-09	-5.637740e+01	-3.529440e+02
6.000000e-08	-6.672042e-06	-5.378423e-09	-5.625189e+01	-3.526542e+02
7.000000e-08	-6.654867e-06	-5.362547e-09	-5.610708e+01	-3.523520e+02
8.000000e-08	-6.635604e-06	-5.408006e-09	-5.594467e+01	-3.520413e+02
9.000000e-08	-6.614008e-06	-5.456242e-09	-5.576260e+01	-3.517248e+02
1.000000e-07	-6.589660e-06	-5.412970e-09	-5.555732e+01	-3.514036e+02
1.100000e-07	-6.562689e-06	-5.364691e-09	-5.532993e+01	-3.510769e+02
1.200000e-07	-6.533418e-06	-5.351345e-09	-5.508315e+01	-3.507423e+02
1.300000e-07	-6.502268e-06	-5.300961e-09	-5.482052e+01	-3.503952e+02
1.400000e-07	-6.469368e-06	-5.289587e-09	-5.454314e+01	-3.500297e+02
1.500000e-07	-6.434422e-06	-5.418838e-09	-5.424851e+01	-3.496384e+02
1.600000e-07	-6.397328e-06	-5.302475e-09	-5.393577e+01	-3.492130e+02
1.700000e-07	-6.358215e-06	-5.266762e-09	-5.360601e+01	-3.487450e+02
1.800000e-07	-6.316852e-06	-5.365882e-09	-5.325728e+01	-3.482264e+02
1.900000e-07	-6.273058e-06	-5.260708e-09	-5.288805e+01	-3.476503e+02
2.000000e-07	-6.227048e-06	-5.301537e-09	-5.250015e+01	-3.470111e+02
2.100000e-07	-6.178514e-06	-5.284896e-09	-5.209095e+01	-3.463058e+02
2.200000e-07	-6.127243e-06	-5.238616e-09	-5.165869e+01	-3.455332e+02
2.300000e-07	-6.073529e-06	-5.271100e-09	-5.120583e+01	-3.446947e+02
2.400000e-07	-6.017534e-06	-5.228297e-09	-5.073374e+01	-3.437935e+02
2.500000e-07	-5.959300e-06	-5.243710e-09	-5.024277e+01	-3.428344e+02
2.600000e-07	-5.898932e-06	-5.227889e-09	-4.973380e+01	-3.418229e+02
2.700000e-07	-5.836520e-06	-5.177417e-09	-4.920761e+01	-3.407646e+02
2.800000e-07	-5.772048e-06	-5.171286e-09	-4.866404e+01	-3.396642e+02
2.900000e-07	-5.705403e-06	-5.180978e-09	-4.810216e+01	-3.385253e+02
3.000000e-07	-5.636581e-06	-5.177765e-09	-4.752193e+01	-3.373493e+02
3.100000e-07	-5.565753e-06	-5.100170e-09	-4.692477e+01	-3.361360e+02
3.200000e-07	-5.493008e-06	-5.122402e-09	-4.631147e+01	-3.348829e+02
3.300000e-07	-5.418091e-06	-5.105635e-09	-4.567984e+01	-3.335861e+02
3.400000e-07	-5.340951e-06	-5.043031e-09	-4.502948e+01	-3.322408e+02
3.500000e-07	-5.261705e-06	-5.054163e-09	-4.436135e+01	-3.308417e+02
3.600000e-07	-5.180382e-06	-5.032618e-09	-4.367572e+01	-3.293844e+02
3.700000e-07	-5.097289e-06	-4.996518e-09	-4.297517e+01	-3.278651e+02
3.800000e-07	-5.012588e-06	-4.956848e-09	-4.226105e+01	-3.262819e+02
3.900000e-07	-4.926261e-06	-4.965413e-09	-4.153323e+01	-3.246342e+02
4.000000e-07	-4.838316e-06	-4.941144e-09	-4.079177e+01	-3.229233e+02
4.100000e-07	-4.748552e-06	-4.894197e-09	-4.003497e+01	-3.211510e+02
4.200000e-07	-4.656936e-06	-4.874852e-09	-3.926256e+01	-3.193198e+02
4.300000e-07	-4.563672e-06	-4.854257e-09	-3.847625e+01	-3.174314e+02
4.400000e-07	-4.468908e-06	-4.823991e-09	-3.767730e+01	-3.154865e+02
4.500000e-07	-4.372553e-06	-4.782022e-09	-3.686493e+01	-3.134835e+02
4.600000e-07	-4.274443e-06	-4.761592e-09	-3.603777e+01	-3.114185e+02
4.700000e-07	-4.174725e-06	-4.724500e-09	-3.519704e+01	-3.092854e+02
4.800000e-07	-4.073518e-06	-4.675726e-09	-3.434377e+01	-3.070755e+02
4.900000e-07	-3.970937e-06	-4.645122e-09	-3.347891e+01	-3.047787e+02
5.000000e-07	-3.867034e-06	-4.623752e-09	-3.260290e+01	-3.023843e+02
5.100000e-07	-3.761569e-06	-4.579528e-09	-3.171373e+01	-2.998816e+02
5.200000e-07	-3.654640e-06	-4.528721e-09	-3.081222e+01	-2.972610e+02
5.300000e-07	-3.546483e-06	-4.497553e-09	-2.990034e+01	-2.945151e+02
5.400000e-07	-3.437123e-06	-4.460570e-09	-2.897833e+01	-2.916385e+02
5.500000e-07	-3.326687e-06	-4.409102e-09	-2.804725e+01	-2.886283e+02
5.600000e-07	-3.215174e-06	-4.358031e-09	-2.710708e+01	-2.854835e+02
5.700000e-07	-3.102274e-06	-4.311994e-09	-2.615523e+01	-2.822039e+02
5.800000e-07	-2.987869e-06	-4.256775e-09	-2.519068e+01	-2.787897e+02
5.900000e-07	-2.872234e-06	-4.201062e-09	-2.421576e+01	-2.752395e+02
6.000000e-07	-2.755555e-06	-4.149294e-09	-2.323204e+01	-2.715498e+02
6.100000e-07	-2.637850e-06	-4.092805e-09	-2.223967e+01	-2.677134e+02
6.200000e-07	-2.519300e-06	-4.026425e-09	-2.124018e+01	-2.637193e+02
6.300000e-07	-2.400051e-06	-3.961937e-09	-2.023480e+01	-2.595525e+02
6.400000e-07	-2.279829e-06	-3.899428e-09	-1.922120e+01	-2.551938e+02
6.500000e-07	-2.158552e-06	-3.829096e-09	-1.819872e+01	-2.506211e+02
6.600000e-07	-2.036420e-06	-3.749520e-09	-1.716902e+01	-2.458100e+02
6.700000e-07	-1.913578e-06	-3.670889e-09	-1.613334e+01	-2.407346e+02
6.800000e-07	-1.790084e-06	-3.592755e-09	-1.509217e+01	-2.353686e+02
6.900000e-07	-1.665971e-06	-3.503666e-09	-1.404578e+01	-2.296852e+02
7.000000e-07	-1.541335e-06	-3.410537e-09	-1.299497e+01	-2.236573e+02
7.100000e-07	-1.416196e-06	-3.313821e-09	-1.193993e+01	-2.172564e+02
7.200000e-07	-1.290534e-06	-3.212868e-09	-1.088047e+01	-2.104517e+02
7.300000e-07	-1.164450e-06	-3.102469e-09	-9.817462e+00	-2.032078e+02
7.400000e-07	-1.038013e-06	-2.985585e-09	-8.751473e+00	-1.954835e+02
7.500000e-07	-9.112326e-07	-2.859425e-09	-7.682588e+00	-1.872299e+02
7.600000e-07	-7.842320e-07	-2.717719e-09	-6.611848e+00	-1.783899e+02
7.700000e-07	-6.570326e-07	-2.567397e-09	-5.539432e+00	-1.688980e+02
7.800000e-07	-5.296339e-07	-2.409662e-09	-4.465335e+00	-1.586824e+02
7.900000e-07	-4.021009e-07	-2.240884e-09	-3.390106e+00	-1.476673e+02
8.000000e-07	-2.744393e-07	-2.056533e-09	-2.313794e+00	-1.357784e+02
8.100000e-07	-1.466523e-07	-1.859396e-09	-1.236423e+00	-1.229479e+02
8.200000e-07	-1.877546e-08	-1.648591e-09	-1.582956e-01	-1.091219e+02
8.300000e-07	1.091482e-07	-1.422560e-09	9.202271e-01	-9.426719e+01
8.400000e-07	2.369648e-07	-1.180527e-09	1.997846e+00	-7.837834e+01
8.500000e-07	3.647017e-07	-9.244781e-10	3.074794e+00	-6.148341e+01
8.600000e-07	4.923666e-07	-6.540315e-10	4.151135e+00	-4.364815e+01
8.700000e-07	6.198047e-07	-3.697996e-10	5.225564e+00	-2.497784e+01
8.800000e-07	7.470493e-07	-7.424825e-11	6.298361e+00	-5.616479e+00
8.900000e-07	8.741432e-07	2.303904e-10	7.369887e+00	1.425682e+01
9.000000e-07	1.001053e-06	5.395867e-10	8.439865e+00	3.443426e+01
9.100000e-07	1.127661e-06	8.518509e-10	9.507295e+00	5.468802e+01
9.200000e-07	1.253914e-06	1.160875e-09	1.057173e+01	7.478076e+01
9.300000e-07	1.379749e-06	1.462817e-09	1.163264e+01	9.447700e+01
9.400000e-07	1.505110e-06	1.753019e-09	1.268956e+01	1.135546e+02
9.500000e-07	1.629971e-06	2.028127e-09	1.374226e+01	1.318155e+02
9.600000e-07	1.754263e-06	2.287711e-09	1.479016e+01	1.490942e+02
9.700000e-07	1.877982e-06	2.531297e-09	1.583324e+01	1.652648e+02
9.800000e-07	2.001134e-06	2.756051e-09	1.687153e+01	1.802446e+02
9.900000e-07	2.123669e-06	2.960132e-09	1.790462e+01	1.939947e+02
1.000000e-06	2.245441e-06	3.148516e-09	1.893128e+01	2.065177e+02
1.010000e-06	2.366172e-06	3.319527e-09	1.994916e+01	2.178534e+02
1.020000e-06	2.485838e-06	3.474606e-09	2.095806e+01	2.280717e+02
1.030000e-06	2.604699e-06	3.613677e-09	2.196018e+01	2.372650e+02
1.040000e-06	2.722746e-06	3.740235e-09	2.295543e+01	2.455391e+02
1.050000e-06	2.839835e-06	3.854924e-09	2.394260e+01	2.530057e+02
1.060000e-06	2.955835e-06	3.959038e-09	2.492060e+01	2.597743e+02
1.070000e-06	3.070617e-06	4.054217e-09	2.588833e+01	2.659470e+02
1.080000e-06	3.184097e-06	4.139764e-09	2.684507e+01	2.716137e+02
1.090000e-06	3.296228e-06	4.219830e-09	2.779045e+01	2.768503e+02
1.100000e-06	3.407189e-06	4.293936e-09	2.872596e+01	2.817174e+02
1.110000e-06	3.517078e-06	4.363331e-09	2.965243e+01	2.862617e+02
1.120000e-06	3.625833e-06	4.426498e-09	3.056934e+01	2.905179e+02
1.130000e-06	3.733423e-06	4.484809e-09	3.147643e+01	2.945109e+02
1.140000e-06	3.839712e-06	4.539607e-09	3.237255e+01	2.982593e+02
1.150000e-06	3.944444e-06	4.592338e-09	3.325555e+01	3.017774e+02
1.160000e-06	4.047628e-06	4.639885e-09	3.412549e+01	3.050777e+02
1.170000e-06	4.149421e-06	4.682284e-09	3.498371e+01	3.081728e+02
1.180000e-06	4.249812e-06	4.723965e-09	3.583010e+01	3.110756e+02
1.190000e-06	4.348772e-06	4.767335e-09	3.666443e+01	3.138000e+02
1.200000e-06	4.446034e-06	4.807206e-09	3.748445e+01	3.163604e+02
1.210000e-06	4.541527e-06	4.840631e-09	3.828954e+01	3.187710e+02
1.220000e-06	4.635487e-06	4.872065e-09	3.908172e+01	3.210454e+02
1.230000e-06	4.727942e-06	4.904093e-09	3.986120e+01	3.231955e+02
1.240000e-06	4.818820e-06	4.934526e-09	4.062740e+01	3.252310e+02
1.250000e-06	4.907907e-06	4.961308e-09	4.137849e+01	3.271598e+02
1.260000e-06	4.995163e-06	4.987515e-09	4.211414e+01	3.289876e+02
1.270000e-06	5.080675e-06	5.013643e-09	4.283509e+01	3.307186e+02
1.280000e-06	5.164542e-06	5.038418e-09	4.354217e+01	3.323561e+02
1.290000e-06	5.246706e-06	5.059477e-09	4.423490e+01	3.339033e+02
1.300000e-06	5.326871e-06	5.079307e-09	4.491076e+01	3.353633e+02
1.310000e-06	5.405049e-06	5.099825e-09	4.556988e+01	3.367405e+02
1.320000e-06	5.481367e-06	5.119330e-09	4.621332e+01	3.380400e+02
1.330000e-06	5.555580e-06	5.137739e-09	4.683901e+01	3.392677e+02
1.340000e-06	5.627622e-06	5.154957e-09	4.744639e+01	3.404304e+02
1.350000e-06	5.697697e-06	5.171683e-09	4.803719e+01	3.415347e+02
1.360000e-06	5.765848e-06	5.189146e-09	4.861178e+01	3.425870e+02
1.370000e-06	5.831894e-06	5.205903e-09	4.916861e+01	3.435924e+02
1.380000e-06	5.895745e-06	5.220390e-09	4.970693e+01	3.445548e+02
1.390000e-06	5.957628e-06	5.233662e-09	5.022866e+01	3.454764e+02
1.400000e-06	6.017652e-06	5.247536e-09	5.073473e+01	3.463579e+02
1.410000e-06	6.075585e-06	5.261415e-09	5.122317e+01	3.471984e+02
1.420000e-06	6.131271e-06	5.274981e-09	5.169265e+01	3.479963e+02
1.430000e-06	6.184676e-06	5.287704e-09	5.214290e+01	3.487495e+02
1.440000e-06	6.235524e-06	5.298796e-09	5.257161e+01	3.494562e+02
1.450000e-06	6.283756e-06	5.309109e-09	5.297824e+01	3.501151e+02
1.460000e-06	6.329649e-06	5.319518e-09	5.336517e+01	3.507264e+02
1.470000e-06	6.373449e-06	5.329203e-09	5.373445e+01	3.512915e+02
1.480000e-06	6.414943e-06	5.336578e-09	5.408429e+01	3.518131e+02
1.490000e-06	6.454038e-06	5.343309e-09	5.441389e+01	3.522950e+02
1.500000e-06	6.491040e-06	5.351519e-09	5.472586e+01	3.527416e+02
1.510000e-06	6.525913e-06	5.360323e-09	5.501987e+01	3.531575e+02
1.520000e-06	6.558375e-06	5.367754e-09	5.529356e+01	3.535470e+02
1.530000e-06	6.588473e-06	5.374628e-09	5.554732e+01	3.539132e+02
1.540000e-06	6.616458e-06	5.381358e-09	5.578326e+01	3.542581e+02
1.550000e-06	6.642059e-06	5.387604e-09	5.599909e+01	3.545820e+02
1.560000e-06	6.665131e-06	5.393978e-09	5.619361e+01	3.548839e+02
1.570000e-06	6.686008e-06	5.398707e-09	5.636963e+01	3.551610e+02
1.580000e-06	6.704656e-06	5.401691e-09	5.652685e+01	3.554096e+02
1.590000e-06	6.720835e-06	5.405395e-09	5.666326e+01	3.556253e+02
1.600000e-06	6.734564e-06	5.409904e-09	5.677901e+01	3.558034e+02
1.610000e-06	6.745751e-06	5.412510e-09	5.687332e+01	3.559397e+02
1.620000e-06	6.754293e-06	5.414342e-09	5.694534e+01	3.560305e+02
1.630000e-06	6.760393e-06	5.417813e-09	5.699676e+01	3.560735e+02
1.640000e-06	6.764243e-06	5.421276e-09	5.702922e+01	3.560675e+02
1.650000e-06	6.765699e-06	5.425694e-09	5.704150e+01	3.560128e+02
1.660000e-06	6.764737e-06	5.421583e-09	5.703339e+01	3.559113e+02
1.670000e-06	6.761696e-06	5.417369e-09	5.700775e+01	3.557659e+02
1.680000e-06	6.756506e-06	5.414394e-09	5.696400e+01	3.555810e+02
1.690000e-06	6.748960e-06	5.411007e-09	5.690038e+01	3.553616e+02
1.700000e-06	6.739212e-06	5.410208e-09	5.681819e+01	3.551132e+02
1.710000e-06	6.727289e-06	5.409210e-09	5.671767e+01	3.548415e+02
1.720000e-06	6.712873e-06	5.418515e-09	5.659613e+01	3.545521e+02
1.730000e-06	6.696150e-06	5.405109e-09	5.645514e+01	3.542500e+02
1.740000e-06	6.677437e-06	5.303075e-09	5.629737e+01	3.539392e+02
1.750000e-06	6.656034e-06	5.305180e-09	5.611692e+01	3.536224e+02
1.760000e-06	6.631293e-06	5.346596e-09	5.590832e+01	3.533009e+02
1.770000e-06	6.603880e-06	5.349084e-09	5.567721e+01	3.529740e+02
1.780000e-06	6.574433e-06	5.435066e-09	5.542894e+01	3.526394e+02
1.790000e-06	6.543150e-06	5.455152e-09	5.516520e+01	3.522928e+02
1.800000e-06	6.510348e-06	5.275064e-09	5.488864e+01	3.519282e+02
1.810000e-06	6.475556e-06	5.383679e-09	5.459531e+01	3.515384e+02
1.820000e-06	6.438268e-06	5.397305e-09	5.428094e+01	3.511150e+02
1.830000e-06	6.398764e-06	5.312508e-09	5.394788e+01	3.506497e+02
1.840000e-06	6.357061e-06	5.476379e-09	5.359628e+01	3.501344e+02
1.850000e-06	6.313255e-06	5.304568e-09	5.322695e+01	3.495619e+02
1.860000e-06	6.267348e-06	5.329279e-09	5.283991e+01	3.489267e+02
1.870000e-06	6.218995e-06	5.389815e-09	5.243225e+01	3.482255e+02
1.880000e-06	6.168438e-06	5.269893e-09	5.200601e+01	3.474571e+02
1.890000e-06	6.115419e-06	5.363082e-09	5.155900e+01	3.466226e+02
1.900000e-06	6.059741e-06	5.248194e-09	5.108958e+01	3.457251e+02
1.910000e-06	6.001871e-06	5.257502e-09	5.060168e+01	3.447693e+02
1.920000e-06	5.942028e-06	5.320800e-09	5.009715e+01	3.437607e+02
1.930000e-06	5.880096e-06	5.214792e-09	4.957500e+01	3.427049e+02
1.940000e-06	5.815850e-06	5.258060e-09	4.903334e+01	3.416068e+02
1.950000e-06	5.749521e-06	5.177429e-09	4.847412e+01	3.404699e+02
1.960000e-06	5.681128e-06	5.223040e-09	4.789750e+01	3.392960e+02
1.970000e-06	5.610390e-06	5.159208e-09	4.730111e+01	3.380847e+02
1.980000e-06	5.537564e-06	5.136305e-09	4.668712e+01	3.368339e+02
1.990000e-06	5.462792e-06	5.187115e-09	4.605671e+01	3.355398e+02
2.000000e-06	5.385891e-06	5.070063e-09	4.540836e+01	3.341974e+02
2.010000e-06	5.306819e-06	5.110502e-09	4.474171e+01	3.328018e+02
2.020000e-06	5.225792e-06	5.058574e-09	4.405857e+01	3.313481e+02
2.030000e-06	5.143032e-06	5.057023e-09	4.336082e+01	3.298327e+02
2.040000e-06	5.058479e-06	5.019496e-09	4.264796e+01	3.282534e+02
2.050000e-06	4.972028e-06	4.987253e-09	4.191909e+01	3.266097e+02
2.060000e-06	4.883719e-06	4.997375e-09	4.117455e+01	3.249026e+02
2.070000e-06	4.793715e-06	4.924835e-09	4.041573e+01	3.231340e+02
2.080000e-06	4.702167e-06	4.922782e-09	3.964389e+01	3.213062e+02
2.090000e-06	4.608972e-06	4.880177e-09	3.885817e+01	3.194213e+02
2.100000e-06	4.513960e-06	4.866720e-09	3.805712e+01	3.174798e+02
2.110000e-06	4.417295e-06	4.812346e-09	3.724214e+01	3.154804e+02
2.120000e-06	4.319200e-06	4.789786e-09	3.641510e+01	3.134194e+02
2.130000e-06	4.219796e-06	4.773598e-09	3.557704e+01	3.112907e+02
2.140000e-06	4.118840e-06	4.724839e-09	3.472587e+01	3.090860e+02
2.150000e-06	4.016153e-06	4.697962e-09	3.386012e+01	3.067952e+02
2.160000e-06	3.912008e-06	4.658707e-09	3.298208e+01	3.044074e+02
2.170000e-06	3.806524e-06	4.628375e-09	3.209274e+01	3.019121e+02
2.180000e-06	3.699801e-06	4.568282e-09	3.119296e+01	2.992996e+02
2.190000e-06	3.591986e-06	4.534824e-09	3.028398e+01	2.965622e+02
2.200000e-06	3.482952e-06	4.491030e-09	2.936472e+01	2.936945e+02
2.210000e-06	3.372549e-06	4.444829e-09	2.843391e+01	2.906932e+02
2.220000e-06	3.260857e-06	4.395965e-09	2.749224e+01	2.875574e+02
2.230000e-06	3.147960e-06	4.352123e-09	2.654040e+01	2.842868e+02
2.240000e-06	3.033811e-06	4.299399e-09	2.557801e+01	2.808816e+02
2.250000e-06	2.918591e-06	4.240553e-09	2.460659e+01	2.773405e+02
2.260000e-06	2.802296e-06	4.190910e-09	2.362611e+01	2.736603e+02
2.270000e-06	2.684641e-06	4.133108e-09	2.263416e+01	2.698341e+02
2.280000e-06	2.565740e-06	4.070047e-09	2.163172e+01	2.658511e+02
2.290000e-06	2.445960e-06	3.998577e-09	2.062185e+01	2.616966e+02
2.300000e-06	2.325380e-06	3.937253e-09	1.960524e+01	2.573517e+02
2.310000e-06	2.204013e-06	3.869856e-09	1.858200e+01	2.527944e+02
2.320000e-06	2.081923e-06	3.796562e-09	1.755266e+01	2.480005e+02
2.330000e-06	1.959151e-06	3.717149e-09	1.651757e+01	2.429443e+02
2.340000e-06	1.835830e-06	3.638843e-09	1.547785e+01	2.375992e+02
2.350000e-06	1.711997e-06	3.553679e-09	1.443382e+01	2.319387e+02
2.360000e-06	1.587634e-06	3.463667e-09	1.338532e+01	2.259357e+02
2.370000e-06	1.462565e-06	3.368383e-09	1.233087e+01	2.195618e+02
2.380000e-06	1.336708e-06	3.261366e-09	1.126977e+01	2.127864e+02
2.390000e-06	1.210243e-06	3.148329e-09	1.020354e+01	2.055746e+02
2.400000e-06	1.083323e-06	3.029696e-09	9.133477e+00	1.978854e+02
2.410000e-06	9.560937e-07	2.909889e-09	8.060811e+00	1.896708e+02
2.420000e-06	8.286151e-07	2.779469e-09	6.986041e+00	1.808741e+02
2.430000e-06	7.008749e-07	2.636431e-09	5.909065e+00	1.714305e+02
2.440000e-06	5.729293e-07	2.483876e-09	4.830358e+00	1.612684e+02
2.450000e-06	4.447905e-07	2.319291e-09	3.750022e+00	1.503123e+02
2.460000e-06	3.164947e-07	2.141248e-09	2.668362e+00	1.384875e+02
2.470000e-06	1.880643e-07	1.947678e-09	1.585567e+00	1.257257e+02
2.480000e-06	5.952650e-08	1.735344e-09	5.018670e-01	1.119715e+02
2.490000e-06	-6.904621e-08	1.505417e-09	-5.821275e-01	9.719020e+01
2.500000e-06	-1.975610e-07	1.263446e-09	-1.665634e+00	8.137408e+01
2.510000e-06	-3.259675e-07	1.010835e-09	-2.748227e+00	6.454866e+01
2.520000e-06	-4.542223e-07	7.425527e-10	-3.829541e+00	4.677690e+01
2.530000e-06	-5.822815e-07	4.590804e-10	-4.909206e+00	2.816126e+01
2.540000e-06	-7.101625e-07	1.655296e-10	-5.987369e+00	8.843075e+00
2.550000e-06	-8.378219e-07	-1.346316e-10	-7.063664e+00	-1.100090e+01
2.560000e-06	-9.651983e-07	-4.386550e-10	-8.137572e+00	-3.116462e+01
2.570000e-06	-1.092280e-06	-7.480537e-10	-9.208999e+00	-5.142139e+01
2.580000e-06	-1.219014e-06	-1.059438e-09	-1.027749e+01	-7.153417e+01
2.590000e-06	-1.345198e-06	-1.364581e-09	-1.134134e+01	-9.126696e+01
2.600000e-06	-1.470676e-06	-1.657874e-09	-1.239924e+01	-1.103963e+02
2.610000e-06	-1.595433e-06	-1.935356e-09	-1.345107e+01	-1.287220e+02
2.620000e-06	-1.719524e-06	-2.199093e-09	-1.449728e+01	-1.460762e+02
2.630000e-06	-1.843048e-06	-2.449540e-09	-1.553871e+01	-1.623299e+02
2.640000e-06	-1.966008e-06	-2.682288e-09	-1.657538e+01	-1.773972e+02
2.650000e-06	-2.088301e-06	-2.894803e-09	-1.760643e+01	-1.912361e+02
2.660000e-06	-2.209874e-06	-3.088069e-09	-1.863141e+01	-2.038465e+02
2.670000e-06	-2.330652e-06	-3.263692e-09	-1.964969e+01	-2.152657e+02
2.680000e-06	-2.450647e-06	-3.421813e-09	-2.066137e+01	-2.255616e+02
2.690000e-06	-2.569850e-06	-3.564480e-09	-2.166636e+01	-2.348254e+02
2.700000e-06	-2.688004e-06	-3.693748e-09	-2.266252e+01	-2.431621e+02
2.710000e-06	-2.804902e-06	-3.811509e-09	-2.364808e+01	-2.506833e+02
2.720000e-06	-2.920621e-06	-3.917180e-09	-2.462371e+01	-2.574989e+02
2.730000e-06	-3.035243e-06	-4.009466e-09	-2.559009e+01	-2.637116e+02
2.740000e-06	-3.148624e-06	-4.093240e-09	-2.654600e+01	-2.694125e+02
2.750000e-06	-3.260591e-06	-4.172511e-09	-2.748999e+01	-2.746782e+02
2.760000e-06	-3.371190e-06	-4.247269e-09	-2.842245e+01	-2.795706e+02
2.770000e-06	-3.480629e-06	-4.317701e-09	-2.934513e+01	-2.841373e+02
2.780000e-06	-3.588974e-06	-4.384256e-09	-3.025859e+01	-2.884138e+02
2.790000e-06	-3.696206e-06	-4.446577e-09	-3.116266e+01	-2.924256e+02
2.800000e-06	-3.802208e-06	-4.505993e-09	-3.205636e+01	-2.961916e+02
2.810000e-06	-3.906884e-06	-4.563763e-09	-3.293887e+01	-2.997263e+02
2.820000e-06	-4.010079e-06	-4.617559e-09	-3.380891e+01	-3.030425e+02
2.830000e-06	-4.111658e-06	-4.664429e-09	-3.466532e+01	-3.061524e+02
2.840000e-06	-4.211768e-06	-4.707657e-09	-3.550935e+01	-3.090691e+02
2.850000e-06	-4.310500e-06	-4.750997e-09	-3.634176e+01	-3.118064e+02
2.860000e-06	-4.407806e-06	-4.793073e-09	-3.716215e+01	-3.143787e+02
2.870000e-06	-4.503630e-06	-4.831789e-09	-3.797003e+01	-3.168002e+02
2.880000e-06	-4.597821e-06	-4.868651e-09	-3.876416e+01	-3.190846e+02
2.890000e-06	-4.690358e-06	-4.905886e-09	-3.954433e+01	-3.212438e+02
2.900000e-06	-4.781334e-06	-4.940834e-09	-4.031136e+01	-3.232878e+02
2.910000e-06	-4.870665e-06	-4.971384e-09	-4.106450e+01	-3.252247e+02
2.920000e-06	-4.958200e-06	-5.000247e-09	-4.180250e+01	-3.270602e+02
2.930000e-06	-5.043785e-06	-5.027213e-09	-4.252408e+01	-3.287986e+02
2.940000e-06	-5.127553e-06	-5.051461e-09	-4.323032e+01	-3.304434e+02
