# Temperatura_=_20.0
# Concentracion g/m^3_=_9000.0
# C_Vs_to_Am_M_A/Vsm_=_65563218390.804596
# pendiente_HvsI_1/m_=_3716.3
# ordenada_HvsI_A/m_=_1297.0
# frecuencia_Hz_=_301075.50026617886

Tiempo_(s)	Campo_(V.s)	Magnetizacion_(V.s)	Campo_(kA/m)	Magnetizacion_(A/m)
0.000000e+00	-6.704953e-06	-5.412504e-09	-5.670500e+01	-3.538334e+02
1.000000e-08	-6.701530e-06	-5.414012e-09	-5.667605e+01	-3.536834e+02
2.000000e-08	-6.695949e-06	-5.411867e-09	-5.662886e+01	-3.534949e+02
3.000000e-08	-6.688313e-06	-5.407417e-09	-5.656427e+01	-3.532718e+02
4.000000e-08	-6.678364e-06	-5.399478e-09	-5.648014e+01	-3.530180e+02
5.000000e-08	-6.665875e-06	-5.394728e-09	-5.637451e+01	-3.527380e+02
6.000000e-08	-6.650902e-06	-5.383910e-09	-5.624788e+01	-3.524363e+02
7.000000e-08	-6.633670e-06	-5.366472e-09	-5.610215e+01	-3.521172e+02
8.000000e-08	-6.614355e-06	-5.413645e-09	-5.593880e+01	-3.517850e+02
9.000000e-08	-6.592641e-06	-5.456815e-09	-5.575516e+01	-3.514430e+02
1.000000e-07	-6.568202e-06	-5.407178e-09	-5.554848e+01	-3.510940e+02
1.100000e-07	-6.541168e-06	-5.358913e-09	-5.531985e+01	-3.507391e+02
1.200000e-07	-6.511834e-06	-5.346566e-09	-5.507176e+01	-3.503779e+02
1.300000e-07	-6.480631e-06	-5.291894e-09	-5.480788e+01	-3.500082e+02
1.400000e-07	-6.447699e-06	-5.296605e-09	-5.452936e+01	-3.496255e+02
1.500000e-07	-6.412756e-06	-5.428856e-09	-5.423384e+01	-3.492236e+02
1.600000e-07	-6.375663e-06	-5.288539e-09	-5.392014e+01	-3.487943e+02
1.700000e-07	-6.336517e-06	-5.262972e-09	-5.358907e+01	-3.483286e+02
1.800000e-07	-6.295074e-06	-5.358389e-09	-5.323858e+01	-3.478167e+02
1.900000e-07	-6.251185e-06	-5.249581e-09	-5.286740e+01	-3.472493e+02
2.000000e-07	-6.205133e-06	-5.305230e-09	-5.247793e+01	-3.466182e+02
2.100000e-07	-6.156696e-06	-5.285636e-09	-5.206830e+01	-3.459171e+02
2.200000e-07	-6.105579e-06	-5.230687e-09	-5.163599e+01	-3.451423e+02
2.300000e-07	-6.051966e-06	-5.255801e-09	-5.118257e+01	-3.442929e+02
2.400000e-07	-5.996107e-06	-5.223533e-09	-5.071016e+01	-3.433708e+02
2.500000e-07	-5.938015e-06	-5.239740e-09	-5.021887e+01	-3.423804e+02
2.600000e-07	-5.877716e-06	-5.210456e-09	-4.970891e+01	-3.413281e+02
2.700000e-07	-5.815355e-06	-5.163663e-09	-4.918152e+01	-3.402214e+02
2.800000e-07	-5.751000e-06	-5.161500e-09	-4.863725e+01	-3.390678e+02
2.900000e-07	-5.684557e-06	-5.167204e-09	-4.807533e+01	-3.378738e+02
3.000000e-07	-5.615927e-06	-5.156868e-09	-4.749491e+01	-3.366446e+02
3.100000e-07	-5.545250e-06	-5.080077e-09	-4.689718e+01	-3.353829e+02
3.200000e-07	-5.472703e-06	-5.102136e-09	-4.628364e+01	-3.340890e+02
3.300000e-07	-5.398013e-06	-5.081892e-09	-4.565198e+01	-3.327607e+02
3.400000e-07	-5.321003e-06	-5.026459e-09	-4.500068e+01	-3.313940e+02
3.500000e-07	-5.241864e-06	-5.039429e-09	-4.433139e+01	-3.299835e+02
3.600000e-07	-5.160757e-06	-5.010956e-09	-4.364546e+01	-3.285235e+02
3.700000e-07	-5.077852e-06	-4.971519e-09	-4.294432e+01	-3.270082e+02
3.800000e-07	-4.993254e-06	-4.936278e-09	-4.222886e+01	-3.254333e+02
3.900000e-07	-4.907065e-06	-4.947252e-09	-4.149994e+01	-3.237957e+02
4.000000e-07	-4.819305e-06	-4.916665e-09	-4.075773e+01	-3.220936e+02
4.100000e-07	-4.729795e-06	-4.866518e-09	-4.000073e+01	-3.203271e+02
4.200000e-07	-4.638419e-06	-4.850370e-09	-3.922795e+01	-3.184966e+02
4.300000e-07	-4.545396e-06	-4.831868e-09	-3.844124e+01	-3.166030e+02
4.400000e-07	-4.450839e-06	-4.800447e-09	-3.764155e+01	-3.146464e+02
4.500000e-07	-4.354710e-06	-4.757794e-09	-3.682857e+01	-3.126257e+02
4.600000e-07	-4.256954e-06	-4.739075e-09	-3.600183e+01	-3.105376e+02
4.700000e-07	-4.157555e-06	-4.701237e-09	-3.516120e+01	-3.083771e+02
4.800000e-07	-4.056670e-06	-4.654341e-09	-3.430799e+01	-3.061369e+02
4.900000e-07	-3.954347e-06	-4.624948e-09	-3.344263e+01	-3.038083e+02
5.000000e-07	-3.850613e-06	-4.598964e-09	-3.256533e+01	-3.013817e+02
5.100000e-07	-3.745547e-06	-4.548624e-09	-3.167677e+01	-2.988478e+02
5.200000e-07	-3.639070e-06	-4.496575e-09	-3.077628e+01	-2.961982e+02
5.300000e-07	-3.531165e-06	-4.469187e-09	-2.986370e+01	-2.934262e+02
5.400000e-07	-3.422068e-06	-4.431460e-09	-2.894105e+01	-2.905274e+02
5.500000e-07	-3.311914e-06	-4.376916e-09	-2.800945e+01	-2.874997e+02
5.600000e-07	-3.200550e-06	-4.328040e-09	-2.706763e+01	-2.843427e+02
5.700000e-07	-3.087846e-06	-4.287137e-09	-2.611447e+01	-2.810568e+02
5.800000e-07	-2.973927e-06	-4.231718e-09	-2.515104e+01	-2.776425e+02
5.900000e-07	-2.858826e-06	-4.175943e-09	-2.417761e+01	-2.740985e+02
6.000000e-07	-2.742503e-06	-4.124241e-09	-2.319385e+01	-2.704208e+02
6.100000e-07	-2.625154e-06	-4.065926e-09	-2.220140e+01	-2.666016e+02
6.200000e-07	-2.506892e-06	-3.999787e-09	-2.120124e+01	-2.626285e+02
6.300000e-07	-2.387776e-06	-3.937267e-09	-2.019386e+01	-2.584845e+02
6.400000e-07	-2.267795e-06	-3.874248e-09	-1.917916e+01	-2.541482e+02
6.500000e-07	-2.146913e-06	-3.799372e-09	-1.815683e+01	-2.495949e+02
6.600000e-07	-2.025267e-06	-3.721106e-09	-1.712805e+01	-2.447974e+02
6.700000e-07	-1.902949e-06	-3.647546e-09	-1.609358e+01	-2.397273e+02
6.800000e-07	-1.779845e-06	-3.570117e-09	-1.505247e+01	-2.343563e+02
6.900000e-07	-1.655936e-06	-3.477890e-09	-1.400455e+01	-2.286560e+02
7.000000e-07	-1.531441e-06	-3.384909e-09	-1.295168e+01	-2.225985e+02
7.100000e-07	-1.406523e-06	-3.291142e-09	-1.189522e+01	-2.161558e+02
7.200000e-07	-1.281174e-06	-3.189409e-09	-1.083512e+01	-2.092975e+02
7.300000e-07	-1.155401e-06	-3.076550e-09	-9.771436e+00	-2.019902e+02
7.400000e-07	-1.029248e-06	-2.957124e-09	-8.704540e+00	-1.941943e+02
7.500000e-07	-9.027373e-07	-2.829598e-09	-7.634613e+00	-1.858629e+02
7.600000e-07	-7.759481e-07	-2.687461e-09	-6.562334e+00	-1.769405e+02
7.700000e-07	-6.489517e-07	-2.538351e-09	-5.488302e+00	-1.673625e+02
7.800000e-07	-5.217902e-07	-2.381483e-09	-4.412875e+00	-1.570571e+02
7.900000e-07	-3.944632e-07	-2.210002e-09	-3.336047e+00	-1.459481e+02
8.000000e-07	-2.669825e-07	-2.024455e-09	-2.257919e+00	-1.339592e+02
8.100000e-07	-1.394096e-07	-1.828904e-09	-1.179012e+00	-1.210206e+02
8.200000e-07	-1.176737e-08	-1.617536e-09	-9.951874e-02	-1.070759e+02
8.300000e-07	1.158704e-07	-1.387711e-09	9.799371e-01	-9.208979e+01
8.400000e-07	2.434529e-07	-1.142244e-09	2.058926e+00	-7.605555e+01
8.500000e-07	3.709859e-07	-8.838591e-10	3.137495e+00	-5.900123e+01
8.600000e-07	4.984094e-07	-6.107118e-10	4.215138e+00	-4.099427e+01
8.700000e-07	6.256107e-07	-3.236481e-10	5.290903e+00	-2.214357e+01
8.800000e-07	7.526085e-07	-2.472326e-11	6.364946e+00	-2.598697e+00
8.900000e-07	8.793837e-07	2.826714e-10	7.437107e+00	1.745401e+01
9.000000e-07	1.005850e-06	5.954271e-10	8.506654e+00	3.779826e+01
9.100000e-07	1.131994e-06	9.094226e-10	9.573475e+00	5.819721e+01
9.200000e-07	1.257749e-06	1.215777e-09	1.063701e+01	7.840466e+01
9.300000e-07	1.383109e-06	1.516377e-09	1.169720e+01	9.817736e+01
9.400000e-07	1.508124e-06	1.808673e-09	1.275448e+01	1.172872e+02
9.500000e-07	1.632684e-06	2.084287e-09	1.380791e+01	1.355323e+02
9.600000e-07	1.756620e-06	2.341847e-09	1.485606e+01	1.527467e+02
9.700000e-07	1.879856e-06	2.584544e-09	1.589828e+01	1.688066e+02
9.800000e-07	2.002409e-06	2.808604e-09	1.693473e+01	1.836344e+02
9.900000e-07	2.124369e-06	3.009407e-09	1.796617e+01	1.971985e+02
1.000000e-06	2.245635e-06	3.194314e-09	1.899175e+01	2.095108e+02
1.010000e-06	2.365969e-06	3.363051e-09	2.000943e+01	2.206211e+02
1.020000e-06	2.485327e-06	3.514323e-09	2.101886e+01	2.306094e+02
1.030000e-06	2.603822e-06	3.649711e-09	2.202100e+01	2.395773e+02
1.040000e-06	2.721367e-06	3.772821e-09	2.301510e+01	2.476385e+02
1.050000e-06	2.837866e-06	3.884409e-09	2.400035e+01	2.549101e+02
1.060000e-06	2.953271e-06	3.984413e-09	2.497635e+01	2.615052e+02
1.070000e-06	3.067540e-06	4.076552e-09	2.594274e+01	2.675267e+02
1.080000e-06	3.180627e-06	4.161770e-09	2.689914e+01	2.730634e+02
1.090000e-06	3.292405e-06	4.241144e-09	2.784447e+01	2.781883e+02
1.100000e-06	3.402962e-06	4.313380e-09	2.877947e+01	2.829584e+02
1.110000e-06	3.512453e-06	4.380073e-09	2.970545e+01	2.874161e+02
1.120000e-06	3.620797e-06	4.441657e-09	3.062173e+01	2.915921e+02
1.130000e-06	3.727875e-06	4.499484e-09	3.152731e+01	2.955081e+02
1.140000e-06	3.833723e-06	4.554566e-09	3.242249e+01	2.991804e+02
1.150000e-06	3.938108e-06	4.604539e-09	3.330530e+01	3.026226e+02
1.160000e-06	4.040931e-06	4.648535e-09	3.417489e+01	3.058476e+02
1.170000e-06	4.142392e-06	4.689146e-09	3.503296e+01	3.088692e+02
1.180000e-06	4.242399e-06	4.729796e-09	3.587874e+01	3.117027e+02
1.190000e-06	4.340882e-06	4.770820e-09	3.671163e+01	3.143642e+02
1.200000e-06	4.437744e-06	4.808319e-09	3.753080e+01	3.168703e+02
1.210000e-06	4.532904e-06	4.843221e-09	3.833559e+01	3.192372e+02
1.220000e-06	4.626529e-06	4.877350e-09	3.912740e+01	3.214789e+02
1.230000e-06	4.718611e-06	4.909089e-09	3.990615e+01	3.236073e+02
1.240000e-06	4.809119e-06	4.936260e-09	4.067159e+01	3.256311e+02
1.250000e-06	4.897860e-06	4.960670e-09	4.142209e+01	3.275560e+02
1.260000e-06	4.984722e-06	4.986802e-09	4.215670e+01	3.293853e+02
1.270000e-06	5.069935e-06	5.013288e-09	4.287736e+01	3.311202e+02
1.280000e-06	5.153493e-06	5.038429e-09	4.358402e+01	3.327612e+02
1.290000e-06	5.235305e-06	5.060236e-09	4.427592e+01	3.343087e+02
1.300000e-06	5.315171e-06	5.079607e-09	4.495137e+01	3.357643e+02
1.310000e-06	5.393017e-06	5.099646e-09	4.560973e+01	3.371309e+02
1.320000e-06	5.468919e-06	5.119640e-09	4.625164e+01	3.384132e+02
1.330000e-06	5.542757e-06	5.138289e-09	4.687610e+01	3.396176e+02
1.340000e-06	5.614472e-06	5.153742e-09	4.748261e+01	3.407517e+02
1.350000e-06	5.684219e-06	5.168941e-09	4.807247e+01	3.418235e+02
1.360000e-06	5.752036e-06	5.187098e-09	4.864601e+01	3.428410e+02
1.370000e-06	5.817734e-06	5.203521e-09	4.920163e+01	3.438109e+02
1.380000e-06	5.881309e-06	5.215970e-09	4.973930e+01	3.447385e+02
1.390000e-06	5.942923e-06	5.229056e-09	5.026038e+01	3.456271e+02
1.400000e-06	6.002589e-06	5.244773e-09	5.076498e+01	3.464780e+02
1.410000e-06	6.060083e-06	5.258376e-09	5.125122e+01	3.472911e+02
1.420000e-06	6.115359e-06	5.268923e-09	5.171870e+01	3.480647e+02
1.430000e-06	6.168446e-06	5.279631e-09	5.216767e+01	3.487968e+02
1.440000e-06	6.218982e-06	5.291126e-09	5.259506e+01	3.494852e+02
1.450000e-06	6.266889e-06	5.303371e-09	5.300022e+01	3.501287e+02
1.460000e-06	6.312554e-06	5.315576e-09	5.338641e+01	3.507271e+02
1.470000e-06	6.356144e-06	5.326178e-09	5.375507e+01	3.512815e+02
1.480000e-06	6.397465e-06	5.334276e-09	5.410452e+01	3.517944e+02
1.490000e-06	6.436440e-06	5.341273e-09	5.443414e+01	3.522692e+02
1.500000e-06	6.473256e-06	5.348174e-09	5.474550e+01	3.527101e+02
1.510000e-06	6.507800e-06	5.355447e-09	5.503764e+01	3.531212e+02
1.520000e-06	6.539903e-06	5.363585e-09	5.530915e+01	3.535061e+02
1.530000e-06	6.569755e-06	5.370715e-09	5.556161e+01	3.538675e+02
1.540000e-06	6.597505e-06	5.376248e-09	5.579630e+01	3.542066e+02
1.550000e-06	6.622870e-06	5.382368e-09	5.601081e+01	3.545233e+02
1.560000e-06	6.645754e-06	5.389734e-09	5.620435e+01	3.548160e+02
1.570000e-06	6.666437e-06	5.394432e-09	5.637927e+01	3.550818e+02
1.580000e-06	6.684930e-06	5.396674e-09	5.653567e+01	3.553171e+02
1.590000e-06	6.701000e-06	5.400098e-09	5.667157e+01	3.555179e+02
1.600000e-06	6.714552e-06	5.403595e-09	5.678618e+01	3.556804e+02
1.610000e-06	6.725503e-06	5.405626e-09	5.687880e+01	3.558010e+02
1.620000e-06	6.733810e-06	5.408102e-09	5.694905e+01	3.558773e+02
1.630000e-06	6.739719e-06	5.411273e-09	5.699902e+01	3.559077e+02
1.640000e-06	6.743411e-06	5.412879e-09	5.703025e+01	3.558916e+02
1.650000e-06	6.744741e-06	5.416862e-09	5.704150e+01	3.558297e+02
1.660000e-06	6.743680e-06	5.413548e-09	5.703253e+01	3.557236e+02
1.670000e-06	6.740518e-06	5.409464e-09	5.700579e+01	3.555758e+02
1.680000e-06	6.735175e-06	5.406335e-09	5.696059e+01	3.553893e+02
1.690000e-06	6.727493e-06	5.402276e-09	5.689563e+01	3.551678e+02
1.700000e-06	6.717657e-06	5.401139e-09	5.681245e+01	3.549155e+02
1.710000e-06	6.705604e-06	5.400885e-09	5.671051e+01	3.546365e+02
1.720000e-06	6.691115e-06	5.412259e-09	5.658797e+01	3.543355e+02
1.730000e-06	6.674417e-06	5.393922e-09	5.644676e+01	3.540169e+02
1.740000e-06	6.655643e-06	5.291398e-09	5.628798e+01	3.536848e+02
1.750000e-06	6.634089e-06	5.301024e-09	5.610569e+01	3.533428e+02
1.760000e-06	6.609258e-06	5.347301e-09	5.589569e+01	3.529936e+02
1.770000e-06	6.581819e-06	5.348366e-09	5.566364e+01	3.526384e+02
1.780000e-06	6.552391e-06	5.438536e-09	5.541476e+01	3.522771e+02
1.790000e-06	6.521123e-06	5.432107e-09	5.515032e+01	3.519075e+02
1.800000e-06	6.488316e-06	5.249028e-09	5.487286e+01	3.515253e+02
1.810000e-06	6.453567e-06	5.387016e-09	5.457898e+01	3.511243e+02
1.820000e-06	6.416428e-06	5.386382e-09	5.426489e+01	3.506966e+02
1.830000e-06	6.377072e-06	5.311034e-09	5.393206e+01	3.502331e+02
1.840000e-06	6.335434e-06	5.468071e-09	5.357991e+01	3.497242e+02
1.850000e-06	6.291607e-06	5.278755e-09	5.320926e+01	3.491604e+02
1.860000e-06	6.245585e-06	5.324097e-09	5.282005e+01	3.485334e+02
1.870000e-06	6.197214e-06	5.386805e-09	5.241096e+01	3.478369e+02
1.880000e-06	6.146701e-06	5.277219e-09	5.198377e+01	3.470668e+02
1.890000e-06	6.093685e-06	5.355307e-09	5.153540e+01	3.462220e+02
1.900000e-06	6.038060e-06	5.229619e-09	5.106496e+01	3.453043e+02
1.910000e-06	5.980264e-06	5.264665e-09	5.057618e+01	3.443179e+02
1.920000e-06	5.920437e-06	5.311864e-09	5.007021e+01	3.432692e+02
1.930000e-06	5.858516e-06	5.202649e-09	4.954653e+01	3.421654e+02
1.940000e-06	5.794314e-06	5.248700e-09	4.900356e+01	3.410142e+02
1.950000e-06	5.728058e-06	5.167186e-09	4.844323e+01	3.398223e+02
1.960000e-06	5.659817e-06	5.218521e-09	4.786610e+01	3.385949e+02
1.970000e-06	5.589230e-06	5.156779e-09	4.726913e+01	3.373348e+02
1.980000e-06	5.516508e-06	5.137709e-09	4.665411e+01	3.360425e+02
1.990000e-06	5.441867e-06	5.169113e-09	4.602286e+01	3.347161e+02
2.000000e-06	5.365104e-06	5.053954e-09	4.537365e+01	3.333517e+02
2.010000e-06	5.286149e-06	5.109543e-09	4.470592e+01	3.319439e+02
2.020000e-06	5.205246e-06	5.059278e-09	4.402171e+01	3.304869e+02
2.030000e-06	5.122563e-06	5.047696e-09	4.332245e+01	3.289752e+02
2.040000e-06	5.038108e-06	4.999839e-09	4.260819e+01	3.274040e+02
2.050000e-06	4.951866e-06	4.975922e-09	4.187883e+01	3.257702e+02
2.060000e-06	4.863758e-06	4.988610e-09	4.113368e+01	3.240722e+02
2.070000e-06	4.773958e-06	4.919240e-09	4.037423e+01	3.223095e+02
2.080000e-06	4.682560e-06	4.918905e-09	3.960126e+01	3.204829e+02
2.090000e-06	4.589579e-06	4.871962e-09	3.881490e+01	3.185932e+02
2.100000e-06	4.494879e-06	4.855770e-09	3.801401e+01	3.166404e+02
2.110000e-06	4.398450e-06	4.808734e-09	3.719849e+01	3.146237e+02
2.120000e-06	4.300576e-06	4.793720e-09	3.637075e+01	3.125400e+02
2.130000e-06	4.201324e-06	4.767679e-09	3.553136e+01	3.103842e+02
2.140000e-06	4.100589e-06	4.709014e-09	3.467943e+01	3.081493e+02
2.150000e-06	3.998257e-06	4.684396e-09	3.381399e+01	3.058266e+02
2.160000e-06	3.894365e-06	4.652963e-09	3.293535e+01	3.034067e+02
2.170000e-06	3.789086e-06	4.622789e-09	3.204499e+01	3.008801e+02
2.180000e-06	3.682583e-06	4.557542e-09	3.114428e+01	2.982383e+02
2.190000e-06	3.574888e-06	4.523677e-09	3.023348e+01	2.954746e+02
2.200000e-06	3.465986e-06	4.484755e-09	2.931247e+01	2.925844e+02
2.210000e-06	3.355830e-06	4.439581e-09	2.838087e+01	2.895652e+02
2.220000e-06	3.244396e-06	4.387448e-09	2.743845e+01	2.864168e+02
2.230000e-06	3.131777e-06	4.340629e-09	2.648601e+01	2.831394e+02
2.240000e-06	3.017953e-06	4.287167e-09	2.552337e+01	2.797336e+02
2.250000e-06	2.902938e-06	4.230734e-09	2.455068e+01	2.761983e+02
2.260000e-06	2.786809e-06	4.184464e-09	2.356855e+01	2.725298e+02
2.270000e-06	2.669567e-06	4.125428e-09	2.257701e+01	2.687204e+02
2.280000e-06	2.551151e-06	4.057394e-09	2.157554e+01	2.647581e+02
2.290000e-06	2.431758e-06	3.987116e-09	2.056582e+01	2.606263e+02
2.300000e-06	2.311477e-06	3.931310e-09	1.954858e+01	2.563039e+02
2.310000e-06	2.190367e-06	3.864672e-09	1.852433e+01	2.517663e+02
2.320000e-06	2.068615e-06	3.787321e-09	1.749466e+01	2.469865e+02
2.330000e-06	1.946222e-06	3.707317e-09	1.645955e+01	2.419362e+02
2.340000e-06	1.823190e-06	3.631124e-09	1.541905e+01	2.365869e+02
2.350000e-06	1.699500e-06	3.546436e-09	1.437298e+01	2.309104e+02
2.360000e-06	1.575185e-06	3.454790e-09	1.332162e+01	2.248788e+02
2.370000e-06	1.450235e-06	3.357651e-09	1.226490e+01	2.184638e+02
2.380000e-06	1.324737e-06	3.249994e-09	1.120354e+01	2.116357e+02
2.390000e-06	1.198838e-06	3.137414e-09	1.013879e+01	2.043610e+02
2.400000e-06	1.072580e-06	3.021469e-09	9.071003e+00	1.966008e+02
2.410000e-06	9.460075e-07	2.901720e-09	8.000557e+00	1.883088e+02
2.420000e-06	8.191397e-07	2.765402e-09	6.927613e+00	1.794299e+02
2.430000e-06	6.919688e-07	2.617895e-09	5.852105e+00	1.699004e+02
2.440000e-06	5.645338e-07	2.463683e-09	4.774365e+00	1.596488e+02
2.450000e-06	4.368544e-07	2.296234e-09	3.694557e+00	1.485991e+02
2.460000e-06	3.089760e-07	2.113516e-09	2.613066e+00	1.366748e+02
2.470000e-06	1.809449e-07	1.917677e-09	1.530284e+00	1.238055e+02
2.480000e-06	5.283368e-08	1.706945e-09	4.468241e-01	1.099334e+02
2.490000e-06	-7.528508e-08	1.478832e-09	-6.366996e-01	9.502168e+01
2.500000e-06	-2.033754e-07	1.236371e-09	-1.719983e+00	7.906117e+01
2.510000e-06	-3.313296e-07	9.802869e-10	-2.802114e+00	6.207730e+01
2.520000e-06	-4.591171e-07	7.074541e-10	-3.882836e+00	4.413461e+01
2.530000e-06	-5.866767e-07	4.192562e-10	-4.961631e+00	2.533903e+01
2.540000e-06	-7.139564e-07	1.229289e-10	-6.038059e+00	5.837310e+00
2.550000e-06	-8.409963e-07	-1.791459e-10	-7.112458e+00	-1.418664e+01
2.560000e-06	-9.677765e-07	-4.867251e-10	-8.184661e+00	-3.451840e+01
2.570000e-06	-1.094299e-06	-8.007456e-10	-9.254687e+00	-5.492222e+01
2.580000e-06	-1.220500e-06	-1.114586e-09	-1.032199e+01	-7.515218e+01
2.590000e-06	-1.346295e-06	-1.419528e-09	-1.138586e+01	-9.496440e+01
2.600000e-06	-1.471523e-06	-1.712792e-09	-1.244493e+01	-1.141293e+02
2.610000e-06	-1.596040e-06	-1.991591e-09	-1.349800e+01	-1.324428e+02
2.620000e-06	-1.719833e-06	-2.256690e-09	-1.454494e+01	-1.497361e+02
2.630000e-06	-1.842912e-06	-2.505481e-09	-1.558584e+01	-1.658823e+02
2.640000e-06	-1.965413e-06	-2.734124e-09	-1.662186e+01	-1.808003e+02
2.650000e-06	-2.087411e-06	-2.942982e-09	-1.765361e+01	-1.944554e+02
2.660000e-06	-2.208762e-06	-3.133172e-09	-1.867990e+01	-2.068565e+02
2.670000e-06	-2.329207e-06	-3.305915e-09	-1.969853e+01	-2.180510e+02
2.680000e-06	-2.448645e-06	-3.461542e-09	-2.070863e+01	-2.281170e+02
2.690000e-06	-2.567220e-06	-3.601829e-09	-2.171145e+01	-2.371548e+02
2.700000e-06	-2.684878e-06	-3.728759e-09	-2.270650e+01	-2.452775e+02
2.710000e-06	-2.801362e-06	-3.842940e-09	-2.369163e+01	-2.526023e+02
2.720000e-06	-2.916612e-06	-3.944877e-09	-2.466632e+01	-2.592428e+02
2.730000e-06	-3.030656e-06	-4.035254e-09	-2.563080e+01	-2.653027e+02
2.740000e-06	-3.143540e-06	-4.117407e-09	-2.658549e+01	-2.708721e+02
2.750000e-06	-3.255159e-06	-4.195599e-09	-2.752947e+01	-2.760251e+02
2.760000e-06	-3.365472e-06	-4.269426e-09	-2.846241e+01	-2.808196e+02
2.770000e-06	-3.474649e-06	-4.339011e-09	-2.938574e+01	-2.852991e+02
2.780000e-06	-3.582644e-06	-4.405492e-09	-3.029907e+01	-2.894951e+02
2.790000e-06	-3.689528e-06	-4.467173e-09	-3.120301e+01	-2.934297e+02
2.800000e-06	-3.795240e-06	-4.525490e-09	-3.209703e+01	-2.971196e+02
2.810000e-06	-3.899453e-06	-4.582176e-09	-3.297838e+01	-3.005785e+02
2.820000e-06	-4.002222e-06	-4.634421e-09	-3.384752e+01	-3.038192e+02
2.830000e-06	-4.103497e-06	-4.680653e-09	-3.470402e+01	-3.068555e+02
2.840000e-06	-4.203203e-06	-4.724547e-09	-3.554725e+01	-3.097025e+02
2.850000e-06	-4.301549e-06	-4.767325e-09	-3.637898e+01	-3.123764e+02
2.860000e-06	-4.398539e-06	-4.807801e-09	-3.719924e+01	-3.148938e+02
2.870000e-06	-4.494013e-06	-4.846859e-09	-3.800668e+01	-3.172707e+02
2.880000e-06	-4.587847e-06	-4.885194e-09	-3.880025e+01	-3.195216e+02
2.890000e-06	-4.680009e-06	-4.922460e-09	-3.957968e+01	-3.216584e+02
2.900000e-06	-4.770598e-06	-4.957191e-09	-4.034581e+01	-3.236901e+02
2.910000e-06	-4.859515e-06	-4.987572e-09	-4.109780e+01	-3.256227e+02
2.920000e-06	-4.946663e-06	-5.015015e-09	-4.183482e+01	-3.274594e+02
2.930000e-06	-5.031982e-06	-5.042308e-09	-4.255638e+01	-3.292017e+02
2.940000e-06	-5.115443e-06	-5.067726e-09	-4.326223e+01	-3.308500e+02
