# Temperatura_=_20.0
# Concentracion g/m^3_=_9000.0
# C_Vs_to_Am_M_A/Vsm_=_65563218390.804596
# pendiente_HvsI_1/m_=_3716.3
# ordenada_HvsI_A/m_=_1297.0
# frecuencia_Hz_=_301075.5901940458

Tiempo_(s)	Campo_(V.s)	Magnetizacion_(V.s)	Campo_(kA/m)	Magnetizacion_(A/m)
0.000000e+00	-6.721929e-06	-5.439113e-09	-5.670426e+01	-3.562100e+02
1.000000e-08	-6.718670e-06	-5.440708e-09	-5.667676e+01	-3.560951e+02
2.000000e-08	-6.713270e-06	-5.440139e-09	-5.663121e+01	-3.559355e+02
3.000000e-08	-6.705761e-06	-5.438164e-09	-5.656787e+01	-3.557350e+02
4.000000e-08	-6.695884e-06	-5.433201e-09	-5.648455e+01	-3.554979e+02
5.000000e-08	-6.683508e-06	-5.428164e-09	-5.638015e+01	-3.552294e+02
6.000000e-08	-6.668668e-06	-5.418649e-09	-5.625496e+01	-3.549349e+02
7.000000e-08	-6.651469e-06	-5.408359e-09	-5.610988e+01	-3.546194e+02
8.000000e-08	-6.632172e-06	-5.441004e-09	-5.594709e+01	-3.542879e+02
9.000000e-08	-6.610587e-06	-5.476642e-09	-5.576501e+01	-3.539439e+02
1.000000e-07	-6.586311e-06	-5.444288e-09	-5.556023e+01	-3.535899e+02
1.100000e-07	-6.559357e-06	-5.403907e-09	-5.533285e+01	-3.532265e+02
1.200000e-07	-6.530091e-06	-5.391823e-09	-5.508597e+01	-3.528524e+02
1.300000e-07	-6.498927e-06	-5.352665e-09	-5.482308e+01	-3.524642e+02
1.400000e-07	-6.465990e-06	-5.337897e-09	-5.454523e+01	-3.520566e+02
1.500000e-07	-6.431106e-06	-5.424218e-09	-5.425096e+01	-3.516226e+02
1.600000e-07	-6.394134e-06	-5.346947e-09	-5.393907e+01	-3.511538e+02
1.700000e-07	-6.355090e-06	-5.306822e-09	-5.360971e+01	-3.506416e+02
1.800000e-07	-6.313710e-06	-5.373489e-09	-5.326064e+01	-3.500772e+02
1.900000e-07	-6.269797e-06	-5.310097e-09	-5.289020e+01	-3.494530e+02
2.000000e-07	-6.223596e-06	-5.324169e-09	-5.250046e+01	-3.487627e+02
2.100000e-07	-6.174953e-06	-5.313326e-09	-5.209012e+01	-3.480026e+02
2.200000e-07	-6.123693e-06	-5.284771e-09	-5.165771e+01	-3.471711e+02
2.300000e-07	-6.070069e-06	-5.291420e-09	-5.120535e+01	-3.462696e+02
2.400000e-07	-6.014205e-06	-5.255807e-09	-5.073410e+01	-3.453016e+02
2.500000e-07	-5.956124e-06	-5.271828e-09	-5.024414e+01	-3.442725e+02
2.600000e-07	-5.895877e-06	-5.246789e-09	-4.973592e+01	-3.431890e+02
2.700000e-07	-5.833551e-06	-5.194877e-09	-4.921015e+01	-3.420579e+02
2.800000e-07	-5.769163e-06	-5.193447e-09	-4.866699e+01	-3.408857e+02
2.900000e-07	-5.702661e-06	-5.194442e-09	-4.810601e+01	-3.396774e+02
3.000000e-07	-5.634030e-06	-5.179439e-09	-4.752705e+01	-3.384361e+02
3.100000e-07	-5.563315e-06	-5.130302e-09	-4.693053e+01	-3.371627e+02
3.200000e-07	-5.490627e-06	-5.141170e-09	-4.631735e+01	-3.358559e+02
3.300000e-07	-5.415816e-06	-5.113764e-09	-4.568626e+01	-3.345123e+02
3.400000e-07	-5.338753e-06	-5.064438e-09	-4.503618e+01	-3.331274e+02
3.500000e-07	-5.259539e-06	-5.069952e-09	-4.436795e+01	-3.316958e+02
3.600000e-07	-5.178307e-06	-5.043589e-09	-4.368270e+01	-3.302122e+02
3.700000e-07	-5.095281e-06	-5.003588e-09	-4.298232e+01	-3.286724e+02
3.800000e-07	-5.010612e-06	-4.969737e-09	-4.226808e+01	-3.270731e+02
3.900000e-07	-4.924370e-06	-4.971282e-09	-4.154057e+01	-3.254128e+02
4.000000e-07	-4.836486e-06	-4.944613e-09	-4.079921e+01	-3.236914e+02
4.100000e-07	-4.746792e-06	-4.900850e-09	-4.004257e+01	-3.219100e+02
4.200000e-07	-4.655292e-06	-4.883409e-09	-3.927071e+01	-3.200701e+02
4.300000e-07	-4.562154e-06	-4.862129e-09	-3.848502e+01	-3.181730e+02
4.400000e-07	-4.467460e-06	-4.830795e-09	-3.768621e+01	-3.162188e+02
4.500000e-07	-4.371128e-06	-4.796418e-09	-3.687358e+01	-3.142061e+02
4.600000e-07	-4.273164e-06	-4.772297e-09	-3.604718e+01	-3.121312e+02
4.700000e-07	-4.173610e-06	-4.729071e-09	-3.520737e+01	-3.099880e+02
4.800000e-07	-4.072532e-06	-4.683917e-09	-3.435471e+01	-3.077687e+02
4.900000e-07	-3.970100e-06	-4.655804e-09	-3.349062e+01	-3.054636e+02
5.000000e-07	-3.866215e-06	-4.625697e-09	-3.261427e+01	-3.030625e+02
5.100000e-07	-3.760856e-06	-4.578932e-09	-3.172549e+01	-3.005552e+02
5.200000e-07	-3.654131e-06	-4.533474e-09	-3.082520e+01	-2.979329e+02
5.300000e-07	-3.546058e-06	-4.503031e-09	-2.991352e+01	-2.951882e+02
5.400000e-07	-3.436741e-06	-4.465813e-09	-2.899135e+01	-2.923161e+02
5.500000e-07	-3.326346e-06	-4.416292e-09	-2.806009e+01	-2.893137e+02
5.600000e-07	-3.214752e-06	-4.367282e-09	-2.711872e+01	-2.861796e+02
5.700000e-07	-3.101777e-06	-4.319163e-09	-2.616570e+01	-2.829135e+02
5.800000e-07	-2.987540e-06	-4.261935e-09	-2.520202e+01	-2.795147e+02
5.900000e-07	-2.872111e-06	-4.207846e-09	-2.422830e+01	-2.759813e+02
6.000000e-07	-2.755573e-06	-4.156550e-09	-2.324522e+01	-2.723083e+02
6.100000e-07	-2.638045e-06	-4.097974e-09	-2.225378e+01	-2.684875e+02
6.200000e-07	-2.519720e-06	-4.032543e-09	-2.125563e+01	-2.645064e+02
6.300000e-07	-2.400447e-06	-3.970261e-09	-2.024948e+01	-2.603485e+02
6.400000e-07	-2.280062e-06	-3.906399e-09	-1.923395e+01	-2.559933e+02
6.500000e-07	-2.158866e-06	-3.833767e-09	-1.821157e+01	-2.514172e+02
6.600000e-07	-2.037063e-06	-3.756174e-09	-1.718408e+01	-2.465946e+02
6.700000e-07	-1.914480e-06	-3.678440e-09	-1.615000e+01	-2.414989e+02
6.800000e-07	-1.791047e-06	-3.598305e-09	-1.510876e+01	-2.361033e+02
6.900000e-07	-1.666983e-06	-3.508910e-09	-1.406219e+01	-2.303808e+02
7.000000e-07	-1.542375e-06	-3.415389e-09	-1.301103e+01	-2.243047e+02
7.100000e-07	-1.417227e-06	-3.318212e-09	-1.195532e+01	-2.178471e+02
7.200000e-07	-1.291637e-06	-3.215286e-09	-1.089588e+01	-2.109780e+02
7.300000e-07	-1.165711e-06	-3.103273e-09	-9.833604e+00	-2.036628e+02
7.400000e-07	-1.039449e-06	-2.984599e-09	-8.768490e+00	-1.958610e+02
7.500000e-07	-9.127916e-07	-2.856277e-09	-7.700047e+00	-1.875243e+02
7.600000e-07	-7.857798e-07	-2.714414e-09	-6.628612e+00	-1.785955e+02
7.700000e-07	-6.584484e-07	-2.563881e-09	-5.554481e+00	-1.690085e+02
7.800000e-07	-5.308210e-07	-2.404903e-09	-4.477853e+00	-1.586902e+02
7.900000e-07	-4.029984e-07	-2.233191e-09	-3.399578e+00	-1.475631e+02
8.000000e-07	-2.750069e-07	-2.048239e-09	-2.319879e+00	-1.355506e+02
8.100000e-07	-1.468603e-07	-1.851971e-09	-1.238872e+00	-1.225824e+02
8.200000e-07	-1.861512e-08	-1.638941e-09	-1.570318e-01	-1.086022e+02
8.300000e-07	1.096472e-07	-1.409011e-09	9.249520e-01	-9.357469e+01
8.400000e-07	2.378279e-07	-1.164267e-09	2.006248e+00	-7.749334e+01
8.500000e-07	3.658431e-07	-9.047896e-10	3.086147e+00	-6.038609e+01
8.600000e-07	4.937017e-07	-6.300998e-10	4.164725e+00	-4.232003e+01
8.700000e-07	6.213930e-07	-3.414132e-10	5.241892e+00	-2.340339e+01
8.800000e-07	7.487732e-07	-4.169273e-11	6.316435e+00	-3.784747e+00
8.900000e-07	8.758211e-07	2.659370e-10	7.388174e+00	1.635070e+01
9.000000e-07	1.002594e-06	5.799508e-10	8.457597e+00	3.678782e+01
9.100000e-07	1.129057e-06	8.955604e-10	9.524399e+00	5.729064e+01
9.200000e-07	1.255141e-06	1.205378e-09	1.058801e+01	7.761342e+01
9.300000e-07	1.380820e-06	1.508199e-09	1.164820e+01	9.751259e+01
9.400000e-07	1.506121e-06	1.801911e-09	1.270520e+01	1.167589e+02
9.500000e-07	1.630943e-06	2.081458e-09	1.375816e+01	1.351485e+02
9.600000e-07	1.755227e-06	2.343330e-09	1.480659e+01	1.525126e+02
9.700000e-07	1.878969e-06	2.588555e-09	1.585044e+01	1.687239e+02
9.800000e-07	2.002005e-06	2.815508e-09	1.688834e+01	1.837008e+02
9.900000e-07	2.124249e-06	3.020704e-09	1.791956e+01	1.974078e+02
1.000000e-06	2.245700e-06	3.207270e-09	1.894408e+01	2.098535e+02
1.010000e-06	2.366347e-06	3.375149e-09	1.996182e+01	2.210847e+02
1.020000e-06	2.486107e-06	3.525752e-09	2.097208e+01	2.311798e+02
1.030000e-06	2.604856e-06	3.662046e-09	2.197382e+01	2.402397e+02
1.040000e-06	2.722719e-06	3.787663e-09	2.296807e+01	2.483787e+02
1.050000e-06	2.839709e-06	3.902112e-09	2.395497e+01	2.557157e+02
1.060000e-06	2.955640e-06	4.005670e-09	2.493293e+01	2.623663e+02
1.070000e-06	3.070324e-06	4.100793e-09	2.590037e+01	2.684365e+02
1.080000e-06	3.183691e-06	4.189905e-09	2.685670e+01	2.740182e+02
1.090000e-06	3.295848e-06	4.272360e-09	2.780282e+01	2.791872e+02
1.100000e-06	3.406789e-06	4.344369e-09	2.873869e+01	2.840024e+02
1.110000e-06	3.516543e-06	4.409221e-09	2.966454e+01	2.885073e+02
1.120000e-06	3.625196e-06	4.469517e-09	3.058111e+01	2.927323e+02
1.130000e-06	3.732692e-06	4.527307e-09	3.148792e+01	2.966979e+02
1.140000e-06	3.838847e-06	4.582881e-09	3.238341e+01	3.004182e+02
1.150000e-06	3.943540e-06	4.634664e-09	3.326656e+01	3.039040e+02
1.160000e-06	4.046767e-06	4.681495e-09	3.413736e+01	3.071653e+02
1.170000e-06	4.148545e-06	4.725425e-09	3.499593e+01	3.102132e+02
1.180000e-06	4.248902e-06	4.768267e-09	3.584251e+01	3.130609e+02
1.190000e-06	4.347756e-06	4.810206e-09	3.667642e+01	3.157236e+02
1.200000e-06	4.444942e-06	4.847801e-09	3.749625e+01	3.182184e+02
1.210000e-06	4.540420e-06	4.881087e-09	3.830167e+01	3.205628e+02
1.220000e-06	4.634274e-06	4.911460e-09	3.909340e+01	3.227737e+02
1.230000e-06	4.726632e-06	4.940494e-09	3.987251e+01	3.248667e+02
1.240000e-06	4.817391e-06	4.966877e-09	4.063813e+01	3.268546e+02
1.250000e-06	4.906363e-06	4.991104e-09	4.138866e+01	3.287475e+02
1.260000e-06	4.993581e-06	5.015901e-09	4.212441e+01	3.305524e+02
1.270000e-06	5.079095e-06	5.042121e-09	4.284578e+01	3.322736e+02
1.280000e-06	5.162947e-06	5.069202e-09	4.355313e+01	3.339136e+02
1.290000e-06	5.245033e-06	5.091986e-09	4.424559e+01	3.354736e+02
1.300000e-06	5.325155e-06	5.111985e-09	4.492147e+01	3.369544e+02
1.310000e-06	5.403336e-06	5.131791e-09	4.558098e+01	3.383575e+02
1.320000e-06	5.479615e-06	5.151464e-09	4.622445e+01	3.396850e+02
1.330000e-06	5.553787e-06	5.169748e-09	4.685015e+01	3.409402e+02
1.340000e-06	5.625756e-06	5.185762e-09	4.745726e+01	3.421276e+02
1.350000e-06	5.695700e-06	5.201355e-09	4.804728e+01	3.432523e+02
1.360000e-06	5.763733e-06	5.218002e-09	4.862119e+01	3.443196e+02
1.370000e-06	5.829731e-06	5.235913e-09	4.917793e+01	3.453349e+02
1.380000e-06	5.893526e-06	5.252003e-09	4.971608e+01	3.463025e+02
1.390000e-06	5.955289e-06	5.265835e-09	5.023710e+01	3.472257e+02
1.400000e-06	6.015164e-06	5.279400e-09	5.074219e+01	3.481066e+02
1.410000e-06	6.072927e-06	5.292513e-09	5.122946e+01	3.489458e+02
1.420000e-06	6.128502e-06	5.304483e-09	5.169828e+01	3.497430e+02
1.430000e-06	6.181898e-06	5.314869e-09	5.214871e+01	3.504974e+02
1.440000e-06	6.232737e-06	5.325125e-09	5.257757e+01	3.512077e+02
1.450000e-06	6.280911e-06	5.336456e-09	5.298395e+01	3.518733e+02
1.460000e-06	6.326802e-06	5.348195e-09	5.337108e+01	3.524940e+02
1.470000e-06	6.370626e-06	5.359161e-09	5.374076e+01	3.530708e+02
1.480000e-06	6.412142e-06	5.369027e-09	5.409098e+01	3.536057e+02
1.490000e-06	6.451225e-06	5.377703e-09	5.442067e+01	3.541016e+02
1.500000e-06	6.488123e-06	5.385381e-09	5.473194e+01	3.545622e+02
1.510000e-06	6.522829e-06	5.392876e-09	5.502471e+01	3.549915e+02
1.520000e-06	6.555188e-06	5.400139e-09	5.529768e+01	3.553935e+02
1.530000e-06	6.585237e-06	5.406457e-09	5.555117e+01	3.557712e+02
1.540000e-06	6.613156e-06	5.412051e-09	5.578668e+01	3.561271e+02
1.550000e-06	6.638757e-06	5.418107e-09	5.600264e+01	3.564623e+02
1.560000e-06	6.661840e-06	5.425264e-09	5.619737e+01	3.567763e+02
1.570000e-06	6.682650e-06	5.431764e-09	5.637291e+01	3.570675e+02
1.580000e-06	6.701313e-06	5.436134e-09	5.653034e+01	3.573332e+02
1.590000e-06	6.717525e-06	5.439538e-09	5.666710e+01	3.575698e+02
1.600000e-06	6.731181e-06	5.443489e-09	5.678230e+01	3.577730e+02
1.610000e-06	6.742280e-06	5.447221e-09	5.687593e+01	3.579387e+02
1.620000e-06	6.750702e-06	5.449763e-09	5.694698e+01	3.580628e+02
1.630000e-06	6.756689e-06	5.451333e-09	5.699748e+01	3.581422e+02
1.640000e-06	6.760476e-06	5.453290e-09	5.702943e+01	3.581743e+02
1.650000e-06	6.761907e-06	5.458143e-09	5.704150e+01	3.581580e+02
1.660000e-06	6.760932e-06	5.457098e-09	5.703327e+01	3.580931e+02
1.670000e-06	6.757825e-06	5.453819e-09	5.700706e+01	3.579810e+02
1.680000e-06	6.752607e-06	5.451865e-09	5.696305e+01	3.578241e+02
1.690000e-06	6.745060e-06	5.449059e-09	5.689938e+01	3.576259e+02
1.700000e-06	6.735250e-06	5.446357e-09	5.681663e+01	3.573908e+02
1.710000e-06	6.723261e-06	5.443584e-09	5.671550e+01	3.571239e+02
1.720000e-06	6.708868e-06	5.448095e-09	5.659408e+01	3.568306e+02
1.730000e-06	6.692227e-06	5.431648e-09	5.645370e+01	3.565160e+02
1.740000e-06	6.673515e-06	5.350580e-09	5.629585e+01	3.561850e+02
1.750000e-06	6.652074e-06	5.347487e-09	5.611498e+01	3.558414e+02
1.760000e-06	6.627381e-06	5.381122e-09	5.590668e+01	3.554876e+02
1.770000e-06	6.600009e-06	5.385956e-09	5.567578e+01	3.551244e+02
1.780000e-06	6.570595e-06	5.448103e-09	5.542765e+01	3.547507e+02
1.790000e-06	6.539338e-06	5.463408e-09	5.516397e+01	3.543632e+02
1.800000e-06	6.506479e-06	5.334383e-09	5.488678e+01	3.539568e+02
1.810000e-06	6.471661e-06	5.404049e-09	5.459307e+01	3.535244e+02
1.820000e-06	6.434414e-06	5.412954e-09	5.427887e+01	3.530580e+02
1.830000e-06	6.394946e-06	5.343734e-09	5.394592e+01	3.525487e+02
1.840000e-06	6.353269e-06	5.447576e-09	5.359434e+01	3.519879e+02
1.850000e-06	6.309450e-06	5.334685e-09	5.322470e+01	3.513677e+02
1.860000e-06	6.263505e-06	5.347679e-09	5.283712e+01	3.506818e+02
1.870000e-06	6.215118e-06	5.384728e-09	5.242895e+01	3.499263e+02
1.880000e-06	6.164483e-06	5.302503e-09	5.200180e+01	3.490995e+02
1.890000e-06	6.111459e-06	5.357515e-09	5.155451e+01	3.482024e+02
1.900000e-06	6.055849e-06	5.265591e-09	5.108540e+01	3.472385e+02
1.910000e-06	5.998025e-06	5.277091e-09	5.059761e+01	3.462131e+02
1.920000e-06	5.938197e-06	5.321716e-09	5.009292e+01	3.451328e+02
1.930000e-06	5.876261e-06	5.232214e-09	4.957045e+01	3.440045e+02
1.940000e-06	5.812067e-06	5.253548e-09	4.902892e+01	3.428346e+02
1.950000e-06	5.745773e-06	5.192570e-09	4.846969e+01	3.416283e+02
1.960000e-06	5.677391e-06	5.213448e-09	4.789283e+01	3.403888e+02
1.970000e-06	5.606719e-06	5.167135e-09	4.729667e+01	3.391173e+02
1.980000e-06	5.533951e-06	5.146480e-09	4.668282e+01	3.378124e+02
1.990000e-06	5.459206e-06	5.172078e-09	4.605229e+01	3.364712e+02
2.000000e-06	5.382336e-06	5.086236e-09	4.540383e+01	3.350889e+02
2.010000e-06	5.303302e-06	5.114572e-09	4.473712e+01	3.336604e+02
2.020000e-06	5.222357e-06	5.076675e-09	4.405430e+01	3.321802e+02
2.030000e-06	5.139739e-06	5.061078e-09	4.335735e+01	3.306441e+02
2.040000e-06	5.055301e-06	5.017467e-09	4.264506e+01	3.290486e+02
2.050000e-06	4.968963e-06	4.985414e-09	4.191674e+01	3.273922e+02
2.060000e-06	4.880751e-06	4.988099e-09	4.117261e+01	3.256748e+02
2.070000e-06	4.790822e-06	4.931740e-09	4.041399e+01	3.238971e+02
2.080000e-06	4.699310e-06	4.924269e-09	3.964203e+01	3.220609e+02
2.090000e-06	4.606169e-06	4.884986e-09	3.885631e+01	3.201674e+02
2.100000e-06	4.511308e-06	4.864253e-09	3.805610e+01	3.182169e+02
2.110000e-06	4.414799e-06	4.824762e-09	3.724197e+01	3.162080e+02
2.120000e-06	4.316850e-06	4.806769e-09	3.641570e+01	3.141372e+02
2.130000e-06	4.217496e-06	4.777061e-09	3.557758e+01	3.119987e+02
2.140000e-06	4.116598e-06	4.721418e-09	3.472643e+01	3.097847e+02
2.150000e-06	4.014061e-06	4.693436e-09	3.386146e+01	3.074856e+02
2.160000e-06	3.909971e-06	4.661064e-09	3.298338e+01	3.050912e+02
2.170000e-06	3.804466e-06	4.628883e-09	3.209338e+01	3.025914e+02
2.180000e-06	3.697768e-06	4.572358e-09	3.119330e+01	2.999771e+02
2.190000e-06	3.589890e-06	4.535743e-09	3.028328e+01	2.972409e+02
2.200000e-06	3.480775e-06	4.495508e-09	2.936281e+01	2.943776e+02
2.210000e-06	3.370458e-06	4.454798e-09	2.843221e+01	2.913840e+02
2.220000e-06	3.258847e-06	4.408631e-09	2.749070e+01	2.882589e+02
2.230000e-06	3.145950e-06	4.360296e-09	2.653833e+01	2.850018e+02
2.240000e-06	3.031846e-06	4.302751e-09	2.557578e+01	2.816121e+02
2.250000e-06	2.916659e-06	4.244956e-09	2.460410e+01	2.780879e+02
2.260000e-06	2.800280e-06	4.197151e-09	2.362235e+01	2.744247e+02
2.270000e-06	2.682730e-06	4.139508e-09	2.263074e+01	2.706143e+02
2.280000e-06	2.564099e-06	4.073871e-09	2.163000e+01	2.666448e+02
2.290000e-06	2.444404e-06	4.005700e-09	2.062029e+01	2.624997e+02
2.300000e-06	2.323833e-06	3.947796e-09	1.960318e+01	2.581588e+02
2.310000e-06	2.202488e-06	3.882477e-09	1.857956e+01	2.535989e+02
2.320000e-06	2.080425e-06	3.808566e-09	1.754987e+01	2.487943e+02
2.330000e-06	1.957776e-06	3.727537e-09	1.651523e+01	2.437186e+02
2.340000e-06	1.834594e-06	3.644880e-09	1.547611e+01	2.383448e+02
2.350000e-06	1.710685e-06	3.558156e-09	1.443084e+01	2.326461e+02
2.360000e-06	1.586030e-06	3.469860e-09	1.337929e+01	2.265957e+02
2.370000e-06	1.460734e-06	3.375390e-09	1.232233e+01	2.201659e+02
2.380000e-06	1.334930e-06	3.267733e-09	1.126109e+01	2.133267e+02
2.390000e-06	1.208784e-06	3.154635e-09	1.019695e+01	2.060442e+02
2.400000e-06	1.082324e-06	3.039736e-09	9.130173e+00	1.982783e+02
2.410000e-06	9.555151e-07	2.920937e-09	8.060450e+00	1.899811e+02
2.420000e-06	8.283287e-07	2.786694e-09	6.987542e+00	1.810962e+02
2.430000e-06	7.007536e-07	2.638867e-09	5.911355e+00	1.715581e+02
2.440000e-06	5.728510e-07	2.482835e-09	4.832406e+00	1.612941e+02
2.450000e-06	4.446596e-07	2.315814e-09	3.751021e+00	1.502270e+02
2.460000e-06	3.162559e-07	2.135007e-09	2.667843e+00	1.382797e+02
2.470000e-06	1.877686e-07	1.938539e-09	1.583961e+00	1.253814e+02
2.480000e-06	5.924090e-08	1.724142e-09	4.997392e-01	1.114744e+02
2.490000e-06	-6.930214e-08	1.495031e-09	-5.846129e-01	9.652189e+01
2.500000e-06	-1.978281e-07	1.255054e-09	-1.668821e+00	8.051487e+01
2.510000e-06	-3.262497e-07	1.000444e-09	-2.752149e+00	6.347870e+01
2.520000e-06	-4.544945e-07	7.262529e-10	-3.833985e+00	4.547757e+01
2.530000e-06	-5.825327e-07	4.353398e-10	-4.914078e+00	2.661676e+01
2.540000e-06	-7.103230e-07	1.357768e-10	-5.992080e+00	7.042068e+00
2.550000e-06	-8.378122e-07	-1.692753e-10	-7.067543e+00	-1.306375e+01
2.560000e-06	-9.649438e-07	-4.794200e-10	-8.139988e+00	-3.348741e+01
2.570000e-06	-1.091666e-06	-7.946646e-10	-9.208977e+00	-5.399410e+01
2.580000e-06	-1.217962e-06	-1.108852e-09	-1.027438e+01	-7.433837e+01
2.590000e-06	-1.343873e-06	-1.413394e-09	-1.133652e+01	-9.427610e+01
2.600000e-06	-1.469331e-06	-1.704378e-09	-1.239485e+01	-1.135766e+02
2.610000e-06	-1.594260e-06	-1.982545e-09	-1.344872e+01	-1.320340e+02
2.620000e-06	-1.718549e-06	-2.251373e-09	-1.449719e+01	-1.494765e+02
2.630000e-06	-1.842088e-06	-2.506050e-09	-1.553932e+01	-1.657738e+02
2.640000e-06	-1.964910e-06	-2.738537e-09	-1.657541e+01	-1.808410e+02
2.650000e-06	-2.087104e-06	-2.948676e-09	-1.760621e+01	-1.946395e+02
2.660000e-06	-2.208633e-06	-3.141612e-09	-1.863139e+01	-2.071746e+02
2.670000e-06	-2.329391e-06	-3.318332e-09	-1.965007e+01	-2.184907e+02
2.680000e-06	-2.449372e-06	-3.475839e-09	-2.066219e+01	-2.286643e+02
2.690000e-06	-2.568409e-06	-3.613998e-09	-2.166636e+01	-2.377949e+02
2.700000e-06	-2.686336e-06	-3.737509e-09	-2.266116e+01	-2.459962e+02
2.710000e-06	-2.803133e-06	-3.851860e-09	-2.364642e+01	-2.533870e+02
2.720000e-06	-2.918769e-06	-3.958654e-09	-2.462189e+01	-2.600834e+02
2.730000e-06	-3.033207e-06	-4.052273e-09	-2.558726e+01	-2.661923e+02
2.740000e-06	-3.146377e-06	-4.132481e-09	-2.654193e+01	-2.718067e+02
2.750000e-06	-3.258265e-06	-4.208175e-09	-2.748579e+01	-2.770035e+02
2.760000e-06	-3.368880e-06	-4.283698e-09	-2.841890e+01	-2.818428e+02
2.770000e-06	-3.478314e-06	-4.356527e-09	-2.934206e+01	-2.863692e+02
2.780000e-06	-3.586654e-06	-4.420134e-09	-3.025598e+01	-2.906138e+02
2.790000e-06	-3.693863e-06	-4.477334e-09	-3.116036e+01	-2.945979e+02
2.800000e-06	-3.799864e-06	-4.535574e-09	-3.205456e+01	-2.983358e+02
2.810000e-06	-3.904482e-06	-4.594150e-09	-3.293709e+01	-3.018385e+02
2.820000e-06	-4.007564e-06	-4.647759e-09	-3.380666e+01	-3.051159e+02
2.830000e-06	-4.109105e-06	-4.694100e-09	-3.466322e+01	-3.081791e+02
2.840000e-06	-4.209197e-06	-4.737970e-09	-3.550757e+01	-3.110410e+02
2.850000e-06	-4.307910e-06	-4.781637e-09	-3.634029e+01	-3.137169e+02
2.860000e-06	-4.405222e-06	-4.823621e-09	-3.716118e+01	-3.162236e+02
2.870000e-06	-4.500973e-06	-4.861564e-09	-3.796891e+01	-3.185786e+02
2.880000e-06	-4.595039e-06	-4.895953e-09	-3.876243e+01	-3.207990e+02
2.890000e-06	-4.687506e-06	-4.929559e-09	-3.954245e+01	-3.229004e+02
2.900000e-06	-4.778421e-06	-4.963510e-09	-4.030938e+01	-3.248959e+02
2.910000e-06	-4.867651e-06	-4.995315e-09	-4.106210e+01	-3.267957e+02
2.920000e-06	-4.955098e-06	-5.023855e-09	-4.179978e+01	-3.286072e+02
2.930000e-06	-5.040676e-06	-5.050932e-09	-4.252169e+01	-3.303347e+02
2.940000e-06	-5.124447e-06	-5.076955e-09	-4.322836e+01	-3.319809e+02
