# Temperatura_=_20.0
# Concentracion g/m^3_=_9000.0
# C_Vs_to_Am_M_A/Vsm_=_65563218390.804596
# pendiente_HvsI_1/m_=_3716.3
# ordenada_HvsI_A/m_=_1297.0
# frecuencia_Hz_=_301075.40755174

Tiempo_(s)	Campo_(V.s)	Magnetizacion_(V.s)	Campo_(kA/m)	Magnetizacion_(A/m)
0.000000e+00	-6.711451e-06	-5.418548e-09	-5.670288e+01	-3.547606e+02
1.000000e-08	-6.708178e-06	-5.419051e-09	-5.667523e+01	-3.546509e+02
2.000000e-08	-6.702774e-06	-5.417426e-09	-5.662957e+01	-3.545051e+02
3.000000e-08	-6.695357e-06	-5.415057e-09	-5.656691e+01	-3.543254e+02
4.000000e-08	-6.685644e-06	-5.408961e-09	-5.648484e+01	-3.541141e+02
5.000000e-08	-6.673366e-06	-5.403517e-09	-5.638111e+01	-3.538738e+02
6.000000e-08	-6.658521e-06	-5.393803e-09	-5.625569e+01	-3.536070e+02
7.000000e-08	-6.641336e-06	-5.379138e-09	-5.611050e+01	-3.533166e+02
8.000000e-08	-6.622125e-06	-5.414379e-09	-5.594819e+01	-3.530054e+02
9.000000e-08	-6.600656e-06	-5.465074e-09	-5.576681e+01	-3.526759e+02
1.000000e-07	-6.576498e-06	-5.430538e-09	-5.556270e+01	-3.523300e+02
1.100000e-07	-6.549669e-06	-5.382271e-09	-5.533603e+01	-3.519690e+02
1.200000e-07	-6.520555e-06	-5.368463e-09	-5.509006e+01	-3.515930e+02
1.300000e-07	-6.489506e-06	-5.323152e-09	-5.482774e+01	-3.512003e+02
1.400000e-07	-6.456683e-06	-5.299127e-09	-5.455043e+01	-3.507881e+02
1.500000e-07	-6.421903e-06	-5.419918e-09	-5.425658e+01	-3.503514e+02
1.600000e-07	-6.384998e-06	-5.334244e-09	-5.394478e+01	-3.498843e+02
1.700000e-07	-6.346070e-06	-5.266858e-09	-5.361589e+01	-3.493793e+02
1.800000e-07	-6.304798e-06	-5.358472e-09	-5.326720e+01	-3.488290e+02
1.900000e-07	-6.261016e-06	-5.277993e-09	-5.289729e+01	-3.482257e+02
2.000000e-07	-6.215098e-06	-5.302114e-09	-5.250935e+01	-3.475632e+02
2.100000e-07	-6.166808e-06	-5.300237e-09	-5.210137e+01	-3.468365e+02
2.200000e-07	-6.115802e-06	-5.250966e-09	-5.167044e+01	-3.460430e+02
2.300000e-07	-6.062339e-06	-5.267371e-09	-5.121874e+01	-3.451826e+02
2.400000e-07	-6.006638e-06	-5.227854e-09	-5.074814e+01	-3.442573e+02
2.500000e-07	-5.948669e-06	-5.248147e-09	-5.025838e+01	-3.432715e+02
2.600000e-07	-5.888530e-06	-5.235952e-09	-4.975028e+01	-3.422308e+02
2.700000e-07	-5.826371e-06	-5.172466e-09	-4.922513e+01	-3.411417e+02
2.800000e-07	-5.762167e-06	-5.167118e-09	-4.868268e+01	-3.400102e+02
2.900000e-07	-5.695827e-06	-5.177147e-09	-4.812220e+01	-3.388414e+02
3.000000e-07	-5.627308e-06	-5.170123e-09	-4.754331e+01	-3.376384e+02
3.100000e-07	-5.556700e-06	-5.100988e-09	-4.694676e+01	-3.364022e+02
3.200000e-07	-5.484217e-06	-5.114075e-09	-4.633438e+01	-3.351311e+02
3.300000e-07	-5.409687e-06	-5.098694e-09	-4.570469e+01	-3.338216e+02
3.400000e-07	-5.332866e-06	-5.038105e-09	-4.505566e+01	-3.324683e+02
3.500000e-07	-5.253858e-06	-5.051173e-09	-4.438815e+01	-3.310651e+02
3.600000e-07	-5.172833e-06	-5.032144e-09	-4.370359e+01	-3.296057e+02
3.700000e-07	-5.090007e-06	-4.988865e-09	-4.300382e+01	-3.280849e+02
3.800000e-07	-5.005542e-06	-4.949775e-09	-4.229021e+01	-3.264988e+02
3.900000e-07	-4.919500e-06	-4.959736e-09	-4.156326e+01	-3.248453e+02
4.000000e-07	-4.831843e-06	-4.939864e-09	-4.082267e+01	-3.231246e+02
4.100000e-07	-4.742484e-06	-4.886979e-09	-4.006771e+01	-3.213380e+02
4.200000e-07	-4.651262e-06	-4.867402e-09	-3.929701e+01	-3.194883e+02
4.300000e-07	-4.558258e-06	-4.852225e-09	-3.851125e+01	-3.175779e+02
4.400000e-07	-4.463711e-06	-4.818956e-09	-3.771245e+01	-3.156088e+02
4.500000e-07	-4.367578e-06	-4.774806e-09	-3.690025e+01	-3.135812e+02
4.600000e-07	-4.269814e-06	-4.751780e-09	-3.607427e+01	-3.114929e+02
4.700000e-07	-4.170414e-06	-4.714475e-09	-3.523448e+01	-3.093394e+02
4.800000e-07	-4.069548e-06	-4.666759e-09	-3.438229e+01	-3.071134e+02
4.900000e-07	-3.967355e-06	-4.640277e-09	-3.351890e+01	-3.048056e+02
5.000000e-07	-3.863666e-06	-4.615800e-09	-3.264286e+01	-3.024058e+02
5.100000e-07	-3.758584e-06	-4.567332e-09	-3.175506e+01	-2.999030e+02
5.200000e-07	-3.652158e-06	-4.517232e-09	-3.085591e+01	-2.972874e+02
5.300000e-07	-3.544310e-06	-4.488526e-09	-2.994472e+01	-2.945505e+02
5.400000e-07	-3.435209e-06	-4.451271e-09	-2.902297e+01	-2.916859e+02
5.500000e-07	-3.324984e-06	-4.394906e-09	-2.809171e+01	-2.886899e+02
5.600000e-07	-3.213563e-06	-4.345328e-09	-2.715036e+01	-2.855604e+02
5.700000e-07	-3.100886e-06	-4.302657e-09	-2.619838e+01	-2.822966e+02
5.800000e-07	-2.986947e-06	-4.248089e-09	-2.523575e+01	-2.788980e+02
5.900000e-07	-2.871711e-06	-4.192745e-09	-2.426216e+01	-2.753629e+02
6.000000e-07	-2.755309e-06	-4.142579e-09	-2.327871e+01	-2.716872e+02
6.100000e-07	-2.637986e-06	-4.086166e-09	-2.228749e+01	-2.678634e+02
6.200000e-07	-2.519820e-06	-4.019878e-09	-2.128914e+01	-2.638800e+02
6.300000e-07	-2.400688e-06	-3.956707e-09	-2.028263e+01	-2.597211e+02
6.400000e-07	-2.280558e-06	-3.893459e-09	-1.926770e+01	-2.553669e+02
6.500000e-07	-2.159636e-06	-3.820931e-09	-1.824606e+01	-2.507945e+02
6.600000e-07	-2.038064e-06	-3.742823e-09	-1.721895e+01	-2.459784e+02
6.700000e-07	-1.915722e-06	-3.667970e-09	-1.618532e+01	-2.408924e+02
6.800000e-07	-1.792523e-06	-3.590417e-09	-1.514445e+01	-2.355098e+02
6.900000e-07	-1.668641e-06	-3.500820e-09	-1.409781e+01	-2.298041e+02
7.000000e-07	-1.544175e-06	-3.407485e-09	-1.304623e+01	-2.237489e+02
7.100000e-07	-1.419206e-06	-3.311579e-09	-1.199041e+01	-2.173172e+02
7.200000e-07	-1.293883e-06	-3.208716e-09	-1.093160e+01	-2.104795e+02
7.300000e-07	-1.168205e-06	-3.095856e-09	-9.869785e+00	-2.032025e+02
7.400000e-07	-1.042117e-06	-2.976955e-09	-8.804507e+00	-1.954466e+02
7.500000e-07	-9.156382e-07	-2.848520e-09	-7.735931e+00	-1.871641e+02
7.600000e-07	-7.888391e-07	-2.706083e-09	-6.664646e+00	-1.782982e+02
7.700000e-07	-6.617505e-07	-2.557460e-09	-5.590916e+00	-1.687828e+02
7.800000e-07	-5.343773e-07	-2.404391e-09	-4.514781e+00	-1.585440e+02
7.900000e-07	-4.067785e-07	-2.235846e-09	-3.436740e+00	-1.475030e+02
8.000000e-07	-2.790548e-07	-2.049817e-09	-2.357644e+00	-1.355811e+02
8.100000e-07	-1.512408e-07	-1.853007e-09	-1.277784e+00	-1.227053e+02
8.200000e-07	-2.329213e-08	-1.643482e-09	-1.967877e-01	-1.088166e+02
8.300000e-07	1.046904e-07	-1.416450e-09	8.844956e-01	-9.387652e+01
8.400000e-07	2.325664e-07	-1.170504e-09	1.964878e+00	-7.787565e+01
8.500000e-07	3.603529e-07	-9.103712e-10	3.044505e+00	-6.083948e+01
8.600000e-07	4.879712e-07	-6.353483e-10	4.122710e+00	-4.283328e+01
8.700000e-07	6.153962e-07	-3.487100e-10	5.199283e+00	-2.396422e+01
8.800000e-07	7.426279e-07	-5.180830e-11	6.274223e+00	-4.380695e+00
8.900000e-07	8.695188e-07	2.549042e-10	7.346283e+00	1.573150e+01
9.000000e-07	9.960596e-07	5.689558e-10	8.415385e+00	3.615589e+01
9.100000e-07	1.122281e-06	8.844740e-10	9.481786e+00	5.665471e+01
9.200000e-07	1.248163e-06	1.192375e-09	1.054533e+01	7.698007e+01
9.300000e-07	1.373689e-06	1.495963e-09	1.160585e+01	9.688623e+01
9.400000e-07	1.498769e-06	1.792566e-09	1.266261e+01	1.161419e+02
9.500000e-07	1.623377e-06	2.071845e-09	1.371539e+01	1.345417e+02
9.600000e-07	1.747557e-06	2.331999e-09	1.476454e+01	1.519152e+02
9.700000e-07	1.871172e-06	2.576385e-09	1.580892e+01	1.681346e+02
9.800000e-07	1.994027e-06	2.801723e-09	1.684689e+01	1.831176e+02
9.900000e-07	2.116048e-06	3.004953e-09	1.787781e+01	1.968286e+02
1.000000e-06	2.237376e-06	3.191274e-09	1.890286e+01	2.092760e+02
1.010000e-06	2.357978e-06	3.360087e-09	1.992179e+01	2.205068e+02
1.020000e-06	2.477556e-06	3.511455e-09	2.093207e+01	2.305990e+02
1.030000e-06	2.596167e-06	3.649638e-09	2.193417e+01	2.396535e+02
1.040000e-06	2.713926e-06	3.778196e-09	2.292908e+01	2.477842e+02
1.050000e-06	2.830712e-06	3.893128e-09	2.391577e+01	2.551097e+02
1.060000e-06	2.946466e-06	3.994255e-09	2.489373e+01	2.617455e+02
1.070000e-06	3.061034e-06	4.087498e-09	2.586168e+01	2.677977e+02
1.080000e-06	3.174321e-06	4.173466e-09	2.681881e+01	2.733588e+02
1.090000e-06	3.286331e-06	4.250288e-09	2.776515e+01	2.785056e+02
1.100000e-06	3.397098e-06	4.320459e-09	2.870098e+01	2.832987e+02
1.110000e-06	3.506720e-06	4.387291e-09	2.962714e+01	2.877835e+02
1.120000e-06	3.615259e-06	4.448955e-09	3.054416e+01	2.919930e+02
1.130000e-06	3.722649e-06	4.506676e-09	3.145146e+01	2.959501e+02
1.140000e-06	3.828703e-06	4.562606e-09	3.234747e+01	2.996712e+02
1.150000e-06	3.933292e-06	4.615474e-09	3.323111e+01	3.031685e+02
1.160000e-06	4.036341e-06	4.663337e-09	3.410174e+01	3.064530e+02
1.170000e-06	4.137965e-06	4.706250e-09	3.496033e+01	3.095354e+02
1.180000e-06	4.238230e-06	4.746325e-09	3.580743e+01	3.124274e+02
1.190000e-06	4.336985e-06	4.786995e-09	3.664178e+01	3.151415e+02
1.200000e-06	4.434090e-06	4.825868e-09	3.746219e+01	3.176908e+02
1.210000e-06	4.529470e-06	4.860960e-09	3.826803e+01	3.200885e+02
1.220000e-06	4.623229e-06	4.892830e-09	3.906016e+01	3.223469e+02
1.230000e-06	4.715517e-06	4.924997e-09	3.983987e+01	3.244768e+02
1.240000e-06	4.806274e-06	4.954576e-09	4.060666e+01	3.264873e+02
1.250000e-06	4.895273e-06	4.979737e-09	4.135858e+01	3.283858e+02
1.260000e-06	4.982426e-06	5.004503e-09	4.209490e+01	3.301779e+02
1.270000e-06	5.067858e-06	5.029419e-09	4.281669e+01	3.318685e+02
1.280000e-06	5.151659e-06	5.053930e-09	4.352470e+01	3.334619e+02
1.290000e-06	5.233725e-06	5.076262e-09	4.421805e+01	3.349626e+02
1.300000e-06	5.313806e-06	5.095698e-09	4.489462e+01	3.363760e+02
1.310000e-06	5.391903e-06	5.114072e-09	4.555445e+01	3.377084e+02
1.320000e-06	5.468127e-06	5.131785e-09	4.619844e+01	3.389671e+02
1.330000e-06	5.542271e-06	5.148710e-09	4.682485e+01	3.401598e+02
1.340000e-06	5.614212e-06	5.165343e-09	4.743266e+01	3.412947e+02
1.350000e-06	5.684159e-06	5.182355e-09	4.802362e+01	3.423791e+02
1.360000e-06	5.752259e-06	5.200369e-09	4.859898e+01	3.434194e+02
1.370000e-06	5.818260e-06	5.217177e-09	4.915659e+01	3.444202e+02
1.380000e-06	5.882030e-06	5.233169e-09	4.969537e+01	3.453840e+02
1.390000e-06	5.943792e-06	5.247825e-09	5.021718e+01	3.463113e+02
1.400000e-06	6.003700e-06	5.261018e-09	5.072332e+01	3.472007e+02
1.410000e-06	6.061508e-06	5.273598e-09	5.121172e+01	3.480494e+02
1.420000e-06	6.117035e-06	5.285577e-09	5.168085e+01	3.488540e+02
1.430000e-06	6.170305e-06	5.297482e-09	5.213091e+01	3.496110e+02
1.440000e-06	6.221014e-06	5.308784e-09	5.255933e+01	3.503177e+02
1.450000e-06	6.269146e-06	5.321306e-09	5.296599e+01	3.509727e+02
1.460000e-06	6.315009e-06	5.333645e-09	5.335347e+01	3.515761e+02
1.470000e-06	6.358805e-06	5.344572e-09	5.372348e+01	3.521300e+02
1.480000e-06	6.400342e-06	5.354352e-09	5.407442e+01	3.526379e+02
1.490000e-06	6.439499e-06	5.363003e-09	5.440524e+01	3.531045e+02
1.500000e-06	6.476489e-06	5.369986e-09	5.471776e+01	3.535350e+02
1.510000e-06	6.511276e-06	5.376076e-09	5.501166e+01	3.539346e+02
1.520000e-06	6.543671e-06	5.382701e-09	5.528536e+01	3.543078e+02
1.530000e-06	6.573775e-06	5.388666e-09	5.553970e+01	3.546580e+02
1.540000e-06	6.601747e-06	5.394155e-09	5.577603e+01	3.549870e+02
1.550000e-06	6.627347e-06	5.399897e-09	5.599231e+01	3.552951e+02
1.560000e-06	6.650468e-06	5.406609e-09	5.618765e+01	3.555813e+02
1.570000e-06	6.671351e-06	5.411430e-09	5.636409e+01	3.558430e+02
1.580000e-06	6.690086e-06	5.414996e-09	5.652237e+01	3.560772e+02
1.590000e-06	6.706407e-06	5.420214e-09	5.666026e+01	3.562804e+02
1.600000e-06	6.720175e-06	5.424761e-09	5.677659e+01	3.564492e+02
1.610000e-06	6.731363e-06	5.428316e-09	5.687111e+01	3.565808e+02
1.620000e-06	6.739931e-06	5.431303e-09	5.694350e+01	3.566731e+02
1.630000e-06	6.746085e-06	5.434214e-09	5.699549e+01	3.567248e+02
1.640000e-06	6.750016e-06	5.436067e-09	5.702870e+01	3.567355e+02
1.650000e-06	6.751531e-06	5.440572e-09	5.704150e+01	3.567056e+02
1.660000e-06	6.750627e-06	5.438805e-09	5.703386e+01	3.566362e+02
1.670000e-06	6.747631e-06	5.433649e-09	5.700855e+01	3.565287e+02
1.680000e-06	6.742464e-06	5.431888e-09	5.696490e+01	3.563850e+02
1.690000e-06	6.734958e-06	5.430513e-09	5.690148e+01	3.562072e+02
1.700000e-06	6.725254e-06	5.430440e-09	5.681949e+01	3.559976e+02
1.710000e-06	6.713431e-06	5.428762e-09	5.671961e+01	3.557587e+02
1.720000e-06	6.699157e-06	5.436412e-09	5.659901e+01	3.554933e+02
1.730000e-06	6.682617e-06	5.427970e-09	5.645927e+01	3.552041e+02
1.740000e-06	6.664028e-06	5.334488e-09	5.630222e+01	3.548938e+02
1.750000e-06	6.642709e-06	5.325907e-09	5.612210e+01	3.545650e+02
1.760000e-06	6.618173e-06	5.367103e-09	5.591481e+01	3.542198e+02
1.770000e-06	6.590937e-06	5.372103e-09	5.568469e+01	3.538595e+02
1.780000e-06	6.561618e-06	5.441298e-09	5.543699e+01	3.534840e+02
1.790000e-06	6.530413e-06	5.473767e-09	5.517335e+01	3.530922e+02
1.800000e-06	6.497672e-06	5.301682e-09	5.489673e+01	3.526810e+02
1.810000e-06	6.463075e-06	5.377481e-09	5.460443e+01	3.522459e+02
1.820000e-06	6.426047e-06	5.417037e-09	5.429159e+01	3.517807e+02
1.830000e-06	6.386798e-06	5.321097e-09	5.395999e+01	3.512782e+02
1.840000e-06	6.345300e-06	5.456513e-09	5.360938e+01	3.507309e+02
1.850000e-06	6.301577e-06	5.315340e-09	5.323999e+01	3.501312e+02
1.860000e-06	6.255753e-06	5.310015e-09	5.285283e+01	3.494726e+02
1.870000e-06	6.207552e-06	5.391126e-09	5.244560e+01	3.487502e+02
1.880000e-06	6.157138e-06	5.288933e-09	5.201966e+01	3.479611e+02
1.890000e-06	6.104346e-06	5.359239e-09	5.157365e+01	3.471049e+02
1.900000e-06	6.048908e-06	5.257428e-09	5.110526e+01	3.461836e+02
1.910000e-06	5.991199e-06	5.245845e-09	5.061770e+01	3.452015e+02
1.920000e-06	5.931409e-06	5.322945e-09	5.011256e+01	3.441641e+02
1.930000e-06	5.869528e-06	5.221954e-09	4.958974e+01	3.430778e+02
1.940000e-06	5.805466e-06	5.249570e-09	4.904850e+01	3.419487e+02
1.950000e-06	5.739337e-06	5.179754e-09	4.848980e+01	3.407820e+02
1.960000e-06	5.671140e-06	5.211432e-09	4.791363e+01	3.395809e+02
1.970000e-06	5.600624e-06	5.172635e-09	4.731786e+01	3.383466e+02
1.980000e-06	5.528035e-06	5.137810e-09	4.670458e+01	3.370777e+02
1.990000e-06	5.453507e-06	5.181425e-09	4.607492e+01	3.357706e+02
2.000000e-06	5.376881e-06	5.069528e-09	4.542753e+01	3.344202e+02
2.010000e-06	5.298080e-06	5.101332e-09	4.476176e+01	3.330203e+02
2.020000e-06	5.217282e-06	5.075318e-09	4.407913e+01	3.315647e+02
2.030000e-06	5.134722e-06	5.059767e-09	4.338160e+01	3.300479e+02
2.040000e-06	5.050387e-06	5.017526e-09	4.266909e+01	3.284661e+02
2.050000e-06	4.964262e-06	4.976202e-09	4.194145e+01	3.268170e+02
2.060000e-06	4.876216e-06	4.993960e-09	4.119757e+01	3.251006e+02
2.070000e-06	4.786439e-06	4.931489e-09	4.043908e+01	3.233182e+02
2.080000e-06	4.695116e-06	4.920061e-09	3.966751e+01	3.214724e+02
2.090000e-06	4.602153e-06	4.879012e-09	3.888210e+01	3.195658e+02
2.100000e-06	4.507518e-06	4.857980e-09	3.808256e+01	3.176005e+02
2.110000e-06	4.411194e-06	4.816397e-09	3.726875e+01	3.155766e+02
2.120000e-06	4.313415e-06	4.796589e-09	3.644265e+01	3.134923e+02
2.130000e-06	4.214203e-06	4.777286e-09	3.560444e+01	3.113432e+02
2.140000e-06	4.113434e-06	4.715759e-09	3.475308e+01	3.091222e+02
2.150000e-06	4.011168e-06	4.686002e-09	3.388906e+01	3.068202e+02
2.160000e-06	3.907367e-06	4.658685e-09	3.301208e+01	3.044268e+02
2.170000e-06	3.802105e-06	4.632310e-09	3.212276e+01	3.019313e+02
2.180000e-06	3.695648e-06	4.570246e-09	3.122334e+01	2.993236e+02
2.190000e-06	3.588020e-06	4.530043e-09	3.031402e+01	2.965951e+02
2.200000e-06	3.479118e-06	4.492761e-09	2.939394e+01	2.937394e+02
2.210000e-06	3.368983e-06	4.451275e-09	2.846345e+01	2.907524e+02
2.220000e-06	3.257569e-06	4.404060e-09	2.752215e+01	2.876320e+02
2.230000e-06	3.144960e-06	4.355756e-09	2.657075e+01	2.843773e+02
2.240000e-06	3.031205e-06	4.299383e-09	2.560967e+01	2.809879e+02
2.250000e-06	2.916274e-06	4.238951e-09	2.463866e+01	2.774622e+02
2.260000e-06	2.800120e-06	4.193906e-09	2.365731e+01	2.737963e+02
2.270000e-06	2.682812e-06	4.138654e-09	2.266621e+01	2.699829e+02
2.280000e-06	2.564445e-06	4.069812e-09	2.166616e+01	2.660109e+02
2.290000e-06	2.445013e-06	3.996590e-09	2.065712e+01	2.618648e+02
2.300000e-06	2.324627e-06	3.939063e-09	1.964002e+01	2.575248e+02
2.310000e-06	2.203416e-06	3.875279e-09	1.861594e+01	2.529683e+02
2.320000e-06	2.081566e-06	3.796904e-09	1.758648e+01	2.481701e+02
2.330000e-06	1.959144e-06	3.713274e-09	1.655218e+01	2.431038e+02
2.340000e-06	1.836077e-06	3.634331e-09	1.551242e+01	2.377428e+02
2.350000e-06	1.712310e-06	3.551273e-09	1.446675e+01	2.320606e+02
2.360000e-06	1.587892e-06	3.463878e-09	1.341558e+01	2.260308e+02
2.370000e-06	1.462861e-06	3.370372e-09	1.235924e+01	2.196264e+02
2.380000e-06	1.337350e-06	3.263073e-09	1.129884e+01	2.128183e+02
2.390000e-06	1.211496e-06	3.149507e-09	1.023553e+01	2.055735e+02
2.400000e-06	1.085304e-06	3.033585e-09	9.169384e+00	1.978528e+02
2.410000e-06	9.587062e-07	2.915046e-09	8.099798e+00	1.896092e+02
2.420000e-06	8.316587e-07	2.779695e-09	7.026415e+00	1.807866e+02
2.430000e-06	7.042212e-07	2.630938e-09	5.949737e+00	1.713195e+02
2.440000e-06	5.764667e-07	2.478576e-09	4.870381e+00	1.611345e+02
2.450000e-06	4.485009e-07	2.317930e-09	3.789239e+00	1.501531e+02
2.460000e-06	3.203972e-07	2.138818e-09	2.706933e+00	1.382961e+02
2.470000e-06	1.921547e-07	1.941121e-09	1.623453e+00	1.254902e+02
2.480000e-06	6.385570e-08	1.728825e-09	5.394961e-01	1.116749e+02
2.490000e-06	-6.445941e-08	1.500303e-09	-5.445967e-01	9.681019e+01
2.500000e-06	-1.927809e-07	1.258383e-09	-1.628743e+00	8.088423e+01
2.510000e-06	-3.210046e-07	1.003187e-09	-2.712064e+00	6.391988e+01
2.520000e-06	-4.490730e-07	7.301693e-10	-3.794072e+00	4.597946e+01
2.530000e-06	-5.769347e-07	4.408700e-10	-4.874335e+00	2.716713e+01
2.540000e-06	-7.045305e-07	1.450899e-10	-5.952350e+00	7.628432e+00
2.550000e-06	-8.318015e-07	-1.560027e-10	-7.027622e+00	-1.245332e+01
2.560000e-06	-9.586903e-07	-4.659336e-10	-8.099664e+00	-3.286356e+01
2.570000e-06	-1.085216e-06	-7.830601e-10	-9.168635e+00	-5.336569e+01
2.580000e-06	-1.211350e-06	-1.098172e-09	-1.023431e+01	-7.371214e+01
2.590000e-06	-1.337076e-06	-1.402598e-09	-1.129652e+01	-9.365661e+01
2.600000e-06	-1.462417e-06	-1.696974e-09	-1.235548e+01	-1.129664e+02
2.610000e-06	-1.587241e-06	-1.979320e-09	-1.341008e+01	-1.314339e+02
2.620000e-06	-1.711335e-06	-2.247776e-09	-1.445852e+01	-1.488859e+02
2.630000e-06	-1.834635e-06	-2.499865e-09	-1.550024e+01	-1.651915e+02
2.640000e-06	-1.957292e-06	-2.732276e-09	-1.653653e+01	-1.802649e+02
2.650000e-06	-2.079384e-06	-2.943550e-09	-1.756804e+01	-1.940675e+02
2.660000e-06	-2.200771e-06	-3.135631e-09	-1.859360e+01	-2.066045e+02
2.670000e-06	-2.321356e-06	-3.310639e-09	-1.961239e+01	-2.179203e+02
2.680000e-06	-2.441064e-06	-3.467677e-09	-2.062376e+01	-2.280912e+02
2.690000e-06	-2.559840e-06	-3.607531e-09	-2.162726e+01	-2.372166e+02
2.700000e-06	-2.677651e-06	-3.732628e-09	-2.262260e+01	-2.454098e+02
2.710000e-06	-2.794360e-06	-3.847224e-09	-2.360865e+01	-2.527894e+02
2.720000e-06	-2.909883e-06	-3.953097e-09	-2.458466e+01	-2.594713e+02
2.730000e-06	-3.024190e-06	-4.046173e-09	-2.555040e+01	-2.655624e+02
2.740000e-06	-3.137285e-06	-4.128201e-09	-2.650590e+01	-2.711563e+02
2.750000e-06	-3.249121e-06	-4.206313e-09	-2.745077e+01	-2.763310e+02
2.760000e-06	-3.359652e-06	-4.281730e-09	-2.838461e+01	-2.811481e+02
2.770000e-06	-3.469000e-06	-4.352905e-09	-2.930846e+01	-2.856542e+02
2.780000e-06	-3.577245e-06	-4.417928e-09	-3.022299e+01	-2.898829e+02
2.790000e-06	-3.684299e-06	-4.476996e-09	-3.112745e+01	-2.938579e+02
2.800000e-06	-3.790119e-06	-4.534049e-09	-3.202149e+01	-2.975958e+02
2.810000e-06	-3.894612e-06	-4.591406e-09	-3.290431e+01	-3.011092e+02
2.820000e-06	-3.997634e-06	-4.645342e-09	-3.377472e+01	-3.044090e+02
2.830000e-06	-4.099132e-06	-4.692501e-09	-3.463224e+01	-3.075060e+02
2.840000e-06	-4.199145e-06	-4.737877e-09	-3.547722e+01	-3.104116e+02
2.850000e-06	-4.297765e-06	-4.784592e-09	-3.631043e+01	-3.131384e+02
2.860000e-06	-4.394989e-06	-4.828090e-09	-3.713184e+01	-3.156995e+02
2.870000e-06	-4.490683e-06	-4.866194e-09	-3.794032e+01	-3.181081e+02
2.880000e-06	-4.584699e-06	-4.901503e-09	-3.873464e+01	-3.203765e+02
2.890000e-06	-4.677082e-06	-4.935098e-09	-3.951515e+01	-3.225157e+02
2.900000e-06	-4.767892e-06	-4.967758e-09	-4.028237e+01	-3.245350e+02
2.910000e-06	-4.857075e-06	-4.997451e-09	-4.103585e+01	-3.264417e+02
2.920000e-06	-4.944499e-06	-5.025402e-09	-4.177447e+01	-3.282417e+02
2.930000e-06	-5.030028e-06	-5.050897e-09	-4.249708e+01	-3.299399e+02
2.940000e-06	-5.113765e-06	-5.075324e-09	-4.320454e+01	-3.315405e+02
