# Temperatura_=_20.0
# Concentracion g/m^3_=_9000.0
# C_Vs_to_Am_M_A/Vsm_=_65563218390.804596
# pendiente_HvsI_1/m_=_3716.3
# ordenada_HvsI_A/m_=_1297.0
# frecuencia_Hz_=_301071.4263220485

Tiempo_(s)	Campo_(V.s)	Magnetizacion_(V.s)	Campo_(kA/m)	Magnetizacion_(A/m)
0.000000e+00	-6.685707e-06	-5.405567e-09	-5.669785e+01	-3.539568e+02
1.000000e-08	-6.682143e-06	-5.407065e-09	-5.666762e+01	-3.538272e+02
2.000000e-08	-6.676476e-06	-5.406422e-09	-5.661957e+01	-3.536594e+02
3.000000e-08	-6.668718e-06	-5.403943e-09	-5.655378e+01	-3.534567e+02
4.000000e-08	-6.658661e-06	-5.398700e-09	-5.646849e+01	-3.532233e+02
5.000000e-08	-6.646152e-06	-5.393416e-09	-5.636240e+01	-3.529645e+02
6.000000e-08	-6.631127e-06	-5.381264e-09	-5.623499e+01	-3.526859e+02
7.000000e-08	-6.613756e-06	-5.367244e-09	-5.608767e+01	-3.523930e+02
8.000000e-08	-6.594311e-06	-5.407148e-09	-5.592277e+01	-3.520912e+02
9.000000e-08	-6.572579e-06	-5.438166e-09	-5.573847e+01	-3.517848e+02
1.000000e-07	-6.548159e-06	-5.402238e-09	-5.553138e+01	-3.514765e+02
1.100000e-07	-6.521109e-06	-5.364006e-09	-5.530198e+01	-3.511668e+02
1.200000e-07	-6.491837e-06	-5.345040e-09	-5.505374e+01	-3.508541e+02
1.300000e-07	-6.460702e-06	-5.293720e-09	-5.478970e+01	-3.505340e+02
1.400000e-07	-6.427823e-06	-5.312254e-09	-5.451088e+01	-3.501998e+02
1.500000e-07	-6.392925e-06	-5.409644e-09	-5.421492e+01	-3.498426e+02
1.600000e-07	-6.355902e-06	-5.290042e-09	-5.390095e+01	-3.494523e+02
1.700000e-07	-6.316841e-06	-5.287685e-09	-5.356970e+01	-3.490179e+02
1.800000e-07	-6.275415e-06	-5.344299e-09	-5.321839e+01	-3.485288e+02
1.900000e-07	-6.231512e-06	-5.259776e-09	-5.284606e+01	-3.479758e+02
2.000000e-07	-6.185359e-06	-5.303529e-09	-5.245467e+01	-3.473516e+02
2.100000e-07	-6.136786e-06	-5.276548e-09	-5.204275e+01	-3.466519e+02
2.200000e-07	-6.085616e-06	-5.239718e-09	-5.160880e+01	-3.458755e+02
2.300000e-07	-6.032013e-06	-5.257040e-09	-5.115423e+01	-3.450242e+02
2.400000e-07	-5.976176e-06	-5.237656e-09	-5.068070e+01	-3.441028e+02
2.500000e-07	-5.918139e-06	-5.244179e-09	-5.018852e+01	-3.431182e+02
2.600000e-07	-5.857907e-06	-5.209382e-09	-4.967772e+01	-3.420785e+02
2.700000e-07	-5.795535e-06	-5.173445e-09	-4.914878e+01	-3.409918e+02
2.800000e-07	-5.731141e-06	-5.173191e-09	-4.860269e+01	-3.398657e+02
2.900000e-07	-5.664681e-06	-5.178214e-09	-4.803908e+01	-3.387058e+02
3.000000e-07	-5.596090e-06	-5.155179e-09	-4.745740e+01	-3.375152e+02
3.100000e-07	-5.525491e-06	-5.094752e-09	-4.685868e+01	-3.362944e+02
3.200000e-07	-5.453072e-06	-5.112831e-09	-4.624454e+01	-3.350412e+02
3.300000e-07	-5.378552e-06	-5.090085e-09	-4.561257e+01	-3.337510e+02
3.400000e-07	-5.301686e-06	-5.049397e-09	-4.496072e+01	-3.324177e+02
3.500000e-07	-5.222678e-06	-5.052529e-09	-4.429070e+01	-3.310344e+02
3.600000e-07	-5.141606e-06	-5.022211e-09	-4.360316e+01	-3.295943e+02
3.700000e-07	-5.058709e-06	-4.989451e-09	-4.290016e+01	-3.280917e+02
3.800000e-07	-4.974245e-06	-4.964565e-09	-4.218387e+01	-3.265224e+02
3.900000e-07	-4.888253e-06	-4.962313e-09	-4.145462e+01	-3.248840e+02
4.000000e-07	-4.800723e-06	-4.925272e-09	-4.071233e+01	-3.231758e+02
4.100000e-07	-4.711504e-06	-4.887308e-09	-3.995570e+01	-3.213987e+02
4.200000e-07	-4.620360e-06	-4.872938e-09	-3.918276e+01	-3.195539e+02
4.300000e-07	-4.527461e-06	-4.849445e-09	-3.839493e+01	-3.176430e+02
4.400000e-07	-4.433000e-06	-4.817542e-09	-3.759386e+01	-3.156665e+02
4.500000e-07	-4.337028e-06	-4.781137e-09	-3.677998e+01	-3.136232e+02
4.600000e-07	-4.239421e-06	-4.757609e-09	-3.595222e+01	-3.115101e+02
4.700000e-07	-4.140154e-06	-4.717285e-09	-3.511040e+01	-3.093219e+02
4.800000e-07	-4.039460e-06	-4.673925e-09	-3.425646e+01	-3.070515e+02
4.900000e-07	-3.937341e-06	-4.640235e-09	-3.339045e+01	-3.046906e+02
5.000000e-07	-3.833906e-06	-4.607530e-09	-3.251328e+01	-3.022302e+02
5.100000e-07	-3.729205e-06	-4.563058e-09	-3.162536e+01	-2.996616e+02
5.200000e-07	-3.622921e-06	-4.518058e-09	-3.072403e+01	-2.969772e+02
5.300000e-07	-3.515143e-06	-4.484747e-09	-2.981002e+01	-2.941713e+02
5.400000e-07	-3.406227e-06	-4.444272e-09	-2.888636e+01	-2.912400e+02
5.500000e-07	-3.296224e-06	-4.396304e-09	-2.795349e+01	-2.881815e+02
5.600000e-07	-3.185076e-06	-4.347562e-09	-2.701089e+01	-2.849950e+02
5.700000e-07	-3.072740e-06	-4.298148e-09	-2.605824e+01	-2.816804e+02
5.800000e-07	-2.959141e-06	-4.240314e-09	-2.509487e+01	-2.782367e+02
5.900000e-07	-2.844239e-06	-4.185515e-09	-2.412045e+01	-2.746612e+02
6.000000e-07	-2.728181e-06	-4.132813e-09	-2.313622e+01	-2.709482e+02
6.100000e-07	-2.611148e-06	-4.073116e-09	-2.214373e+01	-2.670883e+02
6.200000e-07	-2.493157e-06	-4.007895e-09	-2.114311e+01	-2.630680e+02
6.300000e-07	-2.374201e-06	-3.946603e-09	-2.013431e+01	-2.588698e+02
6.400000e-07	-2.254472e-06	-3.886158e-09	-1.911895e+01	-2.544730e+02
6.500000e-07	-2.134120e-06	-3.815096e-09	-1.809831e+01	-2.498540e+02
6.600000e-07	-2.012992e-06	-3.736898e-09	-1.707109e+01	-2.449879e+02
6.700000e-07	-1.890941e-06	-3.657491e-09	-1.603604e+01	-2.398493e+02
6.800000e-07	-1.768042e-06	-3.574813e-09	-1.499380e+01	-2.344130e+02
6.900000e-07	-1.644475e-06	-3.483855e-09	-1.394590e+01	-2.286542e+02
7.000000e-07	-1.520432e-06	-3.390325e-09	-1.289396e+01	-2.225483e+02
7.100000e-07	-1.395961e-06	-3.293100e-09	-1.183838e+01	-2.160694e+02
7.200000e-07	-1.271005e-06	-3.188875e-09	-1.077870e+01	-2.091893e+02
7.300000e-07	-1.145591e-06	-3.077529e-09	-9.715137e+00	-2.018752e+02
7.400000e-07	-1.019782e-06	-2.960605e-09	-8.648219e+00	-1.940878e+02
7.500000e-07	-8.936344e-07	-2.833338e-09	-7.578427e+00	-1.857797e+02
7.600000e-07	-7.671505e-07	-2.691434e-09	-6.505786e+00	-1.768944e+02
7.700000e-07	-6.403130e-07	-2.542430e-09	-5.430146e+00	-1.673667e+02
7.800000e-07	-5.132818e-07	-2.384947e-09	-4.352864e+00	-1.571248e+02
7.900000e-07	-3.861364e-07	-2.213700e-09	-3.274613e+00	-1.460926e+02
8.000000e-07	-2.588500e-07	-2.029377e-09	-2.195167e+00	-1.341957e+02
8.100000e-07	-1.314696e-07	-1.833284e-09	-1.114922e+00	-1.213666e+02
8.200000e-07	-4.032417e-09	-1.621828e-09	-3.419674e-02	-1.075521e+02
8.300000e-07	1.233980e-07	-1.394981e-09	1.046471e+00	-9.272032e+01
8.400000e-07	2.507371e-07	-1.154674e-09	2.126365e+00	-7.686788e+01
8.500000e-07	3.779948e-07	-9.009788e-10	3.205569e+00	-6.002523e+01
8.600000e-07	5.051368e-07	-6.321168e-10	4.283790e+00	-4.226071e+01
8.700000e-07	6.321001e-07	-3.486052e-10	5.360497e+00	-2.368204e+01
8.800000e-07	7.588643e-07	-5.493792e-11	6.435516e+00	-4.435119e+00
8.900000e-07	8.854053e-07	2.467006e-10	7.508641e+00	1.529997e+01
9.000000e-07	1.011640e-06	5.532030e-10	8.579170e+00	3.531567e+01
9.100000e-07	1.137459e-06	8.620065e-10	9.646173e+00	5.538590e+01
9.200000e-07	1.262860e-06	1.167155e-09	1.070963e+01	7.527660e+01
9.300000e-07	1.387892e-06	1.465259e-09	1.176996e+01	9.475705e+01
9.400000e-07	1.512504e-06	1.750454e-09	1.282672e+01	1.136112e+02
9.500000e-07	1.636602e-06	2.019113e-09	1.387913e+01	1.316477e+02
9.600000e-07	1.760217e-06	2.274939e-09	1.492745e+01	1.487086e+02
9.700000e-07	1.883366e-06	2.516517e-09	1.597180e+01	1.646753e+02
9.800000e-07	2.005846e-06	2.740199e-09	1.701049e+01	1.794718e+02
9.900000e-07	2.127440e-06	2.942533e-09	1.804166e+01	1.930647e+02
1.000000e-06	2.248070e-06	3.129362e-09	1.906466e+01	2.054609e+02
1.010000e-06	2.367809e-06	3.300793e-09	2.008010e+01	2.167029e+02
1.020000e-06	2.486762e-06	3.454623e-09	2.108888e+01	2.268612e+02
1.030000e-06	2.604870e-06	3.593759e-09	2.209049e+01	2.360273e+02
1.040000e-06	2.722060e-06	3.720122e-09	2.308431e+01	2.443048e+02
1.050000e-06	2.838282e-06	3.835353e-09	2.406993e+01	2.518016e+02
1.060000e-06	2.953367e-06	3.939339e-09	2.504590e+01	2.586231e+02
1.070000e-06	3.067161e-06	4.033816e-09	2.601093e+01	2.648663e+02
1.080000e-06	3.179669e-06	4.120378e-09	2.696505e+01	2.706164e+02
1.090000e-06	3.291011e-06	4.201894e-09	2.790928e+01	2.759444e+02
1.100000e-06	3.401264e-06	4.279448e-09	2.884427e+01	2.809071e+02
1.110000e-06	3.510416e-06	4.351575e-09	2.976993e+01	2.855477e+02
1.120000e-06	3.618513e-06	4.416289e-09	3.068664e+01	2.898979e+02
1.130000e-06	3.725404e-06	4.475320e-09	3.159312e+01	2.939808e+02
1.140000e-06	3.830797e-06	4.531521e-09	3.248691e+01	2.978134e+02
1.150000e-06	3.934642e-06	4.584560e-09	3.336756e+01	3.014092e+02
1.160000e-06	4.037037e-06	4.633382e-09	3.423591e+01	3.047804e+02
1.170000e-06	4.138068e-06	4.677199e-09	3.509270e+01	3.079395e+02
1.180000e-06	4.237741e-06	4.719348e-09	3.593798e+01	3.108995e+02
1.190000e-06	4.335852e-06	4.762164e-09	3.677000e+01	3.136749e+02
1.200000e-06	4.432191e-06	4.803889e-09	3.758700e+01	3.162805e+02
1.210000e-06	4.526878e-06	4.842035e-09	3.838999e+01	3.187313e+02
1.220000e-06	4.620104e-06	4.875103e-09	3.918059e+01	3.210416e+02
1.230000e-06	4.711895e-06	4.905355e-09	3.995902e+01	3.232242e+02
1.240000e-06	4.802076e-06	4.933769e-09	4.072379e+01	3.252898e+02
1.250000e-06	4.890409e-06	4.961222e-09	4.147290e+01	3.272471e+02
1.260000e-06	4.976949e-06	4.987355e-09	4.220680e+01	3.291025e+02
1.270000e-06	5.061815e-06	5.012349e-09	4.292650e+01	3.308608e+02
1.280000e-06	5.145045e-06	5.037985e-09	4.363233e+01	3.325255e+02
1.290000e-06	5.226468e-06	5.062606e-09	4.432283e+01	3.340995e+02
1.300000e-06	5.305902e-06	5.085811e-09	4.499647e+01	3.355857e+02
1.310000e-06	5.383445e-06	5.106580e-09	4.565407e+01	3.369874e+02
1.320000e-06	5.458989e-06	5.124565e-09	4.629472e+01	3.383087e+02
1.330000e-06	5.532388e-06	5.141062e-09	4.691718e+01	3.395546e+02
1.340000e-06	5.603749e-06	5.157023e-09	4.752235e+01	3.407304e+02
1.350000e-06	5.673197e-06	5.173633e-09	4.811130e+01	3.418421e+02
1.360000e-06	5.740696e-06	5.190647e-09	4.868372e+01	3.428954e+02
1.370000e-06	5.806047e-06	5.207745e-09	4.923793e+01	3.438955e+02
1.380000e-06	5.869290e-06	5.222568e-09	4.977426e+01	3.448468e+02
1.390000e-06	5.930633e-06	5.236851e-09	5.029447e+01	3.457527e+02
1.400000e-06	5.990054e-06	5.252246e-09	5.079839e+01	3.466152e+02
1.410000e-06	6.047284e-06	5.266191e-09	5.128373e+01	3.474355e+02
1.420000e-06	6.102273e-06	5.277980e-09	5.175006e+01	3.482138e+02
1.430000e-06	6.155020e-06	5.287656e-09	5.219738e+01	3.489497e+02
1.440000e-06	6.205157e-06	5.298157e-09	5.262256e+01	3.496427e+02
1.450000e-06	6.252715e-06	5.311195e-09	5.302588e+01	3.502925e+02
1.460000e-06	6.298119e-06	5.323805e-09	5.341093e+01	3.508991e+02
1.470000e-06	6.341432e-06	5.333460e-09	5.377824e+01	3.514633e+02
1.480000e-06	6.382398e-06	5.342165e-09	5.412565e+01	3.519865e+02
1.490000e-06	6.421014e-06	5.352275e-09	5.445313e+01	3.524707e+02
1.500000e-06	6.457563e-06	5.362013e-09	5.476308e+01	3.529181e+02
1.510000e-06	6.491921e-06	5.370019e-09	5.505445e+01	3.533315e+02
1.520000e-06	6.523820e-06	5.376215e-09	5.532497e+01	3.537133e+02
1.530000e-06	6.553462e-06	5.381125e-09	5.557635e+01	3.540655e+02
1.540000e-06	6.580979e-06	5.386636e-09	5.580970e+01	3.543898e+02
1.550000e-06	6.606124e-06	5.392890e-09	5.602295e+01	3.546870e+02
1.560000e-06	6.628856e-06	5.397808e-09	5.621573e+01	3.549571e+02
1.570000e-06	6.649413e-06	5.401304e-09	5.639006e+01	3.551995e+02
1.580000e-06	6.667690e-06	5.405642e-09	5.654506e+01	3.554129e+02
1.590000e-06	6.683446e-06	5.411530e-09	5.667868e+01	3.555954e+02
1.600000e-06	6.696747e-06	5.416473e-09	5.679147e+01	3.557450e+02
1.610000e-06	6.707555e-06	5.419510e-09	5.688313e+01	3.558592e+02
1.620000e-06	6.715760e-06	5.421671e-09	5.695271e+01	3.559359e+02
1.630000e-06	6.721543e-06	5.424660e-09	5.700175e+01	3.559732e+02
1.640000e-06	6.725075e-06	5.427243e-09	5.703171e+01	3.559696e+02
1.650000e-06	6.726230e-06	5.430017e-09	5.704150e+01	3.559243e+02
1.660000e-06	6.725068e-06	5.423974e-09	5.703165e+01	3.558375e+02
1.670000e-06	6.721799e-06	5.418412e-09	5.700393e+01	3.557102e+02
1.680000e-06	6.716296e-06	5.417690e-09	5.695725e+01	3.555444e+02
1.690000e-06	6.708453e-06	5.418334e-09	5.689074e+01	3.553435e+02
1.700000e-06	6.698479e-06	5.418427e-09	5.680616e+01	3.551117e+02
1.710000e-06	6.686336e-06	5.416733e-09	5.670319e+01	3.548540e+02
1.720000e-06	6.671781e-06	5.425893e-09	5.657975e+01	3.545760e+02
1.730000e-06	6.655048e-06	5.404682e-09	5.643785e+01	3.542834e+02
1.740000e-06	6.636183e-06	5.327081e-09	5.627786e+01	3.539815e+02
1.750000e-06	6.614490e-06	5.329309e-09	5.609390e+01	3.536748e+02
1.760000e-06	6.589543e-06	5.357503e-09	5.588234e+01	3.533660e+02
1.770000e-06	6.561977e-06	5.367637e-09	5.564856e+01	3.530559e+02
1.780000e-06	6.532417e-06	5.456281e-09	5.539788e+01	3.527430e+02
1.790000e-06	6.501050e-06	5.432945e-09	5.513188e+01	3.524230e+02
1.800000e-06	6.468122e-06	5.294954e-09	5.485263e+01	3.520895e+02
1.810000e-06	6.433205e-06	5.408407e-09	5.455652e+01	3.517338e+02
1.820000e-06	6.395928e-06	5.384905e-09	5.424039e+01	3.513457e+02
1.830000e-06	6.356448e-06	5.348996e-09	5.390558e+01	3.509142e+02
1.840000e-06	6.314714e-06	5.456960e-09	5.355166e+01	3.504288e+02
1.850000e-06	6.270905e-06	5.303146e-09	5.318014e+01	3.498801e+02
1.860000e-06	6.224989e-06	5.346901e-09	5.279075e+01	3.492606e+02
1.870000e-06	6.176658e-06	5.376607e-09	5.238088e+01	3.485659e+02
1.880000e-06	6.126056e-06	5.302395e-09	5.195175e+01	3.477943e+02
1.890000e-06	6.072974e-06	5.341924e-09	5.150159e+01	3.469477e+02
1.900000e-06	6.017343e-06	5.250507e-09	5.102982e+01	3.460306e+02
1.910000e-06	5.959572e-06	5.299788e-09	5.053989e+01	3.450497e+02
1.920000e-06	5.899742e-06	5.307983e-09	5.003250e+01	3.440130e+02
1.930000e-06	5.837823e-06	5.225120e-09	4.950741e+01	3.429289e+02
1.940000e-06	5.773709e-06	5.247119e-09	4.896369e+01	3.418048e+02
1.950000e-06	5.707523e-06	5.190994e-09	4.840240e+01	3.406466e+02
1.960000e-06	5.639268e-06	5.223400e-09	4.782357e+01	3.394576e+02
1.970000e-06	5.568674e-06	5.161888e-09	4.722490e+01	3.382385e+02
1.980000e-06	5.495976e-06	5.153391e-09	4.660839e+01	3.369872e+02
1.990000e-06	5.421375e-06	5.162336e-09	4.597573e+01	3.356993e+02
2.000000e-06	5.344759e-06	5.089287e-09	4.532600e+01	3.343687e+02
2.010000e-06	5.266003e-06	5.122739e-09	4.465811e+01	3.329887e+02
2.020000e-06	5.185250e-06	5.070299e-09	4.397328e+01	3.315523e+02
2.030000e-06	5.102714e-06	5.053522e-09	4.327335e+01	3.300538e+02
2.040000e-06	5.018432e-06	5.016774e-09	4.255859e+01	3.284888e+02
2.050000e-06	4.932320e-06	5.003268e-09	4.182832e+01	3.268548e+02
2.060000e-06	4.844278e-06	4.990035e-09	4.108169e+01	3.251511e+02
2.070000e-06	4.754566e-06	4.929876e-09	4.032089e+01	3.233782e+02
2.080000e-06	4.663304e-06	4.922698e-09	3.954695e+01	3.215377e+02
2.090000e-06	4.570479e-06	4.887907e-09	3.875975e+01	3.196310e+02
2.100000e-06	4.475962e-06	4.868728e-09	3.795820e+01	3.176586e+02
2.110000e-06	4.379727e-06	4.821465e-09	3.714208e+01	3.156196e+02
2.120000e-06	4.282033e-06	4.798648e-09	3.631360e+01	3.135110e+02
2.130000e-06	4.182909e-06	4.769794e-09	3.547298e+01	3.113278e+02
2.140000e-06	4.082372e-06	4.725996e-09	3.462037e+01	3.090631e+02
2.150000e-06	3.980266e-06	4.694742e-09	3.375447e+01	3.067084e+02
2.160000e-06	3.876560e-06	4.654059e-09	3.287500e+01	3.042548e+02
2.170000e-06	3.771532e-06	4.617636e-09	3.198431e+01	3.016936e+02
2.180000e-06	3.665255e-06	4.566954e-09	3.108304e+01	2.990172e+02
2.190000e-06	3.557781e-06	4.532763e-09	3.017161e+01	2.962196e+02
2.200000e-06	3.449204e-06	4.488674e-09	2.925082e+01	2.932968e+02
2.210000e-06	3.339354e-06	4.443301e-09	2.831925e+01	2.902468e+02
2.220000e-06	3.228143e-06	4.396946e-09	2.737613e+01	2.870689e+02
2.230000e-06	3.115782e-06	4.350579e-09	2.642325e+01	2.837629e+02
2.240000e-06	3.002237e-06	4.293071e-09	2.546034e+01	2.803279e+02
2.250000e-06	2.887568e-06	4.232496e-09	2.448790e+01	2.767615e+02
2.260000e-06	2.771907e-06	4.179454e-09	2.350703e+01	2.730580e+02
2.270000e-06	2.655181e-06	4.121178e-09	2.251715e+01	2.692084e+02
2.280000e-06	2.537228e-06	4.056271e-09	2.151685e+01	2.651996e+02
2.290000e-06	2.418065e-06	3.987024e-09	2.050630e+01	2.610142e+02
2.300000e-06	2.297984e-06	3.925694e-09	1.948795e+01	2.566318e+02
2.310000e-06	2.177197e-06	3.858867e-09	1.846363e+01	2.520289e+02
2.320000e-06	2.055785e-06	3.784314e-09	1.743400e+01	2.471807e+02
2.330000e-06	1.933676e-06	3.703993e-09	1.639846e+01	2.420619e+02
2.340000e-06	1.810792e-06	3.622175e-09	1.535634e+01	2.366472e+02
2.350000e-06	1.687271e-06	3.534050e-09	1.430883e+01	2.309117e+02
2.360000e-06	1.563326e-06	3.442426e-09	1.325772e+01	2.248308e+02
2.370000e-06	1.438964e-06	3.345593e-09	1.220307e+01	2.183789e+02
2.380000e-06	1.314109e-06	3.238385e-09	1.114424e+01	2.115280e+02
2.390000e-06	1.188765e-06	3.125629e-09	1.008127e+01	2.042456e+02
2.400000e-06	1.062938e-06	3.009012e-09	9.014201e+00	1.964929e+02
2.410000e-06	9.366396e-07	2.889504e-09	7.943131e+00	1.882231e+02
2.420000e-06	8.098572e-07	2.757551e-09	6.867959e+00	1.793805e+02
2.430000e-06	6.826831e-07	2.613426e-09	5.789464e+00	1.699006e+02
2.440000e-06	5.552922e-07	2.458789e-09	4.709131e+00	1.597116e+02
2.450000e-06	4.277191e-07	2.291398e-09	3.627253e+00	1.487378e+02
2.460000e-06	2.999959e-07	2.111838e-09	2.544102e+00	1.369045e+02
2.470000e-06	1.721726e-07	1.918606e-09	1.460102e+00	1.241434e+02
2.480000e-06	4.428359e-08	1.709150e-09	3.755451e-01	1.104000e+02
2.490000e-06	-8.355363e-08	1.482407e-09	-7.085730e-01	9.564089e+01
2.500000e-06	-2.113009e-07	1.242988e-09	-1.791928e+00	7.986023e+01
2.510000e-06	-3.390179e-07	9.913026e-10	-2.875026e+00	6.308595e+01
2.520000e-06	-4.666384e-07	7.233500e-10	-3.957307e+00	4.538362e+01
2.530000e-06	-5.940512e-07	4.400772e-10	-5.037825e+00	2.685815e+01
2.540000e-06	-7.212405e-07	1.460821e-10	-6.116449e+00	7.652809e+00
2.550000e-06	-8.481647e-07	-1.556701e-10	-7.192824e+00	-1.205456e+01
2.560000e-06	-9.747435e-07	-4.608845e-10	-8.266270e+00	-3.205811e+01
2.570000e-06	-1.100827e-06	-7.679916e-10	-9.335514e+00	-5.213273e+01
2.580000e-06	-1.226363e-06	-1.074218e-09	-1.040012e+01	-7.204456e+01
2.590000e-06	-1.351408e-06	-1.374235e-09	-1.146056e+01	-9.156227e+01
2.600000e-06	-1.475924e-06	-1.663634e-09	-1.251651e+01	-1.104684e+02
2.610000e-06	-1.599902e-06	-1.938118e-09	-1.356790e+01	-1.285695e+02
2.620000e-06	-1.723319e-06	-2.198271e-09	-1.461453e+01	-1.457051e+02
2.630000e-06	-1.846098e-06	-2.444251e-09	-1.565575e+01	-1.617536e+02
2.640000e-06	-1.968224e-06	-2.675049e-09	-1.669144e+01	-1.766358e+02
2.650000e-06	-2.089720e-06	-2.888274e-09	-1.772178e+01	-1.903154e+02
2.660000e-06	-2.210502e-06	-3.082163e-09	-1.874606e+01	-2.027967e+02
2.670000e-06	-2.330578e-06	-3.257228e-09	-1.976436e+01	-2.141195e+02
2.680000e-06	-2.449863e-06	-3.414744e-09	-2.077596e+01	-2.243530e+02
2.690000e-06	-2.568116e-06	-3.556855e-09	-2.177880e+01	-2.335872e+02
2.700000e-06	-2.685211e-06	-3.683118e-09	-2.277182e+01	-2.419251e+02
2.710000e-06	-2.801118e-06	-3.796674e-09	-2.375476e+01	-2.494747e+02
2.720000e-06	-2.915915e-06	-3.901758e-09	-2.472829e+01	-2.563416e+02
2.730000e-06	-3.029595e-06	-3.997690e-09	-2.569235e+01	-2.626237e+02
2.740000e-06	-3.141997e-06	-4.085757e-09	-2.664557e+01	-2.684070e+02
2.750000e-06	-3.253040e-06	-4.168727e-09	-2.758727e+01	-2.737637e+02
2.760000e-06	-3.362844e-06	-4.246976e-09	-2.851845e+01	-2.787515e+02
2.770000e-06	-3.471582e-06	-4.321187e-09	-2.944060e+01	-2.834144e+02
2.780000e-06	-3.579295e-06	-4.389377e-09	-3.035406e+01	-2.877851e+02
2.790000e-06	-3.685879e-06	-4.451605e-09	-3.125794e+01	-2.918870e+02
2.800000e-06	-3.791147e-06	-4.510156e-09	-3.215066e+01	-2.957375e+02
2.810000e-06	-3.895009e-06	-4.565753e-09	-3.303146e+01	-2.993504e+02
2.820000e-06	-3.997405e-06	-4.617280e-09	-3.389982e+01	-3.027379e+02
2.830000e-06	-4.098252e-06	-4.665167e-09	-3.475505e+01	-3.059122e+02
2.840000e-06	-4.197662e-06	-4.713344e-09	-3.559809e+01	-3.088865e+02
2.850000e-06	-4.295727e-06	-4.760376e-09	-3.642973e+01	-3.116751e+02
2.860000e-06	-4.392417e-06	-4.803143e-09	-3.724970e+01	-3.142929e+02
2.870000e-06	-4.487549e-06	-4.843246e-09	-3.805647e+01	-3.167549e+02
2.880000e-06	-4.580950e-06	-4.882748e-09	-3.884855e+01	-3.190753e+02
2.890000e-06	-4.672743e-06	-4.919699e-09	-3.962700e+01	-3.212672e+02
2.900000e-06	-4.762994e-06	-4.951854e-09	-4.039236e+01	-3.233414e+02
2.910000e-06	-4.851622e-06	-4.979898e-09	-4.114397e+01	-3.253067e+02
2.920000e-06	-4.938421e-06	-5.007016e-09	-4.188007e+01	-3.271698e+02
2.930000e-06	-5.023294e-06	-5.034450e-09	-4.259983e+01	-3.289355e+02
2.940000e-06	-5.106472e-06	-5.062301e-09	-4.330521e+01	-3.306073e+02
