# Temperatura_=_20.0
# Concentracion g/m^3_=_9000.0
# C_Vs_to_Am_M_A/Vsm_=_65563218390.804596
# pendiente_HvsI_1/m_=_3716.3
# ordenada_HvsI_A/m_=_1297.0
# frecuencia_Hz_=_212856.684963115

Tiempo_(s)	Campo_(V.s)	Magnetizacion_(V.s)	Campo_(kA/m)	Magnetizacion_(A/m)
0.000000e+00	-5.303687e-06	-4.132939e-09	-5.699625e+01	-2.710351e+02
1.000000e-08	-5.303319e-06	-4.132141e-09	-5.699229e+01	-2.710389e+02
2.000000e-08	-5.301836e-06	-4.135256e-09	-5.697635e+01	-2.710149e+02
3.000000e-08	-5.299187e-06	-4.137999e-09	-5.694789e+01	-2.709626e+02
4.000000e-08	-5.295619e-06	-4.136077e-09	-5.690954e+01	-2.708827e+02
5.000000e-08	-5.291330e-06	-4.132071e-09	-5.686345e+01	-2.707768e+02
6.000000e-08	-5.286276e-06	-4.128423e-09	-5.680914e+01	-2.706478e+02
7.000000e-08	-5.280332e-06	-4.121948e-09	-5.674526e+01	-2.704993e+02
8.000000e-08	-5.273482e-06	-4.109167e-09	-5.667164e+01	-2.703359e+02
9.000000e-08	-5.265796e-06	-4.126685e-09	-5.658904e+01	-2.701628e+02
1.000000e-07	-5.256991e-06	-4.173420e-09	-5.649443e+01	-2.699855e+02
1.100000e-07	-5.246746e-06	-4.197562e-09	-5.638433e+01	-2.698096e+02
1.200000e-07	-5.235331e-06	-4.124419e-09	-5.626165e+01	-2.696401e+02
1.300000e-07	-5.223103e-06	-4.003151e-09	-5.613025e+01	-2.694816e+02
1.400000e-07	-5.210062e-06	-4.058396e-09	-5.599010e+01	-2.693376e+02
1.500000e-07	-5.196123e-06	-4.200528e-09	-5.584031e+01	-2.692104e+02
1.600000e-07	-5.181301e-06	-4.134611e-09	-5.568102e+01	-2.691006e+02
1.700000e-07	-5.165351e-06	-4.063526e-09	-5.550962e+01	-2.690074e+02
1.800000e-07	-5.148122e-06	-4.052761e-09	-5.532447e+01	-2.689284e+02
1.900000e-07	-5.130182e-06	-4.016621e-09	-5.513167e+01	-2.688595e+02
2.000000e-07	-5.111744e-06	-4.137895e-09	-5.493353e+01	-2.687951e+02
2.100000e-07	-5.092361e-06	-4.192098e-09	-5.472522e+01	-2.687287e+02
2.200000e-07	-5.072008e-06	-4.012950e-09	-5.450650e+01	-2.686527e+02
2.300000e-07	-5.050959e-06	-3.998721e-09	-5.428030e+01	-2.685590e+02
2.400000e-07	-5.029165e-06	-4.200984e-09	-5.404609e+01	-2.684396e+02
2.500000e-07	-5.006386e-06	-4.171022e-09	-5.380129e+01	-2.682866e+02
2.600000e-07	-4.982748e-06	-4.012954e-09	-5.354726e+01	-2.680930e+02
2.700000e-07	-4.958312e-06	-4.001159e-09	-5.328466e+01	-2.678527e+02
2.800000e-07	-4.932868e-06	-4.075074e-09	-5.301122e+01	-2.675611e+02
2.900000e-07	-4.906336e-06	-4.128025e-09	-5.272610e+01	-2.672153e+02
3.000000e-07	-4.878782e-06	-4.063887e-09	-5.242999e+01	-2.668138e+02
3.100000e-07	-4.850422e-06	-3.998133e-09	-5.212522e+01	-2.663571e+02
3.200000e-07	-4.821278e-06	-4.013338e-09	-5.181202e+01	-2.658471e+02
3.300000e-07	-4.791269e-06	-4.023498e-09	-5.148953e+01	-2.652873e+02
3.400000e-07	-4.760446e-06	-4.054002e-09	-5.115829e+01	-2.646822e+02
3.500000e-07	-4.728958e-06	-4.046242e-09	-5.081990e+01	-2.640374e+02
3.600000e-07	-4.696773e-06	-3.929293e-09	-5.047403e+01	-2.633587e+02
3.700000e-07	-4.663728e-06	-3.931968e-09	-5.011891e+01	-2.626524e+02
3.800000e-07	-4.629663e-06	-4.059772e-09	-4.975283e+01	-2.619241e+02
3.900000e-07	-4.594477e-06	-4.018012e-09	-4.937470e+01	-2.611789e+02
4.000000e-07	-4.558380e-06	-3.881843e-09	-4.898678e+01	-2.604212e+02
4.100000e-07	-4.521624e-06	-3.918291e-09	-4.859178e+01	-2.596541e+02
4.200000e-07	-4.484136e-06	-4.005582e-09	-4.818892e+01	-2.588793e+02
4.300000e-07	-4.445687e-06	-3.947445e-09	-4.777572e+01	-2.580976e+02
4.400000e-07	-4.406457e-06	-3.880162e-09	-4.735413e+01	-2.573081e+02
4.500000e-07	-4.366792e-06	-3.897169e-09	-4.692787e+01	-2.565090e+02
4.600000e-07	-4.326614e-06	-3.907263e-09	-4.649609e+01	-2.556977e+02
4.700000e-07	-4.285533e-06	-3.891327e-09	-4.605462e+01	-2.548705e+02
4.800000e-07	-4.243338e-06	-3.872905e-09	-4.560117e+01	-2.540237e+02
4.900000e-07	-4.200160e-06	-3.844623e-09	-4.513716e+01	-2.531534e+02
5.000000e-07	-4.156285e-06	-3.826808e-09	-4.466565e+01	-2.522558e+02
5.100000e-07	-4.111841e-06	-3.840096e-09	-4.418803e+01	-2.513275e+02
5.200000e-07	-4.066745e-06	-3.834697e-09	-4.370341e+01	-2.503660e+02
5.300000e-07	-4.020977e-06	-3.784573e-09	-4.321156e+01	-2.493694e+02
5.400000e-07	-3.974468e-06	-3.758913e-09	-4.271175e+01	-2.483367e+02
5.500000e-07	-3.927286e-06	-3.777271e-09	-4.220471e+01	-2.472677e+02
5.600000e-07	-3.879570e-06	-3.775518e-09	-4.169193e+01	-2.461631e+02
5.700000e-07	-3.831091e-06	-3.728311e-09	-4.117095e+01	-2.450243e+02
5.800000e-07	-3.781619e-06	-3.689224e-09	-4.063929e+01	-2.438529e+02
5.900000e-07	-3.731198e-06	-3.700095e-09	-4.009744e+01	-2.426511e+02
6.000000e-07	-3.679969e-06	-3.706528e-09	-3.954691e+01	-2.414208e+02
6.100000e-07	-3.627994e-06	-3.663583e-09	-3.898835e+01	-2.401640e+02
6.200000e-07	-3.575235e-06	-3.618967e-09	-3.842138e+01	-2.388820e+02
6.300000e-07	-3.521788e-06	-3.616201e-09	-3.784701e+01	-2.375756e+02
6.400000e-07	-3.467735e-06	-3.615786e-09	-3.726612e+01	-2.362452e+02
6.500000e-07	-3.413040e-06	-3.580739e-09	-3.667835e+01	-2.348900e+02
6.600000e-07	-3.357821e-06	-3.543742e-09	-3.608493e+01	-2.335088e+02
6.700000e-07	-3.302165e-06	-3.524523e-09	-3.548683e+01	-2.320996e+02
6.800000e-07	-3.246056e-06	-3.514040e-09	-3.488385e+01	-2.306600e+02
6.900000e-07	-3.189297e-06	-3.501101e-09	-3.427388e+01	-2.291870e+02
7.000000e-07	-3.131642e-06	-3.470411e-09	-3.365429e+01	-2.276778e+02
7.100000e-07	-3.073088e-06	-3.430329e-09	-3.302504e+01	-2.261292e+02
7.200000e-07	-3.013871e-06	-3.408680e-09	-3.238866e+01	-2.245386e+02
7.300000e-07	-2.954255e-06	-3.404952e-09	-3.174800e+01	-2.229035e+02
7.400000e-07	-2.894260e-06	-3.377502e-09	-3.110326e+01	-2.212222e+02
7.500000e-07	-2.833780e-06	-3.326273e-09	-3.045331e+01	-2.194932e+02
7.600000e-07	-2.772747e-06	-3.297905e-09	-2.979742e+01	-2.177159e+02
7.700000e-07	-2.711274e-06	-3.290946e-09	-2.913679e+01	-2.158903e+02
7.800000e-07	-2.649450e-06	-3.266145e-09	-2.847240e+01	-2.140167e+02
7.900000e-07	-2.587143e-06	-3.219199e-09	-2.780281e+01	-2.120956e+02
8.000000e-07	-2.524311e-06	-3.182140e-09	-2.712759e+01	-2.101280e+02
8.100000e-07	-2.461098e-06	-3.163149e-09	-2.644827e+01	-2.081142e+02
8.200000e-07	-2.397583e-06	-3.137939e-09	-2.576571e+01	-2.060548e+02
8.300000e-07	-2.333749e-06	-3.095902e-09	-2.507971e+01	-2.039494e+02
8.400000e-07	-2.269580e-06	-3.051365e-09	-2.439012e+01	-2.017970e+02
8.500000e-07	-2.205136e-06	-3.018549e-09	-2.369757e+01	-1.995957e+02
8.600000e-07	-2.140354e-06	-2.994355e-09	-2.300139e+01	-1.973429e+02
8.700000e-07	-2.075056e-06	-2.962472e-09	-2.229966e+01	-1.950348e+02
8.800000e-07	-2.009129e-06	-2.918313e-09	-2.159117e+01	-1.926668e+02
8.900000e-07	-1.942658e-06	-2.874215e-09	-2.087683e+01	-1.902333e+02
9.000000e-07	-1.875825e-06	-2.840537e-09	-2.015862e+01	-1.877284e+02
9.100000e-07	-1.808694e-06	-2.809755e-09	-1.943719e+01	-1.851455e+02
9.200000e-07	-1.741300e-06	-2.764011e-09	-1.871293e+01	-1.824779e+02
9.300000e-07	-1.673675e-06	-2.710214e-09	-1.798620e+01	-1.797188e+02
9.400000e-07	-1.605856e-06	-2.666085e-09	-1.725738e+01	-1.768618e+02
9.500000e-07	-1.537887e-06	-2.626533e-09	-1.652695e+01	-1.739005e+02
9.600000e-07	-1.469763e-06	-2.576844e-09	-1.579486e+01	-1.708294e+02
9.700000e-07	-1.401397e-06	-2.521046e-09	-1.506016e+01	-1.676430e+02
9.800000e-07	-1.332677e-06	-2.473201e-09	-1.432166e+01	-1.643368e+02
9.900000e-07	-1.263726e-06	-2.428452e-09	-1.358067e+01	-1.609063e+02
1.000000e-06	-1.194622e-06	-2.377398e-09	-1.283804e+01	-1.573473e+02
1.010000e-06	-1.125213e-06	-2.318842e-09	-1.209214e+01	-1.536555e+02
1.020000e-06	-1.055526e-06	-2.255972e-09	-1.134324e+01	-1.498264e+02
1.030000e-06	-9.856395e-07	-2.194160e-09	-1.059221e+01	-1.458547e+02
1.040000e-06	-9.156266e-07	-2.131041e-09	-9.839811e+00	-1.417345e+02
1.050000e-06	-8.454679e-07	-2.065961e-09	-9.085848e+00	-1.374586e+02
1.060000e-06	-7.751541e-07	-1.998727e-09	-8.330218e+00	-1.330184e+02
1.070000e-06	-7.046924e-07	-1.929439e-09	-7.573000e+00	-1.284042e+02
1.080000e-06	-6.340499e-07	-1.860324e-09	-6.813838e+00	-1.236048e+02
1.090000e-06	-5.633053e-07	-1.786911e-09	-6.053579e+00	-1.186075e+02
1.100000e-06	-4.924498e-07	-1.707578e-09	-5.292128e+00	-1.133991e+02
1.110000e-06	-4.214721e-07	-1.624670e-09	-4.529364e+00	-1.079655e+02
1.120000e-06	-3.504050e-07	-1.539217e-09	-3.765638e+00	-1.022927e+02
1.130000e-06	-2.792603e-07	-1.449412e-09	-3.001080e+00	-9.636701e+01
1.140000e-06	-2.080969e-07	-1.352431e-09	-2.236320e+00	-9.017619e+01
1.150000e-06	-1.369686e-07	-1.250738e-09	-1.471938e+00	-8.370983e+01
1.160000e-06	-6.584159e-08	-1.146598e-09	-7.075688e-01	-7.696019e+01
1.170000e-06	5.255570e-09	-1.039696e-09	5.647916e-02	-6.992291e+01
1.180000e-06	7.631873e-08	-9.302322e-10	8.201617e-01	-6.259761e+01
1.190000e-06	1.473641e-07	-8.174165e-10	1.583653e+00	-5.498846e+01
1.200000e-06	2.183563e-07	-7.009050e-10	2.346573e+00	-4.710453e+01
1.210000e-06	2.893114e-07	-5.794331e-10	3.109095e+00	-3.896004e+01
1.220000e-06	3.602450e-07	-4.530952e-10	3.871384e+00	-3.057444e+01
1.230000e-06	4.311373e-07	-3.215768e-10	4.633231e+00	-2.197224e+01
1.240000e-06	5.019608e-07	-1.860929e-10	5.394339e+00	-1.318271e+01
1.250000e-06	5.726796e-07	-4.997108e-11	6.154320e+00	-4.239401e+00
1.260000e-06	6.432625e-07	8.686796e-11	6.912842e+00	4.820543e+00
1.270000e-06	7.136890e-07	2.250632e-10	7.669682e+00	1.395715e+01
1.280000e-06	7.839648e-07	3.642464e-10	8.424904e+00	2.312849e+01
1.290000e-06	8.540891e-07	5.021644e-10	9.178497e+00	3.229168e+01
1.300000e-06	9.240349e-07	6.371741e-10	9.930172e+00	4.140380e+01
1.310000e-06	9.938065e-07	7.742757e-10	1.067997e+01	5.042290e+01
1.320000e-06	1.063404e-06	9.139878e-10	1.142790e+01	5.930891e+01
1.330000e-06	1.132792e-06	1.050455e-09	1.217359e+01	6.802444e+01
1.340000e-06	1.202004e-06	1.182685e-09	1.291737e+01	7.653554e+01
1.350000e-06	1.271056e-06	1.312283e-09	1.365945e+01	8.481225e+01
1.360000e-06	1.339822e-06	1.437216e-09	1.439844e+01	9.282904e+01
1.370000e-06	1.408274e-06	1.553394e-09	1.513407e+01	1.005651e+02
1.380000e-06	1.476479e-06	1.661207e-09	1.586703e+01	1.080044e+02
1.390000e-06	1.544499e-06	1.764593e-09	1.659801e+01	1.151359e+02
1.400000e-06	1.612350e-06	1.866078e-09	1.732717e+01	1.219530e+02
1.410000e-06	1.680029e-06	1.964947e-09	1.805449e+01	1.284534e+02
1.420000e-06	1.747541e-06	2.057424e-09	1.878001e+01	1.346390e+02
1.430000e-06	1.814845e-06	2.144970e-09	1.950329e+01	1.405152e+02
1.440000e-06	1.881893e-06	2.231508e-09	2.022383e+01	1.460901e+02
1.450000e-06	1.948622e-06	2.313927e-09	2.094093e+01	1.513748e+02
1.460000e-06	2.014896e-06	2.390401e-09	2.165315e+01	1.563819e+02
1.470000e-06	2.080590e-06	2.461491e-09	2.235913e+01	1.611257e+02
1.480000e-06	2.145698e-06	2.529331e-09	2.305882e+01	1.656215e+02
1.490000e-06	2.210303e-06	2.595018e-09	2.375310e+01	1.698849e+02
1.500000e-06	2.274520e-06	2.657686e-09	2.444321e+01	1.739320e+02
1.510000e-06	2.338343e-06	2.715341e-09	2.512908e+01	1.777782e+02
1.520000e-06	2.401833e-06	2.768051e-09	2.581138e+01	1.814389e+02
1.530000e-06	2.465077e-06	2.820438e-09	2.649103e+01	1.849286e+02
1.540000e-06	2.527925e-06	2.871048e-09	2.716643e+01	1.882608e+02
1.550000e-06	2.590256e-06	2.917590e-09	2.783627e+01	1.914483e+02
1.560000e-06	2.652132e-06	2.962205e-09	2.850122e+01	1.945025e+02
1.570000e-06	2.713600e-06	3.004988e-09	2.916179e+01	1.974339e+02
1.580000e-06	2.774593e-06	3.045759e-09	2.981726e+01	2.002517e+02
1.590000e-06	2.835082e-06	3.084532e-09	3.046730e+01	2.029642e+02
1.600000e-06	2.895094e-06	3.120606e-09	3.111222e+01	2.055782e+02
1.610000e-06	2.954698e-06	3.154850e-09	3.175276e+01	2.080998e+02
1.620000e-06	3.013922e-06	3.189375e-09	3.238921e+01	2.105341e+02
1.630000e-06	3.072632e-06	3.224350e-09	3.302013e+01	2.128851e+02
1.640000e-06	3.130540e-06	3.257088e-09	3.364245e+01	2.151562e+02
1.650000e-06	3.187535e-06	3.288469e-09	3.425495e+01	2.173500e+02
1.660000e-06	3.243770e-06	3.319080e-09	3.485928e+01	2.194688e+02
1.670000e-06	3.299453e-06	3.349511e-09	3.545768e+01	2.215141e+02
1.680000e-06	3.354755e-06	3.378524e-09	3.605198e+01	2.234876e+02
1.690000e-06	3.409636e-06	3.404631e-09	3.664177e+01	2.253906e+02
1.700000e-06	3.463934e-06	3.429399e-09	3.722528e+01	2.272243e+02
1.710000e-06	3.517624e-06	3.453436e-09	3.780226e+01	2.289901e+02
1.720000e-06	3.570806e-06	3.479251e-09	3.837378e+01	2.306897e+02
1.730000e-06	3.623399e-06	3.505525e-09	3.893897e+01	2.323251e+02
1.740000e-06	3.675234e-06	3.530351e-09	3.949602e+01	2.338982e+02
1.750000e-06	3.726260e-06	3.553168e-09	4.004437e+01	2.354118e+02
1.760000e-06	3.776349e-06	3.575106e-09	4.058266e+01	2.368687e+02
1.770000e-06	3.825415e-06	3.595912e-09	4.110995e+01	2.382721e+02
1.780000e-06	3.873617e-06	3.614919e-09	4.162795e+01	2.396252e+02
1.790000e-06	3.921223e-06	3.633529e-09	4.213955e+01	2.409316e+02
1.800000e-06	3.968329e-06	3.651169e-09	4.264578e+01	2.421949e+02
1.810000e-06	4.014756e-06	3.668867e-09	4.314471e+01	2.434183e+02
1.820000e-06	4.060499e-06	3.687450e-09	4.363629e+01	2.446052e+02
1.830000e-06	4.105562e-06	3.706851e-09	4.412056e+01	2.457585e+02
1.840000e-06	4.149857e-06	3.727376e-09	4.459658e+01	2.468805e+02
1.850000e-06	4.193577e-06	3.746279e-09	4.506642e+01	2.479735e+02
1.860000e-06	4.236748e-06	3.763654e-09	4.553035e+01	2.490387e+02
1.870000e-06	4.279099e-06	3.779073e-09	4.598548e+01	2.500773e+02
1.880000e-06	4.320483e-06	3.793180e-09	4.643022e+01	2.510898e+02
1.890000e-06	4.360849e-06	3.808567e-09	4.686401e+01	2.520760e+02
1.900000e-06	4.400425e-06	3.822547e-09	4.728931e+01	2.530357e+02
1.910000e-06	4.439398e-06	3.835580e-09	4.770813e+01	2.539682e+02
1.920000e-06	4.477614e-06	3.848311e-09	4.811883e+01	2.548726e+02
1.930000e-06	4.515029e-06	3.863189e-09	4.852091e+01	2.557481e+02
1.940000e-06	4.551617e-06	3.879576e-09	4.891410e+01	2.565938e+02
1.950000e-06	4.587478e-06	3.893120e-09	4.929949e+01	2.574089e+02
1.960000e-06	4.622735e-06	3.904924e-09	4.967837e+01	2.581931e+02
1.970000e-06	4.657144e-06	3.916260e-09	5.004815e+01	2.589460e+02
1.980000e-06	4.690418e-06	3.928553e-09	5.040573e+01	2.596678e+02
1.990000e-06	4.722712e-06	3.940116e-09	5.075277e+01	2.603588e+02
2.000000e-06	4.754296e-06	3.950009e-09	5.109220e+01	2.610199e+02
2.010000e-06	4.785139e-06	3.960099e-09	5.142366e+01	2.616519e+02
2.020000e-06	4.815145e-06	3.970955e-09	5.174611e+01	2.622559e+02
2.030000e-06	4.844374e-06	3.982815e-09	5.206022e+01	2.628331e+02
2.040000e-06	4.872822e-06	3.993185e-09	5.236594e+01	2.633847e+02
2.050000e-06	4.900550e-06	4.001949e-09	5.266392e+01	2.639118e+02
2.060000e-06	4.927588e-06	4.011276e-09	5.295448e+01	2.644155e+02
2.070000e-06	4.953576e-06	4.020306e-09	5.323377e+01	2.648966e+02
2.080000e-06	4.978367e-06	4.026635e-09	5.350018e+01	2.653556e+02
2.090000e-06	5.002218e-06	4.031097e-09	5.375650e+01	2.657929e+02
2.100000e-06	5.025281e-06	4.036843e-09	5.400435e+01	2.662089e+02
2.110000e-06	5.047533e-06	4.044130e-09	5.424348e+01	2.666035e+02
2.120000e-06	5.068920e-06	4.051256e-09	5.447331e+01	2.669769e+02
2.130000e-06	5.089454e-06	4.058586e-09	5.469399e+01	2.673291e+02
2.140000e-06	5.109288e-06	4.065497e-09	5.490714e+01	2.676603e+02
2.150000e-06	5.128445e-06	4.072647e-09	5.511300e+01	2.679709e+02
2.160000e-06	5.146741e-06	4.080704e-09	5.530962e+01	2.682613e+02
2.170000e-06	5.164022e-06	4.086071e-09	5.549533e+01	2.685325e+02
2.180000e-06	5.180349e-06	4.090570e-09	5.567079e+01	2.687856e+02
2.190000e-06	5.195765e-06	4.094060e-09	5.583646e+01	2.690220e+02
2.200000e-06	5.210143e-06	4.097891e-09	5.599097e+01	2.692433e+02
2.210000e-06	5.223540e-06	4.103969e-09	5.613494e+01	2.694511e+02
2.220000e-06	5.236052e-06	4.108781e-09	5.626941e+01	2.696472e+02
2.230000e-06	5.247624e-06	4.112163e-09	5.639377e+01	2.698332e+02
2.240000e-06	5.258032e-06	4.116657e-09	5.650562e+01	2.700103e+02
2.250000e-06	5.267165e-06	4.121701e-09	5.660376e+01	2.701797e+02
2.260000e-06	5.275264e-06	4.125562e-09	5.669080e+01	2.703416e+02
2.270000e-06	5.282515e-06	4.129481e-09	5.676872e+01	2.704960e+02
2.280000e-06	5.288903e-06	4.133701e-09	5.683737e+01	2.706422e+02
2.290000e-06	5.294391e-06	4.136563e-09	5.689635e+01	2.707787e+02
2.300000e-06	5.298979e-06	4.138456e-09	5.694565e+01	2.709037e+02
2.310000e-06	5.302742e-06	4.139785e-09	5.698609e+01	2.710148e+02
2.320000e-06	5.305615e-06	4.139828e-09	5.701697e+01	2.711093e+02
2.330000e-06	5.307343e-06	4.142165e-09	5.703554e+01	2.711842e+02
2.340000e-06	5.307898e-06	4.145380e-09	5.704150e+01	2.712368e+02
2.350000e-06	5.307558e-06	4.146322e-09	5.703785e+01	2.712646e+02
2.360000e-06	5.306455e-06	4.145662e-09	5.702599e+01	2.712657e+02
2.370000e-06	5.304570e-06	4.143624e-09	5.700573e+01	2.712389e+02
2.380000e-06	5.301820e-06	4.141363e-09	5.697619e+01	2.711839e+02
2.390000e-06	5.298212e-06	4.140953e-09	5.693741e+01	2.711013e+02
2.400000e-06	5.293967e-06	4.140697e-09	5.689179e+01	2.709930e+02
2.410000e-06	5.289020e-06	4.138842e-09	5.683863e+01	2.708618e+02
2.420000e-06	5.282940e-06	4.145192e-09	5.677329e+01	2.707116e+02
2.430000e-06	5.275630e-06	4.146987e-09	5.669473e+01	2.705471e+02
2.440000e-06	5.267366e-06	4.091992e-09	5.660592e+01	2.703733e+02
2.450000e-06	5.258014e-06	4.043473e-09	5.650542e+01	2.701960e+02
2.460000e-06	5.247342e-06	4.072343e-09	5.639073e+01	2.700205e+02
2.470000e-06	5.235718e-06	4.213529e-09	5.626582e+01	2.698520e+02
2.480000e-06	5.223766e-06	4.236050e-09	5.613737e+01	2.696948e+02
2.490000e-06	5.211184e-06	4.053697e-09	5.600216e+01	2.695524e+02
2.500000e-06	5.196998e-06	4.062647e-09	5.584971e+01	2.694269e+02
2.510000e-06	5.181436e-06	4.129222e-09	5.568247e+01	2.693189e+02
2.520000e-06	5.165366e-06	4.116156e-09	5.550977e+01	2.692273e+02
2.530000e-06	5.148579e-06	4.204131e-09	5.532937e+01	2.691495e+02
2.540000e-06	5.130695e-06	4.134293e-09	5.513718e+01	2.690813e+02
2.550000e-06	5.112140e-06	3.947417e-09	5.493778e+01	2.690171e+02
2.560000e-06	5.093001e-06	4.076302e-09	5.473210e+01	2.689501e+02
2.570000e-06	5.072944e-06	4.206648e-09	5.451656e+01	2.688727e+02
2.580000e-06	5.051844e-06	4.024085e-09	5.428980e+01	2.687769e+02
2.590000e-06	5.029590e-06	4.020819e-09	5.405066e+01	2.686545e+02
2.600000e-06	5.006244e-06	4.192594e-09	5.379976e+01	2.684977e+02
2.610000e-06	4.982010e-06	4.157486e-09	5.353934e+01	2.682997e+02
2.620000e-06	4.956909e-06	4.085896e-09	5.326958e+01	2.680545e+02
2.630000e-06	4.931023e-06	4.063393e-09	5.299140e+01	2.677577e+02
2.640000e-06	4.904449e-06	4.063647e-09	5.270582e+01	2.674063e+02
2.650000e-06	4.877015e-06	4.112915e-09	5.241100e+01	2.669993e+02
2.660000e-06	4.848827e-06	4.076514e-09	5.210808e+01	2.665372e+02
2.670000e-06	4.819813e-06	4.072291e-09	5.179628e+01	2.660220e+02
2.680000e-06	4.789481e-06	4.074481e-09	5.147031e+01	2.654574e+02
2.690000e-06	4.757974e-06	3.971295e-09	5.113172e+01	2.648482e+02
2.700000e-06	4.725774e-06	4.057678e-09	5.078569e+01	2.641997e+02
2.710000e-06	4.692827e-06	4.128825e-09	5.043162e+01	2.635181e+02
2.720000e-06	4.658910e-06	3.948424e-09	5.006713e+01	2.628093e+02
2.730000e-06	4.624201e-06	3.928041e-09	4.969413e+01	2.620791e+02
2.740000e-06	4.588928e-06	4.061384e-09	4.931506e+01	2.613325e+02
2.750000e-06	4.552972e-06	4.038967e-09	4.892866e+01	2.605738e+02
2.760000e-06	4.516256e-06	3.923236e-09	4.853409e+01	2.598058e+02
2.770000e-06	4.478694e-06	3.917533e-09	4.813043e+01	2.590304e+02
2.780000e-06	4.440083e-06	3.993471e-09	4.771550e+01	2.582480e+02
2.790000e-06	4.400439e-06	3.955625e-09	4.728946e+01	2.574577e+02
2.800000e-06	4.360012e-06	3.896569e-09	4.685501e+01	2.566575e+02
2.810000e-06	4.318991e-06	3.916028e-09	4.641418e+01	2.558448e+02
2.820000e-06	4.277301e-06	3.907909e-09	4.596615e+01	2.550158e+02
2.830000e-06	4.234857e-06	3.886085e-09	4.551003e+01	2.541669e+02
2.840000e-06	4.191755e-06	3.874924e-09	4.504683e+01	2.532940e+02
2.850000e-06	4.148067e-06	3.870085e-09	4.457734e+01	2.523935e+02
2.860000e-06	4.103837e-06	3.846492e-09	4.410201e+01	2.514621e+02
2.870000e-06	4.059073e-06	3.818520e-09	4.362096e+01	2.504972e+02
2.880000e-06	4.013630e-06	3.839702e-09	4.313261e+01	2.494970e+02
2.890000e-06	3.967314e-06	3.817592e-09	4.263487e+01	2.484607e+02
2.900000e-06	3.920242e-06	3.759970e-09	4.212901e+01	2.473881e+02
2.910000e-06	3.872553e-06	3.760876e-09	4.161651e+01	2.462801e+02
2.920000e-06	3.824127e-06	3.777161e-09	4.109610e+01	2.451379e+02
2.930000e-06	3.774864e-06	3.740980e-09	4.056670e+01	2.439634e+02
2.940000e-06	3.724797e-06	3.684035e-09	4.002866e+01	2.427587e+02
2.950000e-06	3.674115e-06	3.692962e-09	3.948400e+01	2.415257e+02
