# Temperatura_=_20.0
# Concentracion g/m^3_=_9000.0
# C_Vs_to_Am_M_A/Vsm_=_65563218390.804596
# pendiente_HvsI_1/m_=_3716.3
# ordenada_HvsI_A/m_=_1297.0
# frecuencia_Hz_=_212857.5509937071

Tiempo_(s)	Campo_(V.s)	Magnetizacion_(V.s)	Campo_(kA/m)	Magnetizacion_(A/m)
0.000000e+00	-5.279916e-06	-4.110392e-09	-5.699499e+01	-2.691235e+02
1.000000e-08	-5.279924e-06	-4.111920e-09	-5.699507e+01	-2.691128e+02
2.000000e-08	-5.278944e-06	-4.115519e-09	-5.698449e+01	-2.690811e+02
3.000000e-08	-5.276701e-06	-4.115976e-09	-5.696028e+01	-2.690280e+02
4.000000e-08	-5.273466e-06	-4.114188e-09	-5.692536e+01	-2.689535e+02
5.000000e-08	-5.269525e-06	-4.113391e-09	-5.688282e+01	-2.688582e+02
6.000000e-08	-5.264732e-06	-4.110784e-09	-5.683108e+01	-2.687432e+02
7.000000e-08	-5.259057e-06	-4.103602e-09	-5.676982e+01	-2.686103e+02
8.000000e-08	-5.252564e-06	-4.094596e-09	-5.669973e+01	-2.684619e+02
9.000000e-08	-5.245248e-06	-4.116731e-09	-5.662075e+01	-2.683009e+02
1.000000e-07	-5.236937e-06	-4.143408e-09	-5.653104e+01	-2.681305e+02
1.100000e-07	-5.227281e-06	-4.140671e-09	-5.642681e+01	-2.679542e+02
1.200000e-07	-5.216352e-06	-4.073554e-09	-5.630883e+01	-2.677755e+02
1.300000e-07	-5.204516e-06	-4.027282e-09	-5.618107e+01	-2.675977e+02
1.400000e-07	-5.191866e-06	-4.121273e-09	-5.604451e+01	-2.674238e+02
1.500000e-07	-5.178333e-06	-4.144692e-09	-5.589843e+01	-2.672559e+02
1.600000e-07	-5.164041e-06	-4.031283e-09	-5.574415e+01	-2.670957e+02
1.700000e-07	-5.148720e-06	-4.073138e-09	-5.557877e+01	-2.669437e+02
1.800000e-07	-5.132041e-06	-4.054716e-09	-5.539873e+01	-2.667994e+02
1.900000e-07	-5.114470e-06	-4.013762e-09	-5.520905e+01	-2.666614e+02
2.000000e-07	-5.096393e-06	-4.144693e-09	-5.501391e+01	-2.665270e+02
2.100000e-07	-5.077455e-06	-4.081289e-09	-5.480948e+01	-2.663926e+02
2.200000e-07	-5.057531e-06	-3.954871e-09	-5.459441e+01	-2.662540e+02
2.300000e-07	-5.036907e-06	-4.094792e-09	-5.437178e+01	-2.661060e+02
2.400000e-07	-5.015487e-06	-4.182972e-09	-5.414056e+01	-2.659431e+02
2.500000e-07	-4.993089e-06	-4.017059e-09	-5.389878e+01	-2.657597e+02
2.600000e-07	-4.969831e-06	-3.999664e-09	-5.364772e+01	-2.655504e+02
2.700000e-07	-4.945834e-06	-4.061129e-09	-5.338868e+01	-2.653100e+02
2.800000e-07	-4.921063e-06	-4.071787e-09	-5.312128e+01	-2.650341e+02
2.900000e-07	-4.895237e-06	-4.073033e-09	-5.284250e+01	-2.647189e+02
3.000000e-07	-4.868244e-06	-3.994444e-09	-5.255111e+01	-2.643620e+02
3.100000e-07	-4.840373e-06	-4.010970e-09	-5.225026e+01	-2.639617e+02
3.200000e-07	-4.811669e-06	-4.050850e-09	-5.194041e+01	-2.635176e+02
3.300000e-07	-4.782066e-06	-3.988958e-09	-5.162086e+01	-2.630305e+02
3.400000e-07	-4.751699e-06	-4.013170e-09	-5.129305e+01	-2.625021e+02
3.500000e-07	-4.720640e-06	-4.014239e-09	-5.095778e+01	-2.619348e+02
3.600000e-07	-4.688827e-06	-3.908555e-09	-5.061437e+01	-2.613320e+02
3.700000e-07	-4.656209e-06	-3.972912e-09	-5.026227e+01	-2.606970e+02
3.800000e-07	-4.622702e-06	-4.037696e-09	-4.990058e+01	-2.600337e+02
3.900000e-07	-4.588051e-06	-3.900667e-09	-4.952653e+01	-2.593456e+02
4.000000e-07	-4.552388e-06	-3.872631e-09	-4.914155e+01	-2.586360e+02
4.100000e-07	-4.516109e-06	-3.989945e-09	-4.874994e+01	-2.579074e+02
4.200000e-07	-4.479126e-06	-3.950240e-09	-4.835072e+01	-2.571620e+02
4.300000e-07	-4.441229e-06	-3.845280e-09	-4.794163e+01	-2.564009e+02
4.400000e-07	-4.402518e-06	-3.885483e-09	-4.752375e+01	-2.556243e+02
4.500000e-07	-4.363208e-06	-3.912403e-09	-4.709942e+01	-2.548318e+02
4.600000e-07	-4.323347e-06	-3.860046e-09	-4.666913e+01	-2.540221e+02
4.700000e-07	-4.282711e-06	-3.841566e-09	-4.623048e+01	-2.531933e+02
4.800000e-07	-4.241122e-06	-3.839151e-09	-4.578154e+01	-2.523431e+02
4.900000e-07	-4.198593e-06	-3.822909e-09	-4.532246e+01	-2.514688e+02
5.000000e-07	-4.155207e-06	-3.817115e-09	-4.485412e+01	-2.505679e+02
5.100000e-07	-4.111125e-06	-3.812303e-09	-4.437826e+01	-2.496378e+02
5.200000e-07	-4.066458e-06	-3.787142e-09	-4.389610e+01	-2.486763e+02
5.300000e-07	-4.021181e-06	-3.760552e-09	-4.340734e+01	-2.476818e+02
5.400000e-07	-3.975151e-06	-3.759221e-09	-4.291047e+01	-2.466529e+02
5.500000e-07	-3.928385e-06	-3.761649e-09	-4.240564e+01	-2.455893e+02
5.600000e-07	-3.881077e-06	-3.731986e-09	-4.189497e+01	-2.444908e+02
5.700000e-07	-3.833128e-06	-3.687512e-09	-4.137738e+01	-2.433582e+02
5.800000e-07	-3.784338e-06	-3.683545e-09	-4.085071e+01	-2.421924e+02
5.900000e-07	-3.734591e-06	-3.697463e-09	-4.031370e+01	-2.409949e+02
6.000000e-07	-3.683896e-06	-3.659511e-09	-3.976646e+01	-2.397670e+02
6.100000e-07	-3.632380e-06	-3.615061e-09	-3.921036e+01	-2.385104e+02
6.200000e-07	-3.580125e-06	-3.617280e-09	-3.864629e+01	-2.372262e+02
6.300000e-07	-3.527187e-06	-3.614557e-09	-3.807484e+01	-2.359155e+02
6.400000e-07	-3.473589e-06	-3.577968e-09	-3.749627e+01	-2.345786e+02
6.500000e-07	-3.419396e-06	-3.548443e-09	-3.691127e+01	-2.332155e+02
6.600000e-07	-3.364621e-06	-3.535848e-09	-3.632000e+01	-2.318255e+02
6.700000e-07	-3.309300e-06	-3.514655e-09	-3.572282e+01	-2.304073e+02
6.800000e-07	-3.253513e-06	-3.494981e-09	-3.512062e+01	-2.289592e+02
6.900000e-07	-3.197229e-06	-3.478269e-09	-3.451305e+01	-2.274790e+02
7.000000e-07	-3.140151e-06	-3.445069e-09	-3.389692e+01	-2.259640e+02
7.100000e-07	-3.082137e-06	-3.414943e-09	-3.327067e+01	-2.244118e+02
7.200000e-07	-3.023380e-06	-3.403958e-09	-3.263641e+01	-2.228195e+02
7.300000e-07	-2.964154e-06	-3.385478e-09	-3.199708e+01	-2.211847e+02
7.400000e-07	-2.904552e-06	-3.345859e-09	-3.135370e+01	-2.195052e+02
7.500000e-07	-2.844468e-06	-3.312847e-09	-3.070511e+01	-2.177793e+02
7.600000e-07	-2.783906e-06	-3.297772e-09	-3.005137e+01	-2.160056e+02
7.700000e-07	-2.722897e-06	-3.273600e-09	-2.939280e+01	-2.141833e+02
7.800000e-07	-2.661449e-06	-3.233328e-09	-2.872948e+01	-2.123120e+02
7.900000e-07	-2.599545e-06	-3.197453e-09	-2.806125e+01	-2.103919e+02
8.000000e-07	-2.537170e-06	-3.173925e-09	-2.738793e+01	-2.084231e+02
8.100000e-07	-2.474412e-06	-3.148154e-09	-2.671048e+01	-2.064061e+02
8.200000e-07	-2.411315e-06	-3.111627e-09	-2.602937e+01	-2.043414e+02
8.300000e-07	-2.347831e-06	-3.076691e-09	-2.534407e+01	-2.022289e+02
8.400000e-07	-2.284007e-06	-3.044962e-09	-2.465511e+01	-2.000686e+02
8.500000e-07	-2.219864e-06	-3.009840e-09	-2.396271e+01	-1.978595e+02
8.600000e-07	-2.155448e-06	-2.974606e-09	-2.326737e+01	-1.956004e+02
8.700000e-07	-2.090737e-06	-2.940182e-09	-2.256883e+01	-1.932890e+02
8.800000e-07	-2.025429e-06	-2.902408e-09	-2.186385e+01	-1.909223e+02
8.900000e-07	-1.959457e-06	-2.861929e-09	-2.115170e+01	-1.884966e+02
9.000000e-07	-1.893136e-06	-2.824962e-09	-2.043579e+01	-1.860077e+02
9.100000e-07	-1.826515e-06	-2.787500e-09	-1.971664e+01	-1.834504e+02
9.200000e-07	-1.759486e-06	-2.743656e-09	-1.899308e+01	-1.808193e+02
9.300000e-07	-1.692157e-06	-2.700453e-09	-1.826629e+01	-1.781086e+02
9.400000e-07	-1.624565e-06	-2.659538e-09	-1.753666e+01	-1.753124e+02
9.500000e-07	-1.556793e-06	-2.611703e-09	-1.680507e+01	-1.724245e+02
9.600000e-07	-1.488897e-06	-2.558407e-09	-1.607216e+01	-1.694391e+02
9.700000e-07	-1.420793e-06	-2.509998e-09	-1.533700e+01	-1.663502e+02
9.800000e-07	-1.352488e-06	-2.464633e-09	-1.459967e+01	-1.631521e+02
9.900000e-07	-1.284024e-06	-2.413962e-09	-1.386062e+01	-1.598390e+02
1.000000e-06	-1.215330e-06	-2.360479e-09	-1.311909e+01	-1.564053e+02
1.010000e-06	-1.146380e-06	-2.308515e-09	-1.237480e+01	-1.528452e+02
1.020000e-06	-1.077118e-06	-2.251737e-09	-1.162714e+01	-1.491524e+02
1.030000e-06	-1.007528e-06	-2.190998e-09	-1.087594e+01	-1.453205e+02
1.040000e-06	-9.377442e-07	-2.128603e-09	-1.012265e+01	-1.413420e+02
1.050000e-06	-8.678467e-07	-2.064900e-09	-9.368124e+00	-1.372089e+02
1.060000e-06	-7.978011e-07	-2.000048e-09	-8.612005e+00	-1.329119e+02
1.070000e-06	-7.276341e-07	-1.933116e-09	-7.854575e+00	-1.284408e+02
1.080000e-06	-6.573842e-07	-1.863515e-09	-7.096250e+00	-1.237844e+02
1.090000e-06	-5.869914e-07	-1.788689e-09	-6.336382e+00	-1.189307e+02
1.100000e-06	-5.164869e-07	-1.712814e-09	-5.575310e+00	-1.138667e+02
1.110000e-06	-4.459441e-07	-1.635392e-09	-4.813822e+00	-1.085792e+02
1.120000e-06	-3.753404e-07	-1.551716e-09	-4.051679e+00	-1.030551e+02
1.130000e-06	-3.046587e-07	-1.461076e-09	-3.288692e+00	-9.728170e+01
1.140000e-06	-2.338974e-07	-1.366968e-09	-2.524847e+00	-9.124758e+01
1.150000e-06	-1.630313e-07	-1.272204e-09	-1.759870e+00	-8.494300e+01
1.160000e-06	-9.214341e-08	-1.171858e-09	-9.946583e-01	-7.836067e+01
1.170000e-06	-2.127227e-08	-1.064177e-09	-2.296273e-01	-7.149635e+01
1.180000e-06	4.961848e-08	-9.549156e-10	5.356155e-01	-6.434944e+01
1.190000e-06	1.204545e-07	-8.456709e-10	1.300267e+00	-5.692348e+01
1.200000e-06	1.911851e-07	-7.324500e-10	2.063781e+00	-4.922655e+01
1.210000e-06	2.618948e-07	-6.122699e-10	2.827070e+00	-4.127154e+01
1.220000e-06	3.325661e-07	-4.870961e-10	3.589943e+00	-3.307621e+01
1.230000e-06	4.031309e-07	-3.591439e-10	4.351667e+00	-2.466316e+01
1.240000e-06	4.735361e-07	-2.283577e-10	5.111669e+00	-1.605955e+01
1.250000e-06	5.438426e-07	-9.597622e-11	5.870605e+00	-7.296712e+00
1.260000e-06	6.141266e-07	3.901302e-11	6.629298e+00	1.590441e+00
1.270000e-06	6.843094e-07	1.763292e-10	7.386899e+00	1.056411e+01
1.280000e-06	7.543134e-07	3.112054e-10	8.142569e+00	1.958443e+01
1.290000e-06	8.241635e-07	4.445446e-10	8.896578e+00	2.861036e+01
1.300000e-06	8.939116e-07	5.782222e-10	9.649487e+00	3.760061e+01
1.310000e-06	9.634828e-07	7.154038e-10	1.040048e+01	4.651456e+01
1.320000e-06	1.032882e-06	8.524621e-10	1.114963e+01	5.531319e+01
1.330000e-06	1.102109e-06	9.865784e-10	1.189691e+01	6.395983e+01
1.340000e-06	1.171097e-06	1.117293e-09	1.264161e+01	7.242097e+01
1.350000e-06	1.239869e-06	1.244362e-09	1.338399e+01	8.066676e+01
1.360000e-06	1.308443e-06	1.367206e-09	1.412422e+01	8.867154e+01
1.370000e-06	1.376768e-06	1.482089e-09	1.486176e+01	9.641410e+01
1.380000e-06	1.444884e-06	1.591291e-09	1.559706e+01	1.038778e+02
1.390000e-06	1.512861e-06	1.697528e-09	1.633084e+01	1.110506e+02
1.400000e-06	1.580639e-06	1.800890e-09	1.706249e+01	1.179249e+02
1.410000e-06	1.648208e-06	1.900361e-09	1.779187e+01	1.244973e+02
1.420000e-06	1.715605e-06	1.994783e-09	1.851940e+01	1.307680e+02
1.430000e-06	1.782725e-06	2.084193e-09	1.924394e+01	1.367409e+02
1.440000e-06	1.849470e-06	2.171625e-09	1.996443e+01	1.424225e+02
1.450000e-06	1.915788e-06	2.255772e-09	2.068032e+01	1.478217e+02
1.460000e-06	1.981678e-06	2.334081e-09	2.139157e+01	1.529492e+02
1.470000e-06	2.047083e-06	2.407252e-09	2.209760e+01	1.578172e+02
1.480000e-06	2.111914e-06	2.478622e-09	2.279743e+01	1.624387e+02
1.490000e-06	2.176318e-06	2.548809e-09	2.349264e+01	1.668272e+02
1.500000e-06	2.240372e-06	2.613088e-09	2.418410e+01	1.709963e+02
1.510000e-06	2.304108e-06	2.671082e-09	2.487210e+01	1.749596e+02
1.520000e-06	2.367553e-06	2.725722e-09	2.555697e+01	1.787304e+02
1.530000e-06	2.430632e-06	2.779380e-09	2.623788e+01	1.823213e+02
1.540000e-06	2.493270e-06	2.831311e-09	2.691404e+01	1.857446e+02
1.550000e-06	2.555464e-06	2.878538e-09	2.758541e+01	1.890118e+02
1.560000e-06	2.617275e-06	2.924888e-09	2.825264e+01	1.921337e+02
1.570000e-06	2.678701e-06	2.970016e-09	2.891571e+01	1.951206e+02
1.580000e-06	2.739633e-06	3.012607e-09	2.957345e+01	1.979817e+02
1.590000e-06	2.800046e-06	3.053149e-09	3.022559e+01	2.007261e+02
1.600000e-06	2.860048e-06	3.090514e-09	3.087329e+01	2.033617e+02
1.610000e-06	2.919690e-06	3.125155e-09	3.151711e+01	2.058961e+02
1.620000e-06	2.978897e-06	3.158303e-09	3.215622e+01	2.083359e+02
1.630000e-06	3.037526e-06	3.192160e-09	3.278911e+01	2.106874e+02
1.640000e-06	3.095334e-06	3.225611e-09	3.341313e+01	2.129559e+02
1.650000e-06	3.152259e-06	3.257107e-09	3.402761e+01	2.151463e+02
1.660000e-06	3.208504e-06	3.286864e-09	3.463476e+01	2.172627e+02
1.670000e-06	3.264264e-06	3.316357e-09	3.523667e+01	2.193085e+02
1.680000e-06	3.319599e-06	3.346648e-09	3.583400e+01	2.212867e+02
1.690000e-06	3.374393e-06	3.375489e-09	3.642548e+01	2.231996e+02
1.700000e-06	3.428608e-06	3.401868e-09	3.701072e+01	2.250493e+02
1.710000e-06	3.482320e-06	3.425508e-09	3.759051e+01	2.268372e+02
1.720000e-06	3.535445e-06	3.449076e-09	3.816398e+01	2.285646e+02
1.730000e-06	3.587921e-06	3.474847e-09	3.873045e+01	2.302326e+02
1.740000e-06	3.639794e-06	3.499709e-09	3.929040e+01	2.318424e+02
1.750000e-06	3.690887e-06	3.522671e-09	3.984193e+01	2.333951e+02
1.760000e-06	3.740978e-06	3.544479e-09	4.038265e+01	2.348920e+02
1.770000e-06	3.790136e-06	3.567197e-09	4.091330e+01	2.363345e+02
1.780000e-06	3.838526e-06	3.588794e-09	4.143564e+01	2.377244e+02
1.790000e-06	3.886262e-06	3.607999e-09	4.195094e+01	2.390639e+02
1.800000e-06	3.933412e-06	3.626222e-09	4.245991e+01	2.403552e+02
1.810000e-06	3.979889e-06	3.642428e-09	4.296161e+01	2.416009e+02
1.820000e-06	4.025694e-06	3.659983e-09	4.345607e+01	2.428040e+02
1.830000e-06	4.070799e-06	3.680015e-09	4.394296e+01	2.439671e+02
1.840000e-06	4.115158e-06	3.698473e-09	4.442180e+01	2.450934e+02
1.850000e-06	4.158977e-06	3.715055e-09	4.489481e+01	2.461857e+02
1.860000e-06	4.202310e-06	3.732003e-09	4.536257e+01	2.472465e+02
1.870000e-06	4.244853e-06	3.748642e-09	4.582182e+01	2.482783e+02
1.880000e-06	4.286325e-06	3.763527e-09	4.626950e+01	2.492831e+02
1.890000e-06	4.326753e-06	3.777414e-09	4.670590e+01	2.502623e+02
1.900000e-06	4.366439e-06	3.791729e-09	4.713429e+01	2.512172e+02
1.910000e-06	4.405479e-06	3.806577e-09	4.755572e+01	2.521483e+02
1.920000e-06	4.443792e-06	3.820334e-09	4.796929e+01	2.530558e+02
1.930000e-06	4.481377e-06	3.832080e-09	4.837502e+01	2.539395e+02
1.940000e-06	4.518160e-06	3.845231e-09	4.877208e+01	2.547986e+02
1.950000e-06	4.554237e-06	3.859242e-09	4.916152e+01	2.556325e+02
1.960000e-06	4.589735e-06	3.871601e-09	4.954471e+01	2.564400e+02
1.970000e-06	4.624392e-06	3.884464e-09	4.991881e+01	2.572202e+02
1.980000e-06	4.657907e-06	3.897101e-09	5.028060e+01	2.579719e+02
1.990000e-06	4.690395e-06	3.908040e-09	5.063130e+01	2.586943e+02
2.000000e-06	4.722103e-06	3.918597e-09	5.097357e+01	2.593867e+02
2.010000e-06	4.753034e-06	3.930124e-09	5.130747e+01	2.600487e+02
2.020000e-06	4.783178e-06	3.942544e-09	5.163286e+01	2.606800e+02
2.030000e-06	4.812586e-06	3.954718e-09	5.195031e+01	2.612809e+02
2.040000e-06	4.841234e-06	3.966276e-09	5.225955e+01	2.618517e+02
2.050000e-06	4.869167e-06	3.976794e-09	5.256109e+01	2.623933e+02
2.060000e-06	4.896414e-06	3.985351e-09	5.285520e+01	2.629063e+02
2.070000e-06	4.922650e-06	3.992588e-09	5.313842e+01	2.633919e+02
2.080000e-06	4.947646e-06	4.000124e-09	5.340824e+01	2.638513e+02
2.090000e-06	4.971674e-06	4.008205e-09	5.366762e+01	2.642855e+02
2.100000e-06	4.994944e-06	4.016182e-09	5.391881e+01	2.646958e+02
2.110000e-06	5.017401e-06	4.023735e-09	5.416122e+01	2.650832e+02
2.120000e-06	5.039014e-06	4.030865e-09	5.439453e+01	2.654488e+02
2.130000e-06	5.059791e-06	4.035748e-09	5.461881e+01	2.657935e+02
2.140000e-06	5.079868e-06	4.039534e-09	5.483553e+01	2.661181e+02
2.150000e-06	5.099281e-06	4.044569e-09	5.504509e+01	2.664234e+02
2.160000e-06	5.117817e-06	4.051150e-09	5.524518e+01	2.667102e+02
2.170000e-06	5.135294e-06	4.057118e-09	5.543384e+01	2.669791e+02
2.180000e-06	5.151831e-06	4.062250e-09	5.561235e+01	2.672307e+02
2.190000e-06	5.167459e-06	4.067623e-09	5.578105e+01	2.674658e+02
2.200000e-06	5.182104e-06	4.072229e-09	5.593914e+01	2.676850e+02
2.210000e-06	5.195791e-06	4.077942e-09	5.608689e+01	2.678891e+02
2.220000e-06	5.208505e-06	4.083531e-09	5.622413e+01	2.680789e+02
2.230000e-06	5.220322e-06	4.086607e-09	5.635169e+01	2.682549e+02
2.240000e-06	5.231104e-06	4.089795e-09	5.646808e+01	2.684179e+02
2.250000e-06	5.240636e-06	4.094230e-09	5.657097e+01	2.685685e+02
2.260000e-06	5.249009e-06	4.097697e-09	5.666135e+01	2.687069e+02
2.270000e-06	5.256468e-06	4.101558e-09	5.674188e+01	2.688334e+02
2.280000e-06	5.263089e-06	4.106055e-09	5.681334e+01	2.689479e+02
2.290000e-06	5.268838e-06	4.108973e-09	5.687540e+01	2.690500e+02
2.300000e-06	5.273696e-06	4.110726e-09	5.692784e+01	2.691391e+02
2.310000e-06	5.277743e-06	4.113131e-09	5.697153e+01	2.692142e+02
2.320000e-06	5.281024e-06	4.115017e-09	5.700694e+01	2.692744e+02
2.330000e-06	5.283246e-06	4.116406e-09	5.703094e+01	2.693183e+02
2.340000e-06	5.284225e-06	4.117550e-09	5.704150e+01	2.693445e+02
2.350000e-06	5.284200e-06	4.118722e-09	5.704123e+01	2.693518e+02
2.360000e-06	5.283332e-06	4.118690e-09	5.703186e+01	2.693389e+02
2.370000e-06	5.281621e-06	4.115601e-09	5.701340e+01	2.693051e+02
2.380000e-06	5.279082e-06	4.113856e-09	5.698598e+01	2.692499e+02
2.390000e-06	5.275708e-06	4.114171e-09	5.694956e+01	2.691734e+02
2.400000e-06	5.271669e-06	4.114657e-09	5.690596e+01	2.690760e+02
2.410000e-06	5.267024e-06	4.113398e-09	5.685582e+01	2.689591e+02
2.420000e-06	5.261431e-06	4.118227e-09	5.679545e+01	2.688246e+02
2.430000e-06	5.254668e-06	4.110857e-09	5.672245e+01	2.686748e+02
2.440000e-06	5.246865e-06	4.061854e-09	5.663821e+01	2.685127e+02
2.450000e-06	5.237956e-06	4.051920e-09	5.654204e+01	2.683416e+02
2.460000e-06	5.227704e-06	4.089078e-09	5.643138e+01	2.681649e+02
2.470000e-06	5.216339e-06	4.174496e-09	5.630870e+01	2.679861e+02
2.480000e-06	5.204606e-06	4.117163e-09	5.618204e+01	2.678086e+02
2.490000e-06	5.192543e-06	4.019582e-09	5.605182e+01	2.676352e+02
2.500000e-06	5.179036e-06	4.133178e-09	5.590602e+01	2.674680e+02
2.510000e-06	5.163910e-06	4.093724e-09	5.574274e+01	2.673086e+02
2.520000e-06	5.148160e-06	4.062430e-09	5.557272e+01	2.671574e+02
2.530000e-06	5.131768e-06	4.168020e-09	5.539577e+01	2.670138e+02
2.540000e-06	5.114201e-06	4.042689e-09	5.520615e+01	2.668763e+02
2.550000e-06	5.095891e-06	3.960862e-09	5.500849e+01	2.667421e+02
2.560000e-06	5.077089e-06	4.154385e-09	5.480553e+01	2.666076e+02
2.570000e-06	5.057452e-06	4.110360e-09	5.459356e+01	2.664682e+02
2.580000e-06	5.036955e-06	3.937613e-09	5.437230e+01	2.663190e+02
2.590000e-06	5.015365e-06	4.113141e-09	5.413924e+01	2.661543e+02
2.600000e-06	4.992522e-06	4.156342e-09	5.389266e+01	2.659686e+02
2.610000e-06	4.968677e-06	3.988759e-09	5.363526e+01	2.657564e+02
2.620000e-06	4.943913e-06	4.044805e-09	5.336794e+01	2.655127e+02
2.630000e-06	4.918359e-06	4.069376e-09	5.309209e+01	2.652329e+02
2.640000e-06	4.892155e-06	4.027675e-09	5.280923e+01	2.649137e+02
2.650000e-06	4.865092e-06	4.065654e-09	5.251710e+01	2.645525e+02
2.660000e-06	4.837227e-06	4.012720e-09	5.221630e+01	2.641478e+02
2.670000e-06	4.808668e-06	4.040152e-09	5.190802e+01	2.636994e+02
2.680000e-06	4.778855e-06	4.029289e-09	5.158620e+01	2.632081e+02
2.690000e-06	4.747759e-06	3.937561e-09	5.125052e+01	2.626757e+02
2.700000e-06	4.715926e-06	4.072217e-09	5.090690e+01	2.621047e+02
2.710000e-06	4.683419e-06	4.021999e-09	5.055599e+01	2.614985e+02
2.720000e-06	4.650034e-06	3.871147e-09	5.019562e+01	2.608605e+02
2.730000e-06	4.615863e-06	4.019769e-09	4.982675e+01	2.601946e+02
2.740000e-06	4.581086e-06	4.034263e-09	4.945134e+01	2.595042e+02
2.750000e-06	4.545588e-06	3.907698e-09	4.906815e+01	2.587926e+02
2.760000e-06	4.509302e-06	3.907776e-09	4.867646e+01	2.580623e+02
2.770000e-06	4.472274e-06	3.961884e-09	4.827675e+01	2.573153e+02
2.780000e-06	4.434297e-06	3.965922e-09	4.786681e+01	2.565526e+02
2.790000e-06	4.395166e-06	3.873488e-09	4.744439e+01	2.557744e+02
2.800000e-06	4.355195e-06	3.887382e-09	4.701292e+01	2.549803e+02
2.810000e-06	4.314621e-06	3.930504e-09	4.657494e+01	2.541688e+02
2.820000e-06	4.273384e-06	3.871427e-09	4.612980e+01	2.533380e+02
2.830000e-06	4.231441e-06	3.866082e-09	4.567704e+01	2.524855e+02
2.840000e-06	4.188769e-06	3.858455e-09	4.521640e+01	2.516087e+02
2.850000e-06	4.145435e-06	3.844060e-09	4.474863e+01	2.507050e+02
2.860000e-06	4.101526e-06	3.819573e-09	4.427464e+01	2.497718e+02
2.870000e-06	4.057086e-06	3.798659e-09	4.379493e+01	2.488071e+02
2.880000e-06	4.012000e-06	3.821087e-09	4.330824e+01	2.478092e+02
2.890000e-06	3.966149e-06	3.762751e-09	4.281329e+01	2.467769e+02
2.900000e-06	3.919509e-06	3.738521e-09	4.230983e+01	2.457097e+02
2.910000e-06	3.872263e-06	3.769908e-09	4.179983e+01	2.446078e+02
2.920000e-06	3.824388e-06	3.738590e-09	4.128303e+01	2.434718e+02
2.930000e-06	3.775672e-06	3.693487e-09	4.075716e+01	2.423028e+02
2.940000e-06	3.726137e-06	3.676783e-09	4.022245e+01	2.411022e+02
2.950000e-06	3.675925e-06	3.699241e-09	3.968042e+01	2.398714e+02
