# Temperatura_=_20.0
# Concentracion g/m^3_=_9000.0
# C_Vs_to_Am_M_A/Vsm_=_65563218390.804596
# pendiente_HvsI_1/m_=_3716.3
# ordenada_HvsI_A/m_=_1297.0
# frecuencia_Hz_=_212855.87312149076

Tiempo_(s)	Campo_(V.s)	Magnetizacion_(V.s)	Campo_(kA/m)	Magnetizacion_(A/m)
0.000000e+00	-5.301638e-06	-4.097015e-09	-5.699470e+01	-2.696829e+02
1.000000e-08	-5.301467e-06	-4.095434e-09	-5.699287e+01	-2.696880e+02
2.000000e-08	-5.300258e-06	-4.099535e-09	-5.697987e+01	-2.696713e+02
3.000000e-08	-5.297800e-06	-4.102885e-09	-5.695344e+01	-2.696315e+02
4.000000e-08	-5.294417e-06	-4.101278e-09	-5.691707e+01	-2.695677e+02
5.000000e-08	-5.290308e-06	-4.096862e-09	-5.687291e+01	-2.694796e+02
6.000000e-08	-5.285344e-06	-4.091354e-09	-5.681954e+01	-2.693674e+02
7.000000e-08	-5.279512e-06	-4.083785e-09	-5.675684e+01	-2.692325e+02
8.000000e-08	-5.272807e-06	-4.062006e-09	-5.668476e+01	-2.690766e+02
9.000000e-08	-5.265221e-06	-4.085004e-09	-5.660320e+01	-2.689025e+02
1.000000e-07	-5.256612e-06	-4.159229e-09	-5.651066e+01	-2.687132e+02
1.100000e-07	-5.246601e-06	-4.194626e-09	-5.640304e+01	-2.685125e+02
1.200000e-07	-5.235370e-06	-4.090552e-09	-5.628229e+01	-2.683043e+02
1.300000e-07	-5.223347e-06	-3.894694e-09	-5.615304e+01	-2.680924e+02
1.400000e-07	-5.210474e-06	-4.000779e-09	-5.601466e+01	-2.678806e+02
1.500000e-07	-5.196690e-06	-4.259611e-09	-5.586647e+01	-2.676721e+02
1.600000e-07	-5.182216e-06	-4.069849e-09	-5.571087e+01	-2.674693e+02
1.700000e-07	-5.166774e-06	-4.008819e-09	-5.554486e+01	-2.672740e+02
1.800000e-07	-5.149890e-06	-4.023035e-09	-5.536335e+01	-2.670867e+02
1.900000e-07	-5.132109e-06	-3.906520e-09	-5.517220e+01	-2.669069e+02
2.000000e-07	-5.113901e-06	-4.152674e-09	-5.497646e+01	-2.667328e+02
2.100000e-07	-5.094789e-06	-4.253516e-09	-5.477099e+01	-2.665617e+02
2.200000e-07	-5.074608e-06	-3.920408e-09	-5.455404e+01	-2.663898e+02
2.300000e-07	-5.053707e-06	-3.940116e-09	-5.432934e+01	-2.662124e+02
2.400000e-07	-5.032073e-06	-4.329946e-09	-5.409677e+01	-2.660244e+02
2.500000e-07	-5.009424e-06	-4.169359e-09	-5.385328e+01	-2.658201e+02
2.600000e-07	-4.985942e-06	-3.950582e-09	-5.360084e+01	-2.655939e+02
2.700000e-07	-4.961769e-06	-3.997975e-09	-5.334098e+01	-2.653404e+02
2.800000e-07	-4.936730e-06	-4.060550e-09	-5.307179e+01	-2.650547e+02
2.900000e-07	-4.910496e-06	-4.169827e-09	-5.278977e+01	-2.647327e+02
3.000000e-07	-4.883060e-06	-4.067896e-09	-5.249483e+01	-2.643711e+02
3.100000e-07	-4.854899e-06	-3.939017e-09	-5.219208e+01	-2.639679e+02
3.200000e-07	-4.825962e-06	-4.027576e-09	-5.188100e+01	-2.635219e+02
3.300000e-07	-4.796053e-06	-4.050315e-09	-5.155947e+01	-2.630334e+02
3.400000e-07	-4.765318e-06	-4.040010e-09	-5.122905e+01	-2.625036e+02
3.500000e-07	-4.733940e-06	-4.070356e-09	-5.089173e+01	-2.619347e+02
3.600000e-07	-4.701893e-06	-3.908154e-09	-5.054721e+01	-2.613295e+02
3.700000e-07	-4.668991e-06	-3.893293e-09	-5.019349e+01	-2.606915e+02
3.800000e-07	-4.635064e-06	-4.113601e-09	-4.982877e+01	-2.600243e+02
3.900000e-07	-4.600001e-06	-4.041656e-09	-4.945183e+01	-2.593317e+02
4.000000e-07	-4.564027e-06	-3.807336e-09	-4.906509e+01	-2.586171e+02
4.100000e-07	-4.527433e-06	-3.910510e-09	-4.867169e+01	-2.578833e+02
4.200000e-07	-4.490139e-06	-4.067523e-09	-4.827076e+01	-2.571329e+02
4.300000e-07	-4.451949e-06	-3.930787e-09	-4.786021e+01	-2.563671e+02
4.400000e-07	-4.412890e-06	-3.839460e-09	-4.744031e+01	-2.555869e+02
4.500000e-07	-4.373308e-06	-3.909228e-09	-4.701479e+01	-2.547919e+02
4.600000e-07	-4.333306e-06	-3.922094e-09	-4.658475e+01	-2.539812e+02
4.700000e-07	-4.292445e-06	-3.882196e-09	-4.614548e+01	-2.531532e+02
4.800000e-07	-4.250430e-06	-3.856229e-09	-4.569380e+01	-2.523056e+02
4.900000e-07	-4.207379e-06	-3.833406e-09	-4.523098e+01	-2.514358e+02
5.000000e-07	-4.163632e-06	-3.827306e-09	-4.476069e+01	-2.505412e+02
5.100000e-07	-4.119369e-06	-3.849552e-09	-4.428484e+01	-2.496190e+02
5.200000e-07	-4.074463e-06	-3.834244e-09	-4.380208e+01	-2.486667e+02
5.300000e-07	-4.028784e-06	-3.773086e-09	-4.331102e+01	-2.476823e+02
5.400000e-07	-3.982323e-06	-3.753031e-09	-4.281154e+01	-2.466641e+02
5.500000e-07	-3.935233e-06	-3.785210e-09	-4.230530e+01	-2.456111e+02
5.600000e-07	-3.887683e-06	-3.790374e-09	-4.179412e+01	-2.445228e+02
5.700000e-07	-3.839516e-06	-3.716127e-09	-4.127631e+01	-2.433993e+02
5.800000e-07	-3.790327e-06	-3.659782e-09	-4.074751e+01	-2.422413e+02
5.900000e-07	-3.740049e-06	-3.702424e-09	-4.020700e+01	-2.410497e+02
6.000000e-07	-3.688907e-06	-3.721119e-09	-3.965720e+01	-2.398257e+02
6.100000e-07	-3.636970e-06	-3.647604e-09	-3.909886e+01	-2.385706e+02
6.200000e-07	-3.584246e-06	-3.593250e-09	-3.853205e+01	-2.372857e+02
6.300000e-07	-3.530846e-06	-3.616471e-09	-3.795799e+01	-2.359720e+02
6.400000e-07	-3.476880e-06	-3.622066e-09	-3.737784e+01	-2.346301e+02
6.500000e-07	-3.422309e-06	-3.571283e-09	-3.679117e+01	-2.332604e+02
6.600000e-07	-3.367156e-06	-3.531040e-09	-3.619826e+01	-2.318626e+02
6.700000e-07	-3.311574e-06	-3.513062e-09	-3.560072e+01	-2.304360e+02
6.800000e-07	-3.255591e-06	-3.505937e-09	-3.499889e+01	-2.289795e+02
6.900000e-07	-3.199040e-06	-3.499019e-09	-3.439094e+01	-2.274916e+02
7.000000e-07	-3.141591e-06	-3.463124e-09	-3.377334e+01	-2.259704e+02
7.100000e-07	-3.083170e-06	-3.411285e-09	-3.314530e+01	-2.244141e+02
7.200000e-07	-3.024042e-06	-3.391510e-09	-3.250965e+01	-2.228206e+02
7.300000e-07	-2.964525e-06	-3.401711e-09	-3.186982e+01	-2.211880e+02
7.400000e-07	-2.904651e-06	-3.374368e-09	-3.122614e+01	-2.195145e+02
7.500000e-07	-2.844253e-06	-3.309775e-09	-3.057684e+01	-2.177987e+02
7.600000e-07	-2.783314e-06	-3.280676e-09	-2.992173e+01	-2.160395e+02
7.700000e-07	-2.721906e-06	-3.281938e-09	-2.926156e+01	-2.142360e+02
7.800000e-07	-2.660098e-06	-3.260183e-09	-2.859710e+01	-2.123877e+02
7.900000e-07	-2.597878e-06	-3.206992e-09	-2.792821e+01	-2.104942e+02
8.000000e-07	-2.535145e-06	-3.164603e-09	-2.725381e+01	-2.085552e+02
8.100000e-07	-2.471966e-06	-3.152303e-09	-2.657461e+01	-2.065704e+02
8.200000e-07	-2.408522e-06	-3.131291e-09	-2.589257e+01	-2.045394e+02
8.300000e-07	-2.344829e-06	-3.088951e-09	-2.520784e+01	-2.024614e+02
8.400000e-07	-2.280840e-06	-3.043231e-09	-2.451994e+01	-2.003350e+02
8.500000e-07	-2.216533e-06	-3.010230e-09	-2.382861e+01	-1.981585e+02
8.600000e-07	-2.151840e-06	-2.987574e-09	-2.313313e+01	-1.959293e+02
8.700000e-07	-2.086671e-06	-2.956374e-09	-2.243253e+01	-1.936441e+02
8.800000e-07	-2.020889e-06	-2.914372e-09	-2.172536e+01	-1.912991e+02
8.900000e-07	-1.954481e-06	-2.869476e-09	-2.101144e+01	-1.888897e+02
9.000000e-07	-1.887655e-06	-2.836152e-09	-2.029304e+01	-1.864108e+02
9.100000e-07	-1.820522e-06	-2.808280e-09	-1.957133e+01	-1.838568e+02
9.200000e-07	-1.753152e-06	-2.764421e-09	-1.884708e+01	-1.812220e+02
9.300000e-07	-1.685617e-06	-2.712869e-09	-1.812105e+01	-1.785003e+02
9.400000e-07	-1.617877e-06	-2.670364e-09	-1.739282e+01	-1.756859e+02
9.500000e-07	-1.549952e-06	-2.632258e-09	-1.666259e+01	-1.727728e+02
9.600000e-07	-1.481884e-06	-2.579908e-09	-1.593084e+01	-1.697556e+02
9.700000e-07	-1.413553e-06	-2.520352e-09	-1.519625e+01	-1.666289e+02
9.800000e-07	-1.344880e-06	-2.474385e-09	-1.445799e+01	-1.633875e+02
9.900000e-07	-1.275952e-06	-2.430777e-09	-1.371698e+01	-1.600268e+02
1.000000e-06	-1.206844e-06	-2.378306e-09	-1.297405e+01	-1.565417e+02
1.010000e-06	-1.137506e-06	-2.319724e-09	-1.222864e+01	-1.529274e+02
1.020000e-06	-1.067894e-06	-2.260488e-09	-1.148029e+01	-1.491787e+02
1.030000e-06	-9.980755e-07	-2.203450e-09	-1.072971e+01	-1.452897e+02
1.040000e-06	-9.281190e-07	-2.141372e-09	-9.977646e+00	-1.412539e+02
1.050000e-06	-8.580814e-07	-2.075697e-09	-9.224714e+00	-1.370638e+02
1.060000e-06	-7.878380e-07	-2.007903e-09	-8.469570e+00	-1.327107e+02
1.070000e-06	-7.173496e-07	-1.937913e-09	-7.711791e+00	-1.281848e+02
1.080000e-06	-6.467251e-07	-1.868340e-09	-6.952550e+00	-1.234751e+02
1.090000e-06	-5.759349e-07	-1.794127e-09	-6.191528e+00	-1.185694e+02
1.100000e-06	-5.049775e-07	-1.715397e-09	-5.428708e+00	-1.134548e+02
1.110000e-06	-4.339312e-07	-1.634781e-09	-4.664932e+00	-1.081176e+02
1.120000e-06	-3.628521e-07	-1.553565e-09	-3.900803e+00	-1.025443e+02
1.130000e-06	-2.917673e-07	-1.467892e-09	-3.136613e+00	-9.672150e+01
1.140000e-06	-2.206759e-07	-1.371343e-09	-2.372353e+00	-9.063717e+01
1.150000e-06	-1.495787e-07	-1.270733e-09	-1.608030e+00	-8.428082e+01
1.160000e-06	-7.848927e-08	-1.168010e-09	-8.437907e-01	-7.764440e+01
1.170000e-06	-7.395143e-09	-1.059346e-09	-7.950071e-02	-7.072293e+01
1.180000e-06	6.365797e-08	-9.472387e-10	6.843483e-01	-6.351514e+01
1.190000e-06	1.346877e-07	-8.344244e-10	1.447946e+00	-5.602404e+01
1.200000e-06	2.057417e-07	-7.217042e-10	2.211805e+00	-4.825729e+01
1.210000e-06	2.767895e-07	-6.024762e-10	2.975596e+00	-4.022756e+01
1.220000e-06	3.477833e-07	-4.774933e-10	3.738808e+00	-3.195261e+01
1.230000e-06	4.186593e-07	-3.496417e-10	4.500753e+00	-2.345523e+01
1.240000e-06	4.894037e-07	-2.153596e-10	5.261283e+00	-1.476306e+01
1.250000e-06	5.600562e-07	-7.968003e-11	6.020826e+00	-5.908113e+00
1.260000e-06	6.305861e-07	5.802309e-11	6.779049e+00	3.073746e+00
1.270000e-06	7.009884e-07	1.966377e-10	7.535902e+00	1.214357e+01
1.280000e-06	7.711962e-07	3.337194e-10	8.290664e+00	2.126015e+01
1.290000e-06	8.412320e-07	4.708532e-10	9.043576e+00	3.038094e+01
1.300000e-06	9.111659e-07	6.049096e-10	9.795393e+00	3.946305e+01
1.310000e-06	9.809395e-07	7.418451e-10	1.054549e+01	4.846421e+01
1.320000e-06	1.050580e-06	8.794091e-10	1.129415e+01	5.734371e+01
1.330000e-06	1.120057e-06	1.016406e-09	1.204105e+01	6.606329e+01
1.340000e-06	1.189302e-06	1.148714e-09	1.278546e+01	7.458795e+01
1.350000e-06	1.258288e-06	1.276187e-09	1.352709e+01	8.288655e+01
1.360000e-06	1.327042e-06	1.401066e-09	1.426623e+01	9.093234e+01
1.370000e-06	1.395579e-06	1.518061e-09	1.500303e+01	9.870332e+01
1.380000e-06	1.463874e-06	1.628875e-09	1.573723e+01	1.061824e+02
1.390000e-06	1.531963e-06	1.734170e-09	1.646920e+01	1.133574e+02
1.400000e-06	1.599915e-06	1.834818e-09	1.719971e+01	1.202209e+02
1.410000e-06	1.667696e-06	1.932835e-09	1.792839e+01	1.267700e+02
1.420000e-06	1.735241e-06	2.026714e-09	1.865453e+01	1.330061e+02
1.430000e-06	1.802564e-06	2.115177e-09	1.937827e+01	1.389342e+02
1.440000e-06	1.869677e-06	2.200803e-09	2.009977e+01	1.445622e+02
1.450000e-06	1.936429e-06	2.283757e-09	2.081737e+01	1.499009e+02
1.460000e-06	2.002644e-06	2.362496e-09	2.152922e+01	1.549629e+02
1.470000e-06	2.068288e-06	2.434527e-09	2.223492e+01	1.597623e+02
1.480000e-06	2.133389e-06	2.502508e-09	2.293477e+01	1.643141e+02
1.490000e-06	2.198039e-06	2.568629e-09	2.362979e+01	1.686338e+02
1.500000e-06	2.262256e-06	2.631419e-09	2.432014e+01	1.727368e+02
1.510000e-06	2.326085e-06	2.689747e-09	2.500633e+01	1.766382e+02
1.520000e-06	2.389586e-06	2.742031e-09	2.568899e+01	1.803526e+02
1.530000e-06	2.452737e-06	2.793523e-09	2.636789e+01	1.838939e+02
1.540000e-06	2.515515e-06	2.845372e-09	2.704278e+01	1.872747e+02
1.550000e-06	2.577887e-06	2.892165e-09	2.771330e+01	1.905070e+02
1.560000e-06	2.639836e-06	2.935749e-09	2.837928e+01	1.936016e+02
1.570000e-06	2.701361e-06	2.977497e-09	2.904069e+01	1.965681e+02
1.580000e-06	2.762398e-06	3.019451e-09	2.969687e+01	1.994155e+02
1.590000e-06	2.822920e-06	3.059332e-09	3.034751e+01	2.021516e+02
1.600000e-06	2.883005e-06	3.095729e-09	3.099345e+01	2.047833e+02
1.610000e-06	2.942717e-06	3.131059e-09	3.163537e+01	2.073167e+02
1.620000e-06	3.002031e-06	3.165808e-09	3.227301e+01	2.097573e+02
1.630000e-06	3.060746e-06	3.201615e-09	3.290423e+01	2.121100e+02
1.640000e-06	3.118697e-06	3.235989e-09	3.352722e+01	2.143789e+02
1.650000e-06	3.175816e-06	3.266733e-09	3.414128e+01	2.165677e+02
1.660000e-06	3.232205e-06	3.296571e-09	3.474748e+01	2.186797e+02
1.670000e-06	3.288042e-06	3.326916e-09	3.534775e+01	2.207177e+02
1.680000e-06	3.343403e-06	3.356107e-09	3.594290e+01	2.226845e+02
1.690000e-06	3.398357e-06	3.382524e-09	3.653368e+01	2.245822e+02
1.700000e-06	3.452778e-06	3.408065e-09	3.711873e+01	2.264131e+02
1.710000e-06	3.506585e-06	3.433601e-09	3.769717e+01	2.281792e+02
1.720000e-06	3.559793e-06	3.459056e-09	3.826918e+01	2.298826e+02
1.730000e-06	3.612400e-06	3.484032e-09	3.883473e+01	2.315251e+02
1.740000e-06	3.664404e-06	3.508502e-09	3.939379e+01	2.331089e+02
1.750000e-06	3.715663e-06	3.533211e-09	3.994484e+01	2.346362e+02
1.760000e-06	3.765961e-06	3.557610e-09	4.048557e+01	2.361091e+02
1.770000e-06	3.815251e-06	3.578425e-09	4.101545e+01	2.375300e+02
1.780000e-06	3.863646e-06	3.595305e-09	4.153572e+01	2.389013e+02
1.790000e-06	3.911356e-06	3.613710e-09	4.204862e+01	2.402257e+02
1.800000e-06	3.958492e-06	3.635316e-09	4.255535e+01	2.415056e+02
1.810000e-06	4.005043e-06	3.655153e-09	4.305580e+01	2.427435e+02
1.820000e-06	4.050950e-06	3.673488e-09	4.354932e+01	2.439420e+02
1.830000e-06	4.096109e-06	3.694446e-09	4.403479e+01	2.451032e+02
1.840000e-06	4.140578e-06	3.716625e-09	4.451285e+01	2.462292e+02
1.850000e-06	4.184493e-06	3.734387e-09	4.498495e+01	2.473219e+02
1.860000e-06	4.227885e-06	3.747407e-09	4.545144e+01	2.483825e+02
1.870000e-06	4.270503e-06	3.761520e-09	4.590959e+01	2.494124e+02
1.880000e-06	4.312057e-06	3.777989e-09	4.635632e+01	2.504121e+02
1.890000e-06	4.352616e-06	3.794187e-09	4.679234e+01	2.513821e+02
1.900000e-06	4.392386e-06	3.808956e-09	4.721988e+01	2.523225e+02
1.910000e-06	4.431406e-06	3.822707e-09	4.763936e+01	2.532330e+02
1.920000e-06	4.469710e-06	3.836496e-09	4.805115e+01	2.541134e+02
1.930000e-06	4.507290e-06	3.850839e-09	4.845515e+01	2.549630e+02
1.940000e-06	4.544028e-06	3.863086e-09	4.885009e+01	2.557816e+02
1.950000e-06	4.580030e-06	3.873510e-09	4.923713e+01	2.565686e+02
1.960000e-06	4.615437e-06	3.884482e-09	4.961777e+01	2.573238e+02
1.970000e-06	4.650072e-06	3.895868e-09	4.999011e+01	2.580473e+02
1.980000e-06	4.683592e-06	3.907405e-09	5.035047e+01	2.587392e+02
1.990000e-06	4.715985e-06	3.919029e-09	5.069870e+01	2.594002e+02
2.000000e-06	4.747590e-06	3.930155e-09	5.103846e+01	2.600311e+02
2.010000e-06	4.778538e-06	3.941929e-09	5.137117e+01	2.606330e+02
2.020000e-06	4.808721e-06	3.954273e-09	5.169565e+01	2.612075e+02
2.030000e-06	4.838091e-06	3.964799e-09	5.201139e+01	2.617559e+02
2.040000e-06	4.866637e-06	3.973385e-09	5.231827e+01	2.622801e+02
2.050000e-06	4.894473e-06	3.981233e-09	5.261752e+01	2.627815e+02
2.060000e-06	4.921655e-06	3.987821e-09	5.290974e+01	2.632619e+02
2.070000e-06	4.947862e-06	3.993979e-09	5.319147e+01	2.637225e+02
2.080000e-06	4.972863e-06	4.001132e-09	5.346024e+01	2.641646e+02
2.090000e-06	4.996841e-06	4.009932e-09	5.371801e+01	2.645891e+02
2.100000e-06	5.019979e-06	4.018848e-09	5.396675e+01	2.649965e+02
2.110000e-06	5.042330e-06	4.027090e-09	5.420704e+01	2.653872e+02
2.120000e-06	5.063886e-06	4.033386e-09	5.443877e+01	2.657613e+02
2.130000e-06	5.084606e-06	4.038256e-09	5.466152e+01	2.661184e+02
2.140000e-06	5.104596e-06	4.043121e-09	5.487642e+01	2.664584e+02
2.150000e-06	5.123953e-06	4.047366e-09	5.508452e+01	2.667807e+02
2.160000e-06	5.142402e-06	4.052927e-09	5.528285e+01	2.670851e+02
2.170000e-06	5.159751e-06	4.058996e-09	5.546936e+01	2.673712e+02
2.180000e-06	5.176190e-06	4.064641e-09	5.564609e+01	2.676388e+02
2.190000e-06	5.191691e-06	4.068651e-09	5.581273e+01	2.678882e+02
2.200000e-06	5.206183e-06	4.072608e-09	5.596852e+01	2.681196e+02
2.210000e-06	5.219686e-06	4.077415e-09	5.611369e+01	2.683336e+02
2.220000e-06	5.232235e-06	4.081173e-09	5.624860e+01	2.685311e+02
2.230000e-06	5.243911e-06	4.084330e-09	5.637412e+01	2.687130e+02
2.240000e-06	5.254556e-06	4.088136e-09	5.648855e+01	2.688805e+02
2.250000e-06	5.263896e-06	4.092904e-09	5.658896e+01	2.690347e+02
2.260000e-06	5.272080e-06	4.096570e-09	5.667694e+01	2.691766e+02
2.270000e-06	5.279429e-06	4.099623e-09	5.675595e+01	2.693069e+02
2.280000e-06	5.285922e-06	4.103750e-09	5.682575e+01	2.694262e+02
2.290000e-06	5.291499e-06	4.107870e-09	5.688570e+01	2.695347e+02
2.300000e-06	5.296184e-06	4.110092e-09	5.693607e+01	2.696319e+02
2.310000e-06	5.300106e-06	4.110524e-09	5.697823e+01	2.697172e+02
2.320000e-06	5.303285e-06	4.110588e-09	5.701240e+01	2.697895e+02
2.330000e-06	5.305292e-06	4.112567e-09	5.703399e+01	2.698472e+02
2.340000e-06	5.305991e-06	4.114477e-09	5.704150e+01	2.698885e+02
2.350000e-06	5.305789e-06	4.114929e-09	5.703932e+01	2.699116e+02
2.360000e-06	5.304821e-06	4.114673e-09	5.702892e+01	2.699146e+02
2.370000e-06	5.302989e-06	4.110735e-09	5.700922e+01	2.698957e+02
2.380000e-06	5.300345e-06	4.109215e-09	5.698080e+01	2.698536e+02
2.390000e-06	5.296889e-06	4.110329e-09	5.694365e+01	2.697874e+02
2.400000e-06	5.292738e-06	4.111746e-09	5.689902e+01	2.696968e+02
2.410000e-06	5.287876e-06	4.113214e-09	5.684675e+01	2.695824e+02
2.420000e-06	5.282015e-06	4.125430e-09	5.678375e+01	2.694452e+02
2.430000e-06	5.274954e-06	4.145288e-09	5.670784e+01	2.692874e+02
2.440000e-06	5.266851e-06	4.048097e-09	5.662072e+01	2.691116e+02
2.450000e-06	5.257667e-06	3.985556e-09	5.652200e+01	2.689211e+02
2.460000e-06	5.247109e-06	4.010612e-09	5.640850e+01	2.687195e+02
2.470000e-06	5.235520e-06	4.240529e-09	5.628391e+01	2.685107e+02
2.480000e-06	5.223732e-06	4.265908e-09	5.615718e+01	2.682987e+02
2.490000e-06	5.211635e-06	3.939646e-09	5.602713e+01	2.680871e+02
2.500000e-06	5.197904e-06	4.024296e-09	5.587952e+01	2.678791e+02
2.510000e-06	5.182513e-06	4.124298e-09	5.571406e+01	2.676770e+02
2.520000e-06	5.166679e-06	4.048415e-09	5.554384e+01	2.674825e+02
2.530000e-06	5.150180e-06	4.228057e-09	5.536647e+01	2.672960e+02
2.540000e-06	5.132362e-06	4.142634e-09	5.517491e+01	2.671169e+02
2.550000e-06	5.113859e-06	3.770686e-09	5.497600e+01	2.669433e+02
2.560000e-06	5.094942e-06	4.044782e-09	5.477263e+01	2.667723e+02
2.570000e-06	5.075141e-06	4.288540e-09	5.455977e+01	2.666001e+02
2.580000e-06	5.054386e-06	3.881326e-09	5.433664e+01	2.664220e+02
2.590000e-06	5.032442e-06	3.918459e-09	5.410074e+01	2.662326e+02
2.600000e-06	5.009225e-06	4.237374e-09	5.385115e+01	2.660263e+02
2.610000e-06	4.985170e-06	4.064353e-09	5.359254e+01	2.657977e+02
2.620000e-06	4.960223e-06	4.003521e-09	5.332435e+01	2.655412e+02
2.630000e-06	4.934427e-06	4.079471e-09	5.304704e+01	2.652521e+02
2.640000e-06	4.908010e-06	3.989267e-09	5.276305e+01	2.649262e+02
2.650000e-06	4.880678e-06	4.101512e-09	5.246922e+01	2.645606e+02
2.660000e-06	4.852518e-06	4.065081e-09	5.216648e+01	2.641531e+02
2.670000e-06	4.823710e-06	3.995844e-09	5.185679e+01	2.637029e+02
2.680000e-06	4.793576e-06	4.088351e-09	5.153283e+01	2.632102e+02
2.690000e-06	4.762074e-06	3.907869e-09	5.119418e+01	2.626764e+02
2.700000e-06	4.729964e-06	4.034742e-09	5.084899e+01	2.621037e+02
2.710000e-06	4.697225e-06	4.186878e-09	5.049703e+01	2.614951e+02
2.720000e-06	4.663490e-06	3.852410e-09	5.013436e+01	2.608541e+02
2.730000e-06	4.628940e-06	3.882902e-09	4.976293e+01	2.601842e+02
2.740000e-06	4.593849e-06	4.104395e-09	4.938569e+01	2.594893e+02
2.750000e-06	4.558057e-06	4.022003e-09	4.900092e+01	2.587726e+02
2.760000e-06	4.521447e-06	3.870301e-09	4.860735e+01	2.580371e+02
2.770000e-06	4.484039e-06	3.874842e-09	4.820519e+01	2.572851e+02
2.780000e-06	4.445518e-06	4.032438e-09	4.779107e+01	2.565179e+02
2.790000e-06	4.405897e-06	3.947697e-09	4.736513e+01	2.557362e+02
2.800000e-06	4.365632e-06	3.836683e-09	4.693227e+01	2.549397e+02
2.810000e-06	4.324835e-06	3.924155e-09	4.649369e+01	2.541274e+02
2.820000e-06	4.283329e-06	3.900164e-09	4.604748e+01	2.532976e+02
2.830000e-06	4.240997e-06	3.881864e-09	4.559239e+01	2.524479e+02
2.840000e-06	4.197958e-06	3.858091e-09	4.512971e+01	2.515758e+02
2.850000e-06	4.154370e-06	3.843960e-09	4.466112e+01	2.506785e+02
2.860000e-06	4.110286e-06	3.847108e-09	4.418720e+01	2.497535e+02
2.870000e-06	4.065696e-06	3.783302e-09	4.370784e+01	2.487981e+02
2.880000e-06	4.020392e-06	3.836014e-09	4.322080e+01	2.478104e+02
2.890000e-06	3.974187e-06	3.802807e-09	4.272407e+01	2.467887e+02
2.900000e-06	3.927191e-06	3.708824e-09	4.221885e+01	2.457322e+02
2.910000e-06	3.879677e-06	3.749090e-09	4.170806e+01	2.446404e+02
2.920000e-06	3.831574e-06	3.776443e-09	4.119093e+01	2.435135e+02
2.930000e-06	3.782524e-06	3.732973e-09	4.066363e+01	2.423521e+02
2.940000e-06	3.732563e-06	3.643211e-09	4.012653e+01	2.411572e+02
2.950000e-06	3.681987e-06	3.679880e-09	3.958282e+01	2.399300e+02
