# Temperatura_=_20.0
# Concentracion g/m^3_=_9000.0
# C_Vs_to_Am_M_A/Vsm_=_65563218390.804596
# pendiente_HvsI_1/m_=_3716.3
# ordenada_HvsI_A/m_=_1297.0
# frecuencia_Hz_=_212857.55040278976

Tiempo_(s)	Campo_(V.s)	Magnetizacion_(V.s)	Campo_(kA/m)	Magnetizacion_(A/m)
0.000000e+00	-5.300645e-06	-4.165530e-09	-5.697810e+01	-2.714632e+02
1.000000e-08	-5.300342e-06	-4.165448e-09	-5.697486e+01	-2.714714e+02
2.000000e-08	-5.299043e-06	-4.168821e-09	-5.696089e+01	-2.714519e+02
3.000000e-08	-5.296582e-06	-4.171281e-09	-5.693443e+01	-2.714064e+02
4.000000e-08	-5.293112e-06	-4.168238e-09	-5.689713e+01	-2.713373e+02
5.000000e-08	-5.288913e-06	-4.163245e-09	-5.685200e+01	-2.712483e+02
6.000000e-08	-5.283965e-06	-4.159351e-09	-5.679881e+01	-2.711437e+02
7.000000e-08	-5.278109e-06	-4.154026e-09	-5.673586e+01	-2.710286e+02
8.000000e-08	-5.271325e-06	-4.144250e-09	-5.666293e+01	-2.709087e+02
9.000000e-08	-5.263736e-06	-4.152122e-09	-5.658136e+01	-2.707894e+02
1.000000e-07	-5.255218e-06	-4.210397e-09	-5.648980e+01	-2.706761e+02
1.100000e-07	-5.245277e-06	-4.243814e-09	-5.638295e+01	-2.705735e+02
1.200000e-07	-5.233970e-06	-4.189605e-09	-5.626140e+01	-2.704856e+02
1.300000e-07	-5.221841e-06	-4.035945e-09	-5.613102e+01	-2.704150e+02
1.400000e-07	-5.208984e-06	-4.056958e-09	-5.599282e+01	-2.703630e+02
1.500000e-07	-5.195210e-06	-4.253503e-09	-5.584476e+01	-2.703292e+02
1.600000e-07	-5.180639e-06	-4.203714e-09	-5.568813e+01	-2.703118e+02
1.700000e-07	-5.165079e-06	-4.084255e-09	-5.552087e+01	-2.703072e+02
1.800000e-07	-5.148111e-06	-4.085416e-09	-5.533848e+01	-2.703104e+02
1.900000e-07	-5.130230e-06	-4.064845e-09	-5.514627e+01	-2.703151e+02
2.000000e-07	-5.111939e-06	-4.140445e-09	-5.494965e+01	-2.703140e+02
2.100000e-07	-5.092855e-06	-4.269197e-09	-5.474452e+01	-2.702991e+02
2.200000e-07	-5.072715e-06	-4.079862e-09	-5.452803e+01	-2.702620e+02
2.300000e-07	-5.051822e-06	-3.972012e-09	-5.430344e+01	-2.701946e+02
2.400000e-07	-5.030125e-06	-4.215806e-09	-5.407021e+01	-2.700893e+02
2.500000e-07	-5.007436e-06	-4.233226e-09	-5.382632e+01	-2.699391e+02
2.600000e-07	-4.983933e-06	-4.031311e-09	-5.357369e+01	-2.697385e+02
2.700000e-07	-4.959681e-06	-3.996004e-09	-5.331300e+01	-2.694832e+02
2.800000e-07	-4.934448e-06	-4.088084e-09	-5.304175e+01	-2.691706e+02
2.900000e-07	-4.908157e-06	-4.151637e-09	-5.275915e+01	-2.687998e+02
3.000000e-07	-4.880823e-06	-4.111971e-09	-5.246532e+01	-2.683715e+02
3.100000e-07	-4.852632e-06	-3.995562e-09	-5.216229e+01	-2.678879e+02
3.200000e-07	-4.823699e-06	-4.021250e-09	-5.185129e+01	-2.673527e+02
3.300000e-07	-4.793898e-06	-4.075726e-09	-5.153094e+01	-2.667705e+02
3.400000e-07	-4.763314e-06	-4.055671e-09	-5.120219e+01	-2.661466e+02
3.500000e-07	-4.732028e-06	-4.066520e-09	-5.086589e+01	-2.654870e+02
3.600000e-07	-4.699926e-06	-3.982834e-09	-5.052081e+01	-2.647973e+02
3.700000e-07	-4.666955e-06	-3.921698e-09	-5.016639e+01	-2.640832e+02
3.800000e-07	-4.633139e-06	-4.057789e-09	-4.980290e+01	-2.633495e+02
3.900000e-07	-4.598213e-06	-4.083458e-09	-4.942747e+01	-2.626003e+02
4.000000e-07	-4.562235e-06	-3.897792e-09	-4.904074e+01	-2.618386e+02
4.100000e-07	-4.525636e-06	-3.893209e-09	-4.864732e+01	-2.610662e+02
4.200000e-07	-4.488372e-06	-4.037587e-09	-4.824676e+01	-2.602837e+02
4.300000e-07	-4.450131e-06	-3.996698e-09	-4.783570e+01	-2.594906e+02
4.400000e-07	-4.411027e-06	-3.877025e-09	-4.741536e+01	-2.586854e+02
4.500000e-07	-4.371416e-06	-3.901669e-09	-4.698957e+01	-2.578659e+02
4.600000e-07	-4.331271e-06	-3.941545e-09	-4.655804e+01	-2.570291e+02
4.700000e-07	-4.290270e-06	-3.903126e-09	-4.611731e+01	-2.561718e+02
4.800000e-07	-4.248226e-06	-3.878759e-09	-4.566536e+01	-2.552910e+02
4.900000e-07	-4.205261e-06	-3.863800e-09	-4.520352e+01	-2.543834e+02
5.000000e-07	-4.161599e-06	-3.845170e-09	-4.473419e+01	-2.534467e+02
5.100000e-07	-4.117331e-06	-3.848549e-09	-4.425834e+01	-2.524788e+02
5.200000e-07	-4.072391e-06	-3.847414e-09	-4.377526e+01	-2.514786e+02
5.300000e-07	-4.026704e-06	-3.809848e-09	-4.328416e+01	-2.504455e+02
5.400000e-07	-3.980273e-06	-3.769854e-09	-4.278506e+01	-2.493800e+02
5.500000e-07	-3.933196e-06	-3.779716e-09	-4.227902e+01	-2.482829e+02
5.600000e-07	-3.885556e-06	-3.792206e-09	-4.176692e+01	-2.471559e+02
5.700000e-07	-3.837234e-06	-3.748031e-09	-4.124749e+01	-2.460007e+02
5.800000e-07	-3.788013e-06	-3.698444e-09	-4.071841e+01	-2.448195e+02
5.900000e-07	-3.737849e-06	-3.705205e-09	-4.017918e+01	-2.436143e+02
6.000000e-07	-3.686746e-06	-3.725709e-09	-3.962986e+01	-2.423866e+02
6.100000e-07	-3.634706e-06	-3.680638e-09	-3.907047e+01	-2.411377e+02
6.200000e-07	-3.581939e-06	-3.625715e-09	-3.850326e+01	-2.398682e+02
6.300000e-07	-3.528637e-06	-3.630424e-09	-3.793030e+01	-2.385780e+02
6.400000e-07	-3.474675e-06	-3.631777e-09	-3.735024e+01	-2.372662e+02
6.500000e-07	-3.420034e-06	-3.590050e-09	-3.676290e+01	-2.359310e+02
6.600000e-07	-3.364868e-06	-3.551385e-09	-3.616991e+01	-2.345703e+02
6.700000e-07	-3.309232e-06	-3.541376e-09	-3.557186e+01	-2.331811e+02
6.800000e-07	-3.253158e-06	-3.530684e-09	-3.496910e+01	-2.317602e+02
6.900000e-07	-3.196441e-06	-3.507253e-09	-3.435943e+01	-2.303042e+02
7.000000e-07	-3.138817e-06	-3.480983e-09	-3.374002e+01	-2.288096e+02
7.100000e-07	-3.080338e-06	-3.444981e-09	-3.311141e+01	-2.272733e+02
7.200000e-07	-3.021242e-06	-3.418181e-09	-3.247617e+01	-2.256923e+02
7.300000e-07	-2.961723e-06	-3.412640e-09	-3.183638e+01	-2.240646e+02
7.400000e-07	-2.901779e-06	-3.388575e-09	-3.119203e+01	-2.223882e+02
7.500000e-07	-2.841332e-06	-3.337593e-09	-3.054227e+01	-2.206622e+02
7.600000e-07	-2.780464e-06	-3.305215e-09	-2.988798e+01	-2.188862e+02
7.700000e-07	-2.719135e-06	-3.299936e-09	-2.922874e+01	-2.170604e+02
7.800000e-07	-2.657343e-06	-3.275547e-09	-2.856452e+01	-2.151851e+02
7.900000e-07	-2.595127e-06	-3.221647e-09	-2.789574e+01	-2.132613e+02
8.000000e-07	-2.532393e-06	-3.184924e-09	-2.722140e+01	-2.112898e+02
8.100000e-07	-2.469218e-06	-3.172965e-09	-2.654231e+01	-2.092711e+02
8.200000e-07	-2.405761e-06	-3.149583e-09	-2.586020e+01	-2.072056e+02
8.300000e-07	-2.342036e-06	-3.104191e-09	-2.517520e+01	-2.050930e+02
8.400000e-07	-2.277946e-06	-3.059639e-09	-2.448628e+01	-2.029322e+02
8.500000e-07	-2.213425e-06	-3.031672e-09	-2.379272e+01	-2.007214e+02
8.600000e-07	-2.148575e-06	-3.005888e-09	-2.309563e+01	-1.984580e+02
8.700000e-07	-2.083328e-06	-2.970635e-09	-2.239427e+01	-1.961384e+02
8.800000e-07	-2.017487e-06	-2.926688e-09	-2.168653e+01	-1.937582e+02
8.900000e-07	-1.951111e-06	-2.883181e-09	-2.097304e+01	-1.913124e+02
9.000000e-07	-1.884378e-06	-2.850797e-09	-2.025570e+01	-1.887955e+02
9.100000e-07	-1.817400e-06	-2.820680e-09	-1.953574e+01	-1.862016e+02
9.200000e-07	-1.750143e-06	-2.777287e-09	-1.881278e+01	-1.835247e+02
9.300000e-07	-1.682640e-06	-2.723987e-09	-1.808717e+01	-1.807587e+02
9.400000e-07	-1.614880e-06	-2.679065e-09	-1.735880e+01	-1.778978e+02
9.500000e-07	-1.546890e-06	-2.642428e-09	-1.662795e+01	-1.749365e+02
9.600000e-07	-1.478681e-06	-2.593082e-09	-1.589475e+01	-1.718696e+02
9.700000e-07	-1.410239e-06	-2.534239e-09	-1.515906e+01	-1.686923e+02
9.800000e-07	-1.341545e-06	-2.483588e-09	-1.442064e+01	-1.654000e+02
9.900000e-07	-1.272615e-06	-2.440263e-09	-1.367969e+01	-1.619885e+02
1.000000e-06	-1.203532e-06	-2.390692e-09	-1.293710e+01	-1.584531e+02
1.010000e-06	-1.134190e-06	-2.330774e-09	-1.219172e+01	-1.547894e+02
1.020000e-06	-1.064517e-06	-2.269907e-09	-1.144279e+01	-1.509920e+02
1.030000e-06	-9.946597e-07	-2.209821e-09	-1.069187e+01	-1.470550e+02
1.040000e-06	-9.246942e-07	-2.147436e-09	-9.939796e+00	-1.429714e+02
1.050000e-06	-8.545685e-07	-2.085026e-09	-9.185995e+00	-1.387330e+02
1.060000e-06	-7.842495e-07	-2.019654e-09	-8.430117e+00	-1.343303e+02
1.070000e-06	-7.136933e-07	-1.949166e-09	-7.671687e+00	-1.297524e+02
1.080000e-06	-6.429840e-07	-1.877972e-09	-6.911614e+00	-1.249871e+02
1.090000e-06	-5.722241e-07	-1.806813e-09	-6.150996e+00	-1.200212e+02
1.100000e-06	-5.013881e-07	-1.730468e-09	-5.389560e+00	-1.148405e+02
1.110000e-06	-4.304602e-07	-1.646449e-09	-4.627137e+00	-1.094306e+02
1.120000e-06	-3.594546e-07	-1.560786e-09	-3.863878e+00	-1.037772e+02
1.130000e-06	-2.884207e-07	-1.472363e-09	-3.100315e+00	-9.786657e+01
1.140000e-06	-2.173877e-07	-1.376455e-09	-2.336761e+00	-9.168652e+01
1.150000e-06	-1.462901e-07	-1.275533e-09	-1.572513e+00	-8.522691e+01
1.160000e-06	-7.512979e-08	-1.170223e-09	-8.075911e-01	-7.848039e+01
1.170000e-06	-3.995810e-09	-1.062602e-09	-4.295207e-02	-7.144302e+01
1.180000e-06	6.707927e-08	-9.529279e-10	7.210538e-01	-6.411493e+01
1.190000e-06	1.381115e-07	-8.403695e-10	1.484599e+00	-5.650073e+01
1.200000e-06	2.091270e-07	-7.238370e-10	2.247964e+00	-4.860992e+01
1.210000e-06	2.800800e-07	-6.012177e-10	3.010658e+00	-4.045706e+01
1.220000e-06	3.509481e-07	-4.733410e-10	3.772439e+00	-3.206183e+01
1.230000e-06	4.217968e-07	-3.402769e-10	4.534011e+00	-2.344887e+01
1.240000e-06	4.925907e-07	-2.049514e-10	5.294995e+00	-1.464748e+01
1.250000e-06	5.632760e-07	-6.767893e-11	6.054810e+00	-5.691143e+00
1.260000e-06	6.337962e-07	7.226678e-11	6.812852e+00	3.383143e+00
1.270000e-06	7.041590e-07	2.121669e-10	7.569201e+00	1.253558e+01
1.280000e-06	7.743915e-07	3.502736e-10	8.324150e+00	2.172444e+01
1.290000e-06	8.445092e-07	4.858390e-10	9.077865e+00	3.090701e+01
1.300000e-06	9.144758e-07	6.231599e-10	9.829955e+00	4.004048e+01
1.310000e-06	9.842357e-07	7.622350e-10	1.057982e+01	4.908297e+01
1.320000e-06	1.053830e-06	9.014650e-10	1.132792e+01	5.799434e+01
1.330000e-06	1.123202e-06	1.038225e-09	1.207361e+01	6.673709e+01
1.340000e-06	1.192363e-06	1.170695e-09	1.281704e+01	7.527702e+01
1.350000e-06	1.261334e-06	1.300987e-09	1.355843e+01	8.358390e+01
1.360000e-06	1.330115e-06	1.426249e-09	1.429777e+01	9.163183e+01
1.370000e-06	1.398691e-06	1.542887e-09	1.503492e+01	9.939964e+01
1.380000e-06	1.466963e-06	1.650586e-09	1.576880e+01	1.068710e+02
1.390000e-06	1.535015e-06	1.754765e-09	1.650031e+01	1.140344e+02
1.400000e-06	1.602921e-06	1.857403e-09	1.723025e+01	1.208831e+02
1.410000e-06	1.670667e-06	1.957042e-09	1.795846e+01	1.274147e+02
1.420000e-06	1.738222e-06	2.050236e-09	1.868463e+01	1.336311e+02
1.430000e-06	1.805505e-06	2.138054e-09	1.940787e+01	1.395375e+02
1.440000e-06	1.872503e-06	2.224569e-09	2.012805e+01	1.451427e+02
1.450000e-06	1.939164e-06	2.308196e-09	2.084462e+01	1.504577e+02
1.460000e-06	2.005387e-06	2.384866e-09	2.155646e+01	1.554956e+02
1.470000e-06	2.071064e-06	2.456921e-09	2.226244e+01	1.602711e+02
1.480000e-06	2.136213e-06	2.527030e-09	2.296275e+01	1.647998e+02
1.490000e-06	2.200917e-06	2.593393e-09	2.365827e+01	1.690977e+02
1.500000e-06	2.265168e-06	2.655607e-09	2.434892e+01	1.731810e+02
1.510000e-06	2.329019e-06	2.713320e-09	2.503527e+01	1.770653e+02
1.520000e-06	2.392531e-06	2.767275e-09	2.571798e+01	1.807658e+02
1.530000e-06	2.455727e-06	2.820085e-09	2.639729e+01	1.842968e+02
1.540000e-06	2.518538e-06	2.871262e-09	2.707246e+01	1.876714e+02
1.550000e-06	2.580887e-06	2.918233e-09	2.774267e+01	1.909016e+02
1.560000e-06	2.642758e-06	2.963960e-09	2.840774e+01	1.939983e+02
1.570000e-06	2.704215e-06	3.008825e-09	2.906836e+01	1.969712e+02
1.580000e-06	2.765232e-06	3.051458e-09	2.972425e+01	1.998286e+02
1.590000e-06	2.825694e-06	3.090942e-09	3.037417e+01	2.025780e+02
1.600000e-06	2.885704e-06	3.126840e-09	3.101923e+01	2.052258e+02
1.610000e-06	2.945364e-06	3.161192e-09	3.166054e+01	2.077774e+02
1.620000e-06	3.004623e-06	3.196030e-09	3.229752e+01	2.102376e+02
1.630000e-06	3.063375e-06	3.230930e-09	3.292907e+01	2.126105e+02
1.640000e-06	3.121381e-06	3.263492e-09	3.355260e+01	2.148996e+02
1.650000e-06	3.178499e-06	3.295072e-09	3.416657e+01	2.171082e+02
1.660000e-06	3.234855e-06	3.325716e-09	3.477236e+01	2.192391e+02
1.670000e-06	3.290682e-06	3.355006e-09	3.537245e+01	2.212950e+02
1.680000e-06	3.346121e-06	3.381523e-09	3.596839e+01	2.232785e+02
1.690000e-06	3.401052e-06	3.407286e-09	3.655886e+01	2.251921e+02
1.700000e-06	3.455418e-06	3.433072e-09	3.714325e+01	2.270381e+02
1.710000e-06	3.509223e-06	3.456943e-09	3.772161e+01	2.288191e+02
1.720000e-06	3.562396e-06	3.482202e-09	3.829319e+01	2.305376e+02
1.730000e-06	3.614875e-06	3.507571e-09	3.885730e+01	2.321960e+02
1.740000e-06	3.666677e-06	3.532548e-09	3.941413e+01	2.337967e+02
1.750000e-06	3.717842e-06	3.555990e-09	3.996412e+01	2.353423e+02
1.760000e-06	3.768215e-06	3.578146e-09	4.050559e+01	2.368351e+02
1.770000e-06	3.817462e-06	3.598383e-09	4.103496e+01	2.382775e+02
1.780000e-06	3.865711e-06	3.616111e-09	4.155360e+01	2.396715e+02
1.790000e-06	3.913386e-06	3.635955e-09	4.206608e+01	2.410194e+02
1.800000e-06	3.960522e-06	3.655700e-09	4.257275e+01	2.423231e+02
1.810000e-06	4.007000e-06	3.673642e-09	4.307236e+01	2.435841e+02
1.820000e-06	4.052802e-06	3.691920e-09	4.356469e+01	2.448042e+02
1.830000e-06	4.097890e-06	3.711978e-09	4.404937e+01	2.459847e+02
1.840000e-06	4.142224e-06	3.732178e-09	4.452592e+01	2.471269e+02
1.850000e-06	4.186001e-06	3.749941e-09	4.499649e+01	2.482318e+02
1.860000e-06	4.229337e-06	3.766166e-09	4.546232e+01	2.493004e+02
1.870000e-06	4.271894e-06	3.781923e-09	4.591978e+01	2.503336e+02
1.880000e-06	4.313350e-06	3.798085e-09	4.636539e+01	2.513324e+02
1.890000e-06	4.353761e-06	3.814223e-09	4.679978e+01	2.522975e+02
1.900000e-06	4.393406e-06	3.829010e-09	4.722595e+01	2.532299e+02
1.910000e-06	4.432503e-06	3.842139e-09	4.764621e+01	2.541305e+02
1.920000e-06	4.470915e-06	3.853605e-09	4.805911e+01	2.550004e+02
1.930000e-06	4.508463e-06	3.866036e-09	4.846272e+01	2.558406e+02
1.940000e-06	4.545220e-06	3.880879e-09	4.885784e+01	2.566522e+02
1.950000e-06	4.581268e-06	3.894033e-09	4.924533e+01	2.574363e+02
1.960000e-06	4.616680e-06	3.904923e-09	4.962598e+01	2.581941e+02
1.970000e-06	4.651332e-06	3.916799e-09	4.999846e+01	2.589268e+02
1.980000e-06	4.684855e-06	3.930080e-09	5.035881e+01	2.596352e+02
1.990000e-06	4.717266e-06	3.942479e-09	5.070721e+01	2.603202e+02
2.000000e-06	4.748912e-06	3.953881e-09	5.104738e+01	2.609825e+02
2.010000e-06	4.779863e-06	3.965346e-09	5.138008e+01	2.616225e+02
2.020000e-06	4.810030e-06	3.976597e-09	5.170435e+01	2.622405e+02
2.030000e-06	4.839374e-06	3.987452e-09	5.201978e+01	2.628363e+02
2.040000e-06	4.867900e-06	3.997197e-09	5.232642e+01	2.634097e+02
2.050000e-06	4.895762e-06	4.005070e-09	5.262591e+01	2.639602e+02
2.060000e-06	4.922962e-06	4.012705e-09	5.291828e+01	2.644872e+02
2.070000e-06	4.949187e-06	4.021702e-09	5.320019e+01	2.649901e+02
2.080000e-06	4.974213e-06	4.030588e-09	5.346919e+01	2.654682e+02
2.090000e-06	4.998204e-06	4.037295e-09	5.372709e+01	2.659209e+02
2.100000e-06	5.021352e-06	4.043518e-09	5.397591e+01	2.663478e+02
2.110000e-06	5.043637e-06	4.052023e-09	5.421546e+01	2.667490e+02
2.120000e-06	5.065107e-06	4.059875e-09	5.444624e+01	2.671246e+02
2.130000e-06	5.085745e-06	4.064898e-09	5.466808e+01	2.674754e+02
2.140000e-06	5.105656e-06	4.067721e-09	5.488212e+01	2.678025e+02
2.150000e-06	5.124957e-06	4.070821e-09	5.508959e+01	2.681074e+02
2.160000e-06	5.143349e-06	4.076028e-09	5.528729e+01	2.683920e+02
2.170000e-06	5.160720e-06	4.081491e-09	5.547401e+01	2.686585e+02
2.180000e-06	5.177182e-06	4.085209e-09	5.565097e+01	2.689094e+02
2.190000e-06	5.192692e-06	4.088804e-09	5.581769e+01	2.691471e+02
2.200000e-06	5.207224e-06	4.094158e-09	5.597390e+01	2.693740e+02
2.210000e-06	5.220787e-06	4.101155e-09	5.611969e+01	2.695925e+02
2.220000e-06	5.233383e-06	4.105379e-09	5.625509e+01	2.698041e+02
2.230000e-06	5.245065e-06	4.106912e-09	5.638067e+01	2.700104e+02
2.240000e-06	5.255692e-06	4.110267e-09	5.649490e+01	2.702118e+02
2.250000e-06	5.264922e-06	4.113790e-09	5.659411e+01	2.704085e+02
2.260000e-06	5.273005e-06	4.115318e-09	5.668100e+01	2.705997e+02
2.270000e-06	5.280336e-06	4.116761e-09	5.675980e+01	2.707839e+02
2.280000e-06	5.286785e-06	4.120268e-09	5.682913e+01	2.709591e+02
2.290000e-06	5.292277e-06	4.125097e-09	5.688816e+01	2.711226e+02
2.300000e-06	5.296894e-06	4.128906e-09	5.693779e+01	2.712714e+02
2.310000e-06	5.300768e-06	4.130345e-09	5.697943e+01	2.714024e+02
2.320000e-06	5.303872e-06	4.132310e-09	5.701279e+01	2.715126e+02
2.330000e-06	5.305835e-06	4.135054e-09	5.703389e+01	2.715991e+02
2.340000e-06	5.306542e-06	4.136391e-09	5.704150e+01	2.716598e+02
2.350000e-06	5.306358e-06	4.135451e-09	5.703952e+01	2.716931e+02
2.360000e-06	5.305369e-06	4.134678e-09	5.702889e+01	2.716985e+02
2.370000e-06	5.303498e-06	4.131398e-09	5.700877e+01	2.716764e+02
2.380000e-06	5.300815e-06	4.128391e-09	5.697994e+01	2.716284e+02
2.390000e-06	5.297332e-06	4.129456e-09	5.694250e+01	2.715572e+02
2.400000e-06	5.293137e-06	4.131157e-09	5.689740e+01	2.714664e+02
2.410000e-06	5.288199e-06	4.132202e-09	5.684432e+01	2.713605e+02
2.420000e-06	5.282237e-06	4.136500e-09	5.678024e+01	2.712448e+02
2.430000e-06	5.275123e-06	4.143252e-09	5.670377e+01	2.711246e+02
2.440000e-06	5.266955e-06	4.091528e-09	5.661597e+01	2.710057e+02
2.450000e-06	5.257673e-06	4.024476e-09	5.651619e+01	2.708933e+02
2.460000e-06	5.247126e-06	4.039682e-09	5.640282e+01	2.707922e+02
2.470000e-06	5.235595e-06	4.192319e-09	5.627887e+01	2.707059e+02
2.480000e-06	5.223685e-06	4.258678e-09	5.615084e+01	2.706372e+02
2.490000e-06	5.211309e-06	4.074533e-09	5.601781e+01	2.705870e+02
2.500000e-06	5.197413e-06	4.004716e-09	5.586844e+01	2.705550e+02
2.510000e-06	5.181948e-06	4.157458e-09	5.570220e+01	2.705391e+02
2.520000e-06	5.165920e-06	4.135045e-09	5.552992e+01	2.705356e+02
2.530000e-06	5.149258e-06	4.168567e-09	5.535081e+01	2.705393e+02
2.540000e-06	5.131422e-06	4.194398e-09	5.515909e+01	2.705438e+02
2.550000e-06	5.112852e-06	3.967560e-09	5.495947e+01	2.705416e+02
2.560000e-06	5.093854e-06	4.063136e-09	5.475525e+01	2.705249e+02
2.570000e-06	5.073970e-06	4.295896e-09	5.454152e+01	2.704852e+02
2.580000e-06	5.053090e-06	4.125624e-09	5.431707e+01	2.704144e+02
2.590000e-06	5.031099e-06	3.996022e-09	5.408068e+01	2.703048e+02
2.600000e-06	5.007904e-06	4.237825e-09	5.383135e+01	2.701499e+02
2.610000e-06	4.983780e-06	4.232496e-09	5.357203e+01	2.699440e+02
2.620000e-06	4.958776e-06	4.075388e-09	5.330327e+01	2.696831e+02
2.630000e-06	4.932970e-06	4.099797e-09	5.302586e+01	2.693647e+02
2.640000e-06	4.906497e-06	4.082308e-09	5.274130e+01	2.689881e+02
2.650000e-06	4.879179e-06	4.130324e-09	5.244765e+01	2.685542e+02
2.660000e-06	4.851042e-06	4.133261e-09	5.214520e+01	2.680654e+02
2.670000e-06	4.822112e-06	4.073298e-09	5.183422e+01	2.675252e+02
2.680000e-06	4.791947e-06	4.109691e-09	5.150997e+01	2.669386e+02
2.690000e-06	4.760515e-06	4.015118e-09	5.117210e+01	2.663109e+02
2.700000e-06	4.728316e-06	4.038172e-09	5.082598e+01	2.656480e+02
2.710000e-06	4.695461e-06	4.187324e-09	5.047281e+01	2.649557e+02
2.720000e-06	4.661642e-06	4.009885e-09	5.010929e+01	2.642395e+02
2.730000e-06	4.626987e-06	3.909874e-09	4.973677e+01	2.635041e+02
2.740000e-06	4.591804e-06	4.091681e-09	4.935858e+01	2.627536e+02
2.750000e-06	4.555983e-06	4.105414e-09	4.897353e+01	2.619908e+02
2.760000e-06	4.519339e-06	3.957515e-09	4.857963e+01	2.612174e+02
2.770000e-06	4.481843e-06	3.925801e-09	4.817658e+01	2.604339e+02
2.780000e-06	4.443432e-06	4.030637e-09	4.776369e+01	2.596397e+02
2.790000e-06	4.404029e-06	4.015842e-09	4.734013e+01	2.588332e+02
2.800000e-06	4.363784e-06	3.916483e-09	4.690753e+01	2.580121e+02
2.810000e-06	4.322880e-06	3.945070e-09	4.646784e+01	2.571734e+02
2.820000e-06	4.281330e-06	3.953305e-09	4.602121e+01	2.563140e+02
2.830000e-06	4.239015e-06	3.913437e-09	4.556635e+01	2.554306e+02
2.840000e-06	4.195948e-06	3.898948e-09	4.510341e+01	2.545203e+02
2.850000e-06	4.152322e-06	3.897760e-09	4.463446e+01	2.535806e+02
2.860000e-06	4.108126e-06	3.886692e-09	4.415939e+01	2.526095e+02
2.870000e-06	4.063317e-06	3.837565e-09	4.367772e+01	2.516060e+02
2.880000e-06	4.017853e-06	3.846722e-09	4.318902e+01	2.505697e+02
2.890000e-06	3.971623e-06	3.855338e-09	4.269208e+01	2.495010e+02
2.900000e-06	3.924602e-06	3.790157e-09	4.218664e+01	2.484009e+02
2.910000e-06	3.876920e-06	3.775325e-09	4.167409e+01	2.472710e+02
2.920000e-06	3.828633e-06	3.800038e-09	4.115504e+01	2.461132e+02
2.930000e-06	3.779524e-06	3.773797e-09	4.062715e+01	2.449295e+02
2.940000e-06	3.729563e-06	3.708739e-09	4.009011e+01	2.437220e+02
2.950000e-06	3.678989e-06	3.711573e-09	3.954647e+01	2.424921e+02
