# Temperatura_=_20.0
# Concentracion g/m^3_=_9000.0
# C_Vs_to_Am_M_A/Vsm_=_65563218390.804596
# pendiente_HvsI_1/m_=_3716.3
# ordenada_HvsI_A/m_=_1297.0
# frecuencia_Hz_=_212854.7285733163

Tiempo_(s)	Campo_(V.s)	Magnetizacion_(V.s)	Campo_(kA/m)	Magnetizacion_(A/m)
0.000000e+00	-5.315736e-06	-4.104888e-09	-5.698928e+01	-2.703266e+02
1.000000e-08	-5.314881e-06	-4.106467e-09	-5.698011e+01	-2.703104e+02
2.000000e-08	-5.312764e-06	-4.109894e-09	-5.695741e+01	-2.702789e+02
3.000000e-08	-5.309557e-06	-4.111579e-09	-5.692303e+01	-2.702322e+02
4.000000e-08	-5.305669e-06	-4.109247e-09	-5.688134e+01	-2.701700e+02
5.000000e-08	-5.301057e-06	-4.102590e-09	-5.683190e+01	-2.700925e+02
6.000000e-08	-5.295516e-06	-4.095263e-09	-5.677250e+01	-2.699996e+02
7.000000e-08	-5.289000e-06	-4.081631e-09	-5.670264e+01	-2.698915e+02
8.000000e-08	-5.281679e-06	-4.088018e-09	-5.662415e+01	-2.697686e+02
9.000000e-08	-5.273521e-06	-4.125101e-09	-5.653669e+01	-2.696310e+02
1.000000e-07	-5.264032e-06	-4.154067e-09	-5.643496e+01	-2.694790e+02
1.100000e-07	-5.253138e-06	-4.120790e-09	-5.631817e+01	-2.693129e+02
1.200000e-07	-5.241265e-06	-4.009270e-09	-5.619088e+01	-2.691327e+02
1.300000e-07	-5.228603e-06	-4.013827e-09	-5.605514e+01	-2.689384e+02
1.400000e-07	-5.215080e-06	-4.141303e-09	-5.591016e+01	-2.687299e+02
1.500000e-07	-5.200735e-06	-4.088777e-09	-5.575636e+01	-2.685066e+02
1.600000e-07	-5.185459e-06	-4.057725e-09	-5.559259e+01	-2.682680e+02
1.700000e-07	-5.168770e-06	-4.043810e-09	-5.541367e+01	-2.680129e+02
1.800000e-07	-5.150979e-06	-3.963008e-09	-5.522293e+01	-2.677404e+02
1.900000e-07	-5.132753e-06	-4.062100e-09	-5.502754e+01	-2.674489e+02
2.000000e-07	-5.113816e-06	-4.154935e-09	-5.482451e+01	-2.671371e+02
2.100000e-07	-5.093806e-06	-4.029394e-09	-5.460999e+01	-2.668033e+02
2.200000e-07	-5.073038e-06	-3.982893e-09	-5.438734e+01	-2.664459e+02
2.300000e-07	-5.051666e-06	-4.142817e-09	-5.415822e+01	-2.660637e+02
2.400000e-07	-5.029350e-06	-4.129557e-09	-5.391896e+01	-2.656553e+02
2.500000e-07	-5.006111e-06	-4.042380e-09	-5.366983e+01	-2.652199e+02
2.600000e-07	-4.982142e-06	-3.998038e-09	-5.341286e+01	-2.647570e+02
2.700000e-07	-4.957273e-06	-3.988633e-09	-5.314625e+01	-2.642664e+02
2.800000e-07	-4.931263e-06	-4.064606e-09	-5.286739e+01	-2.637486e+02
2.900000e-07	-4.904121e-06	-4.045834e-09	-5.257641e+01	-2.632044e+02
3.000000e-07	-4.876187e-06	-3.982937e-09	-5.227693e+01	-2.626351e+02
3.100000e-07	-4.847518e-06	-3.986568e-09	-5.196958e+01	-2.620425e+02
3.200000e-07	-4.817880e-06	-3.963188e-09	-5.165182e+01	-2.614285e+02
3.300000e-07	-4.787347e-06	-3.988995e-09	-5.132448e+01	-2.607953e+02
3.400000e-07	-4.756113e-06	-4.045654e-09	-5.098963e+01	-2.601451e+02
3.500000e-07	-4.724152e-06	-3.935604e-09	-5.064698e+01	-2.594800e+02
3.600000e-07	-4.691428e-06	-3.875603e-09	-5.029616e+01	-2.588019e+02
3.700000e-07	-4.657860e-06	-3.988057e-09	-4.993628e+01	-2.581124e+02
3.800000e-07	-4.623187e-06	-3.992424e-09	-4.956455e+01	-2.574125e+02
3.900000e-07	-4.587447e-06	-3.882281e-09	-4.918138e+01	-2.567028e+02
4.000000e-07	-4.550977e-06	-3.886252e-09	-4.879040e+01	-2.559831e+02
4.100000e-07	-4.513845e-06	-3.934106e-09	-4.839231e+01	-2.552526e+02
4.200000e-07	-4.475811e-06	-3.900877e-09	-4.798455e+01	-2.545102e+02
4.300000e-07	-4.436909e-06	-3.879651e-09	-4.756749e+01	-2.537539e+02
4.400000e-07	-4.397449e-06	-3.876052e-09	-4.714444e+01	-2.529814e+02
4.500000e-07	-4.357503e-06	-3.850812e-09	-4.671619e+01	-2.521903e+02
4.600000e-07	-4.316843e-06	-3.842894e-09	-4.628028e+01	-2.513777e+02
4.700000e-07	-4.275094e-06	-3.843589e-09	-4.583269e+01	-2.505410e+02
4.800000e-07	-4.232188e-06	-3.822754e-09	-4.537270e+01	-2.496776e+02
4.900000e-07	-4.188492e-06	-3.798144e-09	-4.490425e+01	-2.487852e+02
5.000000e-07	-4.144247e-06	-3.792950e-09	-4.442990e+01	-2.478620e+02
5.100000e-07	-4.099448e-06	-3.789181e-09	-4.394962e+01	-2.469067e+02
5.200000e-07	-4.053965e-06	-3.769705e-09	-4.346200e+01	-2.459184e+02
5.300000e-07	-4.007632e-06	-3.743912e-09	-4.296527e+01	-2.448971e+02
5.400000e-07	-3.960547e-06	-3.731324e-09	-4.246047e+01	-2.438430e+02
5.500000e-07	-3.913007e-06	-3.730656e-09	-4.195081e+01	-2.427571e+02
5.600000e-07	-3.864888e-06	-3.704116e-09	-4.143493e+01	-2.416403e+02
5.700000e-07	-3.815763e-06	-3.666391e-09	-4.090826e+01	-2.404942e+02
5.800000e-07	-3.765519e-06	-3.663134e-09	-4.036961e+01	-2.393202e+02
5.900000e-07	-3.714411e-06	-3.662157e-09	-3.982168e+01	-2.381198e+02
6.000000e-07	-3.662564e-06	-3.628551e-09	-3.926584e+01	-2.368940e+02
6.100000e-07	-3.609988e-06	-3.593401e-09	-3.870218e+01	-2.356437e+02
6.200000e-07	-3.556764e-06	-3.586455e-09	-3.813158e+01	-2.343692e+02
6.300000e-07	-3.502898e-06	-3.578233e-09	-3.755409e+01	-2.330704e+02
6.400000e-07	-3.448335e-06	-3.548956e-09	-3.696913e+01	-2.317464e+02
6.500000e-07	-3.393142e-06	-3.519097e-09	-3.637740e+01	-2.303960e+02
6.600000e-07	-3.337535e-06	-3.494784e-09	-3.578125e+01	-2.290174e+02
6.700000e-07	-3.281571e-06	-3.480541e-09	-3.518127e+01	-2.276084e+02
6.800000e-07	-3.225060e-06	-3.471214e-09	-3.457542e+01	-2.261666e+02
6.900000e-07	-3.167635e-06	-3.444541e-09	-3.395978e+01	-2.246893e+02
7.000000e-07	-3.109165e-06	-3.404459e-09	-3.333293e+01	-2.231740e+02
7.100000e-07	-3.049956e-06	-3.380361e-09	-3.269815e+01	-2.216183e+02
7.200000e-07	-2.990363e-06	-3.375035e-09	-3.205926e+01	-2.200201e+02
7.300000e-07	-2.930493e-06	-3.354212e-09	-3.141741e+01	-2.183775e+02
7.400000e-07	-2.870154e-06	-3.308837e-09	-3.077053e+01	-2.166893e+02
7.500000e-07	-2.809250e-06	-3.271919e-09	-3.011758e+01	-2.149546e+02
7.600000e-07	-2.747900e-06	-3.256519e-09	-2.945986e+01	-2.131731e+02
7.700000e-07	-2.686133e-06	-3.240868e-09	-2.879767e+01	-2.113446e+02
7.800000e-07	-2.623926e-06	-3.202701e-09	-2.813074e+01	-2.094695e+02
7.900000e-07	-2.561207e-06	-3.155535e-09	-2.745835e+01	-2.075480e+02
8.000000e-07	-2.497986e-06	-3.127272e-09	-2.678056e+01	-2.055805e+02
8.100000e-07	-2.434481e-06	-3.110833e-09	-2.609973e+01	-2.035669e+02
8.200000e-07	-2.370795e-06	-3.083860e-09	-2.541696e+01	-2.015071e+02
8.300000e-07	-2.306790e-06	-3.039792e-09	-2.473078e+01	-1.994002e+02
8.400000e-07	-2.242351e-06	-2.997001e-09	-2.403993e+01	-1.972446e+02
8.500000e-07	-2.177521e-06	-2.969587e-09	-2.334490e+01	-1.950381e+02
8.600000e-07	-2.112256e-06	-2.946460e-09	-2.264520e+01	-1.927776e+02
8.700000e-07	-2.046384e-06	-2.910195e-09	-2.193900e+01	-1.904592e+02
8.800000e-07	-1.979884e-06	-2.859760e-09	-2.122606e+01	-1.880785e+02
8.900000e-07	-1.912952e-06	-2.817907e-09	-2.050849e+01	-1.856303e+02
9.000000e-07	-1.845800e-06	-2.790473e-09	-1.978856e+01	-1.831089e+02
9.100000e-07	-1.778437e-06	-2.757278e-09	-1.906638e+01	-1.805083e+02
9.200000e-07	-1.710882e-06	-2.706625e-09	-1.834213e+01	-1.778224e+02
9.300000e-07	-1.643102e-06	-2.653689e-09	-1.761547e+01	-1.750449e+02
9.400000e-07	-1.575118e-06	-2.612757e-09	-1.688662e+01	-1.721700e+02
9.500000e-07	-1.506950e-06	-2.572425e-09	-1.615580e+01	-1.691917e+02
9.600000e-07	-1.438481e-06	-2.522448e-09	-1.542175e+01	-1.661046e+02
9.700000e-07	-1.369737e-06	-2.468117e-09	-1.468477e+01	-1.629034e+02
9.800000e-07	-1.300729e-06	-2.417153e-09	-1.394493e+01	-1.595832e+02
9.900000e-07	-1.231492e-06	-2.370617e-09	-1.320265e+01	-1.561390e+02
1.000000e-06	-1.162093e-06	-2.320926e-09	-1.245864e+01	-1.525658e+02
1.010000e-06	-1.092423e-06	-2.260482e-09	-1.171172e+01	-1.488584e+02
1.020000e-06	-1.022442e-06	-2.196642e-09	-1.096146e+01	-1.450111e+02
1.030000e-06	-9.523224e-07	-2.135307e-09	-1.020972e+01	-1.410173e+02
1.040000e-06	-8.821240e-07	-2.073302e-09	-9.457129e+00	-1.368696e+02
1.050000e-06	-8.117398e-07	-2.007475e-09	-8.702550e+00	-1.325595e+02
1.060000e-06	-7.411274e-07	-1.936839e-09	-7.945525e+00	-1.280772e+02
1.070000e-06	-6.702915e-07	-1.864409e-09	-7.186103e+00	-1.234117e+02
1.080000e-06	-5.993399e-07	-1.791194e-09	-6.425441e+00	-1.185510e+02
1.090000e-06	-5.283488e-07	-1.716705e-09	-5.664354e+00	-1.134819e+02
1.100000e-06	-4.572572e-07	-1.637086e-09	-4.902192e+00	-1.081907e+02
1.110000e-06	-3.860415e-07	-1.551465e-09	-4.138698e+00	-1.026636e+02
1.120000e-06	-3.148096e-07	-1.463003e-09	-3.375030e+00	-9.688695e+01
1.130000e-06	-2.436147e-07	-1.370136e-09	-2.611759e+00	-9.084813e+01
1.140000e-06	-1.723581e-07	-1.274390e-09	-1.847827e+00	-8.453606e+01
1.150000e-06	-1.010148e-07	-1.174298e-09	-1.082966e+00	-7.794196e+01
1.160000e-06	-2.966602e-08	-1.067586e-09	-3.180453e-01	-7.106002e+01
1.170000e-06	4.161851e-08	-9.577303e-10	4.461863e-01	-6.388809e+01
1.180000e-06	1.128578e-07	-8.466757e-10	1.209933e+00	-5.642819e+01
1.190000e-06	1.840597e-07	-7.342306e-10	1.973279e+00	-4.868702e+01
1.200000e-06	2.552194e-07	-6.159673e-10	2.736172e+00	-4.067631e+01
1.210000e-06	3.263352e-07	-4.905982e-10	3.498594e+00	-3.241294e+01
1.220000e-06	3.973861e-07	-3.608710e-10	4.260321e+00	-2.391895e+01
1.230000e-06	4.683561e-07	-2.287634e-10	5.021181e+00	-1.522137e+01
1.240000e-06	5.392442e-07	-9.500769e-11	5.781163e+00	-6.351831e+00
1.250000e-06	6.100474e-07	4.335224e-11	6.540234e+00	2.653996e+00
1.260000e-06	6.807123e-07	1.849930e-10	7.297823e+00	1.175709e+01
1.270000e-06	7.511945e-07	3.244637e-10	8.053453e+00	2.091591e+01
1.280000e-06	8.215487e-07	4.622348e-10	8.807710e+00	3.008735e+01
1.290000e-06	8.917233e-07	5.988712e-10	9.560043e+00	3.922768e+01
1.300000e-06	9.617328e-07	7.374681e-10	1.031061e+01	4.829358e+01
1.310000e-06	1.031603e-06	8.755794e-10	1.105967e+01	5.724316e+01
1.320000e-06	1.101245e-06	1.010994e-09	1.180630e+01	6.603680e+01
1.330000e-06	1.170666e-06	1.143552e-09	1.255055e+01	7.463807e+01
1.340000e-06	1.239889e-06	1.273603e-09	1.329268e+01	8.301440e+01
1.350000e-06	1.308962e-06	1.399870e-09	1.403320e+01	9.113762e+01
1.360000e-06	1.377839e-06	1.519714e-09	1.477163e+01	9.898439e+01
1.370000e-06	1.446470e-06	1.633300e-09	1.550740e+01	1.065364e+02
1.380000e-06	1.514810e-06	1.740780e-09	1.624007e+01	1.137805e+02
1.390000e-06	1.582900e-06	1.842350e-09	1.697005e+01	1.207085e+02
1.400000e-06	1.650799e-06	1.941542e-09	1.769798e+01	1.273169e+02
1.410000e-06	1.718489e-06	2.036443e-09	1.842369e+01	1.336066e+02
1.420000e-06	1.786003e-06	2.123531e-09	1.914750e+01	1.395823e+02
1.430000e-06	1.853322e-06	2.208600e-09	1.986921e+01	1.452524e+02
1.440000e-06	1.920385e-06	2.291316e-09	2.058818e+01	1.506275e+02
1.450000e-06	1.987054e-06	2.370981e-09	2.130293e+01	1.557207e+02
1.460000e-06	2.053168e-06	2.444456e-09	2.201173e+01	1.605465e+02
1.470000e-06	2.118688e-06	2.515002e-09	2.271416e+01	1.651205e+02
1.480000e-06	2.183719e-06	2.583119e-09	2.341135e+01	1.694584e+02
1.490000e-06	2.248285e-06	2.645838e-09	2.410355e+01	1.735763e+02
1.500000e-06	2.312378e-06	2.705720e-09	2.479069e+01	1.774898e+02
1.510000e-06	2.376104e-06	2.761381e-09	2.547389e+01	1.812138e+02
1.520000e-06	2.439515e-06	2.812625e-09	2.615370e+01	1.847624e+02
1.530000e-06	2.502606e-06	2.861188e-09	2.683010e+01	1.881485e+02
1.540000e-06	2.565281e-06	2.907144e-09	2.750202e+01	1.913843e+02
1.550000e-06	2.627473e-06	2.952428e-09	2.816877e+01	1.944807e+02
1.560000e-06	2.689186e-06	2.996268e-09	2.883039e+01	1.974474e+02
1.570000e-06	2.750477e-06	3.037052e-09	2.948749e+01	2.002934e+02
1.580000e-06	2.811367e-06	3.078167e-09	3.014028e+01	2.030266e+02
1.590000e-06	2.871761e-06	3.118960e-09	3.078775e+01	2.056541e+02
1.600000e-06	2.931714e-06	3.155232e-09	3.143051e+01	2.081821e+02
1.610000e-06	2.991305e-06	3.187809e-09	3.206937e+01	2.106164e+02
1.620000e-06	3.050434e-06	3.220790e-09	3.270329e+01	2.129620e+02
1.630000e-06	3.108944e-06	3.254575e-09	3.333056e+01	2.152235e+02
1.640000e-06	3.166631e-06	3.285371e-09	3.394901e+01	2.174049e+02
1.650000e-06	3.223450e-06	3.314018e-09	3.455816e+01	2.195099e+02
1.660000e-06	3.279597e-06	3.343140e-09	3.516011e+01	2.215418e+02
1.670000e-06	3.335232e-06	3.373088e-09	3.575656e+01	2.235033e+02
1.680000e-06	3.390393e-06	3.402700e-09	3.634794e+01	2.253972e+02
1.690000e-06	3.445011e-06	3.429152e-09	3.693348e+01	2.272257e+02
1.700000e-06	3.499043e-06	3.453164e-09	3.751276e+01	2.289909e+02
1.710000e-06	3.552571e-06	3.478189e-09	3.808662e+01	2.306946e+02
1.720000e-06	3.605545e-06	3.505067e-09	3.865455e+01	2.323387e+02
1.730000e-06	3.657890e-06	3.530708e-09	3.921573e+01	2.339248e+02
1.740000e-06	3.709520e-06	3.553302e-09	3.976925e+01	2.354546e+02
1.750000e-06	3.760298e-06	3.574975e-09	4.031364e+01	2.369297e+02
1.760000e-06	3.810122e-06	3.596595e-09	4.084780e+01	2.383521e+02
1.770000e-06	3.858948e-06	3.615596e-09	4.137125e+01	2.397236e+02
1.780000e-06	3.907008e-06	3.633176e-09	4.188649e+01	2.410462e+02
1.790000e-06	3.954536e-06	3.650789e-09	4.239604e+01	2.423222e+02
1.800000e-06	4.001466e-06	3.668856e-09	4.289916e+01	2.435538e+02
1.810000e-06	4.047671e-06	3.688173e-09	4.339452e+01	2.447435e+02
1.820000e-06	4.093175e-06	3.707525e-09	4.388236e+01	2.458937e+02
1.830000e-06	4.137943e-06	3.726107e-09	4.436232e+01	2.470069e+02
1.840000e-06	4.182041e-06	3.744944e-09	4.483509e+01	2.480854e+02
1.850000e-06	4.225679e-06	3.763559e-09	4.530292e+01	2.491314e+02
1.860000e-06	4.268733e-06	3.779399e-09	4.576450e+01	2.501469e+02
1.870000e-06	4.310843e-06	3.793123e-09	4.621595e+01	2.511337e+02
1.880000e-06	4.351836e-06	3.807421e-09	4.665544e+01	2.520930e+02
1.890000e-06	4.391900e-06	3.823633e-09	4.708495e+01	2.530260e+02
1.900000e-06	4.431267e-06	3.840110e-09	4.750700e+01	2.539332e+02
1.910000e-06	4.469919e-06	3.853620e-09	4.792138e+01	2.548149e+02
1.920000e-06	4.507808e-06	3.866455e-09	4.832759e+01	2.556710e+02
1.930000e-06	4.544931e-06	3.881548e-09	4.872558e+01	2.565011e+02
1.940000e-06	4.581267e-06	3.894781e-09	4.911513e+01	2.573046e+02
1.950000e-06	4.616976e-06	3.905472e-09	4.949796e+01	2.580808e+02
1.960000e-06	4.652072e-06	3.917241e-09	4.987423e+01	2.588288e+02
1.970000e-06	4.686139e-06	3.929362e-09	5.023945e+01	2.595480e+02
1.980000e-06	4.719047e-06	3.939752e-09	5.059226e+01	2.602374e+02
1.990000e-06	4.751057e-06	3.949973e-09	5.093543e+01	2.608968e+02
2.000000e-06	4.782325e-06	3.961047e-09	5.127065e+01	2.615258e+02
2.010000e-06	4.812897e-06	3.972372e-09	5.159841e+01	2.621244e+02
2.020000e-06	4.842661e-06	3.983133e-09	5.191751e+01	2.626930e+02
2.030000e-06	4.871533e-06	3.993184e-09	5.222703e+01	2.632322e+02
2.040000e-06	4.899650e-06	4.002758e-09	5.252848e+01	2.637429e+02
2.050000e-06	4.927105e-06	4.012322e-09	5.282281e+01	2.642262e+02
2.060000e-06	4.953620e-06	4.020672e-09	5.310708e+01	2.646836e+02
2.070000e-06	4.978981e-06	4.027396e-09	5.337897e+01	2.651164e+02
2.080000e-06	5.003328e-06	4.032985e-09	5.363999e+01	2.655263e+02
2.090000e-06	5.026841e-06	4.039462e-09	5.389207e+01	2.659147e+02
2.100000e-06	5.049540e-06	4.046914e-09	5.413542e+01	2.662832e+02
2.110000e-06	5.071389e-06	4.052839e-09	5.436966e+01	2.666331e+02
2.120000e-06	5.092379e-06	4.058699e-09	5.459469e+01	2.669655e+02
2.130000e-06	5.112594e-06	4.064620e-09	5.481142e+01	2.672816e+02
2.140000e-06	5.132111e-06	4.070103e-09	5.502065e+01	2.675820e+02
2.150000e-06	5.150853e-06	4.074707e-09	5.522158e+01	2.678674e+02
2.160000e-06	5.168647e-06	4.077424e-09	5.541235e+01	2.681382e+02
2.170000e-06	5.185480e-06	4.081730e-09	5.559281e+01	2.683947e+02
2.180000e-06	5.201448e-06	4.087043e-09	5.576400e+01	2.686368e+02
2.190000e-06	5.216390e-06	4.090046e-09	5.592420e+01	2.688647e+02
2.200000e-06	5.230241e-06	4.094148e-09	5.607269e+01	2.690784e+02
2.210000e-06	5.243172e-06	4.100336e-09	5.621133e+01	2.692777e+02
2.220000e-06	5.255212e-06	4.105693e-09	5.634040e+01	2.694625e+02
2.230000e-06	5.266214e-06	4.108606e-09	5.645835e+01	2.696329e+02
2.240000e-06	5.275973e-06	4.111096e-09	5.656298e+01	2.697888e+02
2.250000e-06	5.284507e-06	4.112587e-09	5.665447e+01	2.699303e+02
2.260000e-06	5.292099e-06	4.113429e-09	5.673586e+01	2.700574e+02
2.270000e-06	5.298821e-06	4.116043e-09	5.680793e+01	2.701701e+02
2.280000e-06	5.304658e-06	4.119008e-09	5.687050e+01	2.702685e+02
2.290000e-06	5.309566e-06	4.121131e-09	5.692312e+01	2.703527e+02
2.300000e-06	5.313630e-06	4.123530e-09	5.696669e+01	2.704227e+02
2.310000e-06	5.316976e-06	4.126812e-09	5.700257e+01	2.704783e+02
2.320000e-06	5.319347e-06	4.130403e-09	5.702798e+01	2.705197e+02
2.330000e-06	5.320503e-06	4.133211e-09	5.704038e+01	2.705465e+02
2.340000e-06	5.320608e-06	4.134489e-09	5.704150e+01	2.705587e+02
2.350000e-06	5.319870e-06	4.134391e-09	5.703359e+01	2.705560e+02
2.360000e-06	5.318300e-06	4.131215e-09	5.701677e+01	2.705383e+02
2.370000e-06	5.315881e-06	4.128244e-09	5.699083e+01	2.705054e+02
2.380000e-06	5.312607e-06	4.128100e-09	5.695573e+01	2.704571e+02
2.390000e-06	5.308578e-06	4.128934e-09	5.691253e+01	2.703934e+02
2.400000e-06	5.303884e-06	4.128349e-09	5.686221e+01	2.703143e+02
2.410000e-06	5.298265e-06	4.132259e-09	5.680197e+01	2.702199e+02
2.420000e-06	5.291469e-06	4.144359e-09	5.672911e+01	2.701103e+02
2.430000e-06	5.283666e-06	4.098231e-09	5.664546e+01	2.699859e+02
2.440000e-06	5.274885e-06	4.052107e-09	5.655132e+01	2.698468e+02
2.450000e-06	5.264793e-06	4.039426e-09	5.644312e+01	2.696934e+02
2.460000e-06	5.253457e-06	4.155018e-09	5.632159e+01	2.695259e+02
2.470000e-06	5.241676e-06	4.220933e-09	5.619529e+01	2.693443e+02
2.480000e-06	5.229681e-06	4.083174e-09	5.606668e+01	2.691486e+02
2.490000e-06	5.216346e-06	4.076114e-09	5.592373e+01	2.689387e+02
2.500000e-06	5.201217e-06	4.118220e-09	5.576153e+01	2.687139e+02
2.510000e-06	5.185379e-06	4.090433e-09	5.559174e+01	2.684736e+02
2.520000e-06	5.169096e-06	4.184396e-09	5.541717e+01	2.682169e+02
2.530000e-06	5.151615e-06	4.189197e-09	5.522976e+01	2.679425e+02
2.540000e-06	5.133233e-06	3.979620e-09	5.503269e+01	2.676490e+02
2.550000e-06	5.114474e-06	4.044351e-09	5.483157e+01	2.673351e+02
2.560000e-06	5.095000e-06	4.195023e-09	5.462280e+01	2.669990e+02
2.570000e-06	5.074539e-06	4.031691e-09	5.440343e+01	2.666392e+02
2.580000e-06	5.052938e-06	3.978399e-09	5.417185e+01	2.662544e+02
2.590000e-06	5.030059e-06	4.101879e-09	5.392657e+01	2.658434e+02
2.600000e-06	5.006207e-06	4.071425e-09	5.367085e+01	2.654053e+02
2.610000e-06	4.981436e-06	4.056666e-09	5.340529e+01	2.649395e+02
2.620000e-06	4.955792e-06	4.066518e-09	5.313036e+01	2.644462e+02
2.630000e-06	4.929567e-06	3.990595e-09	5.284920e+01	2.639257e+02
2.640000e-06	4.902471e-06	4.027534e-09	5.255871e+01	2.633789e+02
2.650000e-06	4.874502e-06	4.030637e-09	5.225887e+01	2.628072e+02
2.660000e-06	4.845955e-06	4.027037e-09	5.195282e+01	2.622124e+02
2.670000e-06	4.816242e-06	4.053803e-09	5.163426e+01	2.615964e+02
2.680000e-06	4.785051e-06	3.909357e-09	5.129988e+01	2.609613e+02
2.690000e-06	4.753036e-06	3.958665e-09	5.095664e+01	2.603095e+02
2.700000e-06	4.720466e-06	4.078149e-09	5.060747e+01	2.596431e+02
2.710000e-06	4.687000e-06	3.926206e-09	5.024868e+01	2.589638e+02
2.720000e-06	4.652592e-06	3.891680e-09	4.987979e+01	2.582732e+02
2.730000e-06	4.617575e-06	3.959734e-09	4.950438e+01	2.575723e+02
2.740000e-06	4.581946e-06	3.948789e-09	4.912241e+01	2.568616e+02
2.750000e-06	4.545540e-06	3.915277e-09	4.873211e+01	2.561408e+02
2.760000e-06	4.508285e-06	3.874871e-09	4.833271e+01	2.554093e+02
2.770000e-06	4.470002e-06	3.905849e-09	4.792228e+01	2.546655e+02
2.780000e-06	4.430639e-06	3.885125e-09	4.750027e+01	2.539077e+02
2.790000e-06	4.390474e-06	3.849837e-09	4.706966e+01	2.531335e+02
2.800000e-06	4.349717e-06	3.879520e-09	4.663272e+01	2.523404e+02
2.810000e-06	4.308286e-06	3.850022e-09	4.618854e+01	2.515255e+02
2.820000e-06	4.266056e-06	3.833321e-09	4.573580e+01	2.506862e+02
2.830000e-06	4.223052e-06	3.817740e-09	4.527476e+01	2.498200e+02
2.840000e-06	4.179470e-06	3.814535e-09	4.480752e+01	2.489246e+02
2.850000e-06	4.135442e-06	3.814831e-09	4.433550e+01	2.479982e+02
2.860000e-06	4.090900e-06	3.760646e-09	4.385797e+01	2.470396e+02
2.870000e-06	4.045626e-06	3.768924e-09	4.337260e+01	2.460481e+02
2.880000e-06	3.999508e-06	3.756689e-09	4.287817e+01	2.450235e+02
2.890000e-06	3.952581e-06	3.711241e-09	4.237507e+01	2.439662e+02
2.900000e-06	3.905092e-06	3.709965e-09	4.186596e+01	2.428770e+02
2.910000e-06	3.857092e-06	3.705780e-09	4.135135e+01	2.417573e+02
2.920000e-06	3.808196e-06	3.688026e-09	4.082714e+01	2.406084e+02
2.930000e-06	3.758365e-06	3.639251e-09	4.029292e+01	2.394317e+02
2.940000e-06	3.707891e-06	3.638310e-09	3.975179e+01	2.382286e+02
2.950000e-06	3.656876e-06	3.653471e-09	3.920486e+01	2.370004e+02
