# Temperatura_=_20.0
# Concentracion g/m^3_=_9000.0
# C_Vs_to_Am_M_A/Vsm_=_65563218390.804596
# pendiente_HvsI_1/m_=_3716.3
# ordenada_HvsI_A/m_=_1297.0
# frecuencia_Hz_=_212854.7705337312

Tiempo_(s)	Campo_(V.s)	Magnetizacion_(V.s)	Campo_(kA/m)	Magnetizacion_(A/m)
0.000000e+00	-5.321177e-06	-4.077314e-09	-5.699103e+01	-2.672073e+02
1.000000e-08	-5.320934e-06	-4.077788e-09	-5.698842e+01	-2.672331e+02
2.000000e-08	-5.319681e-06	-4.082561e-09	-5.697501e+01	-2.672385e+02
3.000000e-08	-5.317156e-06	-4.086890e-09	-5.694796e+01	-2.672222e+02
4.000000e-08	-5.313674e-06	-4.088213e-09	-5.691067e+01	-2.671837e+02
5.000000e-08	-5.309492e-06	-4.086242e-09	-5.686588e+01	-2.671228e+02
6.000000e-08	-5.304473e-06	-4.081847e-09	-5.681213e+01	-2.670405e+02
7.000000e-08	-5.298543e-06	-4.074633e-09	-5.674862e+01	-2.669381e+02
8.000000e-08	-5.291749e-06	-4.063323e-09	-5.667585e+01	-2.668178e+02
9.000000e-08	-5.284166e-06	-4.088742e-09	-5.659464e+01	-2.666825e+02
1.000000e-07	-5.275499e-06	-4.154308e-09	-5.650181e+01	-2.665353e+02
1.100000e-07	-5.265305e-06	-4.181552e-09	-5.639263e+01	-2.663797e+02
1.200000e-07	-5.253900e-06	-4.078563e-09	-5.627048e+01	-2.662190e+02
1.300000e-07	-5.241737e-06	-3.929261e-09	-5.614021e+01	-2.660566e+02
1.400000e-07	-5.228743e-06	-4.023867e-09	-5.600104e+01	-2.658951e+02
1.500000e-07	-5.214873e-06	-4.190122e-09	-5.585249e+01	-2.657366e+02
1.600000e-07	-5.200224e-06	-4.099653e-09	-5.569560e+01	-2.655823e+02
1.700000e-07	-5.184448e-06	-4.020849e-09	-5.552663e+01	-2.654324e+02
1.800000e-07	-5.167289e-06	-3.992134e-09	-5.534286e+01	-2.652858e+02
1.900000e-07	-5.149337e-06	-3.961099e-09	-5.515059e+01	-2.651405e+02
2.000000e-07	-5.130938e-06	-4.131212e-09	-5.495353e+01	-2.649934e+02
2.100000e-07	-5.111651e-06	-4.179781e-09	-5.474696e+01	-2.648403e+02
2.200000e-07	-5.091380e-06	-3.924109e-09	-5.452986e+01	-2.646764e+02
2.300000e-07	-5.070413e-06	-3.939791e-09	-5.430529e+01	-2.644962e+02
2.400000e-07	-5.048669e-06	-4.189948e-09	-5.407241e+01	-2.642942e+02
2.500000e-07	-5.025938e-06	-4.108961e-09	-5.382895e+01	-2.640647e+02
2.600000e-07	-5.002325e-06	-3.925322e-09	-5.357605e+01	-2.638025e+02
2.700000e-07	-4.977916e-06	-3.922004e-09	-5.331462e+01	-2.635031e+02
2.800000e-07	-4.952545e-06	-4.007436e-09	-5.304290e+01	-2.631627e+02
2.900000e-07	-4.926047e-06	-4.081653e-09	-5.275910e+01	-2.627788e+02
3.000000e-07	-4.898521e-06	-4.003300e-09	-5.246429e+01	-2.623500e+02
3.100000e-07	-4.870188e-06	-3.900451e-09	-5.216083e+01	-2.618762e+02
3.200000e-07	-4.840986e-06	-3.944025e-09	-5.184807e+01	-2.613587e+02
3.300000e-07	-4.810904e-06	-3.977102e-09	-5.152589e+01	-2.607998e+02
3.400000e-07	-4.780054e-06	-3.993574e-09	-5.119548e+01	-2.602029e+02
3.500000e-07	-4.748544e-06	-3.982687e-09	-5.085800e+01	-2.595722e+02
3.600000e-07	-4.716371e-06	-3.849502e-09	-5.051342e+01	-2.589124e+02
3.700000e-07	-4.683310e-06	-3.862753e-09	-5.015933e+01	-2.582284e+02
3.800000e-07	-4.649163e-06	-4.023599e-09	-4.979361e+01	-2.575249e+02
3.900000e-07	-4.613911e-06	-3.953406e-09	-4.941605e+01	-2.568064e+02
4.000000e-07	-4.577785e-06	-3.781995e-09	-4.902913e+01	-2.560766e+02
4.100000e-07	-4.541030e-06	-3.854974e-09	-4.863548e+01	-2.553386e+02
4.200000e-07	-4.503569e-06	-3.966508e-09	-4.823426e+01	-2.545941e+02
4.300000e-07	-4.465155e-06	-3.876925e-09	-4.782284e+01	-2.538441e+02
4.400000e-07	-4.425924e-06	-3.797901e-09	-4.740267e+01	-2.530882e+02
4.500000e-07	-4.386250e-06	-3.836654e-09	-4.697775e+01	-2.523252e+02
4.600000e-07	-4.346081e-06	-3.850465e-09	-4.654753e+01	-2.515529e+02
4.700000e-07	-4.304999e-06	-3.826295e-09	-4.610753e+01	-2.507683e+02
4.800000e-07	-4.262728e-06	-3.804873e-09	-4.565480e+01	-2.499680e+02
4.900000e-07	-4.219487e-06	-3.775049e-09	-4.519168e+01	-2.491484e+02
5.000000e-07	-4.175652e-06	-3.765689e-09	-4.472219e+01	-2.483058e+02
5.100000e-07	-4.131237e-06	-3.784518e-09	-4.424650e+01	-2.474368e+02
5.200000e-07	-4.086086e-06	-3.773884e-09	-4.376293e+01	-2.465384e+02
5.300000e-07	-4.040152e-06	-3.719930e-09	-4.327096e+01	-2.456081e+02
5.400000e-07	-3.993414e-06	-3.696505e-09	-4.277039e+01	-2.446443e+02
5.500000e-07	-3.946071e-06	-3.726351e-09	-4.226333e+01	-2.436459e+02
5.600000e-07	-3.898299e-06	-3.727918e-09	-4.175168e+01	-2.426128e+02
5.700000e-07	-3.849791e-06	-3.668040e-09	-4.123215e+01	-2.415454e+02
5.800000e-07	-3.800154e-06	-3.628017e-09	-4.070052e+01	-2.404444e+02
5.900000e-07	-3.749468e-06	-3.654791e-09	-4.015766e+01	-2.393112e+02
6.000000e-07	-3.698043e-06	-3.664694e-09	-3.960690e+01	-2.381472e+02
6.100000e-07	-3.645947e-06	-3.606323e-09	-3.904893e+01	-2.369538e+02
6.200000e-07	-3.593122e-06	-3.563266e-09	-3.848316e+01	-2.357322e+02
6.300000e-07	-3.539584e-06	-3.575474e-09	-3.790976e+01	-2.344831e+02
6.400000e-07	-3.485409e-06	-3.574950e-09	-3.732953e+01	-2.332068e+02
6.500000e-07	-3.430602e-06	-3.535150e-09	-3.674253e+01	-2.319031e+02
6.600000e-07	-3.375253e-06	-3.497775e-09	-3.614974e+01	-2.305711e+02
6.700000e-07	-3.319515e-06	-3.481845e-09	-3.555277e+01	-2.292094e+02
6.800000e-07	-3.263277e-06	-3.474180e-09	-3.495045e+01	-2.278159e+02
6.900000e-07	-3.206294e-06	-3.461831e-09	-3.434014e+01	-2.263885e+02
7.000000e-07	-3.148390e-06	-3.429141e-09	-3.371998e+01	-2.249246e+02
7.100000e-07	-3.089588e-06	-3.385596e-09	-3.309019e+01	-2.234215e+02
7.200000e-07	-3.030208e-06	-3.368829e-09	-3.245423e+01	-2.218769e+02
7.300000e-07	-2.970480e-06	-3.370140e-09	-3.181453e+01	-2.202886e+02
7.400000e-07	-2.910369e-06	-3.339658e-09	-3.117072e+01	-2.186548e+02
7.500000e-07	-2.849752e-06	-3.284716e-09	-3.052150e+01	-2.169742e+02
7.600000e-07	-2.788599e-06	-3.257104e-09	-2.986654e+01	-2.152460e+02
7.700000e-07	-2.727017e-06	-3.252831e-09	-2.920698e+01	-2.134701e+02
7.800000e-07	-2.664996e-06	-3.226170e-09	-2.854272e+01	-2.116466e+02
7.900000e-07	-2.602477e-06	-3.176231e-09	-2.787313e+01	-2.097760e+02
8.000000e-07	-2.539457e-06	-3.140886e-09	-2.719817e+01	-2.078590e+02
8.100000e-07	-2.476036e-06	-3.126496e-09	-2.651892e+01	-2.058963e+02
8.200000e-07	-2.412381e-06	-3.104910e-09	-2.583716e+01	-2.038882e+02
8.300000e-07	-2.348485e-06	-3.063496e-09	-2.515282e+01	-2.018347e+02
8.400000e-07	-2.284197e-06	-3.019082e-09	-2.446428e+01	-1.997350e+02
8.500000e-07	-2.219523e-06	-2.987203e-09	-2.377160e+01	-1.975878e+02
8.600000e-07	-2.154500e-06	-2.963884e-09	-2.307520e+01	-1.953907e+02
8.700000e-07	-2.088971e-06	-2.934919e-09	-2.237336e+01	-1.931403e+02
8.800000e-07	-2.022804e-06	-2.891861e-09	-2.166470e+01	-1.908324e+02
8.900000e-07	-1.956074e-06	-2.847342e-09	-2.095000e+01	-1.884620e+02
9.000000e-07	-1.888965e-06	-2.816672e-09	-2.023125e+01	-1.860232e+02
9.100000e-07	-1.821628e-06	-2.789380e-09	-1.951005e+01	-1.835096e+02
9.200000e-07	-1.754112e-06	-2.745761e-09	-1.878694e+01	-1.809143e+02
9.300000e-07	-1.686372e-06	-2.692487e-09	-1.806143e+01	-1.782306e+02
9.400000e-07	-1.618423e-06	-2.649618e-09	-1.733369e+01	-1.754515e+02
9.500000e-07	-1.550330e-06	-2.611073e-09	-1.660439e+01	-1.725703e+02
9.600000e-07	-1.482016e-06	-2.559532e-09	-1.587274e+01	-1.695806e+02
9.700000e-07	-1.413436e-06	-2.503168e-09	-1.513823e+01	-1.664767e+02
9.800000e-07	-1.344563e-06	-2.456324e-09	-1.440058e+01	-1.632531e+02
9.900000e-07	-1.275400e-06	-2.412923e-09	-1.365982e+01	-1.599048e+02
1.000000e-06	-1.205999e-06	-2.362101e-09	-1.291653e+01	-1.564271e+02
1.010000e-06	-1.136346e-06	-2.304076e-09	-1.217053e+01	-1.528154e+02
1.020000e-06	-1.066433e-06	-2.244365e-09	-1.142174e+01	-1.490650e+02
1.030000e-06	-9.962984e-07	-2.185009e-09	-1.067059e+01	-1.451707e+02
1.040000e-06	-9.260249e-07	-2.123755e-09	-9.917940e+00	-1.411266e+02
1.050000e-06	-8.556468e-07	-2.059996e-09	-9.164175e+00	-1.369262e+02
1.060000e-06	-7.850922e-07	-1.992485e-09	-8.408518e+00	-1.325615e+02
1.070000e-06	-7.143082e-07	-1.922484e-09	-7.650405e+00	-1.280234e+02
1.080000e-06	-6.433519e-07	-1.852640e-09	-6.890447e+00	-1.233015e+02
1.090000e-06	-5.722898e-07	-1.780759e-09	-6.129355e+00	-1.183841e+02
1.100000e-06	-5.011570e-07	-1.703233e-09	-5.367506e+00	-1.132587e+02
1.110000e-06	-4.299463e-07	-1.621106e-09	-4.604824e+00	-1.079117e+02
1.120000e-06	-3.586968e-07	-1.538271e-09	-3.841725e+00	-1.023294e+02
1.130000e-06	-2.874561e-07	-1.450022e-09	-3.078721e+00	-9.649850e+01
1.140000e-06	-2.161671e-07	-1.354908e-09	-2.315199e+00	-9.040639e+01
1.150000e-06	-1.448197e-07	-1.256273e-09	-1.551052e+00	-8.404218e+01
1.160000e-06	-7.345282e-08	-1.155277e-09	-7.866967e-01	-7.739730e+01
1.170000e-06	-2.060775e-09	-1.049350e-09	-2.207137e-02	-7.046626e+01
1.180000e-06	6.930845e-08	-9.376370e-10	7.423095e-01	-6.324734e+01
1.190000e-06	1.406144e-07	-8.254120e-10	1.506012e+00	-5.574313e+01
1.200000e-06	2.118749e-07	-7.108691e-10	2.269229e+00	-4.796108e+01
1.210000e-06	2.831161e-07	-5.903087e-10	3.032239e+00	-3.991379e+01
1.220000e-06	3.542979e-07	-4.649914e-10	3.794612e+00	-3.161914e+01
1.230000e-06	4.254189e-07	-3.367659e-10	4.556335e+00	-2.310030e+01
1.240000e-06	4.964158e-07	-2.059620e-10	5.316728e+00	-1.438546e+01
1.250000e-06	5.672458e-07	-7.175546e-11	6.075333e+00	-5.507415e+00
1.260000e-06	6.379744e-07	6.565879e-11	6.832853e+00	3.497032e+00
1.270000e-06	7.086087e-07	2.047007e-10	7.589362e+00	1.258785e+01
1.280000e-06	7.791323e-07	3.436569e-10	8.344687e+00	2.172266e+01
1.290000e-06	8.495188e-07	4.803366e-10	9.098542e+00	3.085772e+01
1.300000e-06	9.197909e-07	6.165180e-10	9.851173e+00	3.994894e+01
1.310000e-06	9.899032e-07	7.543288e-10	1.060209e+01	4.895297e+01
1.320000e-06	1.059819e-06	8.920641e-10	1.135090e+01	5.782813e+01
1.330000e-06	1.129536e-06	1.027464e-09	1.209760e+01	6.653541e+01
1.340000e-06	1.199008e-06	1.158889e-09	1.284165e+01	7.503923e+01
1.350000e-06	1.268267e-06	1.286727e-09	1.358343e+01	8.330818e+01
1.360000e-06	1.337335e-06	1.409821e-09	1.432317e+01	9.131548e+01
1.370000e-06	1.406171e-06	1.525904e-09	1.506042e+01	9.903939e+01
1.380000e-06	1.474719e-06	1.634600e-09	1.579458e+01	1.064633e+02
1.390000e-06	1.543025e-06	1.737854e-09	1.652615e+01	1.135759e+02
1.400000e-06	1.611158e-06	1.838931e-09	1.725588e+01	1.203706e+02
1.410000e-06	1.679062e-06	1.936936e-09	1.798315e+01	1.268459e+02
1.420000e-06	1.746747e-06	2.027671e-09	1.870806e+01	1.330041e+02
1.430000e-06	1.814194e-06	2.112655e-09	1.943044e+01	1.388517e+02
1.440000e-06	1.881370e-06	2.196118e-09	2.014991e+01	1.443980e+02
1.450000e-06	1.948252e-06	2.279353e-09	2.086623e+01	1.496550e+02
1.460000e-06	2.014710e-06	2.357534e-09	2.157801e+01	1.546365e+02
1.470000e-06	2.080688e-06	2.428314e-09	2.228464e+01	1.593576e+02
1.480000e-06	2.146132e-06	2.495891e-09	2.298557e+01	1.638343e+02
1.490000e-06	2.210994e-06	2.561251e-09	2.368026e+01	1.680826e+02
1.500000e-06	2.275374e-06	2.622967e-09	2.436978e+01	1.721186e+02
1.510000e-06	2.339389e-06	2.678944e-09	2.505540e+01	1.759575e+02
1.520000e-06	2.403102e-06	2.730693e-09	2.573778e+01	1.796140e+02
1.530000e-06	2.466464e-06	2.782257e-09	2.641640e+01	1.831018e+02
1.540000e-06	2.529431e-06	2.832447e-09	2.709079e+01	1.864335e+02
1.550000e-06	2.592003e-06	2.879955e-09	2.776095e+01	1.896203e+02
1.560000e-06	2.654199e-06	2.925106e-09	2.842708e+01	1.926727e+02
1.570000e-06	2.715923e-06	2.968393e-09	2.908817e+01	1.955999e+02
1.580000e-06	2.777128e-06	3.010054e-09	2.974368e+01	1.984099e+02
1.590000e-06	2.837855e-06	3.049635e-09	3.039408e+01	2.011101e+02
1.600000e-06	2.898123e-06	3.085706e-09	3.103956e+01	2.037069e+02
1.610000e-06	2.958005e-06	3.118894e-09	3.168092e+01	2.062060e+02
1.620000e-06	3.017469e-06	3.152901e-09	3.231779e+01	2.086125e+02
1.630000e-06	3.076376e-06	3.187289e-09	3.294869e+01	2.109308e+02
1.640000e-06	3.134601e-06	3.219972e-09	3.357230e+01	2.131650e+02
1.650000e-06	3.191998e-06	3.251024e-09	3.418703e+01	2.153187e+02
1.660000e-06	3.248536e-06	3.280988e-09	3.479257e+01	2.173953e+02
1.670000e-06	3.304499e-06	3.309857e-09	3.539194e+01	2.193975e+02
1.680000e-06	3.360052e-06	3.338653e-09	3.598693e+01	2.213283e+02
1.690000e-06	3.415096e-06	3.366925e-09	3.657646e+01	2.231900e+02
1.700000e-06	3.469569e-06	3.392661e-09	3.715988e+01	2.249851e+02
1.710000e-06	3.523465e-06	3.416747e-09	3.773712e+01	2.267157e+02
1.720000e-06	3.576785e-06	3.441478e-09	3.830819e+01	2.283839e+02
1.730000e-06	3.629532e-06	3.466591e-09	3.887313e+01	2.299920e+02
1.740000e-06	3.681679e-06	3.489686e-09	3.943162e+01	2.315420e+02
1.750000e-06	3.733074e-06	3.510933e-09	3.998208e+01	2.330359e+02
1.760000e-06	3.783523e-06	3.531752e-09	4.052240e+01	2.344760e+02
1.770000e-06	3.832947e-06	3.552593e-09	4.105174e+01	2.358644e+02
1.780000e-06	3.881517e-06	3.571663e-09	4.157194e+01	2.372034e+02
1.790000e-06	3.929450e-06	3.590338e-09	4.208532e+01	2.384954e+02
1.800000e-06	3.976735e-06	3.609428e-09	4.259174e+01	2.397426e+02
1.810000e-06	4.023328e-06	3.627815e-09	4.309077e+01	2.409474e+02
1.820000e-06	4.069291e-06	3.647067e-09	4.358304e+01	2.421120e+02
1.830000e-06	4.114577e-06	3.666529e-09	4.406806e+01	2.432386e+02
1.840000e-06	4.159170e-06	3.683761e-09	4.454566e+01	2.443292e+02
1.850000e-06	4.203197e-06	3.700476e-09	4.501720e+01	2.453856e+02
1.860000e-06	4.246676e-06	3.717634e-09	4.548288e+01	2.464095e+02
1.870000e-06	4.289365e-06	3.734485e-09	4.594008e+01	2.474021e+02
1.880000e-06	4.330930e-06	3.751063e-09	4.638526e+01	2.483645e+02
1.890000e-06	4.371459e-06	3.765766e-09	4.681933e+01	2.492976e+02
1.900000e-06	4.411211e-06	3.780036e-09	4.724509e+01	2.502019e+02
1.910000e-06	4.450289e-06	3.794397e-09	4.766362e+01	2.510779e+02
1.920000e-06	4.488695e-06	3.807184e-09	4.807495e+01	2.519256e+02
1.930000e-06	4.526389e-06	3.818804e-09	4.847867e+01	2.527452e+02
1.940000e-06	4.563323e-06	3.830831e-09	4.887424e+01	2.535367e+02
1.950000e-06	4.599514e-06	3.843542e-09	4.926186e+01	2.543001e+02
1.960000e-06	4.635029e-06	3.855991e-09	4.964223e+01	2.550355e+02
1.970000e-06	4.669734e-06	3.868826e-09	5.001392e+01	2.557431e+02
1.980000e-06	4.703369e-06	3.881485e-09	5.037417e+01	2.564232e+02
1.990000e-06	4.735904e-06	3.892562e-09	5.072262e+01	2.570762e+02
2.000000e-06	4.767623e-06	3.903951e-09	5.106234e+01	2.577027e+02
2.010000e-06	4.798682e-06	3.914219e-09	5.139499e+01	2.583034e+02
2.020000e-06	4.828961e-06	3.923459e-09	5.171928e+01	2.588791e+02
2.030000e-06	4.858378e-06	3.932912e-09	5.203435e+01	2.594307e+02
2.040000e-06	4.886993e-06	3.942294e-09	5.234082e+01	2.599590e+02
2.050000e-06	4.914890e-06	3.952495e-09	5.263960e+01	2.604649e+02
2.060000e-06	4.942041e-06	3.961031e-09	5.293040e+01	2.609491e+02
2.070000e-06	4.968190e-06	3.967921e-09	5.321046e+01	2.614122e+02
2.080000e-06	4.993186e-06	3.973849e-09	5.347818e+01	2.618546e+02
2.090000e-06	5.017212e-06	3.980839e-09	5.373550e+01	2.622768e+02
2.100000e-06	5.040406e-06	3.989230e-09	5.398391e+01	2.626788e+02
2.110000e-06	5.062734e-06	3.996722e-09	5.422304e+01	2.630607e+02
2.120000e-06	5.084209e-06	4.003117e-09	5.445305e+01	2.634224e+02
2.130000e-06	5.104897e-06	4.007219e-09	5.467463e+01	2.637640e+02
2.140000e-06	5.124864e-06	4.010993e-09	5.488848e+01	2.640853e+02
2.150000e-06	5.144161e-06	4.015706e-09	5.509515e+01	2.643865e+02
2.160000e-06	5.162615e-06	4.020511e-09	5.529280e+01	2.646678e+02
2.170000e-06	5.180058e-06	4.023973e-09	5.547961e+01	2.649296e+02
2.180000e-06	5.196616e-06	4.027019e-09	5.565696e+01	2.651728e+02
2.190000e-06	5.212257e-06	4.031439e-09	5.582448e+01	2.653981e+02
2.200000e-06	5.226824e-06	4.036558e-09	5.598049e+01	2.656068e+02
2.210000e-06	5.240424e-06	4.041125e-09	5.612614e+01	2.658003e+02
2.220000e-06	5.253081e-06	4.042863e-09	5.626171e+01	2.659800e+02
2.230000e-06	5.264782e-06	4.044269e-09	5.638703e+01	2.661475e+02
2.240000e-06	5.275385e-06	4.048645e-09	5.650059e+01	2.663043e+02
2.250000e-06	5.284674e-06	4.053414e-09	5.660008e+01	2.664516e+02
2.260000e-06	5.292802e-06	4.055200e-09	5.668713e+01	2.665906e+02
2.270000e-06	5.300070e-06	4.056495e-09	5.676497e+01	2.667219e+02
2.280000e-06	5.306496e-06	4.060563e-09	5.683380e+01	2.668459e+02
2.290000e-06	5.311960e-06	4.065149e-09	5.689231e+01	2.669622e+02
2.300000e-06	5.316491e-06	4.066990e-09	5.694085e+01	2.670703e+02
2.310000e-06	5.320300e-06	4.067577e-09	5.698164e+01	2.671689e+02
2.320000e-06	5.323336e-06	4.069565e-09	5.701415e+01	2.672565e+02
2.330000e-06	5.325210e-06	4.072967e-09	5.703422e+01	2.673313e+02
2.340000e-06	5.325889e-06	4.076570e-09	5.704150e+01	2.673911e+02
2.350000e-06	5.325650e-06	4.077075e-09	5.703894e+01	2.674339e+02
2.360000e-06	5.324607e-06	4.074813e-09	5.702776e+01	2.674578e+02
2.370000e-06	5.322731e-06	4.070631e-09	5.700767e+01	2.674611e+02
2.380000e-06	5.320018e-06	4.067968e-09	5.697861e+01	2.674427e+02
2.390000e-06	5.316488e-06	4.068257e-09	5.694081e+01	2.674019e+02
2.400000e-06	5.312255e-06	4.069243e-09	5.689548e+01	2.673389e+02
2.410000e-06	5.307286e-06	4.069969e-09	5.684225e+01	2.672545e+02
2.420000e-06	5.301261e-06	4.082483e-09	5.677773e+01	2.671503e+02
2.430000e-06	5.294062e-06	4.080026e-09	5.670062e+01	2.670284e+02
2.440000e-06	5.285915e-06	4.005907e-09	5.661337e+01	2.668918e+02
2.450000e-06	5.276648e-06	3.938784e-09	5.651411e+01	2.667436e+02
2.460000e-06	5.265978e-06	3.991744e-09	5.639984e+01	2.665874e+02
2.470000e-06	5.254345e-06	4.170904e-09	5.627525e+01	2.664264e+02
2.480000e-06	5.242469e-06	4.176685e-09	5.614805e+01	2.662640e+02
2.490000e-06	5.230078e-06	3.970030e-09	5.601534e+01	2.661028e+02
2.500000e-06	5.216034e-06	3.984607e-09	5.586492e+01	2.659447e+02
2.510000e-06	5.200518e-06	4.074215e-09	5.569874e+01	2.657909e+02
2.520000e-06	5.184560e-06	4.068974e-09	5.552784e+01	2.656414e+02
2.530000e-06	5.167876e-06	4.179392e-09	5.534914e+01	2.654951e+02
2.540000e-06	5.149941e-06	4.072081e-09	5.515706e+01	2.653499e+02
2.550000e-06	5.131316e-06	3.834853e-09	5.495758e+01	2.652024e+02
2.560000e-06	5.112260e-06	4.040166e-09	5.475348e+01	2.650484e+02
2.570000e-06	5.092373e-06	4.189472e-09	5.454048e+01	2.648832e+02
2.580000e-06	5.071459e-06	3.936141e-09	5.431650e+01	2.647011e+02
2.590000e-06	5.049314e-06	3.965484e-09	5.407931e+01	2.644966e+02
2.600000e-06	5.025976e-06	4.190846e-09	5.382936e+01	2.642641e+02
2.610000e-06	5.001752e-06	4.089586e-09	5.356992e+01	2.639984e+02
2.620000e-06	4.976641e-06	4.015834e-09	5.330098e+01	2.636951e+02
2.630000e-06	4.950792e-06	4.029096e-09	5.302412e+01	2.633505e+02
2.640000e-06	4.924303e-06	3.993163e-09	5.274042e+01	2.629622e+02
2.650000e-06	4.896914e-06	4.060569e-09	5.244708e+01	2.625289e+02
2.660000e-06	4.868767e-06	4.041259e-09	5.214561e+01	2.620507e+02
2.670000e-06	4.839822e-06	4.017334e-09	5.183561e+01	2.615290e+02
2.680000e-06	4.809511e-06	4.006733e-09	5.151097e+01	2.609662e+02
2.690000e-06	4.777969e-06	3.903157e-09	5.117315e+01	2.603658e+02
2.700000e-06	4.745767e-06	4.036313e-09	5.082826e+01	2.597320e+02
2.710000e-06	4.712811e-06	4.088813e-09	5.047529e+01	2.590695e+02
2.720000e-06	4.678866e-06	3.855249e-09	5.011174e+01	2.583834e+02
2.730000e-06	4.644120e-06	3.882086e-09	4.973960e+01	2.576782e+02
2.740000e-06	4.608751e-06	4.034948e-09	4.936079e+01	2.569585e+02
2.750000e-06	4.572698e-06	3.978616e-09	4.897464e+01	2.562278e+02
2.760000e-06	4.535821e-06	3.856579e-09	4.857969e+01	2.554891e+02
2.770000e-06	4.498076e-06	3.865969e-09	4.817543e+01	2.547441e+02
2.780000e-06	4.459317e-06	3.957213e-09	4.776031e+01	2.539936e+02
2.790000e-06	4.419573e-06	3.895783e-09	4.733465e+01	2.532371e+02
2.800000e-06	4.379165e-06	3.837284e-09	4.690187e+01	2.524733e+02
2.810000e-06	4.338122e-06	3.877480e-09	4.646228e+01	2.516999e+02
2.820000e-06	4.296340e-06	3.853200e-09	4.601479e+01	2.509139e+02
2.830000e-06	4.253810e-06	3.835707e-09	4.555928e+01	2.501120e+02
2.840000e-06	4.210582e-06	3.828216e-09	4.509630e+01	2.492903e+02
2.850000e-06	4.166813e-06	3.818503e-09	4.462753e+01	2.484452e+02
2.860000e-06	4.122556e-06	3.795783e-09	4.415352e+01	2.475734e+02
2.870000e-06	4.077724e-06	3.765446e-09	4.367336e+01	2.466719e+02
2.880000e-06	4.032090e-06	3.795580e-09	4.318462e+01	2.457384e+02
2.890000e-06	3.985591e-06	3.762388e-09	4.268660e+01	2.447712e+02
2.900000e-06	3.938388e-06	3.704523e-09	4.218105e+01	2.437694e+02
2.910000e-06	3.890607e-06	3.723346e-09	4.166930e+01	2.427329e+02
2.920000e-06	3.842162e-06	3.735981e-09	4.115044e+01	2.416620e+02
2.930000e-06	3.792798e-06	3.691153e-09	4.062174e+01	2.405578e+02
2.940000e-06	3.742671e-06	3.631324e-09	4.008486e+01	2.394216e+02
2.950000e-06	3.692013e-06	3.654634e-09	3.954231e+01	2.382546e+02
